Data from hue_40_FLMS001491_5.txt Node
Date: Mon Feb 06 15:07:21 GMT 2017
User: dcchb
Spectrometer: FLMS00149
Trigger mode: 0
Integration Time (sec): 2.000000E-2
Scans to average: 10
Electric dark correction enabled: true
Nonlinearity correction enabled: false
Boxcar width: 0
XAxis mode: Wavelengths
Number of Pixels in Spectrum: 2048
>>>>>Begin Spectral Data<<<<<
341.393	-21.71
341.776	-21.71
342.16	-21.71
342.543	-53.8
342.927	-47.47
343.31	-67.58
343.693	-72.33
344.077	-55.38
344.46	-43.85
344.843	-81.82
345.226	-56.06
345.61	-37.98
345.993	-7.47
346.376	-9.96
346.759	-12.44
347.142	43.83
347.525	38.63
347.908	68.68
348.291	78.85
348.674	97.84
349.057	117.04
349.44	129.47
349.823	141.68
350.206	155.01
350.588	184.84
350.971	203.6
351.354	226.87
351.737	243.82
352.119	241.11
352.502	253.99
352.884	269.36
353.267	300.32
353.65	299.64
354.032	299.41
354.414	284.27
354.797	312.52
355.179	333.08
355.562	333.54
355.944	327.21
356.326	344.38
356.709	336.25
357.091	332.86
357.473	347.77
357.855	343.25
358.238	335.12
358.62	339.64
359.002	325.4
359.384	345.51
359.766	343.25
360.148	334.89
360.53	329.24
360.912	345.51
361.294	348.9
361.676	346.42
362.057	336.47
362.439	330.82
362.821	347.1
363.203	335.34
363.584	323.14
363.966	335.57
364.348	338.06
364.729	320.66
365.111	331.5
365.493	319.07
365.874	317.27
366.256	327.66
366.637	317.94
367.019	319.3
367.4	319.98
367.781	333.31
368.163	315.23
368.544	334.21
368.925	322.01
369.306	327.89
369.688	316.14
370.069	321.56
370.45	304.38
370.831	324.72
371.212	327.21
371.593	310.03
371.974	314.33
372.355	310.94
372.736	308.45
373.117	323.14
373.498	343.25
373.879	306.64
374.26	325.4
374.641	305.51
375.021	310.94
375.402	333.99
375.783	322.01
376.163	338.28
376.544	322.46
376.925	342.58
377.305	331.05
377.686	329.24
378.066	336.02
378.447	330.15
378.827	341.45
379.208	357.72
379.588	339.86
379.968	333.99
380.349	335.12
380.729	326.98
381.109	343.48
381.489	324.95
381.87	337.15
382.25	322.46
382.63	366.3
383.01	340.77
383.39	335.34
383.77	332.86
384.15	325.4
384.53	323.14
384.91	353.87
385.29	355.68
385.67	355.91
386.049	359.98
386.429	357.49
386.809	351.39
387.189	354.1
387.568	369.92
387.948	344.38
388.328	371.05
388.707	351.39
389.087	351.16
389.466	374.89
389.846	356.13
390.225	363.82
390.605	354.33
390.984	351.16
391.363	344.16
391.743	372.86
392.122	345.06
392.501	378.51
392.881	362.24
393.26	389.58
393.639	363.59
394.018	378.28
394.397	364.27
394.776	393.42
395.155	393.42
395.534	401.56
395.913	380.54
396.292	401.33
396.671	388.68
397.05	370.37
397.429	383.03
397.808	389.13
398.186	389.58
398.565	402.46
398.944	396.81
399.323	386.64
399.701	383.7
400.08	388
400.458	399.07
400.837	397.94
401.215	388.68
401.594	384.61
401.972	395.68
402.351	404.5
402.729	406.53
403.107	413.31
403.486	404.95
403.864	401.33
404.242	413.53
404.62	418.05
404.999	421.22
405.377	412.18
405.755	413.53
406.133	421.9
406.511	422.57
406.889	431.84
407.267	407.43
407.645	451.05
408.023	450.14
408.401	443.36
408.779	449.69
409.156	441.1
409.534	452.86
409.912	468
410.29	459.86
410.667	458.5
411.045	465.06
411.422	448.11
411.8	452.63
412.178	469.13
412.555	473.65
412.933	460.31
413.31	480.65
413.687	470.26
414.065	460.31
414.442	456.47
414.819	487.88
415.197	489.01
415.574	485.62
415.951	497.37
416.328	492.18
416.705	528.33
417.082	506.87
417.46	511.38
417.837	519.07
418.214	484.49
418.591	518.84
418.967	493.98
419.344	533.76
419.721	520.88
420.098	504.15
420.475	515.9
420.852	508
421.228	538.05
421.605	530.59
421.982	546.41
422.358	530.82
422.735	555.9
423.111	539.86
423.488	536.92
423.864	530.59
424.241	581.89
424.617	554.32
424.994	555.45
425.37	571.95
425.746	576.69
426.123	573.98
426.499	563.59
426.875	598.84
427.251	583.93
427.627	595.45
428.003	611.95
428.379	613.3
428.756	600.2
429.132	592.96
429.507	615.34
429.883	619.18
430.259	642
430.635	623.92
431.011	644.26
431.387	648.1
431.763	650.82
432.138	653.3
432.514	665.51
432.89	642.68
433.265	645.62
433.641	660.99
434.016	664.38
434.392	669.12
434.767	671.61
435.143	665.96
435.518	697.14
435.894	724.03
436.269	733.3
436.644	722.9
437.02	714.54
437.395	719.29
437.77	728.1
438.145	735.11
438.52	720.87
438.895	722.9
439.271	724.94
439.646	749.8
440.021	749.8
440.395	751.38
440.77	748.89
441.145	774.43
441.52	766.75
441.895	787.08
442.27	798.38
442.645	793.86
443.019	794.09
443.394	797.71
443.769	825.95
444.143	807.87
444.518	812.39
444.892	821.89
445.267	829.57
445.641	842.68
446.016	849.23
446.39	853.75
446.764	836.57
447.139	847.87
447.513	843.35
447.887	864.82
448.262	846.97
448.636	844.26
449.01	862.56
449.384	874.09
449.758	879.74
450.132	876.35
450.506	880.19
450.88	880.64
451.254	884.93
451.628	892.17
452.002	916.35
452.376	926.52
452.75	926.52
453.123	920.87
453.497	937.14
453.871	943.01
454.244	949.11
454.618	963.12
454.992	960.41
455.365	991.82
455.739	1026.63
456.112	998.83
456.486	1018.04
456.859	1020.3
457.232	1062.33
457.606	1059.62
457.979	1061.65
458.352	1074.76
458.725	1087.41
459.099	1107.08
459.472	1088.54
459.845	1104.59
460.218	1104.82
460.591	1133.29
460.964	1121.54
461.337	1179.84
461.71	1154.76
462.083	1197.24
462.456	1169.67
462.829	1196.79
463.201	1214.42
463.574	1228.88
463.947	1261.42
464.32	1299.16
464.692	1274.3
465.065	1306.84
465.438	1326.96
465.81	1335.32
466.183	1362.66
466.555	1396.56
466.928	1400.63
467.3	1386.62
467.672	1396.11
468.045	1466.39
468.417	1473.62
468.789	1458.25
469.161	1493.28
469.534	1526.5
469.906	1548.87
470.278	1591.81
470.65	1579.15
471.022	1615.99
471.394	1648.98
471.766	1628.64
472.138	1670.22
472.51	1728.3
472.882	1768.07
473.253	1762.2
473.625	1825.93
473.997	1893.5
474.369	1880.61
474.74	1896.66
475.112	1955.19
475.484	2014.17
475.855	2043.55
476.227	2090.33
476.598	2124.68
476.97	2194.28
477.341	2261.17
477.713	2257.78
478.084	2309.08
478.455	2378.91
478.827	2402.63
479.198	2488.06
479.569	2529.18
479.94	2597.43
480.311	2661.84
480.682	2738.44
481.053	2856.41
481.424	2884.88
481.795	2942.06
482.166	3003.75
482.537	3063.63
482.908	3176.4
483.279	3237.41
483.65	3309.28
484.021	3391.31
484.391	3472.66
484.762	3583.17
485.133	3571.87
485.503	3723.05
485.874	3814.12
486.244	3925.08
486.615	3999.88
486.985	4065.87
487.356	4152.87
487.726	4219.99
488.097	4383.37
488.467	4469.92
488.837	4519.87
489.207	4619.75
489.578	4741.1
489.948	4843.7
490.318	4932.06
490.688	5019.06
491.058	5141.55
491.428	5245.27
491.798	5329.56
492.168	5493.63
492.538	5612.95
492.908	5628.99
493.278	5817.69
493.648	5800.29
494.017	5962.99
494.387	6042.31
494.757	6148.98
495.126	6281.18
495.496	6380.16
495.866	6438.01
496.235	6521.85
496.605	6645.69
496.974	6768.62
497.344	6865.12
497.713	6898.11
498.082	6999.12
498.452	7167.93
498.821	7162.96
499.19	7254.26
499.559	7385.33
499.928	7455.38
500.298	7496.51
500.667	7637.3
501.036	7701.93
501.405	7873
501.774	7907.57
502.143	8000.45
502.512	8044.75
502.88	8098.3
503.249	8229.6
503.618	8352.31
503.987	8348.24
504.356	8481.57
504.724	8564.28
505.093	8519.08
505.462	8701.23
505.83	8784.39
506.199	8935.12
506.567	9009.24
506.936	9007.88
507.304	9132.4
507.672	9210.37
508.041	9255.11
508.409	9326.97
508.777	9484.03
509.145	9606.06
509.514	9490.13
509.882	9665.49
510.25	9653.52
510.618	9741.88
510.986	9859.39
511.354	10011.25
511.722	10019.16
512.09	10143.22
512.458	10100.06
512.826	10295.53
513.193	10348.41
513.561	10389.54
513.929	10420.73
514.297	10565.58
514.664	10673.6
515.032	10665.02
515.4	10825.01
515.767	10826.59
516.135	10889.42
516.502	10909.53
516.869	11006.25
517.237	11060.49
517.604	11128.51
517.972	11267.49
518.339	11290.76
518.706	11308.39
519.073	11429.52
519.44	11503.86
519.808	11577.53
520.175	11619.34
520.542	11822.05
520.909	11820.24
521.276	11805.55
521.643	11941.37
522.009	12009.39
522.376	12147.01
522.743	12217.07
523.11	12248.7
523.477	12379.1
523.843	12500
524.21	12561.46
524.577	12686.43
524.943	12637.85
525.31	12777.5
525.676	12907.67
526.043	12935.01
526.409	13011.62
526.776	13173.65
527.142	13211.84
527.508	13277.83
527.874	13387.2
528.241	13486.41
528.607	13534.77
528.973	13575.9
529.339	13598.5
529.705	13843.46
530.071	13931.82
530.437	13898.38
530.803	14022.89
531.169	14138.37
531.535	14072.84
531.901	14091.59
532.267	14289.1
532.632	14308.08
532.998	14445.48
533.364	14409.78
533.73	14480.06
534.095	14606.61
534.461	14649.77
534.826	14750.33
535.192	14779.71
535.557	14889.31
535.923	14920.27
536.288	15037.78
536.653	15095.18
537.019	15106.93
537.384	15191.68
537.749	15198.91
538.114	15236.2
538.479	15317.55
538.845	15334.95
539.21	15355.29
539.575	15459.24
539.94	15560.48
540.305	15661.95
540.67	15689.52
541.034	15696.97
541.399	15743.53
541.764	15798.89
542.129	15797.54
542.494	15981.71
542.858	15995.72
543.223	15974.93
543.587	16198.66
543.952	16177.41
544.316	16231.65
544.681	16133.8
545.045	16365.43
545.41	16491.76
545.774	16515.26
546.138	16556.16
546.503	16552.32
546.867	16590.51
547.231	16765.65
547.595	16793.67
547.959	16867.11
548.324	16823.95
548.688	16878.19
549.052	16977.39
549.416	17034.11
549.779	17024.4
550.143	17059.42
550.507	17259.87
550.871	17233.43
551.235	17327.44
551.599	17518.4
551.962	17489.92
552.326	17611.5
552.689	17660.09
553.053	17552.29
553.417	17612.63
553.78	17884.04
554.143	17780.99
554.507	17884.49
554.87	17881.55
555.234	18097.59
555.597	17935.11
555.96	18075.22
556.323	18215.33
556.686	18209
557.05	18359.05
557.413	18358.6
557.776	18470.46
558.139	18503.91
558.502	18570.8
558.865	18605.15
559.228	18624.81
559.59	18645.15
559.953	18797.68
560.316	19009.2
560.679	18980.73
561.041	19018.92
561.404	19192.7
561.767	19292.13
562.129	19203.32
562.492	19463.88
562.854	19405.13
563.217	19455.29
563.579	19517.89
563.941	19613.48
564.304	19810.09
564.666	19818.9
565.028	19848.73
565.39	19807.6
565.753	20056.86
566.115	20048.27
566.477	20127.82
566.839	20228.38
567.201	20267.02
567.563	20417.08
567.925	20429.05
568.287	20434.7
568.648	20573.46
569.01	20715.83
569.372	20844.86
569.734	20712.89
570.095	20849.38
570.457	21095.7
570.819	21120.11
571.18	21083.27
571.542	21201.69
571.903	21207.34
572.265	21372.31
572.626	21514.22
572.987	21539.31
573.349	21564.62
573.71	21697.49
574.071	21857.94
574.432	21878.73
574.794	22079.41
575.155	22142
575.516	22157.37
575.877	22375.22
576.238	22404.14
576.599	22460.19
576.96	22612.27
577.32	22663.34
577.681	22843.68
578.042	22922.77
578.403	23016.1
578.763	23074.41
579.124	23304.68
579.485	23368.41
579.845	23547.62
580.206	23670.78
580.566	23789.64
580.927	23896.31
581.287	24109.18
581.648	24198.22
582.008	24390.08
582.368	24555.5
582.728	24573.58
583.089	24858.09
583.449	24938.99
583.809	25060.12
584.169	25259.66
584.529	25195.48
584.889	25658.07
585.249	25701.01
585.609	25801.34
585.969	26196.59
586.329	26186.42
586.688	26461.66
587.048	26612.85
587.408	26733.75
587.768	26849.68
588.127	27091.48
588.487	27317.91
588.846	27622.76
589.206	27605.36
589.565	27755.41
589.925	28135.74
590.284	28243.76
590.643	28428.16
591.003	28726.01
591.362	28918.55
591.721	29029.73
592.08	29194.25
592.44	29460
592.799	29620.68
593.158	29808.92
593.517	29901.57
593.876	30079.19
594.235	30335.69
594.593	30389.02
594.952	30692.74
595.311	30723.47
595.67	31171.14
596.029	31292.5
596.387	31600.06
596.746	31753.28
597.104	31619.27
597.463	31979.94
597.822	32215.86
598.18	32260.38
598.538	32367.5
598.897	32787.15
599.255	32649.3
599.613	33333.12
599.972	33112.56
600.33	33366.11
600.688	33397.98
601.046	33633.23
601.404	33877.74
601.762	33942.6
602.12	34321.34
602.478	34348.01
602.836	34486.76
603.194	34434.11
603.552	34645.85
603.91	34761.78
604.268	34950.03
604.625	35022.57
604.983	35294.2
605.341	35284.48
605.698	35461.2
606.056	35516.34
606.413	35717.46
606.771	36039.49
607.128	36009.89
607.485	36021.19
607.843	36143.44
608.2	36370.33
608.557	36524.68
608.914	36594.5
609.272	36881.95
609.629	37116.98
609.986	37183.64
610.343	37063.42
610.7	37434.71
611.057	37447.14
611.414	37515.16
611.771	37697.98
612.127	37853.91
612.484	37961.93
612.841	38009.61
613.198	38086.44
613.554	38057.29
613.911	38250.28
614.267	38403.72
614.624	38324.4
614.98	38531.18
615.337	38807.78
615.693	38703.37
616.05	38800.77
616.406	39002.58
616.762	38993.54
617.118	39117.38
617.475	39052.52
617.831	39228.78
618.187	39352.62
618.543	39629.9
618.899	39629.45
619.255	39656.34
619.611	39812.27
619.967	39811.14
620.323	39992.15
620.678	40042.77
621.034	39856.11
621.39	39979.73
621.746	39905.83
622.101	40514.4
622.457	40243.22
622.812	40313.5
623.168	40361.64
623.523	40445.48
623.879	40548.52
624.234	40340.39
624.589	40496.77
624.945	40561.63
625.3	40665.13
625.655	40578.35
626.01	40661.52
626.365	40792.59
626.72	40733.83
627.075	40758.46
627.43	40849.08
627.785	40792.81
628.14	40804.56
628.495	41001.62
628.85	40835.52
629.205	40741.51
629.559	41019.7
629.914	40821.06
630.269	40847.5
630.623	40885.92
630.978	40790.1
631.332	41005.01
631.687	41025.57
632.041	40818.57
632.396	40868.97
632.75	40853.83
633.104	40861.28
633.459	40830.1
633.813	40897.67
634.167	40792.81
634.521	40837.56
634.875	41038.91
635.229	40879.59
635.583	40752.36
635.937	40797.33
636.291	40656.54
636.645	40702.19
636.999	40675.53
637.352	40703.32
637.706	40495.87
638.06	40621.74
638.413	40575.87
638.767	40460.84
639.121	40650.67
639.474	40305.59
639.828	40374.29
640.181	40426.27
640.534	40457.91
640.888	40332.94
641.241	40327.74
641.594	40307.4
641.947	40377.68
642.301	40233.05
642.654	40360.05
643.007	40316.89
643.36	40362.77
643.713	40204.13
644.066	40298.14
644.419	40207.97
644.771	40036
645.124	39599.4
645.477	39638.27
645.83	39370.48
646.182	39197.37
646.535	39127.54
646.888	39114.66
647.24	38899.08
647.593	39240.99
647.945	39059.3
648.298	38993.08
648.65	38924.61
649.002	38881.9
649.355	39072.18
649.707	38827.67
650.059	39093.65
650.411	39504.03
650.763	39422.23
651.115	39874.87
651.467	39693.18
651.819	39726.4
652.171	39542
652.523	39585.61
652.875	39610.92
653.227	39371.15
653.578	39537.93
653.93	39671.71
654.282	39335.22
654.633	39445.5
654.985	39474.43
655.337	39308.56
655.688	39465.16
656.039	39531.83
656.391	39243.02
656.742	39274.89
657.094	39371.83
657.445	39331.38
657.796	39219.29
658.147	39341.32
658.498	39263.59
658.849	39400.08
659.2	39344.04
659.551	39185.17
659.902	39354.43
660.253	39272.85
660.604	39311.49
660.955	38982.69
661.306	39243.25
661.656	39085.06
662.007	39119.86
662.358	39170.03
662.708	39085.96
663.059	39180.2
663.409	38921.9
663.76	39243.02
664.11	39115.12
664.461	39163.93
664.811	39196.92
665.161	39178.16
665.511	39078.51
665.862	39126.19
666.212	39281.44
666.562	39125.06
666.912	39176.13
667.262	39180.88
667.612	39048.22
667.962	39164.61
668.312	39073.31
668.662	39084.61
669.011	39078.28
669.361	38947.44
669.711	38907.44
670.06	38963.71
670.41	38770.72
670.76	38826.54
671.109	38981.79
671.459	38986.08
671.808	38838.06
672.157	38815.24
672.507	38677.16
672.856	38688.69
673.205	38671.74
673.554	38897.04
673.904	38765.52
674.253	38859.3
674.602	38789.02
674.951	38297.74
675.3	37966.67
675.649	38616.37
675.998	38487.79
676.346	38656.14
676.695	38711.06
677.044	38338.41
677.393	38631.06
677.741	38642.13
678.09	38522.59
678.438	38347.68
678.787	38432.2
679.135	38417.96
679.484	38159.43
679.832	38336.6
680.181	38152.2
680.529	38305.87
680.877	38212.77
681.225	38140.9
681.573	38213.44
681.922	38060.23
682.27	37859.1
682.618	37954.47
682.966	37829.27
683.314	37896.62
683.661	37929.38
684.009	37806.45
684.357	37607.58
684.705	37552.9
685.053	37669.05
685.4	37608.49
685.748	37321.49
686.095	37399.45
686.443	37185.45
686.79	37345.9
687.138	37243.75
687.485	37169.63
687.832	36973.7
688.18	37234.49
688.527	36909.07
688.874	36956.98
689.221	36996.53
689.568	36828.85
689.915	36859.13
690.262	36650.55
690.609	36547.5
690.956	36418.24
691.303	36463.21
691.65	36335.3
691.997	36250.33
692.344	36028.64
692.69	36138.47
693.037	36144.8
693.383	35750.23
693.73	35867.52
694.077	35752.49
694.423	35641.76
694.769	35656
695.116	35411.71
695.462	35410.13
695.808	35232.51
696.155	35348.66
696.501	35184.82
696.847	35102.79
697.193	34809.01
697.539	35038.16
697.885	34775.57
698.231	34692.41
698.577	34556.82
698.923	34450.15
699.269	34398.18
699.614	34229.59
699.96	34224.62
700.306	34288.8
700.651	34057.4
700.997	34086.1
701.342	34032.54
701.688	33905.31
702.033	33781.47
702.379	33739.44
702.724	33739.89
703.069	33702.6
703.415	33282.95
703.76	33224.87
704.105	33376.28
704.45	33390.07
704.795	33104.43
705.14	32937.88
705.485	32879.8
705.83	32838.67
706.175	32843.19
706.52	32683.19
706.865	32676.41
707.209	32694.04
707.554	32524.1
707.899	32538.57
708.243	32446.36
708.588	32267.61
708.932	32238.91
709.277	32161.85
709.621	32229.42
709.966	31936.77
710.31	32059.03
710.654	31765.03
710.998	31741.75
711.342	31746.95
711.687	31623.34
712.031	31580.4
712.375	31521.87
712.719	31478.71
713.063	31573.62
713.407	31579.95
713.75	31434.64
714.094	31295.21
714.438	31154.65
714.782	31251.82
715.125	31023.12
715.469	31186.74
715.812	30994.65
716.156	30806.41
716.499	30888.44
716.843	30769.8
717.186	30681.21
717.53	30792.4
717.873	30796.92
718.216	30626.53
718.559	30415.46
718.902	30429.02
719.246	30445.29
719.589	30312.64
719.932	30188.34
720.275	30170.27
720.617	30203.71
720.96	30128.91
721.303	30113.54
721.646	30022.47
721.989	29777.51
722.331	30085.97
722.674	29850.73
723.016	29948.35
723.359	29850.73
723.701	29795.81
724.044	29683.05
724.386	29420.23
724.729	29661.8
725.071	29570.73
725.413	29499.1
725.755	29475.6
726.097	29282.61
726.439	29166.9
726.782	29245.54
727.124	29321.25
727.465	29259.78
727.807	29097.98
728.149	29128.49
728.491	28991.77
728.833	29097.53
729.175	29006.91
729.516	28960.13
729.858	28860.02
730.199	28938.21
730.541	28768.27
730.882	28803.3
731.224	28840.81
731.565	28617.76
731.906	28622.06
732.248	28631.55
732.589	28540.25
732.93	28346.36
733.271	28443.31
733.612	28478.79
733.953	28439.24
734.294	28408.05
734.635	28297.55
734.976	28284.89
735.317	28201.73
735.658	28168.74
735.999	28166.7
736.339	28195.18
736.68	28198.34
737.021	28093.94
737.361	27867.28
737.702	28117.89
738.042	27930.1
738.383	27895.3
738.723	27948.18
739.063	27684.46
739.404	27908.18
739.744	27635.64
740.084	27711.8
740.424	27670.44
740.764	27522.88
741.104	27707.96
741.444	27417.57
741.784	27443.56
742.124	27430.45
742.464	27421.64
742.804	27348.87
743.143	27272.72
743.483	27399.49
743.823	27165.37
744.162	27074.08
744.502	27254.64
744.841	26989.11
745.181	27155.2
745.52	27104.36
745.86	27186.39
746.199	27044.7
746.538	26960.63
746.877	27043.34
747.216	26947.98
747.556	26894.65
747.895	26824.82
748.234	26711.15
748.573	26683.58
748.911	26713.41
749.25	26525.39
749.589	26434.77
749.928	26492.17
750.267	26640.19
750.605	26420.76
750.944	26382.79
751.283	26367.88
751.621	26273.65
751.96	26052.63
752.298	26179.86
752.636	26157.49
752.975	26069.36
753.313	25910.72
753.651	26076.59
753.989	25896.48
754.327	25884.5
754.666	25770.83
755.004	25780.78
755.342	25783.26
755.679	25696.71
756.017	25556.15
756.355	25523.38
756.693	25558.86
757.031	25502.14
757.368	25291.52
757.706	25294.91
758.044	25232.54
758.381	25282.71
758.719	25109.38
759.056	25174.01
759.394	25126.1
759.731	25010.63
760.068	24842.04
760.405	24716.4
760.743	24590.53
761.08	24745.32
761.417	24682.73
761.754	24615.61
762.091	24486.12
762.428	24461.04
762.765	24244.09
763.102	24404.99
763.438	24213.36
763.775	24073.25
764.112	24066.47
764.449	24107.37
764.785	24056.53
765.122	23765.01
765.458	23749.42
765.795	23719.14
766.131	23655.86
766.467	23611.57
766.804	23450.22
767.14	23348.98
767.476	23396.88
767.812	23312.37
768.148	23296.1
768.485	23088.87
768.821	23086.38
769.157	22991.02
769.492	22850.46
769.828	22849.1
770.164	22694.76
770.5	22623.12
770.836	22553.29
771.171	22468.77
771.507	22494.54
771.842	22419.28
772.178	22303.35
772.513	22302.45
772.849	22110.36
773.184	22087.99
773.519	21991.27
773.855	21909.69
774.19	21888
774.525	21732.52
774.86	21736.14
775.195	21645.29
775.53	21567.55
775.865	21416.82
776.2	21324.4
776.535	21186.1
776.87	21047.57
777.205	21096.61
777.539	20960.34
777.874	21004.86
778.209	20810.29
778.543	20805.99
778.878	20702.27
779.212	20668.37
779.547	20512.67
779.881	20518.54
780.215	20411.2
780.55	20502.95
780.884	20287.81
781.218	20250.07
781.552	20205.56
781.886	20136.41
782.22	20068.38
782.554	19890.76
782.888	19835.17
783.222	19782.06
783.556	19578.45
783.889	19522.41
784.223	19455.97
784.557	19487.16
784.89	19500.94
785.224	19396.54
785.557	19258.24
785.891	19252.81
786.224	19154.74
786.558	19156.77
786.891	18871.13
787.224	18948.19
787.557	18886.49
787.891	18874.97
788.224	18801.75
788.557	18872.71
788.89	18688.53
789.223	18646.5
789.556	18537.58
789.888	18501.65
790.221	18375.55
790.554	18212.84
790.887	18218.04
791.219	18233.4
791.552	18097.59
791.884	18017.82
792.217	17948.89
792.549	17933.07
792.882	17893.75
793.214	17836.13
793.546	17784.6
793.879	17775.79
794.211	17615.34
794.543	17693.76
794.875	17569.02
795.207	17524.5
795.539	17440.66
795.871	17393.43
796.203	17336.93
796.535	17189.14
796.867	17212.19
797.198	17150.27
797.53	17135.81
797.862	16991.18
798.193	17112.3
798.525	16963.16
798.856	16876.15
799.188	16714.8
799.519	16684.74
799.85	16601.81
800.182	16628.7
800.513	16607.46
800.844	16461.93
801.175	16530.85
801.506	16433.9
801.837	16296.28
802.168	16373.34
802.499	16321.59
802.83	16187.81
803.161	16164.53
803.491	16093.8
803.822	16110.75
804.153	16023.29
804.483	15962.73
804.814	15795.95
805.145	15908.04
805.475	15927.48
805.805	15754.83
806.136	15745.11
806.466	15804.77
806.796	15593.02
807.126	15574.94
807.457	15550.76
807.787	15456.08
808.117	15407.04
808.447	15424.21
808.777	15482.29
809.107	15425.57
809.436	15344.22
809.766	15300.83
810.096	15179.93
810.426	15133.37
810.755	15205.24
811.085	15091.11
811.414	15121.4
811.744	14957.11
812.073	14992.59
812.403	14996.88
812.732	14826.94
813.061	14868.07
813.39	14829.43
813.719	14748.98
814.049	14798.92
814.378	14696.55
814.707	14617.68
815.036	14605.48
815.365	14550.56
815.693	14482.09
816.022	14530.9
816.351	14428.31
816.68	14307.63
817.008	14393.73
817.337	14263.11
817.665	14202.55
817.994	14225.15
818.322	14234.19
818.651	14177.24
818.979	14196.9
819.307	14239.39
819.636	14146.51
819.964	14042.78
820.292	14132.04
820.62	13992.84
820.948	13985.15
821.276	14064.93
821.604	13949.22
821.932	14090.46
822.259	14072.61
822.587	13951.94
822.915	14016.11
823.243	13931.14
823.57	13901.99
823.898	13940.64
824.225	13918.72
824.553	13911.03
824.88	13873.07
825.207	13926.63
825.535	13862.9
825.862	13928.43
826.189	13869
826.516	13977.92
826.843	14050.92
827.17	13878.27
827.497	13992.39
827.824	13987.19
828.151	13922.33
828.478	13862.22
828.805	13951.26
829.131	13838.49
829.458	13876.91
829.785	13788.78
830.111	13899.73
830.438	13975.44
830.764	13883.01
831.09	13935.66
831.417	13834.65
831.743	13901.32
832.069	13857.7
832.395	13838.72
832.722	13835.55
833.048	13785.84
833.374	13770.02
833.7	13804.82
834.026	13726.86
834.351	13831.94
834.677	13698.38
835.003	13822.67
835.329	13728.44
835.654	13715.56
835.98	13667.42
836.306	13644.82
836.631	13600.98
836.956	13647.08
837.282	13657.93
837.607	13564.6
837.932	13542.23
838.258	13536.35
838.583	13507.43
838.908	13422.01
839.233	13468.56
839.558	13452.97
839.883	13368.67
840.208	13322.35
840.533	13397.37
840.858	13259.98
841.182	13266.08
841.507	13265.4
841.832	13229.92
842.156	13199.86
842.481	13199.41
842.805	13174.1
843.13	13121
843.454	13128
843.778	13098.85
844.103	13013.2
844.427	12937.72
844.751	13028.8
845.075	12956.71
845.399	12921.91
845.723	12827.67
846.047	12862.7
846.371	12752.87
846.695	12740.44
847.019	12667.45
847.343	12501.8
847.666	12536.83
847.99	12425.87
848.313	12396.95
848.637	12312.2
848.96	12420.45
849.284	12354.01
849.607	12125.09
849.931	12177.29
850.254	12176.39
850.577	12021.59
850.9	11960.35
851.223	11993.79
851.546	11952.89
851.869	11921.71
852.192	11921.71
852.515	11843.06
852.838	11819.11
853.161	11714.71
853.483	11666.8
853.806	11668.61
854.129	11635.16
854.451	11581.15
854.774	11521.04
855.096	11451.89
855.419	11476.97
855.741	11445.33
856.063	11325.56
856.385	11318.78
856.708	11334.15
857.03	11266.36
857.352	11262.29
857.674	11159.24
857.996	11275.4
858.318	11122.18
858.64	11189.07
858.961	11072.69
859.283	11064.1
859.605	11011
859.926	11029.98
860.248	10963.09
860.57	10996.98
860.891	10921.96
861.212	10932.81
861.534	10876.99
861.855	10851.23
862.176	10834.5
862.498	10853.03
862.819	10808.29
863.14	10840.38
863.461	10741.62
863.782	10704.11
864.103	10711.79
864.424	10622.76
864.745	10615.98
865.065	10576.66
865.386	10578.46
865.707	10605.58
866.027	10574.17
866.348	10516.32
866.668	10475.42
866.989	10518.58
867.309	10388.41
867.63	10460.95
867.95	10456.43
868.27	10398.58
868.59	10416.44
868.91	10440.84
869.23	10403.78
869.55	10269.32
869.87	10403.55
870.19	10214.63
870.51	10276.33
870.83	10316.55
871.15	10232.49
871.469	10241.75
871.789	10297.79
872.109	10268.42
872.428	10187.51
872.748	10231.36
873.067	10196.78
873.386	10185.93
873.706	10151.81
874.025	10068.2
874.344	10106.16
874.663	10071.36
874.982	10065.71
875.301	10027.29
875.62	10021.42
875.939	10004.69
876.258	10030.46
876.577	9925.15
876.896	9955.43
877.214	9945.49
877.533	9921.08
877.852	9872.72
878.17	9938.71
878.489	9868.65
878.807	9888.99
879.125	9862.33
879.444	9952.04
879.762	9796.56
880.08	9844.7
880.398	9753.4
880.716	9853.51
881.034	9735.78
881.352	9664.36
881.67	9723.35
881.988	9681.99
882.306	9695.1
882.624	9625.95
882.941	9641.09
883.259	9576.01
883.577	9522.67
883.894	9559.73
884.212	9495.56
884.529	9471.15
884.846	9542.11
885.164	9441.32
885.481	9433.18
885.798	9481.09
886.115	9372.62
886.432	9396.35
886.75	9386.86
887.067	9378.95
887.383	9343.92
887.7	9363.58
888.017	9221.21
888.334	9243.81
888.651	9191.83
888.967	9252.4
889.284	9163.36
889.6	9101.67
889.917	9062.8
890.233	9090.37
890.55	9070.48
890.866	9022.35
891.182	9037.71
891.498	9029.13
891.815	8973.99
892.131	8983.48
892.447	8940.09
892.763	8900.77
893.079	8852.41
893.395	8813.77
893.71	8894.22
894.026	8828.91
894.342	8741.22
894.657	8686.76
894.973	8665.29
895.289	8717.95
895.604	8684.73
895.92	8575.35
896.235	8545.07
896.55	8609.93
896.865	8529.93
897.181	8463.94
897.496	8510.72
897.811	8439.09
898.126	8435.02
898.441	8360.9
898.756	8391.86
899.071	8390.95
899.386	8365.19
899.7	8301.46
900.015	8222.82
900.33	8181.01
900.644	8130.39
900.959	8178.98
901.273	8120
901.588	8065.54
901.902	8065.99
902.216	8037.74
902.531	8045.42
902.845	7966.56
903.159	8021.02
903.473	7905.77
903.787	7880.46
904.101	7831.19
904.415	7806.79
904.729	7853.11
905.042	7720.69
905.356	7778.76
905.67	7768.37
905.984	7720.91
906.297	7672.1
906.611	7612.22
906.924	7661.48
907.237	7574.02
907.551	7596.62
907.864	7496.51
908.177	7493.8
908.491	7509.84
908.804	7384.42
909.117	7422.39
909.43	7365.67
909.743	7329.74
910.056	7278.66
910.368	7287.7
910.681	7264.43
910.994	7217.65
911.307	7167.48
911.619	7146.46
911.932	7122.96
912.244	7033.25
912.557	7117.54
912.869	7065.56
913.181	7030.08
913.494	7020.37
913.806	6966.58
914.118	6956.41
914.43	6875.29
914.742	6891.78
915.054	6826.02
915.366	6826.7
915.678	6785.12
915.99	6749.86
916.302	6702.41
916.613	6687.04
916.925	6696.98
917.236	6675.97
917.548	6594.61
917.859	6682.97
918.171	6533.83
918.482	6525.69
918.794	6517.33
919.105	6493.15
919.416	6411.79
919.727	6451.12
920.038	6405.02
920.349	6382.42
920.66	6318.69
920.971	6335.41
921.282	6304.23
921.593	6275.53
921.903	6217.22
922.214	6208.18
922.525	6197.11
922.835	6170.67
923.146	6130.67
923.456	6110.33
923.767	6101.75
924.077	6052.71
924.387	6002.09
924.697	6060.62
925.008	5963.22
925.318	5985.37
925.628	5931.13
925.938	6033.05
926.248	5926.38
926.558	5815.88
926.867	5835.09
927.177	5809.78
927.487	5778.14
927.796	5652.04
928.106	5783.56
928.416	5712.38
928.725	5699.72
929.034	5637.8
929.344	5687.07
929.653	5618.14
929.962	5607.07
930.271	5566.62
930.581	5511.25
930.89	5503.12
931.199	5492.27
931.508	5492.95
931.817	5461.31
932.125	5474.87
932.434	5446.17
932.743	5352.61
933.051	5336.79
933.36	5354.65
933.669	5286.4
933.977	5285.95
934.286	5297.47
934.594	5267.87
934.902	5197.82
935.21	5214.76
935.519	5192.62
935.827	5182.22
936.135	5148.1
936.443	5030.36
936.751	5076.24
937.059	5119.4
937.367	5030.81
937.674	5076.69
937.982	5034.88
938.29	5012.28
938.597	5041.21
938.905	4936.35
939.213	4911.5
939.52	4887.54
939.827	4871.72
940.135	4874.43
940.442	4900.65
940.749	4850.03
941.056	4820.65
941.363	4771.16
941.67	4741.33
941.977	4758.05
942.284	4737.94
942.591	4699.52
942.898	4673.31
943.205	4641.9
943.511	4635.8
943.818	4668.79
944.125	4568.23
944.431	4589.47
944.738	4572.75
945.044	4537.95
945.35	4511.96
945.657	4484.61
945.963	4470.6
946.269	4468.34
946.575	4463.37
946.881	4394.22
947.187	4422.69
947.493	4379.31
947.799	4417.72
948.105	4337.05
948.41	4300.44
948.716	4377.72
949.022	4288.69
949.327	4247.56
949.633	4260.66
949.938	4213.21
950.244	4297.05
950.549	4243.72
950.854	4180.89
951.16	4178.86
951.465	4166.66
951.77	4174.11
952.075	4063.61
952.38	4070.16
952.685	4075.13
952.99	4047.34
953.294	4058.86
953.599	4049.82
953.904	3981.58
954.209	3978.86
954.513	4007.79
954.818	3946.1
955.122	3966.89
955.426	3928.02
955.731	3910.17
956.035	3873.56
956.339	3845.53
956.643	3888.47
956.948	3856.61
957.252	3785.2
957.556	3820.45
957.86	3808.7
958.163	3782.49
958.467	3769.15
958.771	3702.71
959.075	3744.07
959.378	3712.66
959.682	3651.64
959.985	3646.67
960.289	3677.86
960.592	3631.08
960.896	3643.96
961.199	3633.11
961.502	3593.56
961.805	3591.76
962.108	3543.85
962.411	3532.55
962.714	3556.5
963.017	3508.14
963.32	3489.39
963.623	3476.05
963.926	3489.16
964.228	3463.4
964.531	3423.85
964.833	3457.75
965.136	3380.24
965.438	3387.47
965.741	3385.89
966.043	3347.47
966.345	3405.77
966.648	3334.59
966.95	3328.03
967.252	3308.37
967.554	3303.63
967.856	3273.8
968.158	3226.79
968.46	3203.07
968.761	3265.44
969.063	3270.63
969.365	3255.72
969.666	3249.84
969.968	3175.04
970.269	3159
970.571	3172.56
970.872	3159.22
971.174	3128.04
971.475	3091.43
971.776	3110.19
972.077	3093.69
972.378	3068.15
972.679	3095.5
972.98	3055.27
973.281	3046.69
973.582	3015.27
973.883	3014.6
974.183	2983.86
974.484	2995.84
974.785	2956.74
975.085	2926.01
975.386	2952.68
975.686	2924.43
975.986	2927.37
976.287	2921.04
976.587	2913.36
976.887	2859.35
977.187	2867.03
977.487	2859.35
977.787	2822.96
978.087	2819.35
978.387	2793.13
978.687	2806.01
978.987	2754.72
979.286	2791.32
979.586	2769.86
979.885	2741.61
980.185	2766.47
980.484	2729.18
980.784	2743.19
981.083	2692.57
981.382	2710.65
981.682	2696.64
981.981	2672.01
982.28	2657.09
982.579	2654.15
982.878	2681.27
983.177	2624.55
983.475	2582.97
983.774	2570.77
984.073	2608.73
984.372	2581.16
984.67	2596.98
984.969	2576.64
985.267	2568.96
985.566	2541.61
985.864	2531.22
986.162	2493.25
986.461	2504.55
986.759	2484.67
987.057	2473.37
987.355	2472.24
987.653	2444.67
987.951	2454.84
988.249	2439.47
988.547	2422.97
988.844	2405.35
989.142	2386.59
989.44	2385.46
989.737	2364.9
990.035	2373.26
990.332	2370.55
990.63	2368.96
990.927	2372.13
991.224	2325.12
991.521	2336.87
991.819	2307.04
992.116	2325.35
992.413	2282.41
992.71	2269.76
993.006	2293.94
993.303	2245.58
993.6	2228.4
993.897	2225.46
994.193	2243.54
994.49	2228.4
994.787	2200.61
995.083	2166.93
995.379	2187.5
995.676	2176.88
995.972	2177.78
996.268	2168.97
996.565	2152.25
996.861	2161.06
997.157	2105.92
997.453	2106.6
997.749	2095.3
998.044	2054.4
998.34	2066.6
998.636	2072.25
998.932	2068.18
999.227	2029.31
999.523	2058.24
999.818	2007.16
1000.114	2024.79
1000.409	2018.46
1000.704	2025.24
1001	2003.77
1001.295	1955.87
1001.59	1973.72
1001.885	1980.05
1002.18	1965.13
1002.475	1914.74
1002.77	1931.91
1003.065	1903.66
1003.359	1914.74
1003.654	1906.38
1003.949	1922.42
1004.243	1860.73
1004.538	1871.8
1004.832	1875.64
1005.127	1858.24
1005.421	1822.31
1005.715	1806.04
1006.009	1816.66
1006.304	1837
1006.598	1771.46
1006.892	1791.35
1007.186	1765.59
1007.48	1763.1
1007.773	1774.4
1008.067	1750.67
1008.361	1689.43
1008.655	1719.71
1008.948	1699.38
1009.242	1720.17
1009.535	1695.53
1009.829	1653.05
1010.122	1671.35
1010.415	1653.73
1010.708	1676.33
1011.001	1652.82
1011.295	1633.39
1011.588	1650.56
1011.881	1638.36
1012.173	1597.46
1012.466	1600.62
1012.759	1582.32
1013.052	1573.73
1013.344	1585.25
1013.637	1571.7
1013.93	1560.62
1014.222	1557.91
1014.514	1586.61
1014.807	1537.35
1015.099	1526.05
1015.391	1507.29
1015.683	1533.73
1015.976	1537.57
1016.268	1495.09
1016.56	1480.85
1016.851	1508.19
1017.143	1457.57
1017.435	1444.69
1017.727	1434.75
1018.018	1420.74
1018.31	1416.22
1018.602	1409.21
1018.893	1446.28
1019.185	1405.82
1019.476	1412.83
1019.767	1402.66
1020.058	1384.81
1020.35	1384.13
1020.641	1366.28
1020.932	1359.72
1021.223	1333.28
1021.514	1330.12
1021.804	1334.19
1022.095	1305.49
1022.386	1318.37
1022.677	1310.01
1022.967	1310.01
1023.258	1263.91
1023.548	1272.49
1023.839	1266.62
1024.129	1270.91
1024.419	1272.72
1024.709	1247.64
1025	1238.37
1025.29	1217.58
1025.58	1201.99
1025.87	1214.64
1026.16	1185.94
1026.449	1191.37
1026.739	1182.78
1027.029	1190.01
1027.319	1192.27
1027.608	1166.06
1027.898	1136.45
1028.187	1142.1
1028.477	1131.71
1028.766	1092.61
1029.055	1142.1
1029.344	1101.2
1029.634	1132.16
1029.923	1103.46
1030.212	1102.1
1030.501	1079.28
1030.79	1077.47
1031.078	1100.3
1031.367	1048.77
1031.656	1069.11
1031.945	1062.33
1032.233	1037.7
1032.522	1044.7
1032.81	1027.76
1033.099	1051.71
1033.387	1004.48
1033.675	1034.76
1033.963	1011.26
1034.251	996.57
1034.54	1019.85
1034.828	973.75
1035.116	980.07
1035.403	1019.85
1035.691	978.94
1035.979	968.55
1036.267	955.44
1036.554	960.19
1036.842	963.8
1037.129	932.39
1037.417	956.57
1037.704	928.78
1037.992	925.61
1038.279	914.54
1038.566	936.91
1038.853	936.91
1039.14	936.91
