Data from hue_38_FLMS001491_00079.txt Node
Date: Tue Feb 07 17:31:58 GMT 2017
User: dcchb
Spectrometer: FLMS00149
Trigger mode: 0
Integration Time (sec): 2.000000E-2
Scans to average: 10
Electric dark correction enabled: true
Nonlinearity correction enabled: false
Boxcar width: 0
XAxis mode: Wavelengths
Number of Pixels in Spectrum: 2048
>>>>>Begin Spectral Data<<<<<
341.393	-14.18
341.776	-14.18
342.16	-14.18
342.543	-52.15
342.927	-68.87
343.31	-64.57
343.693	-78.81
344.077	-81.98
344.46	-52.37
344.843	-58.47
345.226	-36.78
345.61	-17.8
345.993	-27.06
346.376	7.29
346.759	10.45
347.142	17.23
347.525	31.92
347.908	71.24
348.291	78.7
348.674	85.7
349.057	115.31
349.44	128.87
349.823	129.54
350.206	163.89
350.588	192.59
350.971	202.31
351.354	243.89
351.737	239.82
352.119	248.41
352.502	243.44
352.884	291.8
353.267	279.6
353.65	293.61
354.032	303.33
354.414	314.17
354.797	322.76
355.179	339.03
355.562	330.22
355.944	342.65
356.326	348.97
356.709	360.05
357.091	365.92
357.473	344
357.855	349.2
358.238	341.06
358.62	346.71
359.002	348.3
359.384	348.75
359.766	361.85
360.148	350.78
360.53	345.13
360.912	354.62
361.294	335.64
361.676	339.26
362.057	337
362.439	318.24
362.821	331.8
363.203	329.54
363.584	317.56
363.966	337.22
364.348	333.83
364.729	321.18
365.111	336.54
365.493	313.72
365.874	316.21
366.256	318.47
366.637	318.01
367.019	320.27
367.4	320.27
367.781	309.43
368.163	326.38
368.544	317.79
368.925	336.54
369.306	326.6
369.688	316.43
370.069	309.43
370.45	327.96
370.831	329.54
371.212	317.34
371.593	303.33
371.974	307.85
372.355	302.65
372.736	312.82
373.117	327.51
373.498	331.35
373.879	304.23
374.26	313.04
374.641	315.75
375.021	316.88
375.402	316.66
375.783	315.75
376.163	338.8
376.544	334.06
376.925	325.92
377.305	330.22
377.686	343.55
378.066	329.31
378.447	334.74
378.827	325.25
379.208	345.58
379.588	336.77
379.968	335.41
380.349	340.16
380.729	337.22
381.109	355.98
381.489	325.92
381.87	340.84
382.25	363.66
382.63	341.97
383.01	325.92
383.39	336.54
383.77	339.71
384.15	358.24
384.53	344.91
384.91	345.36
385.29	343.1
385.67	347.39
386.049	359.14
386.429	326.83
386.809	345.58
387.189	355.75
387.568	372.25
387.948	371.57
388.328	375.64
388.707	356.88
389.087	369.99
389.466	351.23
389.846	358.47
390.225	360.95
390.605	356.88
390.984	366.6
391.363	368.63
391.743	372.25
392.122	370.89
392.501	382.87
392.881	366.6
393.26	377
393.639	391.46
394.018	376.09
394.397	368.86
394.776	376.32
395.155	384.45
395.534	377.9
395.913	370.22
396.292	392.36
396.671	412.48
397.05	402.08
397.429	393.27
397.808	398.92
398.186	408.18
398.565	384.45
398.944	400.05
399.323	431.46
399.701	395.75
400.08	411.12
400.458	426.26
400.837	385.58
401.215	392.81
401.594	416.77
401.972	425.58
402.351	399.37
402.729	407.96
403.107	414.06
403.486	429.88
403.864	431.91
404.242	429.88
404.62	424
404.999	418.12
405.377	419.03
405.755	405.7
406.133	422.42
406.511	426.26
406.889	418.12
407.267	436.2
407.645	420.84
408.023	436.88
408.401	448.41
408.779	454.73
409.156	463.32
409.534	456.09
409.912	469.87
410.29	452.47
410.667	456.09
411.045	470.1
411.422	490.44
411.8	471.91
412.178	449.54
412.555	474.85
412.933	468.52
413.31	485.92
413.687	482.53
414.065	475.52
414.442	483.66
414.819	483.43
415.197	512.59
415.574	490.44
415.951	507.84
416.328	514.39
416.705	496.09
417.082	496.09
417.46	512.13
417.837	518.23
418.214	506.71
418.591	522.75
418.967	513.26
419.344	527.5
419.721	526.82
420.098	528.63
420.475	531.57
420.852	528.4
421.228	540.16
421.605	548.74
421.982	543.55
422.358	542.87
422.735	558.91
423.111	541.74
423.488	567.95
423.864	551.23
424.241	554.84
424.617	576.54
424.994	584
425.37	569.31
425.746	578.35
426.123	586.48
426.499	574.5
426.875	599.36
427.251	588.74
427.627	613.15
428.003	609.98
428.379	624.45
428.756	609.08
429.132	625.12
429.507	614.73
429.883	617.67
430.259	614.73
430.635	623.99
431.011	625.58
431.387	647.5
431.763	643.2
432.138	656.08
432.514	659.25
432.89	654.73
433.265	689.3
433.641	688.63
434.016	670.55
434.392	672.58
434.767	693.82
435.143	690.21
435.518	718.91
435.894	688.4
436.269	715.07
436.644	720.72
437.02	731.56
437.395	713.71
437.77	711
438.145	736.99
438.52	756.42
438.895	754.84
439.271	745.8
439.646	760.71
440.021	760.26
440.395	773.37
440.77	754.16
441.145	765.69
441.52	776.99
441.895	812.46
442.27	796.65
442.645	782.63
443.019	806.36
443.394	799.13
443.769	790.09
444.143	790.32
444.518	804.78
444.892	821.5
445.267	827.61
445.641	839.13
446.016	844.33
446.39	830.54
446.764	854.27
447.139	837.77
447.513	859.24
447.887	857.89
448.262	857.66
448.636	866.7
449.01	874.61
449.384	896.53
449.758	882.97
450.132	893.37
450.506	889.07
450.88	893.14
451.254	898.11
451.628	927.04
452.002	933.37
452.376	927.04
452.75	924.78
453.123	927.94
453.497	933.37
453.871	967.04
454.244	954.61
454.618	979.47
454.992	1008.84
455.365	993.48
455.739	1015.17
456.112	1008.62
456.486	1047.03
456.859	1047.71
457.232	1072.8
457.606	1070.08
457.979	1085.9
458.352	1074.83
458.725	1077.09
459.099	1092.91
459.472	1111.89
459.845	1125.22
460.218	1098.56
460.591	1153.25
460.964	1149.63
461.337	1190.31
461.71	1200.25
462.083	1200.48
462.456	1226.92
462.829	1198.44
463.201	1228.5
463.574	1240.48
463.947	1246.35
464.32	1282.73
464.692	1296.75
465.065	1291.55
465.438	1349.85
465.81	1348.04
466.183	1338.78
466.555	1391.66
466.928	1378.55
467.3	1402.51
467.672	1437.53
468.045	1452.67
468.417	1440.02
468.789	1456.74
469.161	1513.91
469.534	1542.39
469.906	1548.72
470.278	1569.28
470.65	1562.28
471.022	1640.01
471.394	1682.5
471.766	1679.79
472.138	1710.52
472.51	1768.82
472.882	1760.01
473.253	1795.49
473.625	1860.8
473.997	1857.63
474.369	1891.98
474.74	1930.85
475.112	1979.21
475.484	2023.28
475.855	2057.86
476.227	2110.06
476.598	2192.77
476.97	2205.65
477.341	2259.43
477.713	2285.65
478.084	2350.28
478.455	2455.13
478.827	2453.1
479.198	2515.02
479.569	2522.48
479.94	2666.43
480.311	2699.42
480.682	2769.48
481.053	2859.19
481.424	2897.83
481.795	3010.6
482.166	3070.94
482.537	3130.82
482.908	3183.02
483.279	3248.56
483.65	3367.2
484.021	3468.67
484.391	3540.3
484.762	3582.11
485.133	3663.91
485.503	3745.04
485.874	3857.13
486.244	3946.85
486.615	4058.93
486.985	4147.29
487.356	4279.27
487.726	4374.4
488.097	4472.48
488.467	4499.6
488.837	4628.18
489.207	4740.72
489.578	4842.64
489.948	4962.19
490.318	5067.95
490.688	5133.48
491.058	5202.63
491.428	5387.71
491.798	5469.97
492.168	5595.62
492.538	5668.61
492.908	5821.82
493.278	5927.36
493.648	5997.86
494.017	6070.86
494.387	6166
494.757	6319.44
495.126	6465.65
495.496	6479.43
495.866	6596.72
496.235	6712.2
496.605	6789.93
496.974	6847.33
497.344	7025.41
497.713	7069.02
498.082	7158.51
498.452	7221.34
498.821	7367.55
499.19	7396.7
499.559	7566.41
499.928	7612.06
500.298	7735.45
500.667	7810.02
501.036	7872.39
501.405	8002.33
501.774	8022.44
502.143	8124.36
502.512	8219.28
502.88	8329.33
503.249	8373.17
503.618	8471.7
503.987	8539.04
504.356	8680.05
504.724	8682.54
505.093	8783.55
505.462	8877.34
505.83	8934.06
506.199	9066.03
506.567	9184
506.936	9132.47
507.304	9303.99
507.672	9361.62
508.041	9382.18
508.409	9522.52
508.777	9611.33
509.145	9702.63
509.514	9754.38
509.882	9811.1
510.25	9828.05
510.618	9965.22
510.986	10005.44
511.354	10176.06
511.722	10192.78
512.09	10307.81
512.458	10325.89
512.826	10415.6
513.193	10483.17
513.561	10555.26
513.929	10602.72
514.297	10683.84
514.664	10814.69
515.032	10752.09
515.4	10943.05
515.767	10983.5
516.135	11034.79
516.502	11014.46
516.869	11261.23
517.237	11249.7
517.604	11273.21
517.972	11369.02
518.339	11429.81
518.706	11505.74
519.073	11531.28
519.44	11625.29
519.808	11752.52
520.175	11791.61
520.542	11880.87
520.909	11966.52
521.276	11945.73
521.643	12058.95
522.009	12122.45
522.376	12291.48
522.743	12319.51
523.11	12394.31
523.477	12507.75
523.843	12534.87
524.21	12657.35
524.577	12788.19
524.943	12808.76
525.31	12927.63
525.676	13027.96
526.043	13126.04
526.409	13140.05
526.776	13371
527.142	13327.39
527.508	13406.26
527.874	13487.39
528.241	13574.16
528.607	13601.51
528.973	13766.02
529.339	13699.36
529.705	13952.46
530.071	14052.79
530.437	14110.19
530.803	14133.02
531.169	14285.78
531.535	14171.44
531.901	14299.34
532.267	14327.59
532.632	14477.42
532.998	14478.55
533.364	14589.28
533.73	14650.52
534.095	14734.36
534.461	14772.32
534.826	14878.99
535.192	14955.14
535.557	15021.81
535.923	15084.86
536.288	15178.64
536.653	15250.95
537.019	15126.44
537.384	15298.41
537.749	15296.38
538.114	15382.25
538.479	15385.19
538.845	15501.12
539.21	15425.19
539.575	15572.53
539.94	15644.62
540.305	15826.08
540.67	15746.76
541.034	15771.39
541.399	15842.13
541.764	15905.4
542.129	16069.01
542.494	16053.65
542.858	16179.07
543.223	16188.11
543.587	16293.64
543.952	16257.26
544.316	16344.94
544.681	16407.53
545.045	16434.2
545.41	16638.04
545.774	16695.21
546.138	16636.68
546.503	16737.02
546.867	16652.05
547.231	16883
547.595	16907.18
547.959	16942.44
548.324	16969.78
548.688	17007.52
549.052	17114.63
549.416	17137.68
549.779	17138.81
550.143	17249.32
550.507	17357.11
550.871	17381.29
551.235	17352.37
551.599	17532.93
551.962	17446.15
552.326	17624.68
552.689	17653.15
553.053	17660.16
553.417	17697.22
553.78	17976.53
554.143	17995.29
554.507	18040.03
554.87	18028.06
555.234	18184.66
555.597	18184.44
555.96	18153.7
556.323	18351.44
556.686	18244.32
557.05	18544.43
557.413	18480.02
557.776	18526.58
558.139	18623.97
558.502	18728.15
558.865	18757.08
559.228	18857.19
559.59	18934.02
559.953	18898.54
560.316	19060.8
560.679	19131.98
561.041	19267.8
561.404	19273.67
561.767	19372.65
562.129	19258.76
562.492	19541.69
562.854	19480.9
563.217	19494.46
563.579	19555.25
563.941	19699.2
564.304	19864.62
564.666	19910.49
565.028	19881.57
565.39	19996.37
565.753	20130.6
566.115	20180.09
566.477	20301.22
566.839	20395.68
567.201	20446.3
567.563	20460.99
567.925	20670.02
568.287	20702.34
568.648	20740.98
569.01	20750.02
569.372	20959.73
569.734	20893.07
570.095	21126.96
570.457	21268.88
570.819	21223.91
571.18	21239.72
571.542	21364.69
571.903	21475.88
572.265	21499.38
572.626	21607.4
572.987	21712.03
573.349	21798.81
573.71	21876.32
574.071	21956.09
574.432	22041.51
574.794	22245.35
575.155	22354.5
575.516	22243.09
575.877	22479.69
576.238	22595.17
576.599	22660.7
576.96	22842.62
577.32	22805.33
577.681	23062.5
578.042	23359.67
578.403	23358.31
578.763	23480.8
579.124	23504.52
579.485	23693.22
579.845	23848.47
580.206	23955.13
580.566	24161
580.927	24359.19
581.287	24499.3
581.648	24601.67
582.008	24772.06
582.368	24887.76
582.728	25169.11
583.089	25141.99
583.449	25356.9
583.809	25514.41
584.169	25786.05
584.529	25880.28
584.889	26277.11
585.249	26275.3
585.609	26384.22
585.969	26716.42
586.329	26844.55
586.688	27087.25
587.048	27248.61
587.408	27396.17
587.768	27633.23
588.127	27842.71
588.487	27918.19
588.846	28385.52
589.206	28372.42
589.565	28662.58
589.925	28844.5
590.284	29045.17
590.643	29375.56
591.003	29567.64
591.362	29750.01
591.721	29859.84
592.08	30174.86
592.44	30399.03
592.799	30739.14
593.158	30659.59
593.517	31049.86
593.876	31231.55
594.235	31309.97
594.593	31604.65
594.952	31866.34
595.311	31946.34
595.67	32172.54
596.029	32523.95
596.387	32836.93
596.746	33018.85
597.104	33061.11
597.463	33179.07
597.822	33582.9
598.18	33454.09
598.538	33675.56
598.897	34013.85
599.255	33920.07
599.613	34673.5
599.972	34562.76
600.33	34757.79
600.688	34859.7
601.046	35089.76
601.404	35417.66
601.762	35364.1
602.12	35738.55
602.478	35900.13
602.836	36040.69
603.194	35992.1
603.552	36264.41
603.91	36329.27
604.268	36568.59
604.625	36641.8
604.983	36972.19
605.341	36980.1
605.698	37192.07
606.056	37315.23
606.413	37357.72
606.771	37599.07
607.128	37709.57
607.485	37697.37
607.843	37774.88
608.2	38124.7
608.557	38381.65
608.914	38327.41
609.272	38461.19
609.629	38637.46
609.986	38937.34
610.343	38860.5
610.7	39130.1
611.057	39252.13
611.414	39274.28
611.771	39399.7
612.127	39660.03
612.484	39631.33
612.841	40016.63
613.198	39933.92
613.554	40068.16
613.911	40373.91
614.267	40271.99
614.624	40444.19
614.98	40609.61
615.337	40713.11
615.693	40704.75
616.05	40868.59
616.406	41099.77
616.762	40949.49
617.118	40980.67
617.475	41152.19
617.831	41317.39
618.187	41378.86
618.543	41364.62
618.899	41772.97
619.255	41674.89
619.611	41705.63
619.967	41858.84
620.323	41866.75
620.678	41873.08
621.034	41862.23
621.39	42011.61
621.746	41952.85
622.101	42443.46
622.457	42114.43
622.812	42211.83
623.168	42432.16
623.523	42513.29
623.879	42561.42
624.234	42298.15
624.589	42611.82
624.945	42560.97
625.3	42760.74
625.655	42700.63
626.01	42671.25
626.365	42799.16
626.72	42712.38
627.075	42776.11
627.43	42736.56
627.785	42845.71
628.14	42914.18
628.495	42873.96
628.85	42923.67
629.205	42853.17
629.559	43029.89
629.914	42911.7
630.269	42976.55
630.623	42872.38
630.978	42808.2
631.332	42964.35
631.687	43072.82
632.041	42940.4
632.396	43011.58
632.75	42921.64
633.104	42963.9
633.459	42749.67
633.813	42859.27
634.167	42825.37
634.521	42816.33
634.875	42993.5
635.229	42868.53
635.583	42727.75
635.937	42764.58
636.291	42729.1
636.645	42784.02
636.999	42639.61
637.352	42841.19
637.706	42569.78
638.06	42774.75
638.413	42831.47
638.767	42479.62
639.121	42714.19
639.474	42440.07
639.828	42453.18
640.181	42472.61
640.534	42533.63
640.888	42410.01
641.241	42309.45
641.594	42438.94
641.947	42573.4
642.301	42397.59
642.654	42418.6
643.007	42524.59
643.36	42341.32
643.713	42373.18
644.066	42411.6
644.419	42332.05
644.771	41954.66
645.124	41676.93
645.477	41555.8
645.83	41483.94
646.182	41254.56
646.535	41080.56
646.888	41261.57
647.24	41034.68
647.593	41194.91
647.945	41063.84
648.298	40937.51
648.65	40846.44
649.002	40796.05
649.355	41052.08
649.707	40929.6
650.059	41165.75
650.411	41500.21
650.763	41563.94
651.115	41897.26
651.467	41823.14
651.819	41873.53
652.171	41758.96
652.523	41798.05
652.875	41769.35
653.227	41565.52
653.578	41885.96
653.93	41768
654.282	41573.65
654.633	41436.48
654.985	41605.29
655.337	41501.56
655.688	41627.89
656.039	41718.96
656.391	41442.36
656.742	41466.99
657.094	41429.02
657.445	41636.7
657.796	41464.05
658.147	41460.21
658.498	41376.6
658.849	41488.68
659.2	41436.26
659.551	41272.42
659.902	41459.98
660.253	41447.55
660.604	41450.72
660.955	41084.4
661.306	41470.15
661.656	41245.75
662.007	41124.17
662.358	41237.84
662.708	41115.13
663.059	41245.53
663.409	41074.23
663.76	41337.27
664.11	41367.78
664.461	41315.35
664.811	41247.33
665.161	41161.69
665.511	41138.86
665.862	41211.4
666.212	41274
666.562	41366.65
666.912	41253.89
667.262	41326.43
667.612	41200.78
667.962	41232.64
668.312	41215.24
668.662	41302.7
669.011	41287.33
669.361	41151.06
669.711	41085.76
670.06	41135.47
670.41	41033.78
670.76	40960.79
671.109	41170.73
671.459	40978.87
671.808	40869.04
672.157	40950.39
672.507	40799.21
672.856	40871.98
673.205	40846.44
673.554	41060.22
673.904	40930.51
674.253	41044.63
674.602	40821.81
674.951	40387.47
675.3	40265.44
675.649	40891.86
675.998	40717.4
676.346	40749.27
676.695	40867
677.044	40533.91
677.393	40617.97
677.741	40722.38
678.09	40700
678.438	40545.43
678.787	40582.72
679.135	40507.47
679.484	40350.41
679.832	40627.69
680.181	40263.86
680.529	40529.16
680.877	40365.32
681.225	40105.22
681.573	40525.09
681.922	40120.58
682.27	40051.88
682.618	40088.95
682.966	40002.39
683.314	40163.29
683.661	39874.04
684.009	39771.21
684.357	39775.06
684.705	39731.22
685.053	39761.72
685.4	39678.79
685.748	39476.98
686.095	39555.17
686.443	39281.96
686.79	39299.59
687.138	39382.07
687.485	39491.45
687.832	39248.97
688.18	39271.34
688.527	39122.19
688.874	39021.18
689.221	38820.96
689.568	38723.56
689.915	38769.43
690.262	38792.03
690.609	38574.86
690.956	38528.31
691.303	38449.67
691.65	38426.62
691.997	38398.82
692.344	38207.19
692.69	38113.18
693.037	38211.71
693.383	37813.75
693.73	37944.6
694.077	37627.32
694.423	37639.29
694.769	37658.5
695.116	37425.97
695.462	37568.11
695.808	37320.88
696.155	37518.84
696.501	37163.15
696.847	37113.2
697.193	36923.61
697.539	36901.91
697.885	36638.42
698.231	36621.24
698.577	36703.27
698.923	36540.11
699.269	36323.4
699.614	36080.01
699.96	36313.68
700.306	36134.25
700.651	36061.71
700.997	35966.57
701.342	35909.39
701.688	35865.55
702.033	35887.25
702.379	35752.56
702.724	35671.43
703.069	35642.96
703.415	35261.28
703.76	35303.54
704.105	35289.3
704.45	35124.56
704.795	35050.21
705.14	34900.16
705.485	34918.46
705.83	34789.42
706.175	34645.02
706.52	34673.04
706.865	34594.18
707.209	34580.16
707.554	34376.78
707.899	34496.32
708.243	34333.62
708.588	34240.74
708.932	34134.3
709.277	34151.25
709.621	34101.31
709.966	33873.74
710.31	33873.97
710.654	33647.08
710.998	33597.14
711.342	33732.28
711.687	33560.3
712.031	33413.42
712.375	33351.5
712.719	33541.1
713.063	33348.56
713.407	33303.81
713.75	33180.2
714.094	33164.61
714.438	33009.13
714.782	32961.45
715.125	32877.38
715.469	32991.73
715.812	32857.05
716.156	32601.01
716.499	32585.19
716.843	32715.13
717.186	32386.1
717.53	32606.66
717.873	32540.67
718.216	32455.93
718.559	32398.53
718.902	32077.41
719.246	32113.34
719.589	32054.81
719.932	31886.22
720.275	32080.57
720.617	32024.07
720.96	31983.4
721.303	31816.62
721.646	31734.14
721.989	31646
722.331	31783.85
722.674	31620.47
723.016	31595.16
723.359	31572.79
723.701	31644.87
724.044	31506.12
724.386	31330.53
724.729	31293.7
725.071	31414.37
725.413	31100.03
725.755	31330.76
726.097	31069.97
726.439	30907.49
726.782	30997.43
727.124	31193.36
727.465	30889.87
727.807	30850.32
728.149	30827.95
728.491	30850.09
728.833	30770.09
729.175	30674.5
729.516	30753.6
729.858	30566.03
730.199	30523.55
730.541	30585.92
730.882	30527.39
731.224	30537.33
731.565	30393.61
731.906	30455.07
732.248	30258.47
732.589	30202.88
732.93	30098.02
733.271	30156.33
733.612	30169.43
733.953	30169.43
734.294	30098.25
734.635	29964.24
734.976	30032.04
735.317	29965.37
735.658	29864.13
735.999	29805.15
736.339	29729.9
736.68	29893.96
737.021	29687.86
737.361	29721.31
737.702	29876.11
738.042	29708.43
738.383	29567.64
738.723	29587.08
739.063	29492.16
739.404	29662.33
739.744	29437.7
740.084	29430.02
740.424	29297.14
740.764	29302.11
741.104	29436.34
741.444	29171.49
741.784	29197.93
742.124	29222.56
742.464	29057.6
742.804	29134.43
743.143	28965.62
743.483	28972.18
743.823	28859.64
744.162	28758.85
744.502	28955.23
744.841	28760.2
745.181	28806.98
745.52	28786.64
745.86	28690.6
746.199	28650.6
746.538	28628.46
746.877	28603.6
747.216	28646.53
747.556	28586.88
747.895	28539.65
748.234	28368.35
748.573	28258.97
748.911	28197.51
749.25	28330.61
749.589	28169.03
749.928	28293.32
750.267	28259.65
750.605	28072.99
750.944	28051.07
751.283	27941.69
751.621	27985.31
751.96	27857.86
752.298	27766.33
752.636	27797.29
752.975	27657.41
753.313	27713.9
753.651	27704.86
753.989	27649.72
754.327	27585.77
754.666	27432.78
755.004	27362.27
755.342	27453.8
755.679	27446.57
756.017	27187.59
756.355	27208.15
756.693	27221.49
757.031	27270.07
757.368	26965.45
757.706	26893.13
758.044	26858.11
758.381	26900.82
758.719	26821.95
759.056	26895.39
759.394	26773.59
759.731	26539.25
760.068	26502.18
760.405	26333.83
760.743	26459.7
761.08	26374.5
761.417	26180.39
761.754	26143.55
762.091	26144.23
762.428	25953.95
762.765	25923.67
763.102	25989.43
763.438	25745.37
763.775	25644.58
764.112	25702.66
764.449	25648.65
764.785	25538.14
765.122	25433.51
765.458	25307.41
765.795	25212.73
766.131	25176.34
766.467	25137.93
766.804	25129.79
767.14	24944.03
767.476	24964.15
767.812	24818.16
768.148	24644.15
768.485	24699.52
768.821	24554.89
769.157	24422.92
769.492	24486.64
769.828	24410.04
770.164	24163.04
770.5	24148.57
770.836	24176.14
771.171	23937.05
771.507	23938.86
771.842	23669.26
772.178	23661.81
772.513	23627.91
772.849	23582.04
773.184	23498.42
773.519	23469.95
773.855	23326.22
774.19	23208.03
774.525	23115.15
774.86	23067.92
775.195	23094.14
775.53	22940.02
775.865	22833.81
776.2	22761.94
776.535	22543.64
776.87	22613.93
777.205	22461.39
777.539	22409.18
777.874	22453.48
778.209	22234.05
778.543	22183.2
778.878	22097.33
779.212	22095.75
779.547	21940.04
779.881	21973.49
780.215	21854.62
780.55	21860.72
780.884	21817.79
781.218	21671.58
781.552	21647.85
781.886	21564.91
782.22	21347.29
782.554	21248.09
782.888	21264.58
783.222	21131.48
783.556	20986.85
783.889	21005.38
784.223	20757.48
784.557	20750.02
784.89	20813.52
785.224	20622.11
785.557	20622.11
785.891	20569.69
786.224	20500.08
786.558	20380.76
786.891	20299.86
787.224	20202.24
787.557	20132.86
787.891	20054.67
788.224	20002.24
788.557	20056.25
788.89	19933.32
789.223	19966.54
789.556	19860.78
789.888	19709.37
790.221	19681.35
790.554	19471.63
790.887	19471.41
791.219	19450.84
791.552	19355.03
791.884	19290.17
792.217	19164.3
792.549	19081.14
792.882	18914.14
793.214	18968.15
793.546	19033
793.879	18837.75
794.211	18628.95
794.543	18856.28
794.875	18735.84
795.207	18803.18
795.539	18668.49
795.871	18430.76
796.203	18326.81
796.535	18312.12
796.867	18277.54
797.198	18206.58
797.53	18218.11
797.862	18031.9
798.193	18122.52
798.525	17965.01
798.856	18025.57
799.188	17872.35
799.519	17854.73
799.85	17612.93
800.182	17802.75
800.513	17755.3
800.844	17612.7
801.175	17747.61
801.506	17673.26
801.837	17516.21
802.168	17519.14
802.499	17398.47
802.83	17310.34
803.161	17328.19
803.491	17232.37
803.822	17244.35
804.153	17117.12
804.483	17091.36
804.814	16928.2
805.145	16962.32
805.475	16899.73
805.805	16852.27
806.136	16836.45
806.466	16804.59
806.796	16753.74
807.126	16682.33
807.457	16717.13
807.787	16671.93
808.117	16561.88
808.447	16462.67
808.777	16432.62
809.107	16376.58
809.436	16367.99
809.766	16398.5
810.096	16289.35
810.426	16213.87
810.755	16271.72
811.085	16202.79
811.414	16172.51
811.744	15923.93
812.073	15987.43
812.403	15925.97
812.732	15962.35
813.061	15902.24
813.39	15914.21
813.719	15787.21
814.049	15824.05
814.378	15742.69
814.707	15548.12
815.036	15625.63
815.365	15572.08
815.693	15439.42
816.022	15497.5
816.351	15367.56
816.68	15354.68
817.008	15375.47
817.337	15203.5
817.665	15223.39
817.994	15316.72
818.322	15246.21
818.651	15129.15
818.979	14979.1
819.307	15249.83
819.636	15104.29
819.964	15024.07
820.292	15066.33
820.62	15002.37
820.948	14937.97
821.276	15029.49
821.604	14943.39
821.932	14930.06
822.259	15007.35
822.587	14973.67
822.915	14951.98
823.243	14947.91
823.57	14864.75
823.898	14899.55
824.225	14881.25
824.553	14895.71
824.88	14876.95
825.207	14892.09
825.535	14832.66
825.862	14920.79
826.189	14853.23
826.516	14996.5
826.843	14909.72
827.17	14986.78
827.497	14860.91
827.824	14896.39
828.151	14924.86
828.478	14894.58
828.805	14941.13
829.131	14885.54
829.458	14917.4
829.785	14792.66
830.111	14813.23
830.438	14908.59
830.764	14794.92
831.09	14840.12
831.417	14738.65
831.743	14893.22
832.069	14794.47
832.395	14669.73
832.722	14774.81
833.048	14778.2
833.374	14723.06
833.7	14651.42
834.026	14694.81
834.351	14603.97
834.677	14656.62
835.003	14744.98
835.329	14718.09
835.654	14672.67
835.98	14563.97
836.306	14651.2
836.631	14511.77
836.956	14557.41
837.282	14522.84
837.607	14440.81
837.932	14444.2
838.258	14400.13
838.583	14399
838.908	14344.99
839.233	14432.45
839.558	14266.8
839.883	14332.11
840.208	14220.02
840.533	14225.9
840.858	14247.59
841.182	14237.42
841.507	14163.3
841.832	14141.15
842.156	14038.33
842.481	14125.33
842.805	14077.43
843.13	14060.25
843.454	13953.36
843.778	13919.92
844.103	13967.15
844.427	13906.36
844.751	13899.13
845.075	13841.5
845.399	13782.29
845.723	13729.86
846.047	13700.49
846.371	13613.71
846.695	13674.73
847.019	13539.59
847.343	13467.95
847.666	13329.42
847.99	13272.25
848.313	13310.89
848.637	13179.37
848.96	13289.65
849.284	13228.18
849.607	13108.19
849.931	13095.98
850.254	12901.86
850.577	12875.65
850.9	12838.59
851.223	12790.91
851.546	12793.17
851.869	12664.81
852.192	12821.64
852.515	12569.67
852.838	12539.39
853.161	12527.41
853.483	12460.52
853.806	12447.41
854.129	12496.68
854.451	12344.14
854.774	12317.25
855.096	12290.81
855.419	12307.53
855.741	12200.19
856.063	12167.87
856.385	12056.46
856.708	12053.98
857.03	12005.16
857.352	12061.43
857.674	11956.8
857.996	11987.54
858.318	11882.23
858.64	11918.39
858.961	11793.19
859.283	11794.77
859.605	11719.97
859.926	11789.58
860.248	11740.54
860.57	11686.08
860.891	11666.19
861.212	11593.2
861.534	11570.83
861.855	11549.81
862.176	11470.04
862.498	11445.41
862.819	11497.83
863.14	11411.96
863.461	11412.19
863.782	11440.66
864.103	11410.15
864.424	11469.36
864.745	11333.77
865.065	11360.89
865.386	11284.28
865.707	11245.64
866.027	11279.99
866.348	11258.52
866.668	11262.81
866.989	11173.32
867.309	11165.19
867.63	11254.22
867.95	11144.4
868.27	11101.01
868.59	11113.21
868.91	11066.88
869.23	11009.94
869.55	10934.01
869.87	11091.06
870.19	11043.38
870.51	10991.86
870.83	10998.19
871.15	10944.63
871.469	10957.96
871.789	11023.04
872.109	10893.1
872.428	10830.51
872.748	10892.65
873.067	10817.63
873.386	10899.43
873.706	10847.45
874.025	10743.5
874.344	10750.51
874.663	10738.08
874.982	10701.47
875.301	10714.13
875.62	10652.21
875.939	10724.29
876.258	10581.02
876.577	10644.3
876.896	10629.38
877.214	10578.08
877.533	10649.95
877.852	10567.91
878.17	10580.57
878.489	10544.64
878.807	10580.8
879.125	10551.42
879.444	10554.13
879.762	10448.6
880.08	10520.68
880.398	10369.5
880.716	10453.79
881.034	10416.28
881.352	10371.31
881.67	10356.62
881.988	10309.16
882.306	10351.87
882.624	10282.5
882.941	10223.52
883.259	10269.17
883.577	10230.75
883.894	10235.95
884.212	10204.99
884.529	10189.62
884.846	10073.24
885.164	10161.15
885.481	10127.02
885.798	10129.51
886.115	10028.27
886.432	10113.91
886.75	10006.57
887.067	9999.57
887.383	9945.56
887.7	9952.79
888.017	9906.46
888.334	9907.82
888.651	9879.8
888.967	9884.32
889.284	9798.44
889.6	9810.65
889.917	9679.35
890.233	9710.31
890.55	9648.62
890.866	9692.01
891.182	9576.98
891.498	9622.18
891.815	9603.19
892.131	9567.49
892.447	9494.04
892.763	9478.68
893.079	9428.28
893.395	9389.87
893.71	9341.96
894.026	9444.33
894.342	9309.19
894.657	9305.8
894.973	9278.23
895.289	9271.23
895.604	9306.93
895.92	9202.3
896.235	9127.73
896.55	9125.01
896.865	9121.17
897.181	9121.85
897.496	9093.15
897.811	9018.8
898.126	8991.68
898.441	8894.29
898.756	8918.69
899.071	8885.02
899.386	8853.16
899.7	8816.55
900.015	8751.24
900.33	8754.63
900.644	8747.4
900.959	8686.83
901.273	8683.67
901.588	8546.5
901.902	8595.99
902.216	8555.54
902.531	8589.66
902.845	8516.67
903.159	8476.22
903.473	8460.85
903.787	8428.76
904.101	8359.38
904.415	8374.98
904.729	8339.27
905.042	8235.55
905.356	8275.32
905.67	8310.8
905.984	8187.64
906.297	8234.19
906.611	8141.54
906.924	8088.66
907.237	8072.39
907.551	8085.95
907.864	8061.77
908.177	8033.97
908.491	8025.16
908.804	7938.6
909.117	7886.85
909.43	7891.83
909.743	7818.16
910.056	7819.51
910.368	7789.46
910.681	7710.59
910.994	7711.94
911.307	7640.76
911.619	7633.98
911.932	7624.94
912.244	7562.8
912.557	7563.02
912.869	7465.85
913.181	7466.3
913.494	7532.97
913.806	7389.47
914.118	7408.9
914.43	7313.99
914.742	7366.19
915.054	7330.26
915.366	7235.12
915.678	7278.06
915.99	7146.99
916.302	7213.2
916.613	7132.07
916.925	7092.98
917.236	7117.16
917.548	7067.22
917.859	7037.84
918.171	7016.14
918.482	6968.46
918.794	6946.31
919.105	6975.69
919.416	6915.81
919.727	6840.78
920.038	6815.24
920.349	6796.26
920.66	6766.21
920.971	6720.56
921.282	6768.69
921.593	6687.79
921.903	6639.2
922.214	6632.2
922.525	6571.86
922.835	6592.88
923.146	6530.05
923.456	6507.23
923.767	6470.85
924.077	6502.03
924.387	6447.8
924.697	6423.62
925.008	6357.4
925.318	6324.41
925.628	6348.82
925.938	6262.04
926.248	6238.99
926.558	6216.84
926.867	6304.3
927.177	6264.75
927.487	6161.02
927.796	6099.78
928.106	6151.99
928.416	6075.83
928.725	6033.12
929.034	6060.69
929.344	6055.04
929.653	5973.68
929.962	5998.77
930.271	5980.24
930.581	5873.12
930.89	5926.91
931.199	5845.33
931.508	5810.07
931.817	5846.91
932.125	5782.73
932.434	5773.01
932.743	5700.92
933.051	5708.61
933.36	5639.91
933.669	5636.52
933.977	5606.91
934.286	5654.15
934.594	5647.82
934.902	5590.42
935.21	5536.18
935.519	5490.99
935.827	5571.21
936.135	5521.95
936.443	5414.6
936.751	5386.36
937.059	5395.17
937.367	5398.33
937.674	5317.66
937.982	5329.18
938.29	5354.94
938.597	5338.9
938.905	5293.93
939.213	5235.85
939.52	5205.12
939.827	5257.55
940.135	5187.72
940.442	5118.11
940.749	5196.08
941.056	5156.53
941.363	5056.87
941.67	5075.18
941.977	5022.98
942.284	5077.66
942.591	5001.51
942.898	4969.87
943.205	4970.55
943.511	4919.93
943.818	4921.06
944.125	4873.37
944.431	4875.18
944.738	4866.6
945.044	4849.87
945.35	4768.52
945.657	4759.93
945.963	4774.17
946.269	4735.98
946.575	4757.45
946.881	4692.36
947.187	4661.18
947.493	4690.78
947.799	4642.87
948.105	4616.43
948.41	4590.22
948.716	4598.35
949.022	4595.87
949.327	4542.54
949.633	4478.58
949.938	4477.9
950.244	4524.23
950.549	4452.14
950.854	4413.73
951.16	4435.42
951.465	4356.55
951.77	4351.35
952.075	4353.16
952.38	4355.87
952.685	4335.76
952.99	4294.41
953.294	4316.33
953.599	4278.14
953.904	4250.79
954.209	4246.27
954.513	4238.14
954.818	4218.48
955.122	4201.53
955.426	4126.05
955.731	4113.85
956.035	4103
956.339	4096.9
956.643	4132.15
956.948	4083.11
957.252	4064.58
957.556	4058.93
957.86	4009.89
958.163	4018.93
958.467	4039.95
958.771	3971.25
959.075	3959.73
959.378	3976.45
959.682	3917.47
959.985	3859.39
960.289	3883.8
960.592	3848.54
960.896	3832.5
961.199	3824.14
961.502	3824.59
961.805	3766.51
962.108	3744.82
962.411	3750.47
962.714	3746.62
963.017	3717.02
963.32	3703.91
963.623	3739.39
963.926	3728.32
964.228	3676.12
964.531	3654.42
964.833	3708.66
965.136	3621.88
965.438	3626.18
965.741	3579.4
966.043	3613.07
966.345	3563.58
966.648	3567.65
966.95	3540.98
967.252	3496.46
967.554	3508.21
967.856	3516.57
968.158	3474.09
968.46	3460.98
968.761	3451.72
969.063	3420.31
969.365	3434.32
969.666	3430.02
969.968	3362
970.269	3352.06
970.571	3378.27
970.872	3377.59
971.174	3347.09
971.475	3288.11
971.776	3322.23
972.077	3298.5
972.378	3277.03
972.679	3222.12
972.98	3239.29
973.281	3237.26
973.582	3222.57
973.883	3204.49
974.183	3208.11
974.484	3167.66
974.785	3176.92
975.085	3178.73
975.386	3160.2
975.686	3113.42
975.986	3092.18
976.287	3111.61
976.587	3059.19
976.887	3060.09
977.187	3029.13
977.487	3010.15
977.787	2994.1
978.087	2982.58
978.387	2968.57
978.687	2973.09
978.987	2969.92
979.286	2931.5
979.586	2938.06
979.885	2897.83
980.185	2898.29
980.484	2863.94
980.784	2848.34
981.083	2881.34
981.382	2852.64
981.682	2864.84
981.981	2790.94
982.28	2824.84
982.579	2841.56
982.878	2782.81
983.177	2796.14
983.475	2797.05
983.774	2765.63
984.073	2725.41
984.372	2731.51
984.67	2736.93
984.969	2727.89
985.267	2696.93
985.566	2705.3
985.864	2689.48
986.162	2682.02
986.461	2643.6
986.759	2603.83
987.057	2606.77
987.355	2636.37
987.653	2577.16
987.951	2632.53
988.249	2594.79
988.547	2584.62
988.844	2550.05
989.142	2556.37
989.44	2511.85
989.737	2535.13
990.035	2529.26
990.332	2548.92
990.63	2479.09
990.927	2489.26
991.224	2484.51
991.521	2449.71
991.819	2451.52
992.116	2441.8
992.413	2411.07
992.71	2425.08
993.006	2369.26
993.303	2385.08
993.6	2416.72
993.897	2350.05
994.193	2375.81
994.49	2312.99
994.787	2298.08
995.083	2306.44
995.379	2310.96
995.676	2300.79
995.972	2301.24
996.268	2265.99
996.565	2286.78
996.861	2270.05
997.157	2244.74
997.453	2241.81
997.749	2218.3
998.044	2186.44
998.34	2193.9
998.636	2192.09
998.932	2171.75
999.227	2173.56
999.523	2148.7
999.818	2138.31
1000.114	2133.33
1000.409	2124.29
1000.704	2103.5
1001	2105.31
1001.295	2090.17
1001.59	2084.97
1001.885	2088.59
1002.18	2025.54
1002.475	2048.82
1002.77	2037.07
1003.065	1985.77
1003.359	2018.31
1003.654	2032.32
1003.949	1987.8
1004.243	1968.82
1004.538	1958.65
1004.832	1948.71
1005.127	1956.84
1005.421	1956.16
1005.715	1922.04
1006.009	1913
1006.304	1911.19
1006.598	1884.53
1006.892	1890.85
1007.186	1853.79
1007.48	1878.2
1007.773	1829.61
1008.067	1862.38
1008.361	1829.39
1008.655	1818.54
1008.948	1813.12
1009.242	1822.16
1009.535	1787.81
1009.829	1793.46
1010.122	1816.51
1010.415	1747.36
1010.708	1752.78
1011.001	1760.24
1011.295	1736.06
1011.588	1708.49
1011.881	1690.41
1012.173	1709.16
1012.466	1708.26
1012.759	1680.92
1013.052	1695.15
1013.344	1649.5
1013.637	1643.63
1013.93	1640.92
1014.222	1603.18
1014.514	1611.09
1014.807	1601.6
1015.099	1609.96
1015.391	1599.79
1015.683	1586.68
1015.976	1566.79
1016.268	1515.5
1016.56	1572.9
1016.851	1553.46
1017.143	1541.48
1017.435	1527.7
1017.727	1508.49
1018.018	1495.84
1018.31	1525.89
1018.602	1497.87
1018.893	1489.73
1019.185	1453.35
1019.476	1462.84
1019.767	1463.29
1020.058	1447.7
1020.35	1422.62
1020.641	1436.85
1020.932	1430.75
1021.223	1376.97
1021.514	1397.76
1021.804	1396.86
1022.095	1416.74
1022.386	1383.52
1022.677	1357.31
1022.967	1348.27
1023.258	1367.25
1023.548	1342.85
1023.839	1344.88
1024.129	1321.6
1024.419	1325.9
1024.709	1292.45
1025	1267.82
1025.29	1286.8
1025.58	1305.78
1025.87	1256.97
1026.16	1262.85
1026.449	1291.77
1026.739	1233.7
1027.029	1234.37
1027.319	1231.21
1027.608	1211.1
1027.898	1206.35
1028.187	1191.66
1028.477	1215.62
1028.766	1189.18
1029.055	1172
1029.344	1176.07
1029.634	1191.21
1029.923	1179.46
1030.212	1131.78
1030.501	1153.7
1030.79	1149.86
1031.078	1119.8
1031.367	1108.5
1031.656	1107.82
1031.945	1128.61
1032.233	1099.91
1032.522	1103.08
1032.81	1095.85
1033.099	1063.53
1033.387	1048.84
1033.675	1061.95
1033.963	1054.27
1034.251	1034.38
1034.54	1021.05
1034.828	1046.58
1035.116	1017.2
1035.403	1026.92
1035.691	1007.94
1035.979	1000.71
1036.267	1003.87
1036.554	1018.56
1036.842	993.7
1037.129	1009.3
1037.417	977.66
1037.704	994.15
1037.992	967.49
1038.279	941.95
1038.566	935.85
1038.853	935.85
1039.14	935.85
