Data from hue_150_FLMS001491_00010.txt Node
Date: Tue Feb 07 16:53:34 GMT 2017
User: dcchb
Spectrometer: FLMS00149
Trigger mode: 0
Integration Time (sec): 2.000000E-2
Scans to average: 10
Electric dark correction enabled: true
Nonlinearity correction enabled: false
Boxcar width: 0
XAxis mode: Wavelengths
Number of Pixels in Spectrum: 2048
>>>>>Begin Spectral Data<<<<<
341.393	-1.92
341.776	-1.92
342.16	-1.92
342.543	-65.87
342.927	-51.86
343.31	-57.74
343.693	-71.75
344.077	-57.06
344.46	-79.21
344.843	-77.17
345.226	-30.39
345.61	-35.82
345.993	-11.86
346.376	-5.99
346.759	11.19
347.142	40.11
347.525	52.99
347.908	45.54
348.291	69.26
348.674	97.96
349.057	109.94
349.44	108.36
349.823	136.61
350.206	173.89
350.588	187.45
350.971	218.64
351.354	235.14
351.737	234.23
352.119	253.67
352.502	267.9
352.884	293.21
353.267	275.81
353.65	291.18
354.032	303.83
354.414	299.09
354.797	320.1
355.179	328.69
355.562	317.39
355.944	335.7
356.326	346.32
356.709	332.53
357.091	352.42
357.473	353.32
357.855	366.88
358.238	345.19
358.62	341.12
359.002	346.77
359.384	325.3
359.766	328.47
360.148	329.37
360.53	328.01
360.912	338.86
361.294	329.82
361.676	336.83
362.057	348.35
362.439	345.64
362.821	316.71
363.203	314.23
363.584	316.04
363.966	327.11
364.348	305.42
364.729	337.73
365.111	324.85
365.493	330.5
365.874	311.74
366.256	323.72
366.637	312.42
367.019	297.96
367.4	311.29
367.781	316.49
368.163	333.21
368.544	307.22
368.925	305.19
369.306	310.61
369.688	312.42
370.069	313.55
370.45	320.56
370.831	316.04
371.212	301.35
371.593	331.63
371.974	311.74
372.355	312.42
372.736	309.03
373.117	309.71
373.498	316.04
373.879	306.77
374.26	305.87
374.641	309.48
375.021	327.34
375.402	328.47
375.783	318.97
376.163	346.77
376.544	323.72
376.925	322.82
377.305	330.5
377.686	334.57
378.066	328.92
378.447	331.63
378.827	327.34
379.208	346.32
379.588	326.88
379.968	352.42
380.349	350.61
380.729	340.67
381.109	319.2
381.489	337.96
381.87	339.54
382.25	321.91
382.63	340.67
383.01	339.77
383.39	360.56
383.77	368.01
384.15	347.67
384.53	345.41
384.91	362.82
385.29	374.57
385.67	346.77
386.049	358.97
386.429	343.83
386.809	354.23
387.189	354.45
387.568	324.4
387.948	360.56
388.328	373.21
388.707	359.2
389.087	363.72
389.466	380.44
389.846	343.61
390.225	375.02
390.605	371.63
390.984	354
391.363	362.82
391.743	351.06
392.122	384.51
392.501	358.75
392.881	381.8
393.26	367.79
393.639	387.22
394.018	365.75
394.397	394.9
394.776	389.71
395.155	393.1
395.534	385.19
395.913	395.13
396.292	396.03
396.671	385.41
397.05	415.92
397.429	407.79
397.808	393.32
398.186	413.44
398.565	397.84
398.944	395.81
399.323	403.72
399.701	387.45
400.08	404.4
400.458	406.66
400.837	410.5
401.215	407.79
401.594	412.31
401.972	387.45
402.351	418.86
402.729	430.84
403.107	425.64
403.486	439.2
403.864	414.34
404.242	429.03
404.62	429.25
404.999	426.99
405.377	434.45
405.755	443.04
406.133	452.76
406.511	457.73
406.889	450.72
407.267	464.51
407.645	450.04
408.023	469.71
408.401	450.27
408.779	455.92
409.156	460.67
409.534	445.07
409.912	462.7
410.29	488.69
410.667	461.8
411.045	485.52
411.422	477.61
411.8	500.89
412.178	498.4
412.555	488.01
412.933	490.04
413.31	504.05
413.687	518.52
414.065	492.98
414.442	485.07
414.819	497.95
415.197	499.08
415.574	490.95
415.951	513.09
416.328	537.05
416.705	534.11
417.082	519.87
417.46	531.17
417.837	543.6
418.214	537.5
418.591	533.88
418.967	563.26
419.344	550.38
419.721	540.44
420.098	532.75
420.475	549.48
420.852	561.91
421.228	563.26
421.605	565.75
421.982	566.65
422.358	559.42
422.735	566.43
423.111	582.47
423.488	574.34
423.864	598.52
424.241	598.74
424.617	582.7
424.994	632.19
425.37	610.72
425.746	583.15
426.123	628.8
426.499	613.43
426.875	609.36
427.251	604.16
427.627	616.37
428.003	649.81
428.379	611.85
428.756	635.58
429.132	663.37
429.507	674.67
429.883	650.49
430.259	654.33
430.635	671.96
431.011	674.67
431.387	693.43
431.763	691.62
432.138	714.67
432.514	699.76
432.89	685.07
433.265	739.3
433.641	696.37
434.016	735.01
434.392	721.22
434.767	749.47
435.143	746.31
435.518	749.25
435.894	760.54
436.269	768.68
436.644	791.05
437.02	791.28
437.395	803.26
437.77	798.28
438.145	806.42
438.52	803.71
438.895	794.67
439.271	797.61
439.646	795.35
440.021	813.42
440.395	836.02
440.77	848.9
441.145	849.13
441.52	856.36
441.895	854.1
442.27	853.2
442.645	848.9
443.019	877.15
443.394	881.9
443.769	870.6
444.143	903.37
444.518	913.31
444.892	889.81
445.267	900.43
445.641	940.43
446.016	905.85
446.39	921.9
446.764	939.3
447.139	928.45
447.513	931.84
447.887	958.96
448.262	960.77
448.636	972.29
449.01	973.87
449.384	971.84
449.758	977.71
450.132	1004.15
450.506	1004.83
450.88	994.21
451.254	1006.64
451.628	1032.63
452.002	1042.35
452.376	1044.15
452.75	1056.58
453.123	1055.68
453.497	1078.28
453.871	1050.03
454.244	1117.15
454.618	1110.82
454.992	1112.17
455.365	1127.77
455.739	1162.12
456.112	1150.59
456.486	1181.32
456.859	1172.74
457.232	1187.88
457.606	1191.72
457.979	1205.05
458.352	1240.76
458.725	1217.26
459.099	1254.09
459.472	1292.51
459.845	1270.81
460.218	1305.62
460.591	1296.8
460.964	1321.21
461.337	1376.57
461.71	1367.08
462.083	1374.31
462.456	1372.73
462.829	1381.32
463.201	1429.45
463.574	1432.62
463.947	1452.96
464.32	1500.19
464.692	1493.18
465.065	1504.48
465.438	1548.32
465.81	1549.9
466.183	1596.23
466.555	1607.3
466.928	1627.87
467.3	1645.49
467.672	1658.15
468.045	1725.49
468.417	1732.5
468.789	1736.34
469.161	1763.91
469.534	1787.64
469.906	1861.98
470.278	1889.1
470.65	1901.76
471.022	1939.72
471.394	1978.82
471.766	1979.04
472.138	2033.28
472.51	2060.85
472.882	2093.17
473.253	2136.1
473.625	2207.29
473.997	2232.6
474.369	2290.67
474.74	2330.67
475.112	2401.18
475.484	2419.03
475.855	2517.79
476.227	2540.16
476.598	2605.02
476.97	2641.4
477.341	2751.23
477.713	2814.05
478.084	2847.5
478.455	2949.64
478.827	2978.34
479.198	3134.04
479.569	3174.04
479.94	3233.93
480.311	3302.63
480.682	3356.18
481.053	3499.91
481.424	3566.8
481.795	3659.23
482.166	3726.79
482.537	3854.93
482.908	3967.47
483.279	4034.36
483.65	4118.42
484.021	4276.16
484.391	4341.92
484.762	4414.69
485.133	4506.44
485.503	4666.2
485.874	4786.2
486.244	4855.13
486.615	5052.18
486.985	5099.87
487.356	5272.74
487.726	5357.03
488.097	5488.56
488.467	5569.68
488.837	5713.41
489.207	5888.55
489.578	6001.54
489.948	6105.94
490.318	6267.07
490.688	6340.06
491.058	6479.49
491.428	6716.09
491.798	6757.9
492.168	6979.82
492.538	6990.89
492.908	7140.94
493.278	7305.46
493.648	7383.2
494.017	7502.29
494.387	7675.62
494.757	7807.37
495.126	7979.11
495.496	8031.09
495.866	8132.1
496.235	8301.82
496.605	8387.69
496.974	8504.52
497.344	8607.8
497.713	8693.9
498.082	8845.76
498.452	9006.2
498.821	9102.25
499.19	9207.33
499.559	9234.9
499.928	9370.04
500.298	9469.69
500.667	9595.79
501.036	9636.7
501.405	9709.01
501.774	9814.09
502.143	9992.84
502.512	9982.22
502.88	10130.24
503.249	10160.3
503.618	10307.41
503.987	10351.25
504.356	10401.65
504.724	10463.57
505.093	10633.96
505.462	10644.8
505.83	10699.72
506.199	10837.34
506.567	10951.92
506.936	10944.68
507.304	11089.99
507.672	11168.63
508.041	11269.65
508.409	11300.83
508.777	11430.55
509.145	11448.85
509.514	11472.58
509.882	11542.41
510.25	11595.29
510.618	11696.3
510.986	11685.91
511.354	11750.09
511.722	11852.23
512.09	12026.46
512.458	11958.22
512.826	12034.82
513.193	12125.67
513.561	12109.17
513.929	12253.12
514.297	12253.8
514.664	12302.39
515.032	12399.33
515.4	12416.51
515.767	12469.62
516.135	12535.83
516.502	12397.75
516.869	12621.02
517.237	12661.7
517.604	12626.22
517.972	12766.11
518.339	12760.46
518.706	12702.15
519.073	12868.7
519.44	12837.06
519.808	12949.83
520.175	12874.12
520.542	12994.35
520.909	13140.56
521.276	12945.54
521.643	13082.25
522.009	13127
522.376	13151.18
522.743	13190.05
523.11	13320.67
523.477	13388.24
523.843	13414
524.21	13481.79
524.577	13523.6
524.943	13478.63
525.31	13580.09
525.676	13581.45
526.043	13621.9
526.409	13657.83
526.776	13698.28
527.142	13780.54
527.508	13739.64
527.874	13853.31
528.241	13771.95
528.607	13792.29
528.973	13861.44
529.339	13839.3
529.705	13840.43
530.071	13863.7
530.437	13886.3
530.803	13966.07
531.169	13891.05
531.535	13868.9
531.901	13957.03
532.267	13898.73
532.632	13925.4
532.998	13903.93
533.364	13974.66
533.73	13932.4
534.095	13950.03
534.461	13917.94
534.826	13970.59
535.192	14022.8
535.557	13925.17
535.923	13875.45
536.288	13880.88
536.653	13929.46
537.019	13696.02
537.384	13841.56
537.749	13772.18
538.114	13815.79
538.479	13747.1
538.845	13760.66
539.21	13668.23
539.575	13746.42
539.94	13693.76
540.305	13632.3
540.67	13631.39
541.034	13637.04
541.399	13622.81
541.764	13572.86
542.129	13548.23
542.494	13504.16
542.858	13448.12
543.223	13476.82
543.587	13467.78
543.952	13363.15
544.316	13388.24
544.681	13307.56
545.045	13407.67
545.41	13285.19
545.774	13406.31
546.138	13262.59
546.503	13286.54
546.867	13229.82
547.231	13241.12
547.595	13160.67
547.959	13214.68
548.324	13146.66
548.688	13072.09
549.052	13099.2
549.416	13003.61
549.779	13011.52
550.143	12979.88
550.507	13052.65
550.871	13023.05
551.235	12943.95
551.599	12903.05
551.962	13032.99
552.326	12928.13
552.689	12850.62
553.053	12798.65
553.417	12824.18
553.78	12960
554.143	12797.52
554.507	12777.18
554.87	12804.07
555.234	12843.84
555.597	12705.99
555.96	12762.94
556.323	12814.69
556.686	12749.61
557.05	12774.69
557.413	12766.11
557.776	12771.75
558.139	12745.54
558.502	12696.5
558.865	12643.17
559.228	12741.25
559.59	12778.53
559.953	12724.3
560.316	12791.64
560.679	12741.92
561.041	12779.21
561.404	12791.19
561.767	12852.66
562.129	12743.51
562.492	12822.83
562.854	12764.52
563.217	12781.47
563.579	12843.84
563.941	12834.58
564.304	12897.63
564.666	12898.08
565.028	12848.14
565.39	12906.67
565.753	12961.13
566.115	12899.43
566.477	12922.71
566.839	12939.66
567.201	13098.3
567.563	13072.54
567.925	13101.92
568.287	13045.87
568.648	13052.43
569.01	13091.52
569.372	13115.25
569.734	13099.43
570.095	13104.4
570.457	13208.35
570.819	13151.41
571.18	13227.79
571.542	13177.39
571.903	13204.29
572.265	13271.63
572.626	13336.71
572.987	13184.4
573.349	13272.53
573.71	13295.81
574.071	13317.05
574.432	13307.11
574.794	13347.33
575.155	13353.89
575.516	13326.99
575.877	13351.63
576.238	13279.76
576.599	13372.19
576.96	13346.2
577.32	13359.99
577.681	13397.27
578.042	13401.12
578.403	13356.6
578.763	13429.36
579.124	13382.36
579.485	13362.25
579.845	13444.28
580.206	13409.93
580.566	13373.55
580.927	13454.67
581.287	13565.41
581.648	13402.47
582.008	13480.66
582.368	13442.25
582.728	13483.15
583.089	13443.6
583.449	13403.6
583.809	13451.74
584.169	13431.62
584.529	13376.03
584.889	13434.79
585.249	13291.74
585.609	13345.98
585.969	13383.04
586.329	13289.48
586.688	13388.69
587.048	13329.25
587.408	13306.2
587.768	13317.73
588.127	13357.95
588.487	13329.93
588.846	13398.18
589.206	13274.34
589.565	13323.6
589.925	13313.44
590.284	13210.39
590.643	13224.85
591.003	13338.97
591.362	13252.87
591.721	13220.78
592.08	13244.28
592.44	13277.5
592.799	13309.37
593.158	13201.35
593.517	13283.15
593.876	13204.96
594.235	13226.88
594.593	13297.62
594.952	13265.75
595.311	13258.97
595.67	13211.52
596.029	13280.89
596.387	13258.75
596.746	13249.03
597.104	13195.7
597.463	13136.94
597.822	13231.18
598.18	13278.63
598.538	13136.26
598.897	13207.68
599.255	13083.16
599.613	13319.54
599.972	13218.07
600.33	13268.69
600.688	13115.7
601.046	13273.89
601.404	13228.01
601.762	13188.92
602.12	13202.25
602.478	13238.63
602.836	13208.13
603.194	13204.74
603.552	13224.4
603.91	13143.04
604.268	13208.13
604.625	13205.64
604.983	13298.97
605.341	13130.84
605.698	13222.14
606.056	13271.85
606.413	13292.64
606.771	13280.22
607.128	13216.26
607.485	13181.46
607.843	13186.21
608.2	13249.71
608.557	13332.19
608.914	13283.61
609.272	13392.76
609.629	13395.92
609.986	13394.79
610.343	13294
610.7	13425.07
611.057	13391.17
611.414	13361.8
611.771	13356.15
612.127	13455.35
612.484	13409.25
612.841	13456.03
613.198	13359.31
613.554	13423.26
613.911	13412.64
614.267	13496.71
614.624	13436.37
614.98	13428.91
615.337	13521.11
615.693	13489.93
616.05	13442.92
616.406	13631.17
616.762	13477.95
617.118	13461.23
617.475	13561.34
617.831	13543.71
618.187	13627.55
618.543	13592.3
618.899	13631.84
619.255	13609.7
619.611	13658.28
619.967	13687.89
620.323	13707.78
620.678	13627.33
621.034	13564.28
621.39	13661.67
621.746	13564.5
622.101	13731.28
622.457	13622.35
622.812	13612.41
623.168	13628.68
623.523	13563.82
623.879	13721.33
624.234	13607.21
624.589	13640.21
624.945	13665.52
625.3	13600.89
625.655	13644.27
626.01	13585.29
626.365	13673.2
626.72	13635.91
627.075	13555.69
627.43	13627.33
627.785	13568.57
628.14	13588.46
628.495	13588.23
628.85	13479.76
629.205	13509.81
629.559	13615.57
629.914	13579.19
630.269	13582.58
630.623	13515.24
630.978	13584.39
631.332	13638.85
631.687	13576.71
632.041	13508.68
632.396	13500.32
632.75	13462.58
633.104	13461.91
633.459	13422.58
633.813	13444.96
634.167	13356.15
634.521	13419.2
634.875	13409.7
635.229	13392.08
635.583	13240.44
635.937	13291.74
636.291	13362.25
636.645	13237.51
636.999	13283.83
637.352	13312.98
637.706	13216.04
638.06	13272.98
638.413	13227.79
638.767	13216.71
639.121	13148.92
639.474	13139.65
639.828	13214
640.181	13190.5
640.534	13161.57
640.888	13152.54
641.241	13062.82
641.594	13094.91
641.947	13132.42
642.301	13071.63
642.654	13118.86
643.007	13169.71
643.36	13075.7
643.713	13032.54
644.066	13046.1
644.419	12997.06
644.771	12895.37
645.124	12805.2
645.477	12780.57
645.83	12683.62
646.182	12658.99
646.535	12594.36
646.888	12678.42
647.24	12610.85
647.593	12633
647.945	12600.46
648.298	12610.63
648.65	12498.77
649.002	12546
649.355	12555.49
649.707	12697.41
650.059	12632.78
650.411	12829.15
650.763	12794.58
651.115	12946.21
651.467	12811.98
651.819	12819.89
652.171	12846.78
652.523	12792.32
652.875	12839.55
653.227	12791.64
653.578	12867.8
653.93	12820.34
654.282	12854.46
654.633	12755.26
654.985	12833.45
655.337	12798.19
655.688	12827.12
656.039	12855.59
656.391	12729.27
656.742	12771.98
657.094	12799.32
657.445	12876.84
657.796	12811.08
658.147	12798.65
658.498	12783.05
658.849	12855.59
659.2	12847.68
659.551	12843.62
659.902	12881.58
660.253	12826.67
660.604	12790.51
660.955	12802.04
661.306	12851.3
661.656	12774.69
662.007	12901.92
662.358	12847.68
662.708	12857.63
663.059	12823.05
663.409	12802.49
663.76	12954.35
664.11	12876.84
664.461	12908.25
664.811	12948.7
665.161	12899.43
665.511	12896.72
665.862	12833
666.212	12894.46
666.562	12862.83
666.912	12889.49
667.262	12778.08
667.612	12840.23
667.962	12853.79
668.312	12897.63
668.662	12903.28
669.011	12922.03
669.361	12816.5
669.711	12777.18
670.06	12788.48
670.41	12822.6
670.76	12778.76
671.109	12807.01
671.459	12792.09
671.808	12785.77
672.157	12887.91
672.507	12744.86
672.856	12710.29
673.205	12774.24
673.554	12816.95
673.904	12687.24
674.253	12750.51
674.602	12772.66
674.951	12540.57
675.3	12515.04
675.649	12690.4
675.998	12696.05
676.346	12681.14
676.695	12650.18
677.044	12587.58
677.393	12606.79
677.741	12611.53
678.09	12589.39
678.438	12582.61
678.787	12678.65
679.135	12565.88
679.484	12419.45
679.832	12601.82
680.181	12508.94
680.529	12528.6
680.877	12398.21
681.225	12384.19
681.573	12541.25
681.922	12390.97
682.27	12316.63
682.618	12436.62
682.966	12359.11
683.314	12324.31
683.661	12378.54
684.009	12256.29
684.357	12204.54
684.705	12213.13
685.053	12243.18
685.4	12257.64
685.748	12108.27
686.095	12160.47
686.443	12060.59
686.79	12096.52
687.138	12063.07
687.485	12090.19
687.832	11973.58
688.18	12061.94
688.527	11941.72
688.874	11925.22
689.221	11876.41
689.568	11874.6
689.915	11797.99
690.262	11839.58
690.609	11729.75
690.956	11724.55
691.303	11760.93
691.65	11649.75
691.997	11576.76
692.344	11563.2
692.69	11585.8
693.037	11474.84
693.383	11419.47
693.73	11394.16
694.077	11378.8
694.423	11344
694.769	11307.16
695.116	11356.88
695.462	11281.17
695.808	11160.72
696.155	11249.31
696.501	11176.77
696.847	11118.24
697.193	11053.61
697.539	11080.73
697.885	11031.91
698.231	10979.03
698.577	10931.58
698.923	10848.64
699.269	10876.66
699.614	10776.33
699.96	10735.42
700.306	10805.48
700.651	10639.61
700.997	10644.35
701.342	10637.12
701.688	10664.92
702.033	10580.63
702.379	10572.72
702.724	10488.65
703.069	10519.61
703.415	10369.11
703.76	10452.72
704.105	10346.06
704.45	10345.6
704.795	10285.04
705.14	10235.55
705.485	10217.25
705.83	10190.13
706.175	10252.05
706.52	10153.74
706.865	10123.01
707.209	10120.75
707.554	10047.98
707.899	10135.67
708.243	9992.84
708.588	9939.51
708.932	9872.17
709.277	9921.66
709.621	9930.7
709.966	9846.86
710.31	9936.57
710.654	9805.05
710.998	9824.71
711.342	9820.19
711.687	9776.13
712.031	9689.35
712.375	9739.07
712.719	9670.14
713.063	9760.31
713.407	9700.65
713.75	9669.24
714.094	9689.58
714.438	9605.51
714.782	9617.71
715.125	9524.83
715.469	9537.94
715.812	9491.39
716.156	9387.44
716.499	9480.54
716.843	9503.82
717.186	9441.9
717.53	9487.77
717.873	9456.59
718.216	9407.32
718.559	9399.64
718.902	9317.16
719.246	9349.92
719.589	9343.82
719.932	9251.17
720.275	9337.95
720.617	9315.12
720.96	9276.25
721.303	9254.11
721.646	9271.96
721.989	9270.6
722.331	9293.88
722.674	9193.32
723.016	9208.68
723.359	9125.97
723.701	9190.38
724.044	9096.37
724.386	9060.89
724.729	9126.88
725.071	9072.87
725.413	9119.65
725.755	9075.81
726.097	9075.13
726.439	9040.55
726.782	9086.88
727.124	9152.19
727.465	9079.65
727.807	9021.57
728.149	9035.13
728.491	8998.07
728.833	9022.47
729.175	9032.42
729.516	9015.7
729.858	9008.69
730.199	9027.22
730.541	9027.67
730.882	9015.7
731.224	9020.67
731.565	8928.47
731.906	8962.59
732.248	9043.72
732.589	8925.08
732.93	8914.23
733.271	8937.28
733.612	9019.99
733.953	9000.1
734.294	8934.79
734.635	8924.85
734.976	8961.46
735.317	8887.34
735.658	8959.88
735.999	9007.56
736.339	8924.62
736.68	8949.48
737.021	8898.41
737.361	8866.55
737.702	8946.09
738.042	8944.74
738.383	8949.71
738.723	8982.7
739.063	8967.79
739.404	8966.43
739.744	8951.29
740.084	8932.99
740.424	8990.16
740.764	8972.76
741.104	9066.09
741.444	9048.46
741.784	9038.29
742.124	9133.21
742.464	9045.52
742.804	9069.25
743.143	9055.47
743.483	9120.78
743.823	9171.17
744.162	9184.5
744.502	9186.99
744.841	9188.8
745.181	9214.56
745.52	9192.87
745.86	9319.64
746.199	9343.14
746.538	9303.82
746.877	9369.36
747.216	9421.56
747.556	9422.69
747.895	9497.04
748.234	9498.39
748.573	9614.55
748.911	9648.67
749.25	9698.39
749.589	9659.29
749.928	9779.06
750.267	9861.77
750.605	9937.03
750.944	10020.87
751.283	9993.3
751.621	10137.93
751.96	10139.28
752.298	10255.66
752.636	10313.74
752.975	10387.64
753.313	10465.15
753.651	10614.3
753.989	10594.86
754.327	10789.43
754.666	10827.17
755.004	10994.63
755.342	11065.36
755.679	11154.17
756.017	11291.34
756.355	11459.47
756.693	11496.08
757.031	11655.4
757.368	11774.49
757.706	11877.54
758.044	12039.34
758.381	12220.81
758.719	12302.16
759.056	12459.22
759.394	12608.6
759.731	12721.81
760.068	12865.31
760.405	12887.68
760.743	13168.81
761.08	13300.55
761.417	13458.52
761.754	13527.21
762.091	13749.81
762.428	13878.84
762.765	13939.86
763.102	14242.22
763.438	14366.51
763.775	14363.13
764.112	14596.57
764.449	14912.04
764.785	14958.82
765.122	15082.2
765.458	15158.81
765.795	15352.25
766.131	15452.59
766.467	15597.44
766.804	15779.13
767.14	15823.2
767.476	16112.01
767.812	16109.29
768.148	16298.89
768.485	16377.99
768.821	16427.7
769.157	16543.41
769.492	16669.05
769.828	16780.24
770.164	16856.17
770.5	16985.2
770.836	17175.25
771.171	17075.14
771.507	17277.85
771.842	17301.8
772.178	17420.22
772.513	17523.04
772.849	17538.63
773.184	17612.98
773.519	17721
773.855	17758.52
774.19	17819.98
774.525	17895.24
774.86	17965.97
775.195	18055.46
775.53	18126.87
775.865	18106.08
776.2	18064.5
776.535	18107.21
776.87	18132.07
777.205	18213.42
777.539	18123.93
777.874	18349.24
778.209	18270.82
778.543	18339.74
778.878	18246.64
779.212	18339.52
779.547	18323.92
779.881	18505.62
780.215	18485.05
780.55	18497.93
780.884	18493.64
781.218	18424.26
781.552	18476.92
781.886	18461.77
782.22	18452.96
782.554	18449.35
782.888	18366.86
783.222	18371.16
783.556	18295.68
783.889	18379.52
784.223	18350.14
784.557	18313.08
784.89	18423.13
785.224	18317.15
785.557	18210.26
785.891	18229.46
786.224	18189.92
786.558	18326.86
786.891	18214.78
787.224	18193.98
787.557	18125.29
787.891	18093.65
788.224	18134.55
788.557	18175.23
788.89	18158.51
789.223	18197.83
789.556	18050.49
789.888	18038.96
790.221	18086.42
790.554	17836.48
790.887	17795.8
791.219	17915.57
791.552	17842.58
791.884	17767.56
792.217	17711.96
792.549	17726.2
792.882	17644.17
793.214	17625.19
793.546	17651.4
793.879	17650.72
794.211	17434.46
794.543	17587.45
794.875	17512.87
795.207	17563.94
795.539	17425.87
795.871	17513.1
796.203	17371.18
796.535	17334.8
796.867	17291.41
797.198	17210.73
797.53	17290.73
797.862	17140.68
798.193	17171.64
798.525	17139.1
798.856	17109.04
799.188	16982.94
799.519	16882.61
799.85	16822.04
800.182	16815.04
800.513	16842.16
800.844	16693.69
801.175	16861.82
801.506	16827.24
801.837	16750.18
802.168	16626.12
802.499	16614.59
802.83	16545.44
803.161	16472.67
803.491	16583.86
803.822	16579.79
804.153	16491.66
804.483	16370.76
804.814	16387.7
805.145	16275.17
805.475	16411.21
805.805	16197.88
806.136	16185
806.466	16239.46
806.796	16237.2
807.126	16119.46
807.457	16097.54
807.787	16056.41
808.117	16043.98
808.447	16021.16
808.777	15987.49
809.107	15844.67
809.436	15809.64
809.766	15795.63
810.096	15742.98
810.426	15823.65
810.755	15809.41
811.085	15769.19
811.414	15724.9
811.744	15598.57
812.073	15576.65
812.403	15529.2
812.732	15432.25
813.061	15419.82
813.39	15448.97
813.719	15351.12
814.049	15454.62
814.378	15375.53
814.707	15281.52
815.036	15331.69
815.365	15262.99
815.693	15129.21
816.022	15178.24
816.351	15164.46
816.68	15089.89
817.008	15147.96
817.337	15030.23
817.665	14893.73
817.994	15013.28
818.322	15008.98
818.651	14945.03
818.979	14799.95
819.307	14974.18
819.636	14889.66
819.964	14860.29
820.292	14918.59
820.62	14850.57
820.948	14760.18
821.276	14836.79
821.604	14833.85
821.932	14807.86
822.259	14873.39
822.587	14801.98
822.915	14804.7
823.243	14832.04
823.57	14768.54
823.898	14827.75
824.225	14705.72
824.553	14724.7
824.88	14751.82
825.207	14792.94
825.535	14793.85
825.862	14855.54
826.189	14682.66
826.516	14799.72
826.843	14828.42
827.17	14848.31
827.497	14854.41
827.824	14846.95
828.151	14861.87
828.478	14792.94
828.805	14895.99
829.131	14823
829.458	14816.9
829.785	14710.46
830.111	14799.72
830.438	14916.56
830.764	14842.66
831.09	14805.6
831.417	14656.68
831.743	14825.49
832.069	14817.35
832.395	14755.88
832.722	14807.86
833.048	14657.13
833.374	14767.63
833.7	14726.96
834.026	14792.49
834.351	14724.47
834.677	14703
835.003	14730.12
835.329	14645.6
835.654	14594.98
835.98	14638.6
836.306	14623.01
836.631	14585.49
836.956	14618.26
837.282	14650.35
837.607	14551.82
837.932	14465.95
838.258	14407.87
838.583	14506.4
838.908	14392.05
839.233	14440.86
839.558	14375.55
839.883	14320.64
840.208	14279.29
840.533	14289
840.858	14231.6
841.182	14315.89
841.507	14290.13
841.832	14166.07
842.156	14178.72
842.481	14145.5
842.805	14088.33
843.13	14114.77
843.454	14063.92
843.778	14037.71
844.103	14005.62
844.427	13950.25
844.751	13990.03
845.075	13927.88
845.399	13857.15
845.723	13755.46
846.047	13804.27
846.371	13711.84
846.695	13726.53
847.019	13582.13
847.343	13508.23
847.666	13476.59
847.99	13439.76
848.313	13348.46
848.637	13276.37
848.96	13329.48
849.284	13250.16
849.607	13151.86
849.931	13159.09
850.254	13084.74
850.577	13011.07
850.9	12864.41
851.223	12930.62
851.546	12869.15
851.869	12823.5
852.192	12892.88
852.515	12701.7
852.838	12710.29
853.161	12705.09
853.483	12635.49
853.806	12475.27
854.129	12492.21
854.451	12389.62
854.774	12388.04
855.096	12432.78
855.419	12352.56
855.741	12388.04
856.063	12229.4
856.385	12259.9
856.708	12194.82
857.03	12122.73
857.352	12124.54
857.674	12167.25
857.996	12093.35
858.318	12069.4
858.64	11974.49
858.961	11934.94
859.283	11920.93
859.605	11806.13
859.926	11828.28
860.248	11781.72
860.57	11798.9
860.891	11753.48
861.212	11678.9
861.534	11689.75
861.855	11665.79
862.176	11618.11
862.498	11682.97
862.819	11620.6
863.14	11585.35
863.461	11576.31
863.782	11523.2
864.103	11517.1
864.424	11450.43
864.745	11503.09
865.065	11447.95
865.386	11418.12
865.707	11408.4
866.027	11422.41
866.348	11335.18
866.668	11334.28
866.989	11339.48
867.309	11242.3
867.63	11284.79
867.95	11280.49
868.27	11206.82
868.59	11247.95
868.91	11212.02
869.23	11193.72
869.55	11088.63
869.87	11240.5
870.19	11105.58
870.51	11099.03
870.83	11137.67
871.15	11036.21
871.469	11099.26
871.789	11052.7
872.109	11026.26
872.428	10990.78
872.748	11030.11
873.067	10998.92
873.386	10997.56
873.706	10932.25
874.025	10900.39
874.344	10847.96
874.663	10904.01
874.982	10889.09
875.301	10932.03
875.62	10890
875.939	10786.95
876.258	10743.33
876.577	10692.49
876.896	10758.7
877.214	10718.02
877.533	10715.31
877.852	10670.34
878.17	10744.92
878.489	10672.15
878.807	10651.13
879.125	10627.63
879.444	10568.42
879.762	10559.84
880.08	10551.02
880.398	10514.19
880.716	10523
881.034	10511.02
881.352	10496.11
881.67	10459.27
881.988	10505.15
882.306	10470.35
882.624	10412.49
882.941	10299.96
883.259	10299.73
883.577	10317.13
883.894	10292.5
884.212	10353.29
884.529	10348.09
884.846	10249.56
885.164	10223.8
885.481	10204.36
885.798	10215.21
886.115	10157.81
886.432	10120.75
886.75	10069
887.067	10068.32
887.383	10082.56
887.7	10076.01
888.017	9951.26
888.334	10038.72
888.651	10003.92
888.967	9932.96
889.284	9982.68
889.6	9903.36
889.917	9883.69
890.233	9906.07
890.55	9738.16
890.866	9780.42
891.182	9735.22
891.498	9717.6
891.815	9754.43
892.131	9624.04
892.447	9618.39
892.763	9617.04
893.079	9621.1
893.395	9542.46
893.71	9545.85
894.026	9504.95
894.342	9464.04
894.657	9402.13
894.973	9438.51
895.289	9368.91
895.604	9351.96
895.92	9272.41
896.235	9227.44
896.55	9249.81
896.865	9255.91
897.181	9166.2
897.496	9182.47
897.811	9116.94
898.126	9029.93
898.441	9097.95
898.756	9028.8
899.071	8958.97
899.386	8914
899.7	8902.48
900.015	8836.26
900.33	8761.01
900.644	8789.71
900.959	8817.96
901.273	8745.42
901.588	8685.99
901.902	8639.89
902.216	8655.48
902.531	8621.36
902.845	8642.82
903.159	8522.37
903.473	8537.74
903.787	8476.5
904.101	8415.48
904.415	8441.02
904.729	8358.09
905.042	8318.76
905.356	8331.19
905.67	8303.62
905.984	8305.88
906.297	8298.2
906.611	8245.55
906.924	8211.65
907.237	8140.24
907.551	8180.91
907.864	8125.78
908.177	8059.79
908.491	8067.92
908.804	7984.99
909.117	7941.6
909.43	7886.91
909.743	7863.64
910.056	7856.4
910.368	7759.01
910.681	7749.06
910.994	7770.53
911.307	7709.74
911.619	7724.2
911.932	7679.91
912.244	7608.05
912.557	7579.8
912.869	7520.14
913.181	7485.57
913.494	7487.6
913.806	7433.36
914.118	7463.19
914.43	7448.5
914.742	7411.44
915.054	7369.86
915.366	7332.8
915.678	7345.68
915.99	7306.81
916.302	7227.27
916.613	7131.45
916.925	7167.16
917.236	7141.62
917.548	7116.08
917.859	7082.86
918.171	7077.44
918.482	7004.67
918.794	7019.36
919.105	6966.26
919.416	6951.57
919.727	6935.3
920.038	6935.98
920.349	6876.77
920.66	6869.08
920.971	6821.85
921.282	6778.01
921.593	6747.28
921.903	6681.75
922.214	6708.64
922.525	6647.4
922.835	6646.04
923.146	6582.76
923.456	6515.65
923.767	6518.81
924.077	6504.12
924.387	6536.44
924.697	6446.72
925.008	6458.25
925.318	6455.31
925.628	6384.35
925.938	6358.36
926.248	6307.97
926.558	6347.06
926.867	6300.51
927.177	6227.52
927.487	6222.55
927.796	6198.59
928.106	6175.54
928.416	6183.68
928.725	6101.65
929.034	6063.91
929.344	6126.05
929.653	6098.48
929.962	6024.14
930.271	6041.76
930.581	6010.58
930.89	5942.1
931.199	5930.35
931.508	5874.99
931.817	5895.33
932.125	5860.07
932.434	5794.76
932.743	5837.7
933.051	5783.92
933.36	5727.19
933.669	5684.48
933.977	5735.56
934.286	5697.82
934.594	5713.64
934.902	5648.78
935.21	5600.42
935.519	5601.55
935.827	5617.14
936.135	5516.58
936.443	5500.08
936.751	5556.58
937.059	5481.32
937.367	5515.22
937.674	5448.33
937.982	5410.82
938.29	5413.76
938.597	5415.34
938.905	5320.88
939.213	5328.56
939.52	5296.47
939.827	5243.14
940.135	5238.17
940.442	5279.52
940.749	5241.11
941.056	5257.83
941.363	5137.83
941.67	5177.38
941.977	5142.8
942.284	5133.99
942.591	5097.83
942.898	5015.8
943.205	5080.43
943.511	5017.83
943.818	5011.51
944.125	4981.9
944.431	4971.06
944.738	4957.27
945.044	4867.56
945.35	4859.65
945.657	4834.34
945.963	4856.26
946.269	4805.41
946.575	4793.66
946.881	4781.91
947.187	4755.02
947.493	4710.27
947.799	4751.4
948.105	4721.12
948.41	4684.28
948.716	4639.31
949.022	4638.41
949.327	4652.65
949.633	4576.72
949.938	4556.15
950.244	4545.98
950.549	4547.11
950.854	4480
951.16	4497.85
951.465	4486.77
951.77	4470.05
952.075	4404.29
952.38	4412.2
952.685	4371.07
952.99	4380.56
953.294	4338.08
953.599	4341.92
953.904	4318.87
954.209	4302.15
954.513	4278.64
954.818	4269.83
955.122	4223.96
955.426	4239.55
955.731	4221.92
956.035	4191.64
956.339	4208.59
956.643	4198.42
956.948	4159.55
957.252	4118.65
957.556	4114.58
957.86	4134.47
958.163	4103.28
958.467	4078.2
958.771	4048.82
959.075	4033
959.378	4023.51
959.682	4021.48
959.985	3979.22
960.289	4007.01
960.592	3922.04
960.896	3909.84
961.199	3927.24
961.502	3908.48
961.805	3887.47
962.108	3860.12
962.411	3877.07
962.714	3818.54
963.017	3828.94
963.32	3833.68
963.623	3784.42
963.926	3769.05
964.228	3799.56
964.531	3745.78
964.833	3728.83
965.136	3673.01
965.438	3672.11
965.741	3672.56
966.043	3665.1
966.345	3641.37
966.648	3646.57
966.95	3597.53
967.252	3572
967.554	3573.13
967.856	3589.4
968.158	3484.32
968.46	3515.73
968.761	3476.41
969.063	3512.56
969.365	3500.36
969.666	3483.86
969.968	3454.49
970.269	3435.73
970.571	3420.36
970.872	3395.05
971.174	3419.46
971.475	3392.11
971.776	3360.02
972.077	3338.78
972.378	3357.99
972.679	3281.61
972.98	3294.04
973.281	3315.96
973.582	3285.68
973.883	3219.24
974.183	3257.65
974.484	3252
974.785	3235.28
975.085	3188.28
975.386	3194.15
975.686	3174.94
975.986	3147.6
976.287	3147.37
976.587	3100.37
976.887	3119.13
977.187	3125.68
977.487	3090.43
977.787	3072.12
978.087	3054.72
978.387	3046.13
978.687	3007.72
978.987	3036.19
979.286	2995.06
979.586	2991.22
979.885	2993.03
980.185	2964.55
980.484	2955.74
980.784	2948.74
981.083	2963.88
981.382	2954.84
981.682	2887.49
981.981	2892.69
982.28	2882.07
982.579	2850.21
982.878	2844.56
983.177	2858.79
983.475	2801.85
983.774	2816.31
984.073	2790.55
984.372	2798.68
984.67	2784.67
984.969	2747.16
985.267	2781.28
985.566	2777.89
985.864	2681.17
986.162	2700.83
986.461	2715.75
986.759	2668.74
987.057	2682.3
987.355	2696.09
987.653	2627.61
987.951	2653.15
988.249	2626.26
988.547	2602.76
988.844	2627.39
989.142	2601.4
989.44	2585.13
989.737	2577.45
990.035	2554.62
990.332	2540.39
990.63	2522.53
990.927	2504
991.224	2482.31
991.521	2489.99
991.819	2494.28
992.116	2459.71
992.413	2482.76
992.71	2468.3
993.006	2427.39
993.303	2421.07
993.6	2381.07
993.897	2437.34
994.193	2419.48
994.49	2399.82
994.787	2382.65
995.083	2367.51
995.379	2353.95
995.676	2352.59
995.972	2320.5
996.268	2346.94
996.565	2291.35
996.861	2271.24
997.157	2304.46
997.453	2249.55
997.749	2231.24
998.044	2252.71
998.34	2233.95
998.636	2232.82
998.932	2244.12
999.227	2196.44
999.523	2193.28
999.818	2159.38
1000.114	2212.03
1000.409	2151.92
1000.704	2157.57
1001	2126.38
1001.295	2091.81
1001.59	2104.92
1001.885	2118.25
1002.18	2062.66
1002.475	2072.83
1002.77	2074.41
1003.065	2016.11
1003.359	2026.73
1003.654	2007.29
1003.949	2007.97
1004.243	1988.54
1004.538	1975.88
1004.832	1966.39
1005.127	1998.03
1005.421	1947.63
1005.715	1973.85
1006.009	1968.65
1006.304	1952.83
1006.598	1897.69
1006.892	1892.27
1007.186	1885.26
1007.48	1880.97
1007.773	1858.6
1008.067	1858.82
1008.361	1852.72
1008.655	1851.14
1008.948	1834.64
1009.242	1851.82
1009.535	1820.18
1009.829	1793.06
1010.122	1789.67
1010.415	1781.31
1010.708	1787.86
1011.001	1781.08
1011.295	1771.82
1011.588	1734.3
1011.881	1739.5
1012.173	1738.6
1012.466	1713.51
1012.759	1704.25
1013.052	1692.05
1013.344	1693.18
1013.637	1691.59
1013.93	1652.05
1014.222	1679.84
1014.514	1641.88
1014.807	1609.79
1015.099	1636
1015.391	1617.02
1015.683	1605.95
1015.976	1622.9
1016.268	1581.09
1016.56	1544.71
1016.851	1549.45
1017.143	1539.28
1017.435	1554.87
1017.727	1587.87
1018.018	1552.84
1018.31	1509.23
1018.602	1496.8
1018.893	1492.5
1019.185	1487.53
1019.476	1462.67
1019.767	1487.98
1020.058	1464.48
1020.35	1431.26
1020.641	1423.58
1020.932	1428.32
1021.223	1429.91
1021.514	1409.79
1021.804	1376.8
1022.095	1391.49
1022.386	1397.14
1022.677	1377.93
1022.967	1342.68
1023.258	1345.84
1023.548	1356.24
1023.839	1352.17
1024.129	1347.42
1024.419	1374.54
1024.709	1325.73
1025	1296.12
1025.29	1298.84
1025.58	1297.25
1025.87	1289.8
1026.16	1257.48
1026.449	1281.89
1026.739	1267.65
1027.029	1248.67
1027.319	1229.91
1027.608	1232.17
1027.898	1234.2
1028.187	1242.11
1028.477	1228.1
1028.766	1201.89
1029.055	1202.12
1029.344	1186.52
1029.634	1210.25
1029.923	1179.29
1030.212	1185.17
1030.501	1165.51
1030.79	1120.76
1031.078	1114.89
1031.367	1147.43
1031.656	1127.99
1031.945	1097.49
1032.233	1111.5
1032.522	1103.59
1032.81	1102.91
1033.099	1077.6
1033.387	1076.47
1033.675	1081.21
1033.963	1064.72
1034.251	1072.18
1034.54	1060.88
1034.828	1057.71
1035.116	1047.09
1035.403	1035.79
1035.691	1037.83
1035.979	1006.41
1036.267	1025.4
1036.554	1003.48
1036.842	1015.68
1037.129	1003.25
1037.417	1007.77
1037.704	983.14
1037.992	972.74
1038.279	972.97
1038.566	973.87
1038.853	973.87
1039.14	973.87
