Data from hue_290_FLMS001491_00100.txt Node
Date: Tue Feb 07 15:53:46 GMT 2017
User: dcchb
Spectrometer: FLMS00149
Trigger mode: 0
Integration Time (sec): 2.000000E-2
Scans to average: 10
Electric dark correction enabled: true
Nonlinearity correction enabled: false
Boxcar width: 0
XAxis mode: Wavelengths
Number of Pixels in Spectrum: 2048
>>>>>Begin Spectral Data<<<<<
341.393	-11.13
341.776	-11.13
342.16	-11.13
342.543	-70.34
342.927	-58.59
343.31	-57.23
343.693	-61.98
344.077	-75.31
344.46	-69.89
344.843	-62.43
345.226	-24.46
345.61	-29.43
345.993	-27.17
346.376	4.01
346.759	4.46
347.142	36.33
347.525	47.17
347.908	47.17
348.291	83.33
348.674	79.94
349.057	105.48
349.44	122.65
349.823	128.3
350.206	179.37
350.588	203.1
350.971	177.11
351.354	216.89
351.737	216.21
352.119	233.84
352.502	248.98
352.884	258.92
353.267	267.96
353.65	266.38
354.032	286.72
354.414	311.8
354.797	294.63
355.179	288.75
355.562	283.55
355.944	314.29
356.326	302.08
356.709	315.42
357.091	305.7
357.473	325.36
357.855	338.47
358.238	312.7
358.62	322.87
359.002	330.78
359.384	325.81
359.766	347.05
360.148	328.52
360.53	326.04
360.912	322.65
361.294	334.62
361.676	318.35
362.057	329.2
362.439	307.05
362.821	327.62
363.203	321.97
363.584	295.75
363.966	344.12
364.348	321.52
364.729	301.18
365.111	311.57
365.493	326.71
365.874	312.48
366.256	291.91
366.637	312.03
367.019	324.23
367.4	297.79
367.781	308.18
368.163	306.6
368.544	297.34
368.925	292.14
369.306	309.99
369.688	304.34
370.069	312.25
370.45	302.99
370.831	329.88
371.212	319.71
371.593	306.38
371.974	306.83
372.355	313.38
372.736	294.63
373.117	305.47
373.498	304.57
373.879	312.93
374.26	308.64
374.641	289.88
375.021	299.82
375.402	318.58
375.783	334.85
376.163	322.42
376.544	296.43
376.925	313.16
377.305	325.58
377.686	314.74
378.066	322.42
378.447	298.92
378.827	318.81
379.208	331.46
379.588	311.12
379.968	305.7
380.349	312.7
380.729	334.4
381.109	325.81
381.489	331.23
381.87	323.32
382.25	331.46
382.63	322.65
383.01	332.36
383.39	338.47
383.77	342.53
384.15	332.82
384.53	332.14
384.91	327.17
385.29	336.66
385.67	333.49
386.049	348.63
386.429	343.21
386.809	344.79
387.189	360.16
387.568	349.76
387.948	348.86
388.328	359.71
388.707	341.86
389.087	341.86
389.466	383.44
389.846	356.54
390.225	378.46
390.605	354.96
390.984	360.16
391.363	371.46
391.743	381.18
392.122	375.07
392.501	362.42
392.881	368.3
393.26	370.1
393.639	359.03
394.018	389.54
394.397	374.85
394.776	373.04
395.155	396.32
395.534	383.44
395.913	398.8
396.292	384.11
396.671	401.74
397.05	390.67
397.429	391.57
397.808	402.42
398.186	395.64
398.565	406.71
398.944	410.33
399.323	409.42
399.701	415.53
400.08	399.93
400.458	406.71
400.837	432.93
401.215	420.5
401.594	424.79
401.972	418.24
402.351	404.9
402.729	413.72
403.107	414.4
403.486	441.06
403.864	432.47
404.242	465.47
404.62	438.35
404.999	449.42
405.377	452.81
405.755	458.46
406.133	455.75
406.511	479.03
406.889	453.49
407.267	492.36
407.645	480.16
408.023	483.77
408.401	460.5
408.779	495.75
409.156	495.52
409.534	495.52
409.912	514.73
410.29	527.16
410.667	531.68
411.045	506.82
411.422	546.14
411.8	533.71
412.178	549.31
412.555	556.31
412.933	557.67
413.31	562.41
413.687	588.85
414.065	625.69
414.442	601.96
414.819	586.14
415.197	593.37
415.574	612.81
415.951	622.53
416.328	627.27
416.705	624.33
417.082	641.96
417.46	640.38
417.837	670.89
418.214	664.78
418.591	660.27
418.967	668.4
419.344	692.13
419.721	708.63
420.098	697.55
420.475	691.45
420.852	732.35
421.228	722.18
421.605	740.26
421.982	730.32
422.358	754.5
422.735	767.61
423.111	759.25
423.488	756.31
423.864	770.54
424.241	801.5
424.617	806.25
424.994	829.53
425.37	847.38
425.746	830.2
426.123	848.28
426.499	865.68
426.875	881.73
427.251	869.3
427.627	909.98
428.003	908.85
428.379	924.89
428.756	927.6
429.132	949.3
429.507	949.75
429.883	968.96
430.259	943.87
430.635	961.5
431.011	984.1
431.387	994.27
431.763	1026.36
432.138	1018.45
432.514	1008.96
432.89	1060.03
433.265	1050.09
433.641	1088.05
434.016	1075.62
434.392	1102.51
434.767	1117.88
435.143	1114.94
435.518	1149.52
435.894	1146.13
436.269	1178.22
436.644	1168.27
437.02	1195.84
437.395	1183.87
437.77	1223.41
438.145	1196.97
438.52	1261.83
438.895	1246.01
439.271	1262.06
439.646	1284.66
440.021	1285.11
440.395	1288.05
440.77	1283.3
441.145	1307.71
441.52	1366.24
441.895	1331.43
442.27	1367.82
442.645	1350.87
443.019	1381.6
443.394	1385.22
443.769	1406.91
444.143	1359.68
444.518	1384.77
444.892	1382.73
445.267	1391.09
445.641	1409.4
446.016	1417.76
446.39	1433.35
446.764	1440.13
447.139	1433.58
447.513	1467.93
447.887	1427.02
448.262	1435.61
448.636	1461.37
449.01	1467.48
449.384	1459.79
449.758	1493.69
450.132	1522.39
450.506	1503.63
450.88	1503.18
451.254	1487.81
451.628	1527.36
452.002	1531.2
452.376	1561.71
452.75	1570.52
453.123	1550.41
453.497	1592.44
453.871	1575.27
454.244	1611.88
454.618	1618.21
454.992	1610.3
455.365	1663.63
455.739	1667.02
456.112	1650.97
456.486	1697.75
456.859	1706.34
457.232	1738.88
457.606	1736.17
457.979	1749.28
458.352	1781.82
458.725	1803.29
459.099	1776.17
459.472	1812.55
459.845	1814.36
460.218	1841.25
460.591	1840.57
460.964	1826.11
461.337	1864.08
461.71	1926.67
462.083	1935.03
462.456	1940.23
462.829	1923.51
463.201	1962.6
463.574	1940.46
463.947	2034.69
464.32	1989.04
464.692	1986.11
465.065	2050.06
465.438	2070.17
465.81	2116.95
466.183	2120.57
466.555	2132.32
466.928	2139.32
467.3	2128.02
467.672	2174.8
468.045	2214.35
468.417	2215.48
468.789	2198.76
469.161	2205.08
469.534	2278.08
469.906	2300.67
470.278	2303.61
470.65	2341.35
471.022	2378.64
471.394	2375.93
471.766	2386.1
472.138	2422.93
472.51	2483.72
472.882	2483.95
473.253	2512.42
473.625	2553.77
473.997	2600.78
474.369	2581.12
474.74	2612.98
475.112	2665.86
475.484	2669.48
475.855	2725.3
476.227	2737.05
476.598	2828.12
476.97	2803.49
477.341	2827.67
477.713	2874.22
478.084	2885.97
478.455	2953.09
478.827	2967.55
479.198	3055.91
479.569	2999.64
479.94	3107.21
480.311	3082.35
480.682	3188.33
481.053	3235.79
481.424	3300.2
481.795	3200.76
482.166	3287.31
482.537	3342.23
482.908	3400.08
483.279	3431.27
483.65	3454.09
484.021	3503.35
484.391	3530.47
484.762	3559.62
485.133	3579.51
485.503	3650.69
485.874	3743.12
486.244	3716.23
486.615	3741.54
486.985	3755.55
487.356	3849.79
487.726	3857.92
488.097	3922.55
488.467	3911.03
488.837	4015.43
489.207	3962.1
489.578	4055.43
489.948	4122.55
490.318	4099.27
490.688	4125.03
491.058	4175.65
491.428	4253.62
491.798	4309.66
492.168	4306.04
492.538	4322.77
492.908	4365.25
493.278	4440.28
493.648	4406.61
494.017	4481.63
494.387	4477.79
494.757	4477.11
495.126	4535.19
495.496	4540.16
495.866	4587.62
496.235	4659.03
496.605	4677.56
496.974	4714.62
497.344	4776.09
497.713	4761.17
498.082	4755.07
498.452	4800.04
498.821	4828.29
499.19	4822.19
499.559	4832.13
499.928	4824
500.298	4884.11
500.667	4939.02
501.036	4909.64
501.405	4984.22
501.774	4960.94
502.143	5018.79
502.512	5043.88
502.88	5070.09
503.249	5053.6
503.618	5076.87
503.987	5062.18
504.356	5108.06
504.724	5113.03
505.093	5121.62
505.462	5132.92
505.83	5174.95
506.199	5213.59
506.567	5242.74
506.936	5242.52
507.304	5294.04
507.672	5363.87
508.041	5374.04
508.409	5333.14
508.777	5388.95
509.145	5405.68
509.514	5421.5
509.882	5392.57
510.25	5406.58
510.618	5450.65
510.986	5454.49
511.354	5515.28
511.722	5521.61
512.09	5582.85
512.458	5566.58
512.826	5590.3
513.193	5601.83
513.561	5584.43
513.929	5658.1
514.297	5690.42
514.664	5689.74
515.032	5749.17
515.4	5766.12
515.767	5730.87
516.135	5744.88
516.502	5755.5
516.869	5837.3
517.237	5819.45
517.604	5786.68
517.972	5809.96
518.339	5832.56
518.706	5866.68
519.073	5927.92
519.44	5898.77
519.808	5965.44
520.175	5943.74
520.542	6019.45
520.909	6035.04
521.276	5999.79
521.643	6051.99
522.009	6071.2
522.376	6134.02
522.743	6119.56
523.11	6134.25
523.477	6233.23
523.843	6242.04
524.21	6282.04
524.577	6295.15
524.943	6296.95
525.31	6310.29
525.676	6354.58
526.043	6448.81
526.409	6366.78
526.776	6446.78
527.142	6472.99
527.508	6486.78
527.874	6540.56
528.241	6554.8
528.607	6549.83
528.973	6607.68
529.339	6609.49
529.705	6762.25
530.071	6735.13
530.437	6722.48
530.803	6831.18
531.169	6796.37
531.535	6766.55
531.901	6777.62
532.267	6880.21
532.632	6939.87
532.998	6896.26
533.364	6945.52
533.73	6948.24
534.095	6975.58
534.461	7046.54
534.826	7001.79
535.192	7045.41
535.557	7060.32
535.923	7092.86
536.288	7124.73
536.653	7081.57
537.019	7124.5
537.384	7174.9
537.749	7138.29
538.114	7221.45
538.479	7184.39
538.845	7289.02
539.21	7234.33
539.575	7249.7
539.94	7305.29
540.305	7313.88
540.67	7230.71
541.034	7319.3
541.399	7348.22
541.764	7350.03
542.129	7463.93
542.494	7406.98
542.858	7443.59
543.223	7471.16
543.587	7541.67
543.952	7493.31
544.316	7576.47
544.681	7550.03
545.045	7605.17
545.41	7638.16
545.774	7661.44
546.138	7612.62
546.503	7671.61
546.867	7657.37
547.231	7703.92
547.595	7726.07
547.959	7703.7
548.324	7772.85
548.688	7811.72
549.052	7800.87
549.416	7858.27
549.779	7852.39
550.143	7842.9
550.507	7872.73
550.871	7870.02
551.235	7838.38
551.599	7932.39
551.962	7972.62
552.326	7935.1
552.689	8013.52
553.053	7976.91
553.417	7998.15
553.78	8098.49
554.143	8003.57
554.507	8065.27
554.87	8095.1
555.234	8184.14
555.597	8127.87
555.96	8116.57
556.323	8197.92
556.686	8210.58
557.05	8193.63
557.413	8251.03
557.776	8227.52
558.139	8276.34
558.502	8306.62
558.865	8251.93
559.228	8325.6
559.59	8356.33
559.953	8314.3
560.316	8432.26
560.679	8375.09
561.041	8451.02
561.404	8501.19
561.767	8542.54
562.129	8476.56
562.492	8525.6
562.854	8636.33
563.217	8577.12
563.579	8648.98
563.941	8711.35
564.304	8724.91
564.666	8705.7
565.028	8757
565.39	8770.56
565.753	8790.45
566.115	8852.59
566.477	8832.71
566.839	8926.71
567.201	8926.26
567.563	8898.69
567.925	8999.93
568.287	9029.76
568.648	9043.1
569.01	9055.3
569.372	9088.74
569.734	9082.87
570.095	9180.04
570.457	9231.34
570.819	9230.66
571.18	9229.31
571.542	9317.21
571.903	9324.9
572.265	9333.94
572.626	9392.92
572.987	9408.96
573.349	9368.28
573.71	9570.54
574.071	9486.47
574.432	9553.82
574.794	9609.86
575.155	9652.12
575.516	9692.8
575.877	9759.69
576.238	9763.75
576.599	9878.78
576.96	9949.29
577.32	9915.39
577.681	9992.9
578.042	10046.68
578.403	10049.62
578.763	10151.99
579.124	10193.57
579.485	10317.86
579.845	10368.71
580.206	10434.25
580.566	10525.99
580.927	10517.18
581.287	10694.8
581.648	10683.96
582.008	10798.98
582.368	10905.19
582.728	11010.28
583.089	11097.28
583.449	11100.89
583.809	11232.42
584.169	11308.57
584.529	11424.5
584.889	11563.26
585.249	11590.83
585.609	11725.51
585.969	11895
586.329	11884.38
586.688	12057.03
587.048	12174.54
587.408	12279.62
587.768	12396.68
588.127	12549.44
588.487	12651.59
588.846	12779.04
589.206	12977.46
589.565	13066.94
589.925	13218.35
590.284	13268.97
590.643	13441.4
591.003	13574.28
591.362	13695.85
591.721	13836.19
592.08	14040.48
592.44	14163.19
592.799	14373.35
593.158	14482.05
593.517	14517.08
593.876	14689.73
594.235	14796.16
594.593	14961.58
594.952	15029.38
595.311	15162.26
595.67	15383.72
596.029	15655.8
596.387	15714.33
596.746	15840.43
597.104	15882.46
597.463	15966.53
597.822	16166.3
598.18	16257.14
598.538	16409.23
598.897	16532.16
599.255	16631.6
599.613	16841.76
599.972	16867.52
600.33	17082.43
600.688	17093.05
601.046	17278.59
601.404	17481.97
601.762	17500.5
602.12	17749.08
602.478	17750.66
602.836	17813.03
603.194	17898.23
603.552	18007.61
603.91	18068.17
604.268	18209.86
604.625	18280.37
604.983	18466.58
605.341	18484.43
605.698	18600.58
606.056	18722.62
606.413	18798.77
606.771	18879.67
607.128	19036.51
607.485	18991.08
607.843	18972.1
608.2	19274.69
608.557	19421.35
608.914	19433.78
609.272	19559.2
609.629	19606.43
609.986	19705.64
610.343	19825.18
610.7	19850.5
611.057	19904.05
611.414	19976.14
611.771	20034.9
612.127	20207.55
612.484	20203.93
612.841	20276.25
613.198	20377.94
613.554	20376.13
613.911	20576.8
614.267	20505.85
614.624	20546.97
614.98	20620.19
615.337	20824.03
615.693	20774.76
616.05	20856.8
616.406	21014.98
616.762	20972.27
617.118	20955.55
617.475	21132.72
617.831	21182.89
618.187	21198.71
618.543	21251.36
618.899	21429.89
619.255	21358.48
619.611	21398.7
619.967	21525.93
620.323	21694.74
620.678	21565.03
621.034	21547.85
621.39	21541.98
621.746	21582.65
622.101	21797.34
622.457	21696.1
622.812	21757.56
623.168	21814.51
623.523	21838.01
623.879	21926.37
624.234	21797.11
624.589	21953.26
624.945	21892.48
625.3	21881.63
625.655	21936.09
626.01	22065.8
626.365	21999.59
626.72	22034.84
627.075	22072.36
627.43	22030.55
627.785	22008.63
628.14	22060.83
628.495	22162.98
628.85	22164.56
629.205	21998.01
629.559	22191.45
629.914	22082.07
630.269	22139.93
630.623	22086.14
630.978	22045.01
631.332	22062.19
631.687	22232.35
632.041	22067.84
632.396	22083.43
632.75	21952.36
633.104	22030.55
633.459	22010.21
633.813	22052.92
634.167	22056.31
634.521	21987.84
634.875	22061.96
635.229	21991
635.583	21866.04
635.937	21835.08
636.291	21867.84
636.645	21925.24
636.999	21938.8
637.352	21911.23
637.706	21895.19
638.06	21868.3
638.413	21799.14
638.767	21852.48
639.121	21935.64
639.474	21809.77
639.828	21750.56
640.181	21841.63
640.534	21870.78
640.888	21777.68
641.241	21772.93
641.594	21824.23
641.947	21836.66
642.301	21628.53
642.654	21775.64
643.007	21788.52
643.36	21780.39
643.713	21736.77
644.066	21751.46
644.419	21616.55
644.771	21491.13
645.124	21361.64
645.477	21325.71
645.83	21215.2
646.182	21086.39
646.535	21160.74
646.888	21127.07
647.24	20965.95
647.593	21040.52
647.945	21028.09
648.298	21009.56
648.65	20829.68
649.002	20890.69
649.355	21061.99
649.707	20995.78
650.059	21091.14
650.411	21406.61
650.763	21447.74
651.115	21549.21
651.467	21499.94
651.819	21629.66
652.171	21485.25
652.523	21558.02
652.875	21472.6
653.227	21456.78
653.578	21572.94
653.93	21550.11
654.282	21360.74
654.633	21369.33
654.985	21438.25
655.337	21566.83
655.688	21501.3
656.039	21551.24
656.391	21380.85
656.742	21568.19
657.094	21441.19
657.445	21527.74
657.796	21513.28
658.147	21483.45
658.498	21424.46
658.849	21515.99
659.2	21522.32
659.551	21546.72
659.902	21569.77
660.253	21469.89
660.604	21489.32
660.955	21525.25
661.306	21566.83
661.656	21520.06
662.007	21600.51
662.358	21588.3
662.708	21710.79
663.059	21684.35
663.409	21460.17
663.76	21685.7
664.11	21608.19
664.461	21537
664.811	21623.1
665.161	21587.62
665.511	21597.34
665.862	21545.82
666.212	21625.36
666.562	21533.84
666.912	21662.2
667.262	21537.68
667.612	21599.83
667.962	21538.81
668.312	21494.07
668.662	21789.43
669.011	21705.81
669.361	21609.77
669.711	21518.7
670.06	21503.33
670.41	21493.16
670.76	21497.91
671.109	21542.65
671.459	21512.82
671.808	21504.24
672.157	21583.1
672.507	21460.4
672.856	21416.56
673.205	21412.04
673.554	21520.28
673.904	21371.36
674.253	21582.88
674.602	21482.99
674.951	21120.74
675.3	21010.92
675.649	21302.43
675.998	21327.07
676.346	21275.99
676.695	21461.75
677.044	21201.65
677.393	21330.91
677.741	21346.73
678.09	21196.67
678.438	21219.27
678.787	21263.57
679.135	21119.61
679.484	21090.01
679.832	21158.48
680.181	20992.39
680.529	20952.16
680.877	20984.48
681.225	20961.88
681.573	21135.21
681.922	20915.1
682.27	20909.45
682.618	20892.73
682.966	20795.1
683.314	20828.1
683.661	20841.2
684.009	20724.14
684.357	20706.52
684.705	20572.28
685.053	20688.44
685.4	20630.14
685.748	20460.42
686.095	20574.32
686.443	20448.22
686.79	20368
687.138	20383.59
687.485	20453.87
687.832	20309.24
688.18	20352.4
688.527	20145.85
688.874	20119.41
689.221	20121
689.568	20014.56
689.915	19914
690.262	20024.05
690.609	19879.42
690.956	19713.78
691.303	19772.53
691.65	19705.64
691.997	19655.92
692.344	19594
692.69	19519.88
693.037	19518.07
693.383	19438.3
693.73	19370.96
694.077	19389.94
694.423	19419.32
694.769	19215.26
695.116	19224.97
695.462	19252.77
695.808	19038.99
696.155	19107.92
696.501	18959.44
696.847	18971.65
697.193	18867.02
697.539	18844.42
697.885	18697.98
698.231	18657.98
698.577	18588.83
698.923	18509.97
699.269	18441.72
699.614	18399.01
699.96	18359.69
700.306	18301.38
700.651	18211.44
700.997	18154.72
701.342	18137.55
701.688	18066.59
702.033	18061.39
702.379	18068.85
702.724	17869.3
703.069	17957.66
703.415	17759.48
703.76	17794.28
704.105	17755.86
704.45	17717.44
704.795	17540.27
705.14	17503.89
705.485	17508.86
705.83	17377.79
706.175	17447.85
706.52	17370.33
706.865	17261.64
707.209	17287.17
707.554	17234.97
707.899	17175.76
708.243	17011.02
708.588	17032.04
708.932	16998.59
709.277	16925.37
709.621	16908.2
709.966	16831.59
710.31	16915.43
710.654	16699.84
710.998	16688.09
711.342	16586.17
711.687	16741.88
712.031	16552.73
712.375	16488.55
712.719	16594.54
713.063	16501.43
713.407	16519.96
713.75	16429.34
714.094	16477.93
714.438	16300.08
714.782	16348.21
715.125	16295.79
715.469	16299.63
715.812	16189.8
716.156	16091.72
716.499	16230.93
716.843	16167.43
717.186	16081.33
717.53	16195
717.873	16146.86
718.216	16007.66
718.559	16012.4
718.902	15928.79
719.246	15892.86
719.589	15863.71
719.932	15814.67
720.275	15919.52
720.617	15858.74
720.96	15821.67
721.303	15817.15
721.646	15814.22
721.989	15660.77
722.331	15740.77
722.674	15693.09
723.016	15785.29
723.359	15699.19
723.701	15799.53
724.044	15650.15
724.386	15535.58
724.729	15605.86
725.071	15599.31
725.413	15517.95
725.755	15585.52
726.097	15485.19
726.439	15446.09
726.782	15416.94
727.124	15446.77
727.465	15406.77
727.807	15460.78
728.149	15411.52
728.491	15418.07
728.833	15495.81
729.175	15384.17
729.516	15304.4
729.858	15319.31
730.199	15344.62
730.541	15248.13
730.882	15313.89
731.224	15382.82
731.565	15337.85
731.906	15213.1
732.248	15329.94
732.589	15248.58
732.93	15171.97
733.271	15239.32
733.612	15255.36
733.953	15294.46
734.294	15224.4
734.635	15256.94
734.976	15145.76
735.317	15141.69
735.658	15243.84
735.999	15188.24
736.339	15210.17
736.68	15249.94
737.021	15253.55
737.361	15165.87
737.702	15245.87
738.042	15308.24
738.383	15211.75
738.723	15273.44
739.063	15240.45
739.404	15278.19
739.744	15286.32
740.084	15230.96
740.424	15301.24
740.764	15237.73
741.104	15360.44
741.444	15369.93
741.784	15207.68
742.124	15334
742.464	15287.23
742.804	15275.93
743.143	15334.68
743.483	15308.47
743.823	15321.35
744.162	15363.83
744.502	15414.91
744.841	15328.81
745.181	15506.43
745.52	15452.64
745.86	15506.65
746.199	15449.48
746.538	15573.77
746.877	15618.06
747.216	15674.79
747.556	15709.81
747.895	15663.26
748.234	15762.92
748.573	15706.88
748.911	15878.4
749.25	15982.57
749.589	15938.28
749.928	16092.18
750.267	16113.42
750.605	16204.94
750.944	16245.84
751.283	16261.44
751.621	16472.96
751.96	16454.43
752.298	16470.24
752.636	16589.11
752.975	16599.06
753.313	16613.07
753.651	16842.89
753.989	16893.06
754.327	17056.44
754.666	17070.46
755.004	17228.87
755.342	17259.6
755.679	17328.75
756.017	17376.44
756.355	17561.06
756.693	17610.78
757.031	17779.36
757.368	17785.24
757.706	17963.54
758.044	17997.21
758.381	18176.19
758.719	18165.57
759.056	18407.14
759.394	18383.87
759.731	18379.57
760.068	18559
760.405	18670.64
760.743	18721.71
761.08	18858.43
761.417	18954.7
761.754	19088.26
762.091	19063.62
762.428	19196.27
762.765	19198.31
763.102	19483.05
763.438	19355.59
763.775	19452.09
764.112	19653.21
764.449	19688.69
764.785	19668.13
765.122	19733.89
765.458	19810.95
765.795	19866.99
766.131	19849.37
766.467	20042.35
766.804	19982.47
767.14	19959.42
767.476	20060.88
767.812	20038.96
768.148	20229.47
768.485	20063.82
768.821	20136.59
769.157	20185.18
769.492	20188.79
769.828	20208
770.164	20145.63
770.5	20211.84
770.836	20307.88
771.171	20264.5
771.507	20364.38
771.842	20196.47
772.178	20247.09
772.513	20222.46
772.849	20223.37
773.184	20264.72
773.519	20278.51
773.855	20286.87
774.19	20159.19
774.525	20294.78
774.86	20283.7
775.195	20262.91
775.53	20276.7
775.865	20186.31
776.2	20084.39
776.535	19959.19
776.87	20073.77
777.205	19990.83
777.539	19928.69
777.874	20058.63
778.209	19866.99
778.543	19965.07
778.878	19858.63
779.212	19755.13
779.547	19836.48
779.881	19876.03
780.215	19739.76
780.55	19775.24
780.884	19752.64
781.218	19587
781.552	19609.6
781.886	19502.26
782.22	19429.49
782.554	19402.15
782.888	19227.46
783.222	19281.02
783.556	19247.35
783.889	19209.16
784.223	19051.19
784.557	19123.51
784.89	19156.28
785.224	19118.76
785.557	19003.29
785.891	18930.29
786.224	18856.62
786.558	18877.41
786.891	18767.13
787.224	18652.79
787.557	18733.46
787.891	18624.31
788.224	18569.4
788.557	18553.13
788.89	18527.59
789.223	18420.25
789.556	18344.09
789.888	18286.02
790.221	18354.72
790.554	18166.02
790.887	18120.37
791.219	18185
791.552	18065.23
791.884	17966.48
792.217	17899.59
792.549	17963.09
792.882	17776.65
793.214	17754.5
793.546	17824.11
793.879	17678.8
794.211	17553.83
794.543	17571.46
794.875	17549.99
795.207	17550.67
795.539	17483.55
795.871	17478.81
796.203	17414.17
796.535	17194.97
796.867	17205.14
797.198	17117.46
797.53	17152.03
797.862	17090.57
798.193	17060.96
798.525	16929.89
798.856	17030.91
799.188	16890.57
799.519	16836.79
799.85	16767.41
800.182	16762.44
800.513	16715.89
800.844	16481.09
801.175	16601.77
801.506	16592.95
801.837	16557.25
802.168	16475.44
802.499	16479.96
802.83	16406.07
803.161	16334.2
803.491	16262.57
803.822	16246.97
804.153	16243.81
804.483	16090.14
804.814	16021.22
805.145	16062.57
805.475	16077.26
805.805	15963.14
806.136	15961.56
806.466	15868.45
806.796	15920.43
807.126	15774.44
807.457	15786.42
807.787	15824.39
808.117	15638.63
808.447	15654
808.777	15761.79
809.107	15550.04
809.436	15486.32
809.766	15540.33
810.096	15465.07
810.426	15392.31
810.755	15440.89
811.085	15397.05
811.414	15391.18
811.744	15202.03
812.073	15183.95
812.403	15190.96
812.732	15222.82
813.061	15121.13
813.39	15049.72
813.719	15018.76
814.049	15193.44
814.378	14974.01
814.707	15014.01
815.036	14945.77
815.365	14849.04
815.693	14791.42
816.022	14742.83
816.351	14746.22
816.68	14676.17
817.008	14729.5
817.337	14599.79
817.665	14520.69
817.994	14630.07
818.322	14533.12
818.651	14457.64
818.979	14449.51
819.307	14519.11
819.636	14502.61
819.964	14399.11
820.292	14366.12
820.62	14443.63
820.948	14380.36
821.276	14383.29
821.604	14310.75
821.932	14387.14
822.259	14330.87
822.587	14267.82
822.915	14332
823.243	14265.33
823.57	14319.34
823.898	14235.95
824.225	14221.72
824.553	14192.56
824.88	14282.51
825.207	14232.79
825.535	14185.11
825.862	14282.28
826.189	14167.48
826.516	14372.45
826.843	14355.5
827.17	14295.39
827.497	14293.58
827.824	14308.49
828.151	14278.21
828.478	14188.05
828.805	14271.21
829.131	14230.98
829.458	14192.11
829.785	14098.56
830.111	14224.65
830.438	14269.85
830.764	14296.52
831.09	14179.68
831.417	14124.09
831.743	14242.05
832.069	14203.86
832.395	14104.21
832.722	14101.95
833.048	14190.08
833.374	14184.66
833.7	14021.5
834.026	14069.63
834.351	14113.92
834.677	14110.53
835.003	14133.81
835.329	14071.89
835.654	14079.35
835.98	14069.4
836.306	13983.08
836.631	13990.08
836.956	14013.13
837.282	14005.9
837.607	13909.18
837.932	13963.87
838.258	13964.1
838.583	13885.91
838.908	13844.78
839.233	13770.2
839.558	13802.07
839.883	13793.93
840.208	13728.17
840.533	13823.31
840.858	13706.7
841.182	13654.05
841.507	13746.25
841.832	13627.61
842.156	13644.33
842.481	13563.88
842.805	13544.45
843.13	13525.69
843.454	13532.47
843.778	13386.94
844.103	13446.6
844.427	13316.88
844.751	13287.28
845.075	13309.42
845.399	13243.66
845.723	13267.62
846.047	13198.92
846.371	13152.59
846.695	13132.93
847.019	13005.93
847.343	12936.1
847.666	12941.52
847.99	12867.4
848.313	12835.31
848.637	12781.3
848.96	12686.16
849.284	12722.09
849.607	12598.26
849.931	12543.79
850.254	12440.97
850.577	12383.57
850.9	12329.79
851.223	12339.96
851.546	12299.28
851.869	12199.62
852.192	12311.26
852.515	12175.44
852.838	12167.53
853.161	12104.26
853.483	12047.31
853.806	11981.1
854.129	11989.68
854.451	11901.1
854.774	11929.35
855.096	11826.3
855.419	11683.7
855.741	11774.32
856.063	11737.49
856.385	11679.86
856.708	11655.23
857.03	11638.96
857.352	11693.2
857.674	11558.96
857.996	11486.87
858.318	11424.5
858.64	11424.5
858.961	11424.73
859.283	11382.02
859.605	11305.86
859.926	11367.33
860.248	11345.18
860.57	11298.86
860.891	11275.35
861.212	11137.5
861.534	11141.57
861.855	11106.77
862.176	11189.48
862.498	11107.45
862.819	11102.02
863.14	11104.51
863.461	11048.92
863.782	11036.26
864.103	11027.45
864.424	11027.22
864.745	10983.16
865.065	10897.96
865.386	10934.57
865.707	10863.61
866.027	10937.28
866.348	10907.68
866.668	10888.47
866.989	10815.93
867.309	10762.37
867.63	10797.17
867.95	10803.95
868.27	10732.09
868.59	10670.85
868.91	10635.6
869.23	10714.69
869.55	10703.62
869.87	10666.1
870.19	10610.74
870.51	10649.38
870.83	10691.87
871.15	10557.63
871.469	10509.05
871.789	10607.35
872.109	10560.8
872.428	10503.17
872.748	10527.35
873.067	10526.67
873.386	10543.62
873.706	10537.52
874.025	10415.26
874.344	10397.64
874.663	10408.26
874.982	10389.05
875.301	10386.56
875.62	10374.13
875.939	10331.65
876.258	10331.65
876.577	10299.11
876.896	10307.24
877.214	10230.18
877.533	10331.88
877.852	10227.02
878.17	10274.7
878.489	10252.56
878.807	10201.71
879.125	10141.15
879.444	10162.39
879.762	10166
880.08	10113.8
880.398	10008.04
880.716	10107.02
881.034	10036.06
881.352	10048.49
881.67	9982.05
881.988	10010.08
882.306	10008.95
882.624	9944.77
882.941	9892.11
883.259	9825.9
883.577	9860.48
883.894	9834.71
884.212	9779.8
884.529	9884.2
884.846	9800.59
885.164	9792.91
885.481	9667.71
885.798	9747.48
886.115	9699.8
886.432	9742.74
886.75	9656.64
887.067	9663.64
887.383	9580.03
887.7	9562.86
888.017	9522.86
888.334	9575.51
888.651	9522.63
888.967	9495.97
889.284	9395.63
889.6	9398.34
889.917	9373.26
890.233	9376.42
890.55	9313.82
890.866	9436.98
891.182	9299.13
891.498	9282.64
891.815	9227.05
892.131	9177.1
892.447	9148.63
892.763	9081.51
893.079	9131.45
893.395	9093.49
893.71	9099.37
894.026	9031.57
894.342	9062.3
894.657	8956.32
894.973	8931.46
895.289	8968.3
895.604	8889.2
895.92	8810.33
896.235	8801.07
896.55	8814.63
896.865	8763.33
897.181	8719.49
897.496	8733.27
897.811	8693.05
898.126	8604.46
898.441	8579.6
898.756	8546.39
899.071	8551.13
899.386	8528.76
899.7	8486.05
900.015	8481.53
900.33	8395.65
900.644	8369.67
900.959	8385.26
901.273	8336
901.588	8373.28
901.902	8293.28
902.216	8242.44
902.531	8266.17
902.845	8252.83
903.159	8188.2
903.473	8080.63
903.787	8160.18
904.101	8098.49
904.415	8040.86
904.729	8024.37
905.042	7989.11
905.356	7940.98
905.67	8004.93
905.984	7918.83
906.297	7896.46
906.611	7886.06
906.924	7904.37
907.237	7855.33
907.551	7839.51
907.864	7685.17
908.177	7746.63
908.491	7708.67
908.804	7670.48
909.117	7589.8
909.43	7579.41
909.743	7564.72
910.056	7473.19
910.368	7459.86
910.681	7418.51
910.994	7423.7
911.307	7381.9
911.619	7351.84
911.932	7373.76
912.244	7234.56
912.557	7324.5
912.869	7246.08
913.181	7177.38
913.494	7205.63
913.806	7153.65
914.118	7091.73
914.43	7040.66
914.742	7097.61
915.054	7030.49
915.366	7009.7
915.678	6958.63
915.99	6968.8
916.302	6933.09
916.613	6851.29
916.925	6886.54
917.236	6860.55
917.548	6749.37
917.859	6823.94
918.171	6729.03
918.482	6700.56
918.794	6685.64
919.105	6673.21
919.416	6605.65
919.727	6585.31
920.038	6586.21
920.349	6544.86
920.66	6545.99
920.971	6515.25
921.282	6538.53
921.593	6402.04
921.903	6409.49
922.214	6360.23
922.525	6390.51
922.835	6321.36
923.146	6287.46
923.456	6302.83
923.767	6203.62
924.077	6223.73
924.387	6223.73
924.697	6181.7
925.008	6147.13
925.318	6124.08
925.628	6113.68
925.938	6078.2
926.248	6033.23
926.558	5999.33
926.867	6000.46
927.177	5942.16
927.487	5916.62
927.796	5939.22
928.106	5889.51
928.416	5886.12
928.725	5881.37
929.034	5783.07
929.344	5796.18
929.653	5735.84
929.962	5729.96
930.271	5758.89
930.581	5725.67
930.89	5649.06
931.199	5645.9
931.508	5652.45
931.817	5672.79
932.125	5612.68
932.434	5582.4
932.743	5527.26
933.051	5501.27
933.36	5469.18
933.669	5475.96
933.977	5467.14
934.286	5439.8
934.594	5475.73
934.902	5365.45
935.21	5359.58
935.519	5342.18
935.827	5340.14
936.135	5283.87
936.443	5262.63
936.751	5197.77
937.059	5209.52
937.367	5193.25
937.674	5197.09
937.982	5137.44
938.29	5086.82
938.597	5146.25
938.905	5048.62
939.213	5078.23
939.52	5001.85
939.827	5052.69
940.135	4986.25
940.442	5006.59
940.749	4968.17
941.056	4964.78
941.363	4886.82
941.67	4849.53
941.977	4938.8
942.284	4840.27
942.591	4848.63
942.898	4817.22
943.205	4818.8
943.511	4741.06
943.818	4752.13
944.125	4669.43
944.431	4704.68
944.738	4717.33
945.044	4630.1
945.35	4693.38
945.657	4593.95
945.963	4601.4
946.269	4547.85
946.575	4562.08
946.881	4559.6
947.187	4538.36
947.493	4451.35
947.799	4468.3
948.105	4475.31
948.41	4446.15
948.716	4464.23
949.022	4395.76
949.327	4366.38
949.633	4337
949.938	4395.08
950.244	4326.16
950.549	4290
950.854	4305.14
951.16	4277.12
951.465	4240.28
951.77	4241.19
952.075	4189.21
952.38	4210.45
952.685	4182.66
952.99	4157.57
953.294	4132.94
953.599	4121.64
953.904	4086.16
954.209	4072.15
954.513	4088.42
954.818	4061.53
955.122	4040.74
955.426	4015.66
955.731	4005.26
956.035	4021.76
956.339	3962.1
956.643	3942.21
956.948	3960.52
957.252	3895.89
957.556	3901.76
957.86	3884.81
958.163	3850.69
958.467	3827.41
958.771	3805.72
959.075	3813.18
959.378	3775.89
959.682	3833.06
959.985	3748.77
960.289	3757.58
960.592	3728.66
960.896	3726.17
961.199	3688.66
961.502	3694.99
961.805	3657.02
962.108	3666.74
962.411	3660.64
962.714	3597.14
963.017	3602.79
963.32	3653.41
963.623	3597.36
963.926	3549
964.228	3569.34
964.531	3543.13
964.833	3552.84
965.136	3504.71
965.438	3447.08
965.741	3461.1
966.043	3400.53
966.345	3456.35
966.648	3436.01
966.95	3437.82
967.252	3376.13
967.554	3387.43
967.856	3386.3
968.158	3317.6
968.46	3318.73
968.761	3263.36
969.063	3323.7
969.365	3253.42
969.666	3282.34
969.968	3304.72
970.269	3254.77
970.571	3227.43
970.872	3237.37
971.174	3197.15
971.475	3195.57
971.776	3177.26
972.077	3171.16
972.378	3143.82
972.679	3144.04
972.98	3141.78
973.281	3121.44
973.582	3087.55
973.883	3076.7
974.183	3085.29
974.484	3064.72
974.785	3066.3
975.085	2989.24
975.386	2998.73
975.686	3006.19
975.986	3010.26
976.287	3001.9
976.587	2943.14
976.887	2924.16
977.187	2905.4
977.487	2907.44
977.787	2897.27
978.087	2880.09
978.387	2882.13
978.687	2882.35
978.987	2867.44
979.286	2858.4
979.586	2829.7
979.885	2823.6
980.185	2820.66
980.484	2809.81
980.784	2784.96
981.083	2759.42
981.382	2736.14
981.682	2755.35
981.981	2718.97
982.28	2714.45
982.579	2709.25
982.878	2694.11
983.177	2696.14
983.475	2711.96
983.774	2660.44
984.073	2620.44
984.372	2638.29
984.67	2630.83
984.969	2598.75
985.267	2621.34
985.566	2615.47
985.864	2560.55
986.162	2541.12
986.461	2534.57
986.759	2540.22
987.057	2552.19
987.355	2533.89
987.653	2490.05
987.951	2504.28
988.249	2485.08
988.547	2462.03
988.844	2456.38
989.142	2414.8
989.44	2423.83
989.737	2386.1
990.035	2417.51
990.332	2390.16
990.63	2374.8
990.927	2387.23
991.224	2358.98
991.521	2379.09
991.819	2348.13
992.116	2356.04
992.413	2332.76
992.71	2292.99
993.006	2300
993.303	2297.28
993.6	2254.57
993.897	2285.76
994.193	2281.47
994.49	2274.23
994.787	2274.69
995.083	2242.6
995.379	2221.81
995.676	2204.86
995.972	2185.42
996.268	2216.61
996.565	2166.67
996.861	2161.47
997.157	2150.4
997.453	2146.33
997.749	2116.5
998.044	2115.37
998.34	2108.59
998.636	2076.05
998.932	2106.33
999.227	2091.64
999.523	2056.39
999.818	2045.77
1000.114	2031.98
1000.409	2032.21
1000.704	2012.55
1001	2024.52
1001.295	1996.05
1001.59	2029.72
1001.885	2001.7
1002.18	1973.45
1002.475	1952.66
1002.77	1978.87
1003.065	1961.7
1003.359	1926.22
1003.654	1922.38
1003.949	1929.38
1004.243	1887.13
1004.538	1887.58
1004.832	1872.21
1005.127	1868.14
1005.421	1860.23
1005.715	1846.9
1006.009	1852.78
1006.304	1835.83
1006.598	1813.68
1006.892	1796.28
1007.186	1766
1007.48	1801.7
1007.773	1771.65
1008.067	1765.77
1008.361	1739.33
1008.655	1743.17
1008.948	1756.06
1009.242	1732.55
1009.535	1721.93
1009.829	1684.19
1010.122	1680.35
1010.415	1707.7
1010.708	1681.03
1011.001	1674.02
1011.295	1662.5
1011.588	1635.61
1011.881	1631.31
1012.173	1615.72
1012.466	1626.12
1012.759	1612.56
1013.052	1611.43
1013.344	1591.77
1013.637	1574.37
1013.93	1572.56
1014.222	1566.23
1014.514	1559
1014.807	1542.95
1015.099	1507.7
1015.391	1517.42
1015.683	1519.9
1015.976	1503.63
1016.268	1514.48
1016.56	1469.51
1016.851	1506.12
1017.143	1484.65
1017.435	1474.26
1017.727	1455.27
1018.018	1465.44
1018.31	1451.43
1018.602	1407.59
1018.893	1418.66
1019.185	1393.13
1019.476	1391.77
1019.767	1383.86
1020.058	1422.5
1020.35	1368.5
1020.641	1352.45
1020.932	1365.33
1021.223	1355.61
1021.514	1307.71
1021.804	1309.74
1022.095	1337.76
1022.386	1325.11
1022.677	1295.05
1022.967	1275.62
1023.258	1298.67
1023.548	1293.47
1023.839	1295.95
1024.129	1285.56
1024.419	1257.99
1024.709	1234.49
1025	1248.05
1025.29	1227.26
1025.58	1196.3
1025.87	1233.36
1026.16	1208.05
1026.449	1226.13
1026.739	1171.21
1027.029	1188.39
1027.319	1197.88
1027.608	1186.13
1027.898	1152
1028.187	1156.52
1028.477	1142.74
1028.766	1135.05
1029.055	1128.73
1029.344	1142.74
1029.634	1102.51
1029.923	1083.98
1030.212	1111.33
1030.501	1112.68
1030.79	1087.15
1031.078	1077.88
1031.367	1056.64
1031.656	1076.53
1031.945	1065.9
1032.233	1054.15
1032.522	1049.18
1032.81	1040.82
1033.099	1041.5
1033.387	1025.68
1033.675	1023.87
1033.963	1014.61
1034.251	1018.9
1034.54	1007.15
1034.828	1011.89
1035.116	985
1035.403	1003.53
1035.691	961.73
1035.979	966.7
1036.267	958.11
1036.554	950.2
1036.842	946.13
1037.129	992.91
1037.417	929.64
1037.704	935.51
1037.992	927.15
1038.279	931.67
1038.566	908.17
1038.853	908.17
1039.14	908.17
