Data from hue_310_FLMS001491_26.txt Node
Date: Mon Feb 06 15:49:19 GMT 2017
User: dcchb
Spectrometer: FLMS00149
Trigger mode: 0
Integration Time (sec): 2.000000E-2
Scans to average: 10
Electric dark correction enabled: true
Nonlinearity correction enabled: false
Boxcar width: 0
XAxis mode: Wavelengths
Number of Pixels in Spectrum: 2048
>>>>>Begin Spectral Data<<<<<
341.393	-0.37
341.776	-0.37
342.16	-0.37
342.543	-53.02
342.927	-65.9
343.31	-82.85
343.693	-63.19
344.077	-73.59
344.46	-81.27
344.843	-47.6
345.226	-38.33
345.61	-23.64
345.993	-6.69
346.376	-22.97
346.759	12.97
347.142	25.62
347.525	49.8
347.908	68.78
348.291	72.17
348.674	97.03
349.057	113.75
349.44	114.43
349.823	157.82
350.206	166.63
350.588	165.05
350.971	210.02
351.354	210.25
351.737	229.01
352.119	229.46
352.502	254.09
352.884	271.94
353.267	278.27
353.65	287.53
354.032	307.65
354.414	304.03
354.797	310.13
355.179	336.35
355.562	313.97
355.944	334.54
356.326	323.01
356.709	330.47
357.091	323.92
357.473	337.48
357.855	343.8
358.238	331.15
358.62	338.15
359.002	335.9
359.384	357.82
359.766	332.05
360.148	333.41
360.53	300.19
360.912	330.92
361.294	352.17
361.676	318.27
362.057	325.5
362.439	339.51
362.821	316.91
363.203	325.95
363.584	318.49
363.966	336.8
364.348	305.16
364.729	302.22
365.111	314.88
365.493	323.47
365.874	318.72
366.256	316.23
366.637	307.87
367.019	307.2
367.4	325.73
367.781	321.88
368.163	319.85
368.544	309.91
368.925	308.1
369.306	300.87
369.688	301.77
370.069	315.56
370.45	320.98
370.831	315.56
371.212	298.38
371.593	302.45
371.974	293.18
372.355	300.64
372.736	288.44
373.117	311.49
373.498	314.88
373.879	321.66
374.26	296.8
374.641	319.62
375.021	326.18
375.402	311.71
375.783	314.2
376.163	306.52
376.544	317.36
376.925	327.76
377.305	327.53
377.686	323.69
378.066	357.59
378.447	312.17
378.827	315.78
379.208	325.27
379.588	305.16
379.968	333.18
380.349	337.03
380.729	321.43
381.109	325.5
381.489	332.96
381.87	326.18
382.25	317.59
382.63	327.53
383.01	334.31
383.39	325.05
383.77	364.82
384.15	325.05
384.53	344.26
384.91	349.68
385.29	316.01
385.67	356.46
386.049	336.35
386.429	346.74
386.809	360.75
387.189	340.19
387.568	356.46
387.948	351.04
388.328	340.64
388.707	324.6
389.087	358.49
389.466	361.66
389.846	360.3
390.225	372.73
390.605	366.85
390.984	349
391.363	359.85
391.743	389.91
392.122	367.31
392.501	371.83
392.881	384.48
393.26	364.59
393.639	362.11
394.018	362.56
394.397	355.1
394.776	365.27
395.155	382.67
395.534	373.18
395.913	358.72
396.292	386.29
396.671	384.26
397.05	388.55
397.429	407.98
397.808	392.16
398.186	376.57
398.565	383.13
398.944	394.88
399.323	377.93
399.701	402.56
400.08	388.78
400.458	379.51
400.837	400.75
401.215	394.65
401.594	406.85
401.972	391.26
402.351	417.02
402.729	412.28
403.107	409.11
403.486	404.82
403.864	419.96
404.242	424.71
404.62	414.99
404.999	426.06
405.377	438.49
405.755	437.59
406.133	421.99
406.511	430.58
406.889	430.36
407.267	441.66
407.645	442.56
408.023	458.38
408.401	452.73
408.779	477.13
409.156	479.17
409.534	499.51
409.912	479.85
410.29	483.69
410.667	475.33
411.045	511.71
411.422	494.76
411.8	499.05
412.178	520.75
412.555	520.07
412.933	521.43
413.31	541.77
413.687	529.56
414.065	528.88
414.442	540.18
414.819	559.84
415.197	557.36
415.574	583.8
415.951	572.5
416.328	591.26
416.705	611.82
417.082	598.71
417.46	594.42
417.837	624.02
418.214	626.06
418.591	647.75
418.967	627.19
419.344	633.97
419.721	640.29
420.098	650.24
420.475	660.86
420.852	684.36
421.228	662.89
421.605	677.36
421.982	676.23
422.358	698.6
422.735	710.35
423.111	713.74
423.488	727.75
423.864	743.79
424.241	742.66
424.617	762.55
424.994	749.44
425.37	758.03
425.746	762.55
426.123	780.63
426.499	779.5
426.875	809.1
427.251	783.79
427.627	799.39
428.003	827.41
428.379	805.94
428.756	835.09
429.132	861.76
429.507	860.18
429.883	857.69
430.259	878.71
430.635	896.78
431.011	880.97
431.387	922.09
431.763	938.59
432.138	931.59
432.514	927.52
432.89	924.35
433.265	959.83
433.641	966.39
434.016	971.36
434.392	1007.06
434.767	1009.55
435.143	999.38
435.518	999.83
435.894	1038.25
436.269	1036.67
436.644	1050
437.02	1073.05
437.395	1055.88
437.77	1054.97
438.145	1108.3
438.52	1105.37
438.895	1112.37
439.271	1080.96
439.646	1117.8
440.021	1149.21
440.395	1150.34
440.77	1140.39
441.145	1123.9
441.52	1175.87
441.895	1148.53
442.27	1186.95
442.645	1172.71
443.019	1172.71
443.394	1185.59
443.769	1207.74
444.143	1194.4
444.518	1212.93
444.892	1192.37
445.267	1206.83
445.641	1238.7
446.016	1202.76
446.39	1205.48
446.764	1233.72
447.139	1221.75
447.513	1205.7
447.887	1241.41
448.262	1233.27
448.636	1237.34
449.01	1261.52
449.384	1276.44
449.758	1273.5
450.132	1283.21
450.506	1278.47
450.88	1256.1
451.254	1308.75
451.628	1329.77
452.002	1327.73
452.376	1330.22
452.75	1318.24
453.123	1369.99
453.497	1347.17
453.871	1355.08
454.244	1363.21
454.618	1386.26
454.992	1373.61
455.365	1373.16
455.739	1401.86
456.112	1419.71
456.486	1392.36
456.859	1426.04
457.232	1423.55
457.606	1424.45
457.979	1445.92
458.352	1457.22
458.725	1482.76
459.099	1478.24
459.472	1530.21
459.845	1522.08
460.218	1516.2
460.591	1532.02
460.964	1510.78
461.337	1560.5
461.71	1601.62
462.083	1581.29
462.456	1570.66
462.829	1616.54
463.201	1621.74
463.574	1622.19
463.947	1613.83
464.32	1648.4
464.692	1659.02
465.065	1673.04
465.438	1680.72
465.81	1685.92
466.183	1694.5
466.555	1743.09
466.928	1758.23
467.3	1744.45
467.672	1774.28
468.045	1806.14
468.417	1777.67
468.789	1796.65
469.161	1826.93
469.534	1838.68
469.906	1874.39
470.278	1873.48
470.65	1873.71
471.022	1903.31
471.394	1915.29
471.766	1951.22
472.138	1935.4
472.51	2014.04
472.882	2004.78
473.253	2012.24
473.625	2051.78
473.997	2055.4
474.369	2090.2
474.74	2078.22
475.112	2122.51
475.484	2152.12
475.855	2188.05
476.227	2165
476.598	2223.98
476.97	2247.48
477.341	2287.93
477.713	2259.01
478.084	2267.14
478.455	2365.67
478.827	2355.05
479.198	2403.64
479.569	2400.7
479.94	2421.49
480.311	2465.1
480.682	2524.54
481.053	2530.41
481.424	2567.25
481.795	2595.5
482.166	2600.69
482.537	2646.57
482.908	2653.35
483.279	2736.51
483.65	2751.2
484.021	2759.79
484.391	2788.71
484.762	2807.69
485.133	2826.9
485.503	2844.3
485.874	2879.78
486.244	2899.67
486.615	2903.51
486.985	2966.56
487.356	2976.73
487.726	3000.91
488.097	3048.14
488.467	3080.68
488.837	3168.36
489.207	3129.49
489.578	3176.05
489.948	3190.51
490.318	3240.9
490.688	3221.92
491.058	3256.04
491.428	3301.47
491.798	3361.13
492.168	3361.13
492.538	3389.6
492.908	3421.92
493.278	3470.05
493.648	3421.92
494.017	3472.31
494.387	3458.52
494.757	3538.52
495.126	3534
495.496	3515.25
495.866	3569.48
496.235	3592.98
496.605	3613.1
496.974	3649.93
497.344	3658.75
497.713	3659.2
498.082	3689.48
498.452	3706.88
498.821	3695.58
499.19	3755.47
499.559	3757.73
499.928	3770.38
500.298	3776.93
500.667	3819.19
501.036	3842.02
501.405	3881.11
501.774	3858.29
502.143	3908.46
502.512	3869.59
502.88	3901.45
503.249	3907.55
503.618	3922.92
503.987	3963.6
504.356	3978.06
504.724	3992.52
505.093	3961.56
505.462	3960.88
505.83	3992.75
506.199	4020.09
506.567	4073.42
506.936	4041.33
507.304	4085.85
507.672	4099.19
508.041	4079.75
508.409	4136.25
508.777	4129.69
509.145	4178.28
509.514	4149.81
509.882	4135.34
510.25	4206.08
510.618	4200.88
510.986	4251.95
511.354	4205.17
511.722	4234.1
512.09	4274.1
512.458	4266.19
512.826	4347.99
513.193	4278.16
513.561	4322.23
513.929	4311.16
514.297	4340.08
514.664	4398.16
515.032	4384.83
515.4	4383.92
515.767	4395.9
516.135	4397.26
516.502	4432.74
516.869	4442.68
517.237	4448.78
517.604	4449.23
517.972	4505.5
518.339	4516.8
518.706	4500.31
519.073	4487.2
519.44	4527.88
519.808	4531.27
520.175	4555.45
520.542	4576.24
520.909	4559.96
521.276	4559.96
521.643	4653.97
522.009	4656.91
522.376	4631.38
522.743	4646.74
523.11	4710.47
523.477	4679.28
523.843	4727.64
524.21	4795.66
524.577	4757.47
524.943	4750.02
525.31	4828.88
525.676	4841.77
526.043	4871.37
526.409	4837.7
526.776	4909.79
527.142	4915.89
527.508	4931.71
527.874	4965.15
528.241	5019.16
528.607	5010.12
528.973	5030.23
529.339	5083.34
529.705	5077.01
530.071	5143.23
530.437	5151.59
530.803	5151.14
531.169	5151.81
531.535	5185.94
531.901	5205.37
532.267	5188.87
532.632	5266.39
532.998	5261.64
533.364	5328.98
533.73	5338.02
534.095	5347.97
534.461	5389.1
534.826	5400.85
535.192	5387.29
535.557	5489.21
535.923	5450.56
536.288	5484.91
536.653	5484.91
537.019	5425.48
537.384	5527.17
537.749	5526.72
538.114	5534.4
538.479	5571.92
538.845	5575.98
539.21	5568.75
539.575	5646.04
539.94	5668.64
540.305	5704.34
540.67	5711.12
541.034	5760.61
541.399	5777.56
541.764	5821.17
542.129	5798.8
542.494	5846.26
542.858	5891
543.223	5879.7
543.587	5916.99
543.952	5959.25
544.316	5900.95
544.681	5982.53
545.045	6000.6
545.41	6043.99
545.774	6041.28
546.138	6064.11
546.503	6074.95
546.867	6164.89
547.231	6157.21
547.595	6203.76
547.959	6126.93
548.324	6210.99
548.688	6197.44
549.052	6251.9
549.416	6247.15
549.779	6305.68
550.143	6257.77
550.507	6344.78
550.871	6347.71
551.235	6355.17
551.599	6403.31
551.962	6412.57
552.326	6453.7
552.689	6462.29
553.053	6444.44
553.417	6459.35
553.78	6533.25
554.143	6480.14
554.507	6521.27
554.87	6604.43
555.234	6645.79
555.597	6550.42
555.96	6609.63
556.323	6634.94
556.686	6662.51
557.05	6656.41
557.413	6677.42
557.776	6690.3
558.139	6713.13
558.502	6743.41
558.865	6731.66
559.228	6817.31
559.59	6802.39
559.953	6786.57
560.316	6859.57
560.679	6895.95
561.041	6900.02
561.404	6992.22
561.767	6961.26
562.129	7006.45
562.492	7006.45
562.854	7026.11
563.217	6954.7
563.579	7080.8
563.941	7101.14
564.304	7086
564.666	7144.3
565.028	7154.92
565.39	7246
565.753	7198.31
566.115	7193.79
566.477	7253.23
566.839	7308.14
567.201	7317.63
567.563	7318.54
567.925	7351.98
568.287	7399.89
568.648	7389.72
569.01	7441.25
569.372	7494.8
569.734	7497.97
570.095	7559.89
570.457	7622.26
570.819	7566.21
571.18	7702.26
571.542	7651.63
571.903	7655.93
572.265	7687.79
572.626	7737.06
572.987	7704.29
573.349	7832.2
573.71	7850.95
574.071	7861.57
574.432	7974.56
574.794	8005.75
575.155	8130.94
575.516	8149.25
575.877	8190.15
576.238	8257.49
576.599	8390.15
576.96	8375.68
577.32	8455.91
577.681	8564.15
578.042	8641.89
578.403	8652.06
578.763	8742
579.124	8880.76
579.485	8943.58
579.845	9110.13
580.206	9144.25
580.566	9299.28
580.927	9405.94
581.287	9515.09
581.648	9667.18
582.008	9825.82
582.368	9959.14
582.728	10162.76
583.089	10204.11
583.449	10412.24
583.809	10621.27
584.169	10822.4
584.529	10916.86
584.889	11182.84
585.249	11342.61
585.609	11442.04
585.969	11686.11
586.329	11797.74
586.688	12135.58
587.048	12277.05
587.408	12503.71
587.768	12761.56
588.127	12934.89
588.487	13202.9
588.846	13495.1
589.206	13626.62
589.565	13966.27
589.925	14256.89
590.284	14429.31
590.643	14658
591.003	14972.8
591.362	15307.48
591.721	15471.09
592.08	15793.12
592.44	16100.23
592.799	16372.31
593.158	16641.46
593.517	16954.22
593.876	17261.33
594.235	17515.56
594.593	17786.06
594.952	18106.95
595.311	18329.55
595.67	18679.82
596.029	19067.38
596.387	19426.01
596.746	19609.96
597.104	19729.06
597.463	20066.9
597.822	20427.8
598.18	20720.44
598.538	20854.45
598.897	21344.16
599.255	21392.97
599.613	21976.46
599.972	22195.66
600.33	22474.97
600.688	22672.93
601.046	23056.2
601.404	23419.81
601.762	23666.81
602.12	24045.55
602.478	24257.75
602.836	24584.75
603.194	24598.31
603.552	24904.97
603.91	25183.6
604.268	25503.59
604.625	25651.84
604.983	26017.93
605.341	26205.5
605.698	26447.98
606.056	26878.25
606.413	26955.08
606.771	27189.2
607.128	27452.92
607.485	27701.73
607.843	27798.22
608.2	28206.35
608.557	28517.75
608.914	28584.64
609.272	28851.08
609.629	29133.33
609.986	29477.28
610.343	29409.93
610.7	29868.23
611.057	30011.05
611.414	30191.38
611.771	30379.85
612.127	30680.86
612.484	30782.78
612.841	31182.54
613.198	31123.79
613.554	31334.18
613.911	31606.71
614.267	31817.78
614.624	31910.66
614.98	32144.1
615.337	32368.5
615.693	32468.61
616.05	32561.49
616.406	32848.71
616.762	32864.76
617.118	32917.86
617.475	33168.93
617.831	33318.08
618.187	33579.99
618.543	33736.6
618.899	33880.78
619.255	33941.34
619.611	34062.92
619.967	34278.96
620.323	34517.82
620.678	34312.4
621.034	34475.11
621.39	34543.36
621.746	34588.78
622.101	35235.54
622.457	35010.92
622.812	35146.73
623.168	35264.02
623.523	35275.32
623.879	35578.13
624.234	35380.62
624.589	35570
624.945	35793.27
625.3	35712.82
625.655	35744.23
626.01	36105.8
626.365	36086.37
626.72	36000.04
627.075	36049.08
627.43	36147.83
627.785	36184.9
628.14	36339.24
628.495	36381.05
628.85	36477.32
629.205	36429.64
629.559	36531.33
629.914	36441.84
630.269	36660.59
630.623	36572.46
630.978	36473.7
631.332	36737.2
631.687	36846.35
632.041	36690.19
632.396	36780.59
632.75	36664.88
633.104	36842.51
633.459	36748.27
633.813	36792.11
634.167	36856.74
634.521	36845.22
634.875	36796.18
635.229	36931.54
635.583	36764.77
635.937	36952.79
636.291	36814.94
636.645	36821.72
636.999	36778.78
637.352	36865.33
637.706	36763.19
638.06	36934.71
638.413	37054.48
638.767	36837.31
639.121	36949.4
639.474	36653.58
639.828	36730.42
640.181	36872.34
640.534	36887.48
640.888	36819.91
641.241	36600.93
641.594	36705.79
641.947	36877.08
642.301	36764.54
642.654	36841.15
643.007	36764.99
643.36	36714.6
643.713	36616.75
644.066	36914.82
644.419	36602.51
644.771	36368.39
645.124	36168.85
645.477	36121.85
645.83	35889.31
646.182	35796.43
646.535	35578.81
646.888	35795.98
647.24	35523.22
647.593	35720.05
647.945	35804.12
648.298	35584.01
648.65	35455.88
649.002	35556.44
649.355	35645.7
649.707	35626.94
650.059	35764.12
650.411	36148.06
650.763	36199.36
651.115	36490.2
651.467	36467.15
651.819	36393.93
652.171	36478.22
652.523	36176.53
652.875	36298.11
653.227	36223.54
653.578	36391.9
653.93	36500.82
654.282	36183.77
654.633	36137.21
654.985	36266.02
655.337	36201.39
655.688	36208.85
656.039	36428.73
656.391	36066.26
656.742	36192.13
657.094	36129.08
657.445	36259.24
657.796	36243.43
658.147	36047.72
658.498	36108.29
658.849	36109.19
659.2	36168.63
659.551	36022.41
659.902	36242.52
660.253	36117.1
660.604	36233.71
660.955	36006.6
661.306	36079.81
661.656	36080.27
662.007	36154.16
662.358	36064.9
662.708	36047.27
663.059	36021.74
663.409	35854.74
663.76	36093.6
664.11	35962.08
664.461	36212.47
664.811	36003.21
665.161	35955.3
665.511	35918.01
665.862	36027.16
666.212	36136.54
666.562	35953.94
666.912	35954.17
667.262	35913.72
667.612	35925.92
667.962	35948.07
668.312	35850.67
668.662	36100.83
669.011	35928.86
669.361	35869.65
669.711	35954.17
670.06	35829.65
670.41	35724.8
670.76	35802.08
671.109	35997.78
671.459	35814.96
671.808	35764.57
672.157	35898.58
672.507	35676.43
672.856	35600.5
673.205	35699.71
673.554	35853.15
673.904	35713.04
674.253	35862.42
674.602	35745.36
674.951	35210.46
675.3	35086.62
675.649	35705.13
675.998	35588.98
676.346	35715.3
676.695	35769.31
677.044	35547.62
677.393	35744.46
677.741	35628.75
678.09	35637.34
678.438	35400.96
678.787	35654.29
679.135	35642.31
679.484	35351.47
679.832	35516.21
680.181	35186.28
680.529	35309.44
680.877	35340.62
681.225	35185.6
681.573	35466.27
681.922	35192.38
682.27	35112.61
682.618	35130.46
682.966	34985.61
683.314	35024.25
683.661	34955.32
684.009	34748.1
684.357	34746.29
684.705	34653.41
685.053	34864.03
685.4	34599.85
685.748	34472.17
686.095	34526.18
686.443	34305.4
686.79	34390.59
687.138	34359.63
687.485	34396.24
687.832	34220.65
688.18	34237.83
688.527	34121
688.874	34154.44
689.221	34064.27
689.568	34066.08
689.915	33959.19
690.262	33947.21
690.609	33796.03
690.956	33684.4
691.303	33593.55
691.65	33466.1
691.997	33594.23
692.344	33270.62
692.69	33294.8
693.037	33311.3
693.383	33089.38
693.73	33166.9
694.077	33054.81
694.423	33049.84
694.769	33031.76
695.116	32886
695.462	32776.62
695.808	32757.87
696.155	32773.91
696.501	32527.37
696.847	32581.83
697.193	32232.68
697.539	32494.15
697.885	32120.82
698.231	32093.48
698.577	32023.65
698.923	32112.01
699.269	31821.17
699.614	31654.62
699.96	31684.45
700.306	31704.11
700.651	31446.94
700.997	31486.71
701.342	31452.37
701.688	31385.7
702.033	31288.08
702.379	31330.79
702.724	31065.26
703.069	31156.55
703.415	30868.88
703.76	30920.85
704.105	30907.52
704.45	30775.09
704.795	30583.46
705.14	30602.44
705.485	30604.48
705.83	30449.91
706.175	30430.47
706.52	30360.64
706.865	30289.23
707.209	30283.36
707.554	30104.15
707.899	30284.49
708.243	30149.57
708.588	29828.68
708.932	29743.48
709.277	29807.89
709.621	29867.1
709.966	29685.18
710.31	29560.44
710.654	29415.36
710.998	29514.79
711.342	29518.18
711.687	29302.82
712.031	29350.5
712.375	29101.92
712.719	29160.9
713.063	29120.9
713.407	29156.61
713.75	28978.08
714.094	29007.91
714.438	28995.71
714.782	28958.19
715.125	28776.5
715.469	28887.69
715.812	28783.06
716.156	28459.68
716.499	28673.23
716.843	28696.73
717.186	28529.96
717.53	28591.42
717.873	28537.41
718.216	28412.67
718.559	28435.04
718.902	28163.19
719.246	28275.95
719.589	28227.37
719.932	28049.06
720.275	27980.82
720.617	27996.64
720.96	27843.87
721.303	28049.29
721.646	27893.14
721.989	27641.84
722.331	27948.28
722.674	27689.75
723.016	27684.33
723.359	27728.85
723.701	27673.93
724.044	27461.74
724.386	27353.94
724.729	27458.12
725.071	27353.04
725.413	27456.31
725.755	27337.45
726.097	27247.73
726.439	27158.24
726.782	27131.8
727.124	27292.25
727.465	27087.06
727.807	27033.05
728.149	26890
728.491	26901.07
728.833	27050.9
729.175	26855.88
729.516	26817.91
729.858	26748.99
730.199	26759.16
730.541	26758.7
730.882	26794.63
731.224	26808.42
731.565	26521.2
731.906	26693.85
732.248	26628.76
732.589	26491.82
732.93	26429.45
733.271	26380.41
733.612	26529.1
733.953	26458.82
734.294	26426.06
734.635	26262.22
734.976	26316.91
735.317	26147.42
735.658	26236.68
735.999	26264.03
736.339	26076.01
736.68	26209.79
737.021	25946.07
737.361	25906.3
737.702	26056.35
738.042	26012.96
738.383	25975.9
738.723	25896.35
739.063	25798.5
739.404	25800.99
739.744	25720.76
740.084	25654.55
740.424	25699.75
740.764	25583.82
741.104	25666.53
741.444	25544.27
741.784	25489.13
742.124	25503.37
742.464	25453.43
742.804	25437.83
743.143	25455.91
743.483	25343.6
743.823	25261.79
744.162	25318.52
744.502	25196.94
744.841	25220.89
745.181	25160.33
745.52	25067.45
745.86	25186.32
746.199	25067.9
746.538	25005.3
746.877	25081.46
747.216	25071.29
747.556	24899.09
747.895	25043.49
748.234	24836.49
748.573	24856.61
748.911	24831.07
749.25	24820.9
749.589	24638.98
749.928	24726.21
750.267	24648.7
750.605	24619.55
750.944	24575.71
751.283	24491.42
751.621	24439.67
751.96	24453.45
752.298	24349.05
752.636	24404.41
752.975	24208.04
753.313	24151.09
753.651	24294.81
753.989	24106.34
754.327	24131.43
754.666	23969.85
755.004	23989.06
755.342	23980.92
755.679	23959.91
756.017	23831.32
756.355	23842.17
756.693	23840.59
757.031	23749.29
757.368	23540.26
757.706	23664.1
758.044	23568.73
758.381	23552.01
758.719	23467.04
759.056	23524.44
759.394	23381.39
759.731	23135.75
760.068	23199.47
760.405	23041.74
760.743	22960.38
761.08	23024.79
761.417	22973.94
761.754	22784.34
762.091	22765.59
762.428	22706.61
762.765	22647.17
763.102	22628.64
763.438	22484.01
763.775	22388.65
764.112	22403.11
764.449	22417.35
764.785	22253.96
765.122	22130.35
765.458	22127.19
765.795	22074.08
766.131	22000.86
766.467	21953.86
766.804	21836.12
767.14	21733.3
767.476	21705.73
767.812	21602.45
768.148	21690.81
768.485	21398.17
768.821	21384.38
769.157	21353.87
769.492	21300.99
769.828	21192.97
770.164	21063.26
770.5	21057.61
770.836	21041.11
771.171	20944.17
771.507	20885.41
771.842	20776.26
772.178	20770.61
772.513	20706.21
772.849	20632.31
773.184	20437.97
773.519	20468.47
773.855	20402.03
774.19	20340.57
774.525	20282.04
774.86	20240.46
775.195	20221.93
775.53	20057.86
775.865	20011.54
776.2	19806.34
776.535	19719.11
776.87	19649.29
777.205	19687.48
777.539	19596.41
777.874	19582.62
778.209	19389.86
778.543	19344.43
778.878	19332.91
779.212	19300.37
779.547	19181.05
779.881	19119.81
780.215	19053.37
780.55	19092.92
780.884	18932.02
781.218	18774.05
781.552	18780.38
781.886	18793.49
782.22	18698.12
782.554	18577.45
782.888	18364.8
783.222	18295.42
783.556	18290.45
783.889	18291.36
784.223	18093.39
784.557	18120.74
784.89	18242.09
785.224	18002.55
785.557	17930.23
785.891	17822.22
786.224	17777.47
786.558	17840.52
786.891	17605.72
787.224	17650.92
787.557	17542.45
787.891	17529.57
788.224	17487.31
788.557	17492.96
788.89	17413.64
789.223	17364.83
789.556	17302.23
789.888	17109.69
790.221	17047.55
790.554	17098.84
790.887	17033.31
791.219	16945.4
791.552	16872.86
791.884	16771.4
792.217	16762.58
792.549	16602.13
792.882	16583.38
793.214	16581.34
793.546	16543.38
793.879	16502.93
794.211	16368.47
794.543	16429.94
794.875	16307.68
795.207	16362.37
795.539	16210.73
795.871	16185.2
796.203	16153.56
796.535	15984.3
796.867	16030.85
797.198	16036.95
797.53	15983.39
797.862	15892.1
798.193	15872.21
798.525	15734.36
798.856	15822.04
799.188	15582.73
799.519	15533.46
799.85	15397.19
800.182	15480.36
800.513	15414.82
800.844	15313.58
801.175	15469.96
801.506	15359.23
801.837	15258.89
802.168	15188.39
802.499	15143.42
802.83	15116.52
803.161	15122.4
803.491	15105.22
803.822	14994.49
804.153	14934.16
804.483	14924.89
804.814	14806.93
805.145	14789.75
805.475	14696.42
805.805	14679.02
806.136	14702.97
806.466	14691.9
806.796	14458.24
807.126	14476.99
807.457	14503.88
807.787	14465.47
808.117	14433.6
808.447	14376.2
808.777	14419.14
809.107	14321.06
809.436	14309.31
809.766	14274.29
810.096	14230.67
810.426	14142.09
810.755	14143.22
811.085	14077
811.414	14075.87
811.744	13995.2
812.073	13968.08
812.403	13920.4
812.732	13817.8
813.061	13845.6
813.39	13756.11
813.719	13775.54
814.049	13752.27
814.378	13714.07
814.707	13674.3
815.036	13731.25
815.365	13596.56
815.693	13448.54
816.022	13443.57
816.351	13486.74
816.68	13358.38
817.008	13399.28
817.337	13342.11
817.665	13296.01
817.994	13243.13
818.322	13287.87
818.651	13263.24
818.979	13055.79
819.307	13270.24
819.636	13150.47
819.964	13177.82
820.292	13066.86
820.62	13102.79
820.948	13133.98
821.276	13092.4
821.604	12990.93
821.932	13052.4
822.259	13064.83
822.587	12954.77
822.915	13007.88
823.243	13024.6
823.57	13067.76
823.898	13008.78
824.225	12955.22
824.553	12999.52
824.88	12972.4
825.207	13028.67
825.535	12960.65
825.862	12995.68
826.189	12986.64
826.516	13046.07
826.843	13035.9
827.17	12952.51
827.497	13051.49
827.824	13013.3
828.151	12983.7
828.478	13056.69
828.805	13023.7
829.131	12949.57
829.458	12959.29
829.785	12890.59
830.111	12965.39
830.438	12980.53
830.764	13003.58
831.09	12968.33
831.417	12833.42
831.743	12953.87
832.069	12867.32
832.395	12838.84
832.722	12885.62
833.048	12796.81
833.374	12832.74
833.7	12789.35
834.026	12777.15
834.351	12897.15
834.677	12789.8
835.003	12831.39
835.329	12783.48
835.654	12769.69
835.98	12651.5
836.306	12718.62
836.631	12633.65
836.956	12703.25
837.282	12685.4
837.607	12654.22
837.932	12648.34
838.258	12565.4
838.583	12606.98
838.908	12545.29
839.233	12499.87
839.558	12456.71
839.883	12462.13
840.208	12458.06
840.533	12437.05
840.858	12454.45
841.182	12467.78
841.507	12397.72
841.832	12299.87
842.156	12285.41
842.481	12404.05
842.805	12258.97
843.13	12252.42
843.454	12166.32
843.778	12172.42
844.103	12191.63
844.427	12056.04
844.751	12117.96
845.075	12056.94
845.399	12009.03
845.723	12020.33
846.047	12020.11
846.371	11850.17
846.695	11865.76
847.019	11816.27
847.343	11740.57
847.666	11744.63
847.99	11619.67
848.313	11625.77
848.637	11541.48
848.96	11549.16
849.284	11604.53
849.607	11410.41
849.931	11379.9
850.254	11364.31
850.577	11267.13
850.9	11168.38
851.223	11232.56
851.546	11183.07
851.869	11086.12
852.192	11174.03
852.515	10948.05
852.838	10908.27
853.161	10957.76
853.483	10926.58
853.806	10901.94
854.129	10863.53
854.451	10751.67
854.774	10792.57
855.096	10739.24
855.419	10719.8
855.741	10654.49
856.063	10597.32
856.385	10546.25
856.708	10510.99
857.03	10496.76
857.352	10503.09
857.674	10418.79
857.996	10402.98
858.318	10434.84
858.64	10360.04
858.961	10375.41
859.283	10286.14
859.605	10212.7
859.926	10311.45
860.248	10241.85
860.57	10181.74
860.891	10219.03
861.212	10143.32
861.534	10120.5
861.855	10099.25
862.176	10094.28
862.498	10060.61
862.819	10071.46
863.14	9997.56
863.461	9986.26
863.782	9937.68
864.103	9961.18
864.424	9905.14
864.745	9932.03
865.065	9870.79
865.386	9819.49
865.707	9861.52
866.027	9842.99
866.348	9869.2
866.668	9772.03
866.989	9840.5
867.309	9724.57
867.63	9727.06
867.95	9720.73
868.27	9730.45
868.59	9692.71
868.91	9679.38
869.23	9642.09
869.55	9603.22
869.87	9699.49
870.19	9673.5
870.51	9596.89
870.83	9663.56
871.15	9568.42
871.469	9558.48
871.789	9589.66
872.109	9603
872.428	9487.97
872.748	9507.18
873.067	9502.43
873.386	9494.07
873.706	9502.66
874.025	9437.8
874.344	9381.98
874.663	9464.47
874.982	9381.98
875.301	9354.42
875.62	9363
875.939	9341.99
876.258	9395.32
876.577	9336.79
876.896	9360.06
877.214	9279.16
877.533	9257.24
877.852	9315.77
878.17	9272.84
878.489	9247.75
878.807	9275.55
879.125	9196.91
879.444	9176.79
879.762	9193.29
880.08	9087.98
880.398	9134.08
880.716	9179.05
881.034	9065.16
881.352	9083.69
881.67	9063.12
881.988	9089.79
882.306	9057.02
882.624	9021.99
882.941	8959.17
883.259	8911.26
883.577	8891.15
883.894	8937.25
884.212	8882.56
884.529	8934.54
884.846	8809.34
885.164	8855.45
885.481	8813.41
885.798	8791.72
886.115	8664.26
886.432	8705.84
886.75	8726.18
887.067	8713.98
887.383	8649.57
887.7	8674.88
888.017	8632.85
888.334	8589.92
888.651	8639.18
888.967	8569.12
889.284	8598.73
889.6	8535
889.917	8442.35
890.233	8495.45
890.55	8424.04
890.866	8469.69
891.182	8397.38
891.498	8402.12
891.815	8416.59
892.131	8313.99
892.447	8313.99
892.763	8284.61
893.079	8187.44
893.395	8253.43
893.71	8216.37
894.026	8196.03
894.342	8135.24
894.657	8114
894.973	8118.06
895.289	8088.01
895.604	8012.98
895.92	7995.35
896.235	7972.08
896.55	7952.64
896.865	7941.34
897.181	7934.57
897.496	7904.28
897.811	7859.54
898.126	7845.75
898.441	7831.07
898.756	7824.74
899.071	7758.3
899.386	7758.07
899.7	7635.59
900.015	7589.49
900.33	7620.68
900.644	7509.94
900.959	7561.02
901.273	7549.04
901.588	7532.32
901.902	7537.74
902.216	7470.85
902.531	7452.77
902.845	7449.61
903.159	7421.13
903.473	7385.88
903.787	7301.36
904.101	7303.4
904.415	7351.76
904.729	7256.84
905.042	7204.64
905.356	7270.85
905.67	7192.66
905.984	7163.51
906.297	7181.14
906.611	7102.95
906.924	7123.29
907.237	7102.72
907.551	7090.07
907.864	7027.24
908.177	7031.99
908.491	6973.23
908.804	6962.39
909.117	6893.91
909.43	6845.1
909.743	6857.31
910.056	6846.46
910.368	6748.38
910.681	6800.36
910.994	6743.64
911.307	6659.57
911.619	6658.21
911.932	6643.3
912.244	6622.28
912.557	6652.57
912.869	6581.61
913.181	6585.45
913.494	6556.07
913.806	6454.15
914.118	6455.28
914.43	6480.14
914.742	6456.64
915.054	6402.4
915.366	6406.47
915.678	6342.74
915.99	6329.18
916.302	6298.45
916.613	6290.31
916.925	6274.72
917.236	6247.15
917.548	6155.4
917.859	6180.49
918.171	6203.54
918.482	6061.62
918.794	6107.95
919.105	6119.92
919.416	6034.95
919.727	6021.4
920.038	5951.79
920.349	5980.72
920.66	5900.49
920.971	5875.18
921.282	5881.96
921.593	5796.77
921.903	5836.77
922.214	5776.2
922.525	5800.61
922.835	5717.9
923.146	5745.47
923.456	5705.25
923.767	5705.92
924.077	5677.45
924.387	5614.63
924.697	5612.37
925.008	5648.52
925.318	5583.44
925.628	5558.13
925.938	5528.98
926.248	5462.09
926.558	5456.89
926.867	5439.49
927.177	5428.64
927.487	5381.41
927.796	5347.97
928.106	5366.95
928.416	5366.5
928.725	5314.3
929.034	5264.58
929.344	5322.66
929.653	5253.73
929.962	5198.59
930.271	5171.93
930.581	5121.98
930.89	5163.11
931.199	5107.07
931.508	5132.61
931.817	5114.98
932.125	5077.01
932.434	5096.9
932.743	5009.9
933.051	5004.92
933.36	4968.99
933.669	4959.95
933.977	4925.6
934.286	4908.43
934.594	4910.01
934.902	4854.87
935.21	4858.71
935.519	4815.55
935.827	4839.05
936.135	4782.78
936.443	4777.81
936.751	4781.43
937.059	4769.45
937.367	4733.75
937.674	4705.72
937.982	4656.91
938.29	4635.67
938.597	4656.46
938.905	4571.04
939.213	4577.14
939.52	4563.81
939.827	4568.78
940.135	4540.08
940.442	4530.36
940.749	4531.27
941.056	4485.84
941.363	4449.46
941.67	4476.58
941.977	4385.51
942.284	4360.65
942.591	4407.2
942.898	4374.21
943.205	4354.55
943.511	4317.03
943.818	4350.48
944.125	4305.73
944.431	4305.28
944.738	4250.37
945.044	4278.39
945.35	4234.55
945.657	4178.51
945.963	4191.39
946.269	4173.99
946.575	4173.53
946.881	4130.6
947.187	4145.06
947.493	4113.87
947.799	4122.01
948.105	4065.97
948.41	4039.3
948.716	4051.96
949.022	4022.8
949.327	4007.44
949.633	3954.33
949.938	3952.3
950.244	3944.16
950.549	3903.03
950.854	3893.77
951.16	3924.5
951.465	3875.01
951.77	3863.71
952.075	3833.43
952.38	3836.37
952.685	3850.6
952.99	3765.41
953.294	3820.55
953.599	3776.48
953.904	3733.77
954.209	3722.92
954.513	3726.09
954.818	3690.38
955.122	3646.09
955.426	3675.47
955.731	3675.69
956.035	3638.63
956.339	3635.24
956.643	3625.75
956.948	3581.01
957.252	3595.7
957.556	3585.75
957.86	3564.96
958.163	3545.75
958.467	3498.52
958.771	3482.71
959.075	3494.46
959.378	3462.59
959.682	3489.48
959.985	3468.47
960.289	3437.73
960.592	3412.42
960.896	3421.01
961.199	3364.29
961.502	3365.87
961.805	3347.34
962.108	3341.92
962.411	3326.78
962.714	3334.46
963.017	3334.23
963.32	3284.74
963.623	3277.96
963.926	3279.32
964.228	3244.52
964.531	3226.89
964.833	3234.58
965.136	3194.13
965.438	3183.28
965.741	3183.96
966.043	3183.96
966.345	3167.01
966.648	3104.86
966.95	3111.87
967.252	3107.12
967.554	3087.46
967.856	3091.75
968.158	3058.08
968.46	3063.06
968.761	3035.71
969.063	3040.68
969.365	2963.4
969.666	2994.36
969.968	2961.36
970.269	3005.2
970.571	2974.7
970.872	2911.65
971.174	2941.02
971.475	2917.97
971.776	2942.15
972.077	2886.11
972.378	2852.89
972.679	2877.98
972.98	2860.57
973.281	2839.78
973.582	2816.06
973.883	2812.44
974.183	2796.17
974.484	2792.1
974.785	2766.79
975.085	2782.38
975.386	2759.33
975.686	2771.76
975.986	2748.26
976.287	2720.69
976.587	2744.19
976.887	2709.39
977.187	2720.24
977.487	2720.47
977.787	2670.3
978.087	2630.75
978.387	2646.57
978.687	2652.44
978.987	2632.78
979.286	2612.45
979.586	2612.22
979.885	2601.15
980.185	2596.17
980.484	2547.14
980.784	2564.31
981.083	2549.17
981.382	2554.14
981.682	2506.46
981.981	2514.14
982.28	2516.63
982.579	2470.3
982.878	2473.47
983.177	2481.38
983.475	2466.46
983.774	2437.08
984.073	2442.28
984.372	2403.41
984.67	2428.5
984.969	2426.91
985.267	2384.43
985.566	2397.08
985.864	2369.51
986.162	2376.97
986.461	2335.84
986.759	2368.84
987.057	2294.26
987.355	2336.97
987.653	2315.05
987.951	2304.88
988.249	2279.35
988.547	2295.84
988.844	2263.53
989.142	2273.47
989.44	2267.14
989.737	2255.84
990.035	2221.72
990.332	2214.04
990.63	2200.48
990.927	2176.07
991.224	2182.17
991.521	2182.17
991.819	2213.81
992.116	2172.01
992.413	2106.7
992.71	2162.06
993.006	2144.89
993.303	2141.27
993.6	2081.39
993.897	2098.79
994.193	2110.76
994.49	2132.68
994.787	2072.57
995.083	2082.97
995.379	2064.44
995.676	2058.34
995.972	2031.9
996.268	2009.07
996.565	2002.52
996.861	2030.09
997.157	2001.61
997.453	1989.18
997.749	1969.98
998.044	1969.52
998.34	1956.42
998.636	1908.96
998.932	1937.21
999.227	1918.9
999.523	1897.44
999.818	1902.18
1000.114	1900.37
1000.409	1896.98
1000.704	1854.73
1001	1879.13
1001.295	1830.09
1001.59	1871
1001.885	1850.88
1002.18	1824.44
1002.475	1836.87
1002.77	1821.28
1003.065	1796.42
1003.359	1787.61
1003.654	1791.9
1003.949	1785.12
1004.243	1783.99
1004.538	1742.41
1004.832	1762.07
1005.127	1750.1
1005.421	1734.95
1005.715	1720.27
1006.009	1725.01
1006.304	1674.84
1006.598	1711.23
1006.892	1696.76
1007.186	1667.84
1007.48	1678.68
1007.773	1672.36
1008.067	1652.47
1008.361	1630.55
1008.655	1617.9
1008.948	1632.36
1009.242	1602.53
1009.535	1600.95
1009.829	1575.18
1010.122	1597.78
1010.415	1591.46
1010.708	1564.79
1011.001	1570.44
1011.295	1550.78
1011.588	1550.33
1011.881	1542.87
1012.173	1518.01
1012.466	1493.15
1012.759	1524.11
1013.052	1480.27
1013.344	1512.14
1013.637	1483.66
1013.93	1491.57
1014.222	1474.4
1014.514	1459.03
1014.807	1466.03
1015.099	1452.48
1015.391	1416.77
1015.683	1418.35
1015.976	1413.61
1016.268	1413.15
1016.56	1376.55
1016.851	1417.9
1017.143	1349.65
1017.435	1353.95
1017.727	1408.41
1018.018	1364.12
1018.31	1353.27
1018.602	1348.07
1018.893	1320.5
1019.185	1313.72
1019.476	1321.41
1019.767	1317.56
1020.058	1292.93
1020.35	1289.54
1020.641	1274.4
1020.932	1251.35
1021.223	1291.12
1021.514	1247.74
1021.804	1248.64
1022.095	1293.38
1022.386	1233.05
1022.677	1234.85
1022.967	1212.48
1023.258	1216.55
1023.548	1192.6
1023.839	1246.15
1024.129	1213.61
1024.419	1195.53
1024.709	1184.91
1025	1159.6
1025.29	1147.4
1025.58	1158.25
1025.87	1131.35
1026.16	1133.84
1026.449	1130.9
1026.739	1122.54
1027.029	1127.51
1027.319	1101.07
1027.608	1134.74
1027.898	1078.93
1028.187	1087.97
1028.477	1083.45
1028.766	1080.96
1029.055	1098.59
1029.344	1053.16
1029.634	1051.58
1029.923	1051.58
1030.212	1027.63
1030.501	1017.69
1030.79	1037.57
1031.078	1012.71
1031.367	1013.17
1031.656	1010
1031.945	994.86
1032.233	1008.65
1032.522	1003.9
1032.81	1003.22
1033.099	971.58
1033.387	999.38
1033.675	981.75
1033.963	986.73
1034.251	960.74
1034.54	962.77
1034.828	962.55
1035.116	966.16
1035.403	941.3
1035.691	961.87
1035.979	937.46
1036.267	932.49
1036.554	897.46
1036.842	923
1037.129	936.11
1037.417	879.61
1037.704	904.92
1037.992	916.22
1038.279	874.86
1038.566	882.77
1038.853	882.77
1039.14	882.77
