Data from hue_280_FLMS001491_00032.txt Node
Date: Tue Feb 07 15:55:10 GMT 2017
User: dcchb
Spectrometer: FLMS00149
Trigger mode: 0
Integration Time (sec): 2.000000E-2
Scans to average: 10
Electric dark correction enabled: true
Nonlinearity correction enabled: false
Boxcar width: 0
XAxis mode: Wavelengths
Number of Pixels in Spectrum: 2048
>>>>>Begin Spectral Data<<<<<
341.393	16.55
341.776	16.55
342.16	16.55
342.543	-64.57
342.927	-67.74
343.31	-53.73
343.693	-58.47
344.077	-66.61
344.46	-88.98
344.843	-41.07
345.226	-51.69
345.61	-26.84
345.993	-13.05
346.376	-11.47
346.759	17.68
347.142	22.2
347.525	54.07
347.908	65.82
348.291	79.6
348.674	72.37
349.057	100.17
349.44	141.75
349.823	142.43
350.206	158.7
350.588	184.23
350.971	220.39
351.354	221.52
351.737	226.49
352.119	257
352.502	273.27
352.884	280.28
353.267	258.35
353.65	306.49
354.032	295.42
354.414	288.86
354.797	292.03
355.179	327.51
355.562	308.3
355.944	330.44
356.326	310.33
356.709	337.22
357.091	344.23
357.473	330.44
357.855	331.57
358.238	328.18
358.62	339.26
359.002	317.34
359.384	346.04
359.766	323.21
360.148	348.3
360.53	340.84
360.912	321.18
361.294	348.52
361.676	328.64
362.057	333.83
362.439	354.17
362.821	343.78
363.203	342.19
363.584	330.44
363.966	332.7
364.348	329.09
364.729	329.54
365.111	314.62
365.493	322.53
365.874	330.67
366.256	293.16
366.637	321.63
367.019	324.34
367.4	312.59
367.781	298.13
368.163	288.18
368.544	299.94
368.925	296.77
369.306	315.75
369.688	316.21
370.069	306.49
370.45	306.04
370.831	317.56
371.212	299.94
371.593	306.72
371.974	323.44
372.355	307.17
372.736	305.59
373.117	312.82
373.498	313.27
373.879	285.92
374.26	305.81
374.641	325.25
375.021	335.87
375.402	317.79
375.783	330.44
376.163	337.22
376.544	313.27
376.925	328.18
377.305	340.39
377.686	332.25
378.066	323.66
378.447	348.3
378.827	328.41
379.208	324.57
379.588	333.83
379.968	315.75
380.349	314.62
380.729	318.69
381.109	342.87
381.489	335.64
381.87	346.94
382.25	318.01
382.63	318.92
383.01	341.97
383.39	337.9
383.77	334.74
384.15	334.74
384.53	360.27
384.91	362.08
385.29	344.91
385.67	372.48
386.049	354.4
386.429	343.55
386.809	361.85
387.189	348.3
387.568	348.97
387.948	347.17
388.328	353.49
388.707	362.98
389.087	356.88
389.466	371.12
389.846	367.28
390.225	352.36
390.605	370.67
390.984	348.07
391.363	371.12
391.743	386.04
392.122	369.31
392.501	370.22
392.881	369.09
393.26	397.56
393.639	378.58
394.018	378.35
394.397	387.84
394.776	395.53
395.155	397.56
395.534	365.47
395.913	358.01
396.292	383.55
396.671	402.08
397.05	406.83
397.429	414.73
397.808	372.02
398.186	389.42
398.565	409.09
398.944	415.86
399.323	404.34
399.701	397.11
400.08	409.54
400.458	399.14
400.837	424
401.215	412.02
401.594	425.13
401.972	421.06
402.351	433.27
402.729	425.13
403.107	426.03
403.486	454.51
403.864	436.43
404.242	451.57
404.62	436.2
404.999	450.67
405.377	449.31
405.755	456.54
406.133	465.35
406.511	471.68
406.889	481.63
407.267	494.96
407.645	504
408.023	482.08
408.401	493.6
408.779	473.94
409.156	495.18
409.534	503.32
409.912	512.36
410.29	539.93
410.667	521.17
411.045	511.23
411.422	510.33
411.8	533.83
412.178	566.82
412.555	564.34
412.933	548.97
413.31	564.34
413.687	575.86
414.065	576.76
414.442	605.92
414.819	593.26
415.197	597.78
415.574	594.62
415.951	614.05
416.328	631.45
416.705	637.33
417.082	621.28
417.46	636.88
417.837	640.72
418.214	645.46
418.591	649.08
418.967	677.78
419.344	679.13
419.721	682.3
420.098	640.04
420.475	680.26
420.852	712.58
421.228	710.77
421.605	716.65
421.982	728.85
422.358	722.52
422.735	720.04
423.111	751.45
423.488	770.88
423.864	768.4
424.241	793.71
424.617	766.82
424.994	802.52
425.37	800.94
425.746	835.29
426.123	821.05
426.499	825.12
426.875	820.83
427.251	854.27
427.627	866.25
428.003	884.33
428.379	886.13
428.756	891.56
429.132	911.67
429.507	901.95
429.883	924.55
430.259	922.07
430.635	941.95
431.011	945.34
431.387	958.22
431.763	977.66
432.138	1005.23
432.514	1014.95
432.89	1006.58
433.265	1052.01
433.641	1027.83
434.016	1061.95
434.392	1063.98
434.767	1085
435.143	1121.83
435.518	1107.15
435.894	1130.87
436.269	1124.77
436.644	1170.87
437.02	1168.39
437.395	1163.64
437.77	1163.87
438.145	1191.89
438.52	1189.63
438.895	1223.3
439.271	1221.72
439.646	1259.68
440.021	1265.56
440.395	1261.72
440.77	1268.05
441.145	1281.38
441.52	1308.27
441.895	1327.71
442.27	1328.16
442.645	1334.94
443.019	1353.02
443.394	1351.66
443.769	1343.98
444.143	1363.86
444.518	1355.28
444.892	1398.89
445.267	1395.27
445.641	1407.48
446.016	1427.14
446.39	1391.66
446.764	1439.34
447.139	1436.63
447.513	1431.43
447.887	1455.39
448.262	1468.27
448.636	1457.42
449.01	1481.37
449.384	1503.29
449.758	1496.51
450.132	1496.97
450.506	1476.4
450.88	1524.99
451.254	1524.08
451.628	1519.11
452.002	1525.89
452.376	1555.27
452.75	1547.13
453.123	1582.61
453.497	1602.95
453.871	1597.53
454.244	1613.35
454.618	1612.67
454.992	1637.3
455.365	1647.47
455.739	1708.94
456.112	1668.04
456.486	1677.75
456.859	1719.11
457.232	1721.82
457.606	1752.1
457.979	1751.65
458.352	1791.87
458.725	1817.18
459.099	1828.26
459.472	1835.04
459.845	1811.76
460.218	1834.13
460.591	1854.92
460.964	1873.45
461.337	1922.04
461.71	1965.43
462.083	1976.73
462.456	1976.95
462.829	1943.28
463.201	2014.47
463.574	1960.46
463.947	2011.76
464.32	2058.31
464.692	2032.09
465.065	2080.23
465.438	2110.28
465.81	2112.77
466.183	2127.91
466.555	2166.33
466.928	2169.49
467.3	2198.64
467.672	2212.65
468.045	2257.62
468.417	2256.27
468.789	2264.86
469.161	2290.39
469.534	2299.88
469.906	2337.85
470.278	2357.73
470.65	2387.11
471.022	2399.09
471.394	2468.92
471.766	2475.25
472.138	2472.99
472.51	2510.72
472.882	2528.13
473.253	2565.64
473.625	2594.79
473.997	2661.91
474.369	2616.26
474.74	2668.46
475.112	2679.99
475.484	2716.6
475.855	2743.71
476.227	2762.47
476.598	2825.52
476.97	2843.6
477.341	2906.42
477.713	2949.36
478.084	2967.44
478.455	3006.53
478.827	2983.03
479.198	3110.71
479.569	3102.8
479.94	3165.62
480.311	3191.61
480.682	3232.29
481.053	3285.39
481.424	3338.27
481.795	3347.31
482.166	3373.98
482.537	3363.58
482.908	3486.52
483.279	3503.24
483.65	3514.09
484.021	3630.92
484.391	3631.83
484.762	3655.55
485.133	3639.28
485.503	3716.34
485.874	3755.89
486.244	3798.37
486.615	3894.87
486.985	3892.16
487.356	3933.96
487.726	3937.58
488.097	4004.02
488.467	3982.32
488.837	4060.29
489.207	4144.58
489.578	4167.86
489.948	4208.08
490.318	4237.69
490.688	4254.86
491.058	4325.82
491.428	4343.9
491.798	4413.95
492.168	4445.82
492.538	4453.05
492.908	4514.74
493.278	4552.93
493.648	4517.9
494.017	4560.39
494.387	4649.43
494.757	4609.65
495.126	4618.92
495.496	4684.68
495.866	4695.75
496.235	4722.42
496.605	4774.62
496.974	4811.46
497.344	4807.16
497.713	4852.58
498.082	4869.98
498.452	4950.43
498.821	4899.59
499.19	4955.18
499.559	5001.51
499.928	5008.29
500.298	5059.58
500.667	5031.56
501.036	5041.28
501.405	5051.22
501.774	5085.35
502.143	5151.56
502.512	5134.61
502.88	5143.88
503.249	5183.42
503.618	5175.06
503.987	5224.55
504.356	5223.42
504.724	5269.07
505.093	5277.66
505.462	5229.98
505.83	5265.68
506.199	5312.69
506.567	5386.58
506.936	5364.89
507.304	5411.67
507.672	5397.43
508.041	5418.9
508.409	5479.69
508.777	5510.19
509.145	5500.48
509.514	5449.63
509.882	5500.48
510.25	5551.55
510.618	5589.29
510.986	5535.96
511.354	5643.98
511.722	5652.56
512.09	5662.96
512.458	5587.03
512.826	5724.65
513.193	5679.68
513.561	5703.18
513.929	5731.66
514.297	5733.01
514.664	5776.4
515.032	5803.52
515.4	5844.87
515.767	5866.12
516.135	5847.36
516.502	5809.4
516.869	5913.8
517.237	5874.03
517.604	5818.89
517.972	5930.07
518.339	5949.73
518.706	5914.03
519.073	5954.48
519.44	5937.75
519.808	6032.44
520.175	5984.98
520.542	6028.37
520.909	6042.61
521.276	6035.15
521.643	6122.38
522.009	6120.35
522.376	6114.25
522.743	6121.03
523.11	6220.91
523.477	6218.42
523.843	6189.5
524.21	6268.37
524.577	6283.51
524.943	6352.21
525.31	6341.13
525.676	6374.58
526.043	6429.72
526.409	6379.32
526.776	6462.03
527.142	6493.9
527.508	6472.88
527.874	6595.14
528.241	6519.89
528.607	6522.6
528.973	6620.67
529.339	6558.98
529.705	6659.77
530.071	6669.71
530.437	6745.64
530.803	6712.2
531.169	6759.43
531.535	6751.29
531.901	6752.65
532.267	6800.33
532.632	6800.78
532.998	6802.14
533.364	6885.75
533.73	6869.71
534.095	6942.02
534.461	6888.24
534.826	6914.45
535.192	6966.65
535.557	7007.78
535.923	6940.66
536.288	7030.15
536.653	7014.11
537.019	7000.32
537.384	6967.78
537.749	7048.23
538.114	7084.39
538.479	7095.92
538.845	7080.55
539.21	7041
539.575	7098.4
539.94	7117.38
540.305	7121.45
540.67	7144.05
541.034	7170.72
541.399	7159.19
541.764	7182.47
542.129	7217.72
542.494	7210.04
542.858	7217.95
543.223	7262.01
543.587	7293.65
543.952	7306.98
544.316	7297.72
544.681	7241.9
545.045	7368.9
545.41	7386.08
545.774	7415.23
546.138	7363.48
546.503	7358.73
546.867	7392.63
547.231	7440.76
547.595	7407.09
547.959	7535.45
548.324	7481.89
548.688	7492.74
549.052	7548.33
549.416	7473.08
549.779	7506.75
550.143	7519.41
550.507	7575.22
550.871	7544.49
551.235	7509.92
551.599	7630.14
551.962	7657.26
552.326	7652.28
552.689	7600.53
553.053	7536.13
553.417	7580.65
553.78	7698.61
554.143	7643.25
554.507	7690.48
554.87	7714.66
555.234	7770.7
555.597	7708.33
555.96	7762.11
556.323	7798.72
556.686	7771.38
557.05	7824.71
557.413	7841.43
557.776	7812.28
558.139	7884.14
558.502	7851.15
558.865	7890.24
559.228	7923.46
559.59	7972.05
559.953	7982.45
560.316	8031.03
560.679	8042.56
561.041	8062.22
561.404	8029
561.767	8160.29
562.129	8145.83
562.492	8169.79
562.854	8163.68
563.217	8196
563.579	8175.43
563.941	8231.7
564.304	8300.86
564.666	8312.38
565.028	8358.48
565.39	8398.71
565.753	8405.94
566.115	8421.76
566.477	8452.04
566.839	8425.82
567.201	8486.61
567.563	8521.64
567.925	8594.18
568.287	8547.18
568.648	8594.63
569.01	8609.77
569.372	8679.83
569.734	8715.99
570.095	8705.82
570.457	8733.16
570.819	8838.92
571.18	8813.38
571.542	8859.71
571.903	8813.16
572.265	8880.27
572.626	8860.39
572.987	8947.39
573.349	8960.05
573.71	8988.29
574.071	9017.22
574.432	9075.98
574.794	9130.21
575.155	9156.65
575.516	9130.66
575.877	9186.03
576.238	9204.33
576.599	9260.6
576.96	9306.7
577.32	9370.43
577.681	9377.66
578.042	9476.64
578.403	9433.48
578.763	9494.04
579.124	9562.29
579.485	9575.85
579.845	9615.17
580.206	9680.71
580.566	9659.24
580.927	9687.03
581.287	9823.75
581.648	9776.52
582.008	9969.74
582.368	9851.77
582.728	10000.7
583.089	10083.63
583.449	10034.14
583.809	10107.14
584.169	10122.05
584.529	10192.56
584.889	10280.01
585.249	10329.05
585.609	10333.8
585.969	10425.09
586.329	10485.43
586.688	10551.87
587.048	10569.04
587.408	10665.09
587.768	10677.29
588.127	10756.38
588.487	10725.88
588.846	10958.41
589.206	10864.18
589.565	10993.89
589.925	11123.15
590.284	11114.79
590.643	11167.67
591.003	11278.86
591.362	11414.67
591.721	11386.2
592.08	11470.04
592.44	11460.77
592.799	11598.62
593.158	11625.06
593.517	11736.02
593.876	11797.71
594.235	11845.62
594.593	11897.37
594.952	11955.67
595.311	11962.91
595.67	12032.06
596.029	12261.2
596.387	12230.92
596.746	12330.13
597.104	12346.62
597.463	12404.25
597.822	12476.79
598.18	12408.54
598.538	12565.38
598.897	12637.24
599.255	12559.05
599.613	12753.39
599.972	12779.38
600.33	12873.39
600.688	12742.32
601.046	13010.34
601.404	13102.08
601.762	13015.99
602.12	13093.5
602.478	13147.28
602.836	13288.52
603.194	13244.23
603.552	13244.45
603.91	13217.34
604.268	13378.24
604.625	13352.25
604.983	13485.8
605.341	13361.74
605.698	13560.15
606.056	13584.78
606.413	13648.29
606.771	13713.59
607.128	13619.59
607.485	13655.29
607.843	13689.41
608.2	13839.47
608.557	13838.56
608.914	13838.79
609.272	13929.18
609.629	13995.39
609.986	14043.08
610.343	13951.33
610.7	14119.91
611.057	14056.41
611.414	14143.87
611.771	14190.64
612.127	14221.38
612.484	14264.31
612.841	14284.88
613.198	14184.32
613.554	14328.72
613.911	14429.96
614.267	14355.84
614.624	14360.13
614.98	14377.53
615.337	14485.33
615.693	14499.34
616.05	14471.31
616.406	14553.57
616.762	14538.66
617.118	14529.62
617.475	14601.71
617.831	14580.92
618.187	14640.58
618.543	14690.52
618.899	14762.38
619.255	14741.36
619.611	14762.38
619.967	14781.59
620.323	14804.86
620.678	14832.43
621.034	14772.55
621.39	14852.32
621.746	14800.57
622.101	14921.92
622.457	14822.94
622.812	14864.75
623.168	14891.19
623.523	14855.71
623.879	14946.78
624.234	14830.4
624.589	14941.58
624.945	14963.28
625.3	14903.85
625.655	14950.85
626.01	14929.16
626.365	14985.2
626.72	14881.25
627.075	14980.45
627.43	14897.29
627.785	14931.87
628.14	14926.9
628.495	15049.6
628.85	15044.18
629.205	14875.6
629.559	15028.59
629.914	14975.71
630.269	14938.87
630.623	14861.13
630.978	14918.99
631.332	14890.74
631.687	14932.77
632.041	14808.03
632.396	14894.58
632.75	14856.84
633.104	14850.97
633.459	14761.48
633.813	14824.75
634.167	14761.25
634.521	14861.59
634.875	14845.99
635.229	14710.4
635.583	14723.29
635.937	14740.69
636.291	14710.63
636.645	14686
636.999	14689.61
637.352	14714.47
637.706	14670.18
638.06	14731.42
638.413	14705.43
638.767	14619.56
639.121	14764.19
639.474	14621.37
639.828	14576.62
640.181	14612.78
640.534	14584.08
640.888	14472.9
641.241	14482.61
641.594	14562.39
641.947	14569.39
642.301	14535.95
642.654	14605.77
643.007	14602.38
643.36	14598.54
643.713	14561.93
644.066	14528.71
644.419	14478.55
644.771	14369.85
645.124	14266.57
645.477	14208.95
645.83	14145.45
646.182	14144.77
646.535	14096.86
646.888	14148.16
647.24	14040.37
647.593	14177.31
647.945	14078.78
648.298	13999.46
648.65	14041.95
649.002	13901.61
649.355	14113.58
649.707	14088.5
650.059	14067.03
650.411	14278.55
650.763	14357.65
651.115	14485.78
651.467	14422.73
651.819	14511.31
652.171	14406.23
652.523	14336.4
652.875	14353.13
653.227	14245.78
653.578	14420.24
653.93	14423.41
654.282	14370.75
654.633	14273.13
654.985	14313.35
655.337	14379.79
655.688	14392.22
656.039	14379.57
656.391	14286.46
656.742	14397.87
657.094	14427.47
657.445	14435.84
657.796	14381.15
658.147	14345.44
658.498	14401.26
658.849	14354.26
659.2	14377.08
659.551	14312
659.902	14450.75
660.253	14342.73
660.604	14385.21
660.955	14360.36
661.306	14343.41
661.656	14327.14
662.007	14356.06
662.358	14420.69
662.708	14439.22
663.059	14452.11
663.409	14406.23
663.76	14479
664.11	14436.06
664.461	14461.82
664.811	14444.42
665.161	14460.92
665.511	14457.53
665.862	14418.43
666.212	14538.21
666.562	14495.27
666.912	14526.68
667.262	14452.78
667.612	14512.9
667.962	14509.96
668.312	14415.5
668.662	14500.47
669.011	14610.07
669.361	14407.59
669.711	14571.65
670.06	14498.66
670.41	14392.45
670.76	14375.95
671.109	14369.85
671.459	14501.82
671.808	14384.54
672.157	14373.46
672.507	14334.82
672.856	14283.97
673.205	14362.84
673.554	14338.89
673.904	14349.96
674.253	14293.24
674.602	14348.83
674.951	14099.12
675.3	14017.77
675.649	14269.96
675.998	14263.86
676.346	14291.43
676.695	14284.65
677.044	14150.87
677.393	14203.75
677.741	14298.66
678.09	14141.83
678.438	14148.84
678.787	14196.29
679.135	14160.59
679.484	14036.75
679.832	14123.98
680.181	14008.95
680.529	14141.38
680.877	14014.38
681.225	14089.18
681.573	14028.61
681.922	13955.4
682.27	13928.73
682.618	13886.7
682.966	13950.2
683.314	13940.71
683.661	13838.56
684.009	13767.15
684.357	13761.73
684.705	13782.29
685.053	13787.72
685.4	13727.61
685.748	13719.47
686.095	13655.52
686.443	13627.49
686.79	13593.15
687.138	13611.9
687.485	13680.15
687.832	13545.69
688.18	13471.57
688.527	13575.07
688.874	13402.87
689.221	13355.86
689.568	13390.21
689.915	13364.68
690.262	13301.4
690.609	13230.22
690.956	13214.85
691.303	13165.59
691.65	13074.97
691.997	13046.04
692.344	13052.14
692.69	12973.05
693.037	13070.22
693.383	12912.71
693.73	12946.38
694.077	12843.33
694.423	12881.3
694.769	12768.31
695.116	12724.47
695.462	12760.85
695.808	12666.16
696.155	12712.26
696.501	12604.47
696.847	12600.86
697.193	12466.17
697.539	12507.52
697.885	12396.34
698.231	12397.02
698.577	12373.29
698.923	12261.65
699.269	12333.07
699.614	12188.89
699.96	12214.88
700.306	12154.54
700.651	12007.2
700.997	12016.69
701.342	12021.44
701.688	11966.75
702.033	11904.15
702.379	11799.07
702.724	11854.21
703.069	11852.17
703.415	11680.65
703.76	11747.09
704.105	11720.43
704.45	11631.16
704.795	11604.95
705.14	11579.64
705.485	11488.34
705.83	11525.18
706.175	11446.99
706.52	11450.15
706.865	11417.38
707.209	11369.25
707.554	11348.23
707.899	11326.31
708.243	11239.08
708.588	11278.63
708.932	11185.98
709.277	11128.58
709.621	11186.2
709.966	11103.04
710.31	11119.76
710.654	10969.71
710.998	11023.95
711.342	10995.93
711.687	10969.03
712.031	10903.05
712.375	10847.91
712.719	10915.25
713.063	10838.19
713.407	10859.21
713.75	10809.04
714.094	10842.48
714.438	10809.49
714.782	10859.88
715.125	10733.11
715.469	10673
715.812	10628.93
716.156	10732.88
716.499	10662.6
716.843	10652.66
717.186	10564.52
717.53	10560.91
717.873	10653.11
718.216	10554.36
718.559	10495.15
718.902	10504.64
719.246	10516.16
719.589	10468.26
719.932	10340.35
720.275	10425.55
720.617	10484.53
720.96	10413.79
721.303	10454.47
721.646	10419.44
721.989	10309.84
722.331	10331.76
722.674	10366.79
723.016	10404.3
723.359	10431.42
723.701	10407.69
724.044	10304.42
724.386	10309.16
724.729	10295.6
725.071	10255.61
725.413	10272.78
725.755	10301.93
726.097	10230.52
726.439	10188.94
726.782	10204.76
727.124	10188.04
727.465	10144.2
727.807	10211.09
728.149	10185.1
728.491	10203.86
728.833	10160.24
729.175	10180.58
729.516	10165.21
729.858	10177.19
730.199	10188.04
730.541	10079.34
730.882	10180.35
731.224	10082.28
731.565	10104.2
731.906	10198.88
732.248	10121.37
732.589	10066.68
732.93	10049.28
733.271	10112.78
733.612	10082.73
733.953	10129.28
734.294	10093.35
734.635	10115.5
734.976	10129.96
735.317	10124.99
735.658	10087.25
735.999	10123.63
736.339	10136.51
736.68	10121.82
737.021	10152.78
737.361	10095.38
737.702	10128.38
738.042	10098.32
738.383	10101.03
738.723	10137.64
739.063	10125.44
739.404	10246.57
739.744	10201.6
740.084	10176.96
740.424	10174.7
740.764	10170.18
741.104	10201.6
741.444	10173.35
741.784	10176.51
742.124	10206.57
742.464	10223.29
742.804	10224.87
743.143	10270.75
743.483	10301.71
743.823	10228.71
744.162	10308.71
744.502	10339.9
744.841	10365.89
745.181	10470.97
745.52	10462.38
745.86	10548.71
746.199	10517.52
746.538	10568.82
746.877	10669.15
747.216	10674.8
747.556	10698.08
747.895	10739.66
748.234	10771.07
748.573	10819.43
748.911	10885.19
749.25	10999.99
749.589	11030.73
749.928	11063.49
750.267	11167.22
750.605	11195.24
750.944	11276.37
751.283	11322.02
751.621	11411.73
751.96	11512.75
752.298	11677.72
752.636	11741.22
752.975	11796.81
753.313	11803.36
753.651	11959.97
753.989	12034.77
754.327	12121.55
754.666	12230.7
755.004	12394.31
755.342	12459.84
755.679	12621.19
756.017	12678.37
756.355	12811.47
756.693	12902.09
757.031	13022.76
757.368	13153.83
757.706	13222.31
758.044	13399.03
758.381	13594.28
758.719	13708.4
759.056	13846.92
759.394	13864.55
759.731	14033.59
760.068	14229.74
760.405	14339.34
760.743	14523.06
761.08	14653.23
761.417	14740.23
761.754	14890.51
762.091	14971.41
762.428	15192.65
762.765	15245.53
763.102	15414.34
763.438	15492.3
763.775	15671.06
764.112	15871.5
764.449	15963.93
764.785	16067.66
765.122	16092.97
765.458	16243.02
765.795	16345.62
766.131	16604.14
766.467	16641.43
766.804	16642.33
767.14	16813.85
767.476	16937.46
767.812	16963
768.148	17105.14
768.485	17183.33
768.821	17255.65
769.157	17382.65
769.492	17466.26
769.828	17571.57
770.164	17527.05
770.5	17708.07
770.836	17637.56
771.171	17855.18
771.507	17809.08
771.842	17912.58
772.178	17961.39
772.513	17955.74
772.849	18097.43
773.184	18102.18
773.519	18203.87
773.855	18222.18
774.19	18211.33
774.525	18192.57
774.86	18270.31
775.195	18275.96
775.53	18296.3
775.865	18330.42
776.2	18252.91
776.535	18285.23
776.87	18298.78
777.205	18276.64
777.539	18246.58
777.874	18413.13
778.209	18347.6
778.543	18277.99
778.878	18242.51
779.212	18320.7
779.547	18329.97
779.881	18452.23
780.215	18324.55
780.55	18477.08
780.884	18318.67
781.218	18380.14
781.552	18335.62
781.886	18247.26
782.22	18258.79
782.554	18220.14
782.888	18115.06
783.222	17939.47
783.556	18123.87
783.889	18045.91
784.223	18001.39
784.557	18023.31
784.89	18054.05
785.224	17968.4
785.557	17954.84
785.891	18052.24
786.224	17952.35
786.558	17866.48
786.891	17793.94
787.224	17708.52
787.557	17756.2
787.891	17726.37
788.224	17806.37
788.557	17685.02
788.89	17713.49
789.223	17710.33
789.556	17634.62
789.888	17625.58
790.221	17480.5
790.554	17470.56
790.887	17346.95
791.219	17383.1
791.552	17361.41
791.884	17284.35
792.217	17358.24
792.549	17294.97
792.882	17171.36
793.214	17135.88
793.546	17160.96
793.879	16911.48
794.211	16898.82
794.543	16999.16
794.875	16896.34
795.207	16950.35
795.539	16883
795.871	16816.11
796.203	16799.39
796.535	16719.84
796.867	16664.25
797.198	16592.39
797.53	16644.36
797.862	16490.92
798.193	16532.28
798.525	16403.47
798.856	16473.52
799.188	16337.93
799.519	16289.8
799.85	16244.15
800.182	16244.6
800.513	16289.8
800.844	16160.31
801.175	16283.92
801.506	16158.5
801.837	16100.42
802.168	16040.09
802.499	16013.65
802.83	15964.38
803.161	15945.63
803.491	15964.83
803.822	15887.1
804.153	15831.5
804.483	15738.85
804.814	15694.11
805.145	15676.71
805.475	15681.9
805.805	15598.29
806.136	15543.38
806.466	15594.22
806.796	15490.04
807.126	15380.22
807.457	15395.58
807.787	15403.49
808.117	15332.31
808.447	15210.05
808.777	15258.19
809.107	15211.63
809.436	15211.63
809.766	15209.37
810.096	15107.46
810.426	14994.46
810.755	15177.51
811.085	15063.62
811.414	15048.93
811.744	14867.91
812.073	14892.32
812.403	14888.93
812.732	14838.99
813.061	14860.23
813.39	14763.51
813.719	14739.1
814.049	14853.23
814.378	14718.31
814.707	14639.9
815.036	14592.44
815.365	14565.1
815.693	14473.57
816.022	14523.29
816.351	14429.06
816.68	14426.57
817.008	14436.29
817.337	14301.38
817.665	14345.22
817.994	14314.93
818.322	14319.23
818.651	14253.02
818.979	14157.42
819.307	14302.05
819.636	14176.41
819.964	14170.98
820.292	14098.67
820.62	14039.69
820.948	14123.07
821.276	14130.53
821.604	14074.26
821.932	14126.46
822.259	14141.15
822.587	14036.75
822.915	14059.35
823.243	14165.56
823.57	14062.51
823.898	14040.82
824.225	13960.14
824.553	13999.01
824.88	14057.99
825.207	14088.95
825.535	13996.3
825.862	14128.95
826.189	14036.07
826.516	14118.56
826.843	14119.23
827.17	14139.35
827.497	14097.76
827.824	14102.51
828.151	14063.42
828.478	14154.49
828.805	14085.79
829.131	14067.26
829.458	14089.4
829.785	14070.2
830.111	14036.98
830.438	14114.04
830.764	14153.81
831.09	14090.53
831.417	13981.38
831.743	14001.72
832.069	14058.44
832.395	13971.67
832.722	14066.58
833.048	14038.56
833.374	13943.19
833.7	13905.91
834.026	13980.93
834.351	13936.64
834.677	14020.93
835.003	13940.03
835.329	13845.57
835.654	13882.4
835.98	13868.62
836.306	13802.86
836.631	13870.43
836.956	13886.47
837.282	13859.13
837.607	13787.04
837.932	13684.67
838.258	13871.56
838.583	13666.36
838.908	13633.82
839.233	13759.69
839.558	13697.55
839.883	13571.45
840.208	13545.92
840.533	13578
840.858	13548.85
841.182	13566.93
841.507	13551.56
841.832	13525.35
842.156	13492.36
842.481	13493.26
842.805	13344.11
843.13	13385.47
843.454	13382.08
843.778	13259.59
844.103	13259.59
844.427	13223.44
844.751	13156.09
845.075	13226.15
845.399	13177.79
845.723	13091.69
846.047	13083.33
846.371	12913.84
846.695	12992.26
847.019	12850.34
847.343	12811.02
847.666	12769.66
847.99	12659.61
848.313	12692.38
848.637	12626.39
848.96	12587.75
849.284	12527.18
849.607	12430.01
849.931	12459.84
850.254	12397.7
850.577	12327.42
850.9	12254.65
851.223	12291.03
851.546	12240.64
851.869	12173.75
852.192	12159.74
852.515	11989.8
852.838	12023.02
853.161	12031.83
853.483	11988.89
853.806	11904.83
854.129	11880.2
854.451	11832.29
854.774	11821.89
855.096	11743.02
855.419	11758.62
855.741	11650.82
856.063	11603.37
856.385	11684.5
856.708	11547.1
857.03	11502.58
857.352	11540.77
857.674	11485.86
857.996	11419.42
858.318	11389.59
858.64	11379.64
858.961	11304.17
859.283	11280.89
859.605	11260.33
859.926	11223.04
860.248	11232.76
860.57	11173.55
860.891	11134
861.212	11038.18
861.534	11076.15
861.855	11072.99
862.176	11122.25
862.498	11061.46
862.819	11019.2
863.14	11016.72
863.461	10939.43
863.782	10977.62
864.103	10927.68
864.424	10947.57
864.745	10946.89
865.065	10805.65
865.386	10822.14
865.707	10827.79
866.027	10839.09
866.348	10874.57
866.668	10884.29
866.989	10729.94
867.309	10697.4
867.63	10812.88
867.95	10704.86
868.27	10578.99
868.59	10677.97
868.91	10621.25
869.23	10619.89
869.55	10567.24
869.87	10607.24
870.19	10560.46
870.51	10643.84
870.83	10550.74
871.15	10498.31
871.469	10499.67
871.789	10534.92
872.109	10475.26
872.428	10432.55
872.748	10432.1
873.067	10469.84
873.386	10437.3
873.706	10385.77
874.025	10405.88
874.344	10317.53
874.663	10239.34
874.982	10294.7
875.301	10240.69
875.62	10264.42
875.939	10230.75
876.258	10245.44
876.577	10196.85
876.896	10226.68
877.214	10153.69
877.533	10167.7
877.852	10209.51
878.17	10209.73
878.489	10157.08
878.807	10164.76
879.125	10029.17
879.444	10081.37
879.762	10026.69
880.08	10096.51
880.398	10007.25
880.716	10035.72
881.034	9933.58
881.352	9982.62
881.67	9879.57
881.988	9904.43
882.306	9840.7
882.624	9906.46
882.941	9805.67
883.259	9750.99
883.577	9757.77
883.894	9735.85
884.212	9744.43
884.529	9695.39
884.846	9649.07
885.164	9685.23
885.481	9660.14
885.798	9703.76
886.115	9642.97
886.432	9530.43
886.75	9595.96
887.067	9609.75
887.383	9529.75
887.7	9535.62
888.017	9482.97
888.334	9459.02
888.651	9495.17
888.967	9474.38
889.284	9414.5
889.6	9354.61
889.917	9248.85
890.233	9277.78
890.55	9254.5
890.866	9263.77
891.182	9210.44
891.498	9190.32
891.815	9213.83
892.131	9123.43
892.447	9134.73
892.763	9098.12
893.079	9090.21
893.395	9020.38
893.71	9010.67
894.026	9017.45
894.342	8929.77
894.657	8932.48
894.973	8842.99
895.289	8858.81
895.604	8838.47
895.92	8781.29
896.235	8796.89
896.55	8755.08
896.865	8720.28
897.181	8731.35
897.496	8706.95
897.811	8632.6
898.126	8622.65
898.441	8614.52
898.756	8530.68
899.071	8428.08
899.386	8539.49
899.7	8461.75
900.015	8379.72
900.33	8356.9
900.644	8367.97
900.959	8338.82
901.273	8357.58
901.588	8293.17
901.902	8251.59
902.216	8209.11
902.531	8126.4
902.845	8172.72
903.159	8088.88
903.473	8065.16
903.787	8012.95
904.101	7959.62
904.415	8008.66
904.729	7940.19
905.042	7871.71
905.356	7918.27
905.67	7869
905.984	7864.03
906.297	7835.33
906.611	7774.09
906.924	7800.98
907.237	7759.4
907.551	7718.05
907.864	7625.39
908.177	7663.36
908.491	7519.18
908.804	7635.56
909.117	7512.85
909.43	7540.65
909.743	7473.53
910.056	7455.23
910.368	7397.6
910.681	7350.15
910.994	7344.5
911.307	7307.89
911.619	7278.06
911.932	7282.8
912.244	7200.77
912.557	7183.82
912.869	7153.77
913.181	7149.47
913.494	7153.77
913.806	6992.19
914.118	7029.48
914.43	7006.88
914.742	7003.94
915.054	6914
915.366	6954.45
915.678	6913.1
915.99	6906.54
916.302	6848.01
916.613	6809.59
916.925	6808.24
917.236	6792.87
917.548	6720.78
917.859	6755.13
918.171	6650.5
918.482	6670.84
918.794	6643.72
919.105	6601.46
919.416	6551.07
919.727	6517.17
920.038	6505.42
920.349	6477.85
920.66	6420.9
920.971	6423.16
921.282	6452.32
921.593	6383.62
921.903	6360.34
922.214	6319.89
922.525	6346.1
922.835	6279.89
923.146	6202.15
923.456	6214.58
923.767	6180.46
924.077	6252.1
924.387	6132.55
924.697	6110.86
925.008	6103.4
925.318	6116.73
925.628	6097.75
925.938	6043.06
926.248	5988.6
926.558	5966.45
926.867	5935.95
927.177	5914.03
927.487	5862.05
927.796	5826.8
928.106	5853.24
928.416	5870.41
928.725	5793.8
929.034	5761.26
929.344	5793.35
929.653	5707.48
929.962	5710.87
930.271	5649.17
930.581	5650.98
930.89	5613.69
931.199	5580.7
931.508	5592.23
931.817	5587.71
932.125	5554.71
932.434	5549.29
932.743	5473.13
933.051	5479.91
933.36	5463.64
933.669	5425.45
933.977	5381.61
934.286	5410.99
934.594	5353.81
934.902	5282.4
935.21	5296.41
935.519	5306.13
935.827	5315.4
936.135	5238.11
936.443	5255.51
936.751	5193.82
937.059	5300.71
937.367	5153.37
937.674	5183.65
937.982	5155.4
938.29	5130.32
938.597	5108.85
938.905	4992.24
939.213	5041.73
939.52	5060.49
939.827	5016.65
940.135	4975.52
940.442	4948.4
940.749	4943.43
941.056	4917.67
941.363	4877.44
941.67	4887.84
941.977	4844.9
942.284	4826.82
942.591	4806.26
942.898	4777.33
943.205	4740.27
943.511	4758.35
943.818	4778.91
944.125	4696.88
944.431	4680.39
944.738	4659.14
945.044	4636.32
945.35	4585.02
945.657	4607.84
945.963	4587.51
946.269	4559.03
946.575	4543.67
946.881	4511.35
947.187	4471.35
947.493	4487.62
947.799	4453.27
948.105	4470.9
948.41	4389.09
948.716	4444.23
949.022	4420.28
949.327	4362.65
949.633	4319.72
949.938	4382.99
950.244	4345.7
950.549	4306.61
950.854	4302.77
951.16	4268.64
951.465	4251.24
951.77	4200.62
952.075	4179.83
952.38	4152.49
952.685	4192.04
952.99	4117.69
953.294	4108.88
953.599	4091.02
953.904	4109.33
954.209	4067.75
954.513	4082.89
954.818	4050.57
955.122	4036.56
955.426	4013.06
955.731	3991.82
956.035	3967.64
956.339	3910.24
956.643	3953.62
956.948	3887.19
957.252	3938.03
957.556	3881.31
957.86	3830.24
958.163	3864.14
958.467	3820.07
958.771	3808.09
959.075	3797.24
959.378	3793.86
959.682	3809
959.985	3755.66
960.289	3751.14
960.592	3750.69
960.896	3698.49
961.199	3695.78
961.502	3717.47
961.805	3656.46
962.108	3672.05
962.411	3640.64
962.714	3630.02
963.017	3557.25
963.32	3625.05
963.623	3578.27
963.926	3544.6
964.228	3547.99
964.531	3523.58
964.833	3549.57
965.136	3485.84
965.438	3486.52
965.741	3437.71
966.043	3423.7
966.345	3411.04
966.648	3469.8
966.95	3399.06
967.252	3398.84
967.554	3353.87
967.856	3362.45
968.158	3319.52
968.46	3342.34
968.761	3338.95
969.063	3275.45
969.365	3277.94
969.666	3268.22
969.968	3215.57
970.269	3241.33
970.571	3240.2
970.872	3244.94
971.174	3215.34
971.475	3190.93
971.776	3162.69
972.077	3162.01
972.378	3137.83
972.679	3122.46
972.98	3112.29
973.281	3107.77
973.582	3102.12
973.883	3077.04
974.183	3095.79
974.484	3036.36
974.785	3018.96
975.085	3068.68
975.386	3054.44
975.686	3003.59
975.986	2977.38
976.287	2954.33
976.587	2908.23
976.887	2950.49
977.187	2919.75
977.487	2905.74
977.787	2913.2
978.087	2897.61
978.387	2849.7
978.687	2851.05
978.987	2863.03
979.286	2812.19
979.586	2837.04
979.885	2825.07
980.185	2775.58
980.484	2776.93
980.784	2797.95
981.083	2756.37
981.382	2739.65
981.682	2700.55
981.981	2742.13
982.28	2720.44
982.579	2700.55
982.878	2716.6
983.177	2685.18
983.475	2689.03
983.774	2649.25
984.073	2646.09
984.372	2604.96
984.67	2619.65
984.969	2622.36
985.267	2573.32
985.566	2608.12
985.864	2593.89
986.162	2578.52
986.461	2563.15
986.759	2534.68
987.057	2504.4
987.355	2531.52
987.653	2524.96
987.951	2464.85
988.249	2489.26
988.547	2473.89
988.844	2470.27
989.142	2459.65
989.44	2438.18
989.737	2428.47
990.035	2422.82
990.332	2409.03
990.63	2401.12
990.927	2392.76
991.224	2413.78
991.521	2368.13
991.819	2376.49
992.116	2359.54
992.413	2330.39
992.71	2333.78
993.006	2293.56
993.303	2313.22
993.6	2282.48
993.897	2298.3
994.193	2275.48
994.49	2247.91
994.787	2216.27
995.083	2224.18
995.379	2213.78
995.676	2196.38
995.972	2222.37
996.268	2183.73
996.565	2129.94
996.861	2178.3
997.157	2154.35
997.453	2143.95
997.749	2140.34
998.044	2084.07
998.34	2087.69
998.636	2105.31
998.932	2090.62
999.227	2072.09
999.523	2069.61
999.818	2040.23
1000.114	2047.69
1000.409	2034.58
1000.704	2036.84
1001	2021.92
1001.295	1997.52
1001.59	1987.57
1001.885	1969.5
1002.18	1999.1
1002.475	1958.88
1002.77	1943.28
1003.065	1936.73
1003.359	1925.66
1003.654	1893.79
1003.949	1933.56
1004.243	1888.82
1004.538	1866.45
1004.832	1904.41
1005.127	1879.56
1005.421	1881.36
1005.715	1840.69
1006.009	1847.24
1006.304	1843.85
1006.598	1813.79
1006.892	1811.76
1007.186	1792.33
1007.48	1764.08
1007.773	1791.65
1008.067	1761.37
1008.361	1730.18
1008.655	1738.54
1008.948	1757.98
1009.242	1686.34
1009.535	1726.11
1009.829	1713.68
1010.122	1692.44
1010.415	1686.79
1010.708	1665.32
1011.001	1678.88
1011.295	1671.2
1011.588	1702.38
1011.881	1645.21
1012.173	1618.09
1012.466	1604.31
1012.759	1639.34
1013.052	1628.71
1013.344	1583.07
1013.637	1599.56
1013.93	1552.56
1014.222	1562.28
1014.514	1558.21
1014.807	1567.47
1015.099	1553.24
1015.391	1546
1015.683	1531.32
1015.976	1527.02
1016.268	1506.46
1016.56	1488.6
1016.851	1494.25
1017.143	1441.37
1017.435	1455.84
1017.727	1426.23
1018.018	1457.19
1018.31	1434.82
1018.602	1435.72
1018.893	1419.23
1019.185	1430.08
1019.476	1399.12
1019.767	1392.11
1020.058	1390.75
1020.35	1373.81
1020.641	1374.03
1020.932	1351.66
1021.223	1332.9
1021.514	1351.43
1021.804	1326.58
1022.095	1310.76
1022.386	1301.72
1022.677	1307.37
1022.967	1316.86
1023.258	1287.93
1023.548	1261.94
1023.839	1277.99
1024.129	1281.15
1024.419	1248.39
1024.709	1241.38
1025	1233.02
1025.29	1238.89
1025.58	1227.82
1025.87	1225.79
1026.16	1206.35
1026.449	1207.26
1026.739	1202.28
1027.029	1158.9
1027.319	1169.07
1027.608	1161.83
1027.898	1161.61
1028.187	1156.86
1028.477	1172.91
1028.766	1158.9
1029.055	1130.65
1029.344	1132
1029.634	1160.93
1029.923	1125.68
1030.212	1118.67
1030.501	1106.92
1030.79	1072.57
1031.078	1073.02
1031.367	1070.54
1031.656	1076.64
1031.945	1084.32
1032.233	1069.86
1032.522	1060.37
1032.81	1049.29
1033.099	1024.21
1033.387	1049.52
1033.675	1033.48
1033.963	1014.04
1034.251	1024.21
1034.54	1016.98
1034.828	1004.1
1035.116	1016.98
1035.403	1007.94
1035.691	997.32
1035.979	986.02
1036.267	953.25
1036.554	966.58
1036.842	980.14
1037.129	963.87
1037.417	940.6
1037.704	932.69
1037.992	907.6
1038.279	930.2
1038.566	928.17
1038.853	928.17
1039.14	928.17
