Data from hue_300_FLMS001491_00097.txt Node
Date: Tue Feb 07 15:51:28 GMT 2017
User: dcchb
Spectrometer: FLMS00149
Trigger mode: 0
Integration Time (sec): 2.000000E-2
Scans to average: 10
Electric dark correction enabled: true
Nonlinearity correction enabled: false
Boxcar width: 0
XAxis mode: Wavelengths
Number of Pixels in Spectrum: 2048
>>>>>Begin Spectral Data<<<<<
341.393	-23.25
341.776	-23.25
342.16	-23.25
342.543	-63.25
342.927	-59.18
343.31	-60.08
343.693	-62.12
344.077	-60.99
344.46	-66.86
344.843	-56.92
345.226	-47.43
345.61	-11.5
345.993	-19.86
346.376	-8.11
346.759	11.55
347.142	24.43
347.525	27.6
347.908	64.66
348.291	74.15
348.674	89.29
349.057	102.17
349.44	113.25
349.823	124.09
350.206	158.89
350.588	190.08
350.971	203.64
351.354	212
351.737	249.74
352.119	239.34
352.502	247.25
352.884	232.34
353.267	280.02
353.65	308.72
354.032	284.99
354.414	298.33
354.797	311.88
355.179	284.77
355.562	301.94
355.944	315.5
356.326	329.29
356.709	320.02
357.091	346.46
357.473	350.75
357.855	336.97
358.238	318.21
358.62	311.66
359.002	344.43
359.384	337.65
359.766	325.67
360.148	328.61
360.53	348.04
360.912	327.25
361.294	319.34
361.676	342.17
362.057	342.62
362.439	328.38
362.821	353.69
363.203	337.65
363.584	338.78
363.966	331.32
364.348	321.83
364.729	303.52
365.111	310.08
365.493	294.94
365.874	302.17
366.256	284.99
366.637	280.92
367.019	324.77
367.4	319.34
367.781	301.94
368.163	294.71
368.544	310.98
368.925	304.65
369.306	310.75
369.688	313.47
370.069	297.42
370.45	315.5
370.831	300.13
371.212	312.11
371.593	306.46
371.974	310.53
372.355	302.17
372.736	284.31
373.117	292
373.498	297.87
373.879	289.51
374.26	320.02
374.641	301.26
375.021	293.81
375.402	310.98
375.783	311.43
376.163	313.01
376.544	316.18
376.925	300.81
377.305	307.82
377.686	321.6
378.066	301.72
378.447	320.47
378.827	311.66
379.208	320.7
379.588	331.54
379.968	319.12
380.349	324.54
380.729	335.39
381.109	321.38
381.489	320.92
381.87	317.08
382.25	327.03
382.63	319.57
383.01	336.97
383.39	310.75
383.77	329.51
384.15	315.73
384.53	340.13
384.91	339.23
385.29	335.61
385.67	339.23
386.049	340.36
386.429	327.25
386.809	334.48
387.189	348.95
387.568	343.52
387.948	341.94
388.328	334.71
388.707	345.1
389.087	345.56
389.466	339.91
389.846	353.47
390.225	350.08
390.605	346.46
390.984	360.7
391.363	364.31
391.743	372.9
392.122	355.73
392.501	358.44
392.881	371.09
393.26	371.32
393.639	382.84
394.018	359.79
394.397	369.06
394.776	387.14
395.155	371.32
395.534	366.12
395.913	383.75
396.292	383.97
396.671	367.25
397.05	382.62
397.429	362.96
397.808	382.62
398.186	382.17
398.565	365.22
398.944	396.63
399.323	386.91
399.701	388.04
400.08	395.72
400.458	404.09
400.837	386.01
401.215	406.35
401.594	410.64
401.972	416.74
402.351	394.59
402.729	395.95
403.107	412.45
403.486	415.61
403.864	426.01
404.242	435.95
404.62	427.14
404.999	435.5
405.377	433.24
405.755	430.07
406.133	438.89
406.511	451.99
406.889	433.92
407.267	425.33
407.645	446.34
408.023	487.02
408.401	470.98
408.779	461.03
409.156	481.15
409.534	496.96
409.912	494.7
410.29	510.3
410.667	485.44
411.045	508.72
411.422	510.52
411.8	510.98
412.178	541.71
412.555	528.83
412.933	527.7
413.31	535.61
413.687	538.77
414.065	555.72
414.442	581.03
414.819	573.8
415.197	594.59
415.574	588.94
415.951	610.41
416.328	621.71
416.705	624.19
417.082	624.42
417.46	626.9
417.837	658.32
418.214	642.95
418.591	642.05
418.967	659.22
419.344	684.76
419.721	676.39
420.098	685.89
420.475	702.38
420.852	696.73
421.228	701.93
421.605	713.91
421.982	718.65
422.358	739.9
422.735	751.42
423.111	774.92
423.488	768.37
423.864	788.03
424.241	754.36
424.617	770.18
424.994	795.94
425.37	818.99
425.746	805.66
426.123	818.76
426.499	823.96
426.875	826.9
427.251	842.94
427.627	852.21
428.003	862.83
428.379	889.95
428.756	890.85
429.132	908.48
429.507	902.83
429.883	907.35
430.259	932.21
430.635	935.6
431.011	947.8
431.387	948.93
431.763	996.61
432.138	968.59
432.514	980.57
432.89	1005.65
433.265	1009.49
433.641	1016.95
434.016	1012.21
434.392	1014.01
434.767	1074.35
435.143	1033.22
435.518	1064.63
435.894	1088.59
436.269	1133.78
436.644	1122.71
437.02	1102.15
437.395	1134.46
437.77	1153.67
438.145	1161.35
438.52	1160.45
438.895	1150.05
439.271	1155.93
439.646	1197.28
440.021	1213.1
440.395	1203.16
440.77	1200.45
441.145	1201.8
441.52	1211.97
441.895	1249.49
442.27	1240
442.645	1240.22
443.019	1236.15
443.394	1258.53
443.769	1259.66
444.143	1249.94
444.518	1288.36
444.892	1273.44
445.267	1287.23
445.641	1296.94
446.016	1270.28
446.39	1281.35
446.764	1284.74
447.139	1303.5
447.513	1309.37
447.887	1310.5
448.262	1287.9
448.636	1341.24
449.01	1328.81
449.384	1340.56
449.758	1362.48
450.132	1374.68
450.506	1358.41
450.88	1353.89
451.254	1339.43
451.628	1365.87
452.002	1359.09
452.376	1395.92
452.75	1388.47
453.123	1371.07
453.497	1393.66
453.871	1432.76
454.244	1415.58
454.618	1438.18
454.992	1458.97
455.365	1456.04
455.739	1509.59
456.112	1474.79
456.486	1471.85
456.859	1478.63
457.232	1487.67
457.606	1515.24
457.979	1530.38
458.352	1563.6
458.725	1564.51
459.099	1549.37
459.472	1556.15
459.845	1583.49
460.218	1619.19
460.591	1568.8
460.964	1585.07
461.337	1620.55
461.71	1648.35
462.083	1640.21
462.456	1683.37
462.829	1679.76
463.201	1670.94
463.574	1703.26
463.947	1686.76
464.32	1711.62
464.692	1753.65
465.065	1727.67
465.438	1749.81
465.81	1789.81
466.183	1774.22
466.555	1794.78
466.928	1801.56
467.3	1822.35
467.672	1834.33
468.045	1883.37
468.417	1860.54
468.789	1859.41
469.161	1870.04
469.534	1875.23
469.906	1928.57
470.278	1929.02
470.65	1924.5
471.022	1934.21
471.394	1966.98
471.766	2012.63
472.138	1989.81
472.51	2056.02
472.882	2066.19
473.253	2064.38
473.625	2091.05
473.997	2129.69
474.369	2149.12
474.74	2140.76
475.112	2173.53
475.484	2166.07
475.855	2228.9
476.227	2225.51
476.598	2249.23
476.97	2303.92
477.341	2306.18
477.713	2316.58
478.084	2320.42
478.455	2415.11
478.827	2362.9
479.198	2426.41
479.569	2424.82
479.94	2458.72
480.311	2479.06
480.682	2504.37
481.053	2554.76
481.424	2543.24
481.795	2576.46
482.166	2599.06
482.537	2675.44
482.908	2650.81
483.279	2680.64
483.65	2753.18
484.021	2744.36
484.391	2748.88
484.762	2806.28
485.133	2785.04
485.503	2828.65
485.874	2855.09
486.244	2903.23
486.615	2931.02
486.985	2931.7
487.356	2962.44
487.726	2989.1
488.097	3030.01
488.467	3032.49
488.837	3094.18
489.207	3085.82
489.578	3127.63
489.948	3145.03
490.318	3175.99
490.688	3169.89
491.058	3177.57
491.428	3263.45
491.798	3236.55
492.168	3315.2
492.538	3333.27
492.908	3295.99
493.278	3362.2
493.648	3388.19
494.017	3413.27
494.387	3421.18
494.757	3412.14
495.126	3444.68
495.496	3486.04
495.866	3460.5
496.235	3499.37
496.605	3500.95
496.974	3549.99
497.344	3539.14
497.713	3573.04
498.082	3534.17
498.452	3618.24
498.821	3603.32
499.19	3601.29
499.559	3602.87
499.928	3617.33
500.298	3665.24
500.667	3676.54
501.036	3688.29
501.405	3710.21
501.774	3700.04
502.143	3715.86
502.512	3738.91
502.88	3784.34
503.249	3747.5
503.618	3769.19
503.987	3818.68
504.356	3793.83
504.724	3822.3
505.093	3777.56
505.462	3822.75
505.83	3838.35
506.199	3830.89
506.567	3897.33
506.936	3884.22
507.304	3908.85
507.672	3920.38
508.041	3928.96
508.409	3935.07
508.777	3924.44
509.145	3963.77
509.514	3960.38
509.882	4016.19
510.25	4014.39
510.618	3997.89
510.986	4003.76
511.354	4035.63
511.722	4055.97
512.09	4074.95
512.458	4134.38
512.826	4120.37
513.193	4086.7
513.561	4084.89
513.929	4097.77
514.297	4118.34
514.664	4156.76
515.032	4121.28
515.4	4165.12
515.767	4204.21
516.135	4173.03
516.502	4147.72
516.869	4174.38
517.237	4210.99
517.604	4209.64
517.972	4243.08
518.339	4225.45
518.706	4258.45
519.073	4197.66
519.44	4286.02
519.808	4290.31
520.175	4241.05
520.542	4306.58
520.909	4310.2
521.276	4306.36
521.643	4357.2
522.009	4340.25
522.376	4376.41
522.743	4365.56
523.11	4403.53
523.477	4406.47
523.843	4409.86
524.21	4464.77
524.577	4496.41
524.943	4456.41
525.31	4522.4
525.676	4603.3
526.043	4533.69
526.409	4561.26
526.776	4588.83
527.142	4630.64
527.508	4669.28
527.874	4650.98
528.241	4678.78
528.607	4702.96
528.973	4721.71
529.339	4782.05
529.705	4714.93
530.071	4788.83
530.437	4818.88
530.803	4855.27
531.169	4848.71
531.535	4812.33
531.901	4884.42
532.267	4891.43
532.632	4922.38
532.998	4915.15
533.364	4980.91
533.73	4920.8
534.095	4972.1
534.461	5006.45
534.826	5081.93
535.192	4998.99
535.557	5051.65
535.923	5074.47
536.288	5090.29
536.653	5092.1
537.019	5115.6
537.384	5161.25
537.749	5150.4
538.114	5223.17
538.479	5178.42
538.845	5184.3
539.21	5196.5
539.575	5324.86
539.94	5279.21
540.305	5278.76
540.67	5324.41
541.034	5319.66
541.399	5362.15
541.764	5369.6
542.129	5382.49
542.494	5417.51
542.858	5402.15
543.223	5406.21
543.587	5508.13
543.952	5511.52
544.316	5444.4
544.681	5505.65
545.045	5556.04
545.41	5615.7
545.774	5591.29
546.138	5614.8
546.503	5644.63
546.867	5648.24
547.231	5727.34
547.595	5725.08
547.959	5708.8
548.324	5696.15
548.688	5763.49
549.052	5733.44
549.416	5774.57
549.779	5804.17
550.143	5824.96
550.507	5851.85
550.871	5885.52
551.235	5830.16
551.599	5850.04
551.962	5878.74
552.326	5920.55
552.689	5938.63
553.053	5928.23
553.417	5907.67
553.78	6057.95
554.143	6011.17
554.507	6048.68
554.87	6036.48
555.234	6112.41
555.597	6083.94
555.96	6096.59
556.323	6099.3
556.686	6045.52
557.05	6212.97
557.413	6192.18
557.776	6205.06
558.139	6210.26
558.502	6175.69
558.865	6231.73
559.228	6299.3
559.59	6283.25
559.953	6299.07
560.316	6357.38
560.679	6301.78
561.041	6333.2
561.404	6349.92
561.767	6378.62
562.129	6382.46
562.492	6456.36
562.854	6437.15
563.217	6384.95
563.579	6466.3
563.941	6491.61
564.304	6527.77
564.666	6534.55
565.028	6580.42
565.39	6591.27
565.753	6572.06
566.115	6618.61
566.477	6619.74
566.839	6624.49
567.201	6685.05
567.563	6721.66
567.925	6785.84
568.287	6702.45
568.648	6746.97
569.01	6785.16
569.372	6868.32
569.734	6830.58
570.095	6890.69
570.457	6962.78
570.819	6996.23
571.18	6935.21
571.542	6999.17
571.903	7087.07
572.265	7105.38
572.626	7099.5
572.987	7170.24
573.349	7241.65
573.71	7292.04
574.071	7293.17
574.432	7339.04
574.794	7416.33
575.155	7439.38
575.516	7492.94
575.877	7555.99
576.238	7625.82
576.599	7698.81
576.96	7741.97
577.32	7825.36
577.681	7871.46
578.042	7982.87
578.403	7994.85
578.763	8091.34
579.124	8231
579.485	8390.99
579.845	8491.56
580.206	8577.66
580.566	8688.16
580.927	8776.29
581.287	8961.83
581.648	9082.28
582.008	9233.68
582.368	9299.9
582.728	9520.23
583.089	9570.62
583.449	9757.29
583.809	9952.31
584.169	10094.9
584.529	10262.58
584.889	10543.25
585.249	10654.44
585.609	10802.91
585.969	11079.51
586.329	11248.55
586.688	11480.18
587.048	11757.91
587.408	11885.59
587.768	12174.4
588.127	12456.2
588.487	12595.63
588.846	12929.86
589.206	13119.68
589.565	13399.9
589.925	13727.58
590.284	13865.88
590.643	14293.44
591.003	14464.05
591.362	14839.86
591.721	15062.68
592.08	15404.37
592.44	15685.94
592.799	15919.38
593.158	16221.07
593.517	16549.88
593.876	16730.21
594.235	17102.18
594.593	17406.35
594.952	17663.29
595.311	17963.17
595.67	18326.78
596.029	18558.64
596.387	18937.38
596.746	19261.67
597.104	19472.51
597.463	19775.1
597.822	20133.28
598.18	20291.92
598.538	20681.07
598.897	21066.37
599.255	21132.13
599.613	21726.01
599.972	21998.77
600.33	22237.64
600.688	22516.72
601.046	22850.95
601.404	23093.88
601.762	23295.69
602.12	23673.3
602.478	23906.74
602.836	24205.27
603.194	24378.6
603.552	24704.24
603.91	24896.55
604.268	25216.77
604.625	25357.78
604.983	25747.15
605.341	25913.7
605.698	26283.4
606.056	26501.03
606.413	26658.08
606.771	26935.14
607.128	27329.03
607.485	27283.38
607.843	27528.34
608.2	27986.19
608.557	28276.12
608.914	28239.51
609.272	28584.36
609.629	28829.78
609.986	29146.61
610.343	29264.57
610.7	29584.11
611.057	29679.47
611.414	29916.76
611.771	30069.07
612.127	30480.36
612.484	30472.9
612.841	30778.88
613.198	30768.03
613.554	30989.04
613.911	31312.2
614.267	31422.48
614.624	31540.44
614.98	31722.58
615.337	32002.12
615.693	32171.61
616.05	32115.79
616.406	32443.69
616.762	32576.12
617.118	32604.14
617.475	32805.95
617.831	33039.61
618.187	33067.63
618.543	33300.85
618.899	33383.11
619.255	33602.76
619.611	33530.9
619.967	33818.8
620.323	34140.83
620.678	33948.74
621.034	34090.21
621.39	34289.3
621.746	34269.41
622.101	34802.28
622.457	34516.18
622.812	34613.36
623.168	34908.26
623.523	34927.7
623.879	35102.83
624.234	34962.72
624.589	35119.56
624.945	35265.77
625.3	35206.56
625.655	35322.26
626.01	35449.72
626.365	35589.15
626.72	35453.11
627.075	35648.81
627.43	35573.33
627.785	35647.9
628.14	35784.62
628.495	35841.57
628.85	35856.03
629.205	35780.56
629.559	36157.04
629.914	35808.58
630.269	36084.96
630.623	35954.34
630.978	35850.61
631.332	36046.31
631.687	36282.92
632.041	36143.03
632.396	36251.96
632.75	36210.83
633.104	36130.38
633.459	36103.26
633.813	36230.94
634.167	36226.19
634.521	36089.7
634.875	36252.86
635.229	36349.81
635.583	36157.72
635.937	36166.53
636.291	36130.83
636.645	36248.79
636.999	36063.71
637.352	36231.84
637.706	36213.77
638.06	36439.52
638.413	36281.79
638.767	36178.06
639.121	36305.74
639.474	36058.74
639.828	36099.87
640.181	36235.01
640.534	36278.62
640.888	36144.16
641.241	35954.79
641.594	36121.79
641.947	36051.96
642.301	36106.65
642.654	36147.1
643.007	36175.57
643.36	36208.57
643.713	36054.22
644.066	36263.26
644.419	36091.06
644.771	35832.53
645.124	35602.03
645.477	35470.06
645.83	35226.45
646.182	35167.69
646.535	35076.17
646.888	35284.52
647.24	34962.05
647.593	35310.29
647.945	35037.07
648.298	34992.33
648.65	34982.61
649.002	34946.91
649.355	35009.73
649.707	34941.48
650.059	35166.56
650.411	35574.23
650.763	35527
651.115	35955.47
651.467	35765.64
651.819	35889.71
652.171	35729.26
652.523	35725.87
652.875	35725.64
653.227	35593.67
653.578	35826.88
653.93	35741.91
654.282	35538.75
654.633	35523.39
654.985	35566.55
655.337	35662.82
655.688	35638.64
656.039	35799.76
656.391	35425.09
656.742	35472.32
657.094	35531.07
657.445	35761.35
657.796	35583.73
658.147	35568.36
658.498	35515.25
658.849	35606.55
659.2	35626.89
659.551	35486.33
659.902	35685.19
660.253	35440.9
660.604	35604.52
660.955	35372.66
661.306	35595.7
661.656	35536.72
662.007	35596.15
662.358	35520.68
662.708	35585.99
663.059	35414.46
663.409	35385.76
663.76	35652.88
664.11	35565.65
664.461	35449.94
664.811	35415.82
665.161	35566.55
665.511	35451.53
665.862	35392.77
666.212	35509.38
666.562	35461.92
666.912	35344.41
667.262	35559.32
667.612	35364.52
667.962	35425.31
668.312	35461.47
668.662	35612.88
669.011	35484.97
669.361	35270.06
669.711	35379.21
670.06	35315.71
670.41	35186.9
670.76	35254.24
671.109	35349.38
671.459	35427.8
671.808	35214.7
672.157	35301.25
672.507	35065.55
672.856	35105.55
673.205	35254.47
673.554	35293.11
673.904	35100.35
674.253	35222.15
674.602	35111.42
674.951	34753.69
675.3	34599.57
675.649	35117.3
675.998	34948.49
676.346	35080.46
676.695	35164.75
677.044	34921.37
677.393	35119.56
677.741	34940.35
678.09	34950.07
678.438	34863.97
678.787	34974.7
679.135	34985.78
679.484	34725.22
679.832	34627.59
680.181	34574.26
680.529	34717.99
680.877	34685.44
681.225	34578.78
681.573	34779
681.922	34515.96
682.27	34412.23
682.618	34612.9
682.966	34486.13
683.314	34538.78
683.661	34310.09
684.009	34192.12
684.357	34119.36
684.705	34139.24
685.053	34163.42
685.4	34075.74
685.748	34085.23
686.095	33999.36
686.443	33801.17
686.79	33673.27
687.138	33711.23
687.485	33813.38
687.832	33653.61
688.18	33667.39
688.527	33409.32
688.874	33464.91
689.221	33482.09
689.568	33244.8
689.915	33279.38
690.262	33226.5
690.609	33121.42
690.956	33148.54
691.303	32988.54
691.65	32915.55
691.997	33026.5
692.344	32561.88
692.69	32615.44
693.037	32699.06
693.383	32368.22
693.73	32533.86
694.077	32345.17
694.423	32384.94
694.769	32230.37
695.116	32234.21
695.462	32027.43
695.808	31972.07
696.155	32156.02
696.501	31809.14
696.847	31833.32
697.193	31687.78
697.539	31784.28
697.885	31452.08
698.231	31469.48
698.577	31290.28
698.923	31349.03
699.269	31252.77
699.614	31173.45
699.96	31129.15
700.306	31205.54
700.651	30934.58
700.997	30952.66
701.342	30806.22
701.688	30787.02
702.033	30676.74
702.379	30549.06
702.724	30552.22
703.069	30697.07
703.415	30223.64
703.76	30268.16
704.105	30269.51
704.45	30141.16
704.795	30081.05
705.14	29926.47
705.485	29892.35
705.83	29729.87
706.175	29832.46
706.52	29672.47
706.865	29608.06
707.209	29492.81
707.554	29476.54
707.899	29569.19
708.243	29381.18
708.588	29336.88
708.932	29043.11
709.277	29204.91
709.621	29174.18
709.966	28945.26
710.31	28987.97
710.654	28812.38
710.998	28811.93
711.342	28824.81
711.687	28657.35
712.031	28541.88
712.375	28494.19
712.719	28498.26
713.063	28401.32
713.407	28500.52
713.75	28368.1
714.094	28343.92
714.438	28242.68
714.782	28317.7
715.125	28120.64
715.469	28242.9
715.812	28016.92
716.156	27892.18
716.499	27959.52
716.843	27973.53
717.186	27749.36
717.53	27900.09
717.873	27793.65
718.216	27944.38
718.559	27820.31
718.902	27456.03
719.246	27633.65
719.589	27454
719.932	27371.74
720.275	27408.57
720.617	27449.25
720.96	27351.17
721.303	27338.97
721.646	27277.5
721.989	27077.51
722.331	27184.17
722.674	27065.53
723.016	27092.88
723.359	27125.42
723.701	27040.9
724.044	26891.52
724.386	26768.59
724.729	26875.25
725.071	26713.68
725.413	26790.28
725.755	26802.71
726.097	26714.13
726.439	26483.4
726.782	26568.14
727.124	26655.82
727.465	26535.6
727.807	26517.75
728.149	26327.7
728.491	26356.17
728.833	26492.89
729.175	26375.38
729.516	26324.99
729.858	26211.09
730.199	26318.43
730.541	26249.73
730.882	26111.43
731.224	26287.02
731.565	26080.92
731.906	25997.76
732.248	26101.26
732.589	25922.74
732.93	25823.08
733.271	25884.32
733.612	25927.03
733.953	25930.65
734.294	25737.2
734.635	25831.67
734.976	25903.75
735.317	25603.2
735.658	25722.74
735.999	25695.17
736.339	25578.56
736.68	25675.51
737.021	25659.01
737.361	25508.74
737.702	25645.91
738.042	25516.42
738.383	25453.14
738.723	25478.45
739.063	25334.73
739.404	25402.07
739.744	25349.87
740.084	25290.66
740.424	25361.4
740.764	25206.6
741.104	25328.85
741.444	25162.3
741.784	25151.23
742.124	25070.56
742.464	24929.77
742.804	25145.81
743.143	24986.94
743.483	24976.32
743.823	24833.05
744.162	24854.74
744.502	24910.56
744.841	24773.39
745.181	24932.93
745.52	24719.6
745.86	24788.98
746.199	24719.15
746.538	24709.89
746.877	24847.28
747.216	24731.36
747.556	24640.96
747.895	24657.46
748.234	24475.77
748.573	24479.16
748.911	24456.56
749.25	24466.96
749.589	24410.46
749.928	24452.04
750.267	24477.58
750.605	24353.74
750.944	24381.31
751.283	24229
751.621	24375.66
751.96	24155.1
752.298	24207.75
752.636	24246.62
752.975	24141.54
753.313	24057.93
753.651	24143.57
753.989	24033.52
754.327	24076.23
754.666	23899.51
755.004	23982
755.342	24002.11
755.679	23948.1
756.017	23836.24
756.355	23835.11
756.693	23744.71
757.031	23782.45
757.368	23658.16
757.706	23564.38
758.044	23553.99
758.381	23610.93
758.719	23408.23
759.056	23611.38
759.394	23360.54
759.731	23290.26
760.068	23411.16
760.405	23257.72
760.743	23261.11
761.08	23168.68
761.417	23015.47
761.754	23092.98
762.091	22986.99
762.428	22978.41
762.765	22808.47
763.102	22865.64
763.438	22801.46
763.775	22719.66
764.112	22792.65
764.449	22714.46
764.785	22606.67
765.122	22419.78
765.458	22318.76
765.795	22396.5
766.131	22307.01
766.467	22292.32
766.804	22177.07
767.14	21962.84
767.476	22083.06
767.812	22018.66
768.148	22016.4
768.485	21901.6
768.821	21749.51
769.157	21769.4
769.492	21570.08
769.828	21670.87
770.164	21442.85
770.5	21354.72
770.836	21420.71
771.171	21295.06
771.507	21266.59
771.842	21083.99
772.178	21062.98
772.513	21028.63
772.849	20999.48
773.184	20871.8
773.519	20836.32
773.855	20752.7
774.19	20813.27
774.525	20608.07
774.86	20713.61
775.195	20489.21
775.53	20421.41
775.865	20362.66
776.2	20211.7
776.535	20119.95
776.87	20094.64
777.205	20124.7
777.539	19930.58
777.874	20035.43
778.209	19839.28
778.543	19765.84
778.878	19595.9
779.212	19616.24
779.547	19537.82
779.881	19601.55
780.215	19563.81
780.55	19416.01
780.884	19259.86
781.218	19188.22
781.552	19247.66
781.886	19107.32
782.22	18969.7
782.554	18906.65
782.888	18807.67
783.222	18755.02
783.556	18686.09
783.889	18676.15
784.223	18496.27
784.557	18539.43
784.89	18435.25
785.224	18445.64
785.557	18303.5
785.891	18292.2
786.224	18221.7
786.558	18211.75
786.891	18004.3
787.224	17933.34
787.557	17902.83
787.891	18006.11
788.224	17888.82
788.557	17843.17
788.89	17779.22
789.223	17739.9
789.556	17622.39
789.888	17573.58
790.221	17523.64
790.554	17360.93
790.887	17320.7
791.219	17319.8
791.552	17297.43
791.884	17189.86
792.217	17084.32
792.549	17149.41
792.882	16945.12
793.214	16815.18
793.546	16793.03
793.879	16760.27
794.211	16712.36
794.543	16759.81
794.875	16628.52
795.207	16699.7
795.539	16562.08
795.871	16552.36
796.203	16388.75
796.535	16318.92
796.867	16365.47
797.198	16261.75
797.53	16299.03
797.862	16083
798.193	16153.95
798.525	16120.28
798.856	16074.41
799.188	15902.21
799.519	15846.84
799.85	15742.67
800.182	15794.64
800.513	15786.51
800.844	15672.16
801.175	15721.2
801.506	15643.23
801.837	15570.92
802.168	15562.33
802.499	15450.02
802.83	15391.94
803.161	15362.11
803.491	15329.79
803.822	15286.41
804.153	15239.18
804.483	15177.93
804.814	15090.7
805.145	15068.11
805.475	15160.99
805.805	14983.82
806.136	15020.65
806.466	14935.68
806.796	14789.7
807.126	14812.29
807.457	14758.96
807.787	14728.45
808.117	14699.75
808.447	14749.7
808.777	14734.56
809.107	14619.76
809.436	14607.78
809.766	14520.1
810.096	14509.03
810.426	14474.22
810.755	14438.52
811.085	14473.55
811.414	14396.94
811.744	14325.53
812.073	14158.3
812.403	14219.54
812.732	14152.65
813.061	14152.2
813.39	14080.56
813.719	14064.97
814.049	14094.8
814.378	13973.9
814.707	13965.76
815.036	13917.18
815.365	13863.17
815.693	13698.43
816.022	13768.93
816.351	13729.38
816.68	13645.32
817.008	13665.43
817.337	13542.27
817.665	13638.77
817.994	13516.28
818.322	13569.61
818.651	13486.23
818.979	13369.62
819.307	13532.1
819.636	13486
819.964	13371.2
820.292	13452.1
820.62	13448.94
820.948	13289.17
821.276	13384.08
821.604	13377.3
821.932	13382.05
822.259	13332.11
822.587	13318.55
822.915	13311.09
823.243	13366
823.57	13281.49
823.898	13278.1
824.225	13271.09
824.553	13267.02
824.88	13331.88
825.207	13308.6
825.535	13296.63
825.862	13313.8
826.189	13285.78
826.516	13337.08
826.843	13329.17
827.17	13243.75
827.497	13350.19
827.824	13352.9
828.151	13252.79
828.478	13342.28
828.805	13411.88
829.131	13252.34
829.458	13299.57
829.785	13189.29
830.111	13284.65
830.438	13272
830.764	13280.13
831.09	13223.64
831.417	13128.27
831.743	13297.76
832.069	13152.68
832.395	13100.25
832.722	13214.37
833.048	13128.72
833.374	13091.89
833.7	13066.13
834.026	13106.12
834.351	13179.79
834.677	13082.17
835.003	13127.14
835.329	13098.44
835.654	13015.05
835.98	13063.87
836.306	13042.4
836.631	12955.85
836.956	13037.2
837.282	13039.01
837.607	12965.11
837.932	12937.99
838.258	12889.18
838.583	12882.85
838.908	12889.63
839.233	12893.7
839.558	12806.92
839.883	12797.66
840.208	12759.47
840.533	12702.29
840.858	12691.22
841.182	12717.43
841.507	12669.75
841.832	12540.49
842.156	12668.4
842.481	12594.05
842.805	12480.83
843.13	12568.74
843.454	12498.23
843.778	12460.27
844.103	12347.73
844.427	12451.9
844.751	12388.63
845.075	12323.09
845.399	12335.3
845.723	12199.48
846.047	12238.35
846.371	12112.7
846.695	12161.06
847.019	12121.07
847.343	12044.91
847.666	11873.39
847.99	11855.76
848.313	11907.51
848.637	11805.82
848.96	11851.24
849.284	11730.57
849.607	11639.72
849.931	11593.85
850.254	11512.72
850.577	11502.55
850.9	11455.32
851.223	11486.28
851.546	11403.34
851.869	11178.72
852.192	11373.97
852.515	11177.14
852.838	11150.24
853.161	11203.12
853.483	11059.85
853.806	11088.55
854.129	11082
854.451	11017.59
854.774	10978.04
855.096	10976.46
855.419	10877.03
855.741	10904.83
856.063	10857.6
856.385	10800.42
856.708	10798.16
857.03	10667.54
857.352	10683.14
857.674	10663.93
857.996	10642.23
858.318	10585.29
858.64	10682.01
858.961	10579.64
859.283	10521.56
859.605	10463.71
859.926	10459.87
860.248	10439.98
860.57	10434.33
860.891	10443.37
861.212	10394.78
861.534	10338.06
861.855	10285.18
862.176	10305.52
862.498	10314.79
862.819	10280.89
863.14	10332.41
863.461	10244.96
863.782	10250.15
864.103	10239.98
864.424	10217.39
864.745	10184.62
865.065	10135.35
865.386	10091.74
865.707	10117.73
866.027	10115.69
866.348	10068.46
866.668	10053.1
866.989	10044.96
867.309	10011.74
867.63	9964.96
867.95	9979.2
868.27	9913.89
868.59	9916.15
868.91	9945.98
869.23	9867.57
869.55	9830.05
869.87	9909.6
870.19	9884.29
870.51	9881.12
870.83	9831.63
871.15	9798.41
871.469	9762.94
871.789	9767
872.109	9787.12
872.428	9697.85
872.748	9787.79
873.067	9752.31
873.386	9727
873.706	9677.51
874.025	9622.15
874.344	9705.31
874.663	9650.4
874.982	9615.37
875.301	9660.57
875.62	9583.05
875.939	9561.13
876.258	9552.55
876.577	9579.66
876.896	9523.17
877.214	9505.77
877.533	9472.77
877.852	9483.39
878.17	9460.12
878.489	9518.65
878.807	9465.99
879.125	9422.15
879.444	9397.75
879.762	9357.97
880.08	9380.57
880.398	9317.07
880.716	9360.23
881.034	9307.81
881.352	9342.61
881.67	9278.88
881.988	9272.1
882.306	9275.72
882.624	9218.32
882.941	9135.16
883.259	9185.78
883.577	9120.47
883.894	9068.26
884.212	9143.06
884.529	9096.51
884.846	9126.12
885.164	9021.71
885.481	9011.99
885.798	9002.05
886.115	8958.89
886.432	8988.49
886.75	8912.79
887.067	8935.84
887.383	8902.62
887.7	8912.79
888.017	8802.51
888.334	8857.87
888.651	8819.68
888.967	8821.94
889.284	8780.81
889.6	8767.26
889.917	8647.94
890.233	8733.36
890.55	8616.98
890.866	8623.53
891.182	8623.3
891.498	8600.93
891.815	8548.96
892.131	8541.5
892.447	8503.76
892.763	8420.82
893.079	8452.24
893.395	8434.61
893.71	8423.99
894.026	8382.18
894.342	8435.06
894.657	8311.67
894.973	8282.3
895.289	8233.94
895.604	8324.33
895.92	8208.17
896.235	8179.47
896.55	8185.12
896.865	8176.54
897.181	8097.44
897.496	8087.73
897.811	8108.29
898.126	7985.13
898.441	7991.91
898.756	8007.95
899.071	7946.94
899.386	7956.43
899.7	7885.7
900.015	7868.52
900.33	7812.7
900.644	7724.12
900.959	7777.9
901.273	7781.07
901.588	7703.1
901.902	7690.67
902.216	7659.49
902.531	7655.42
902.845	7639.15
903.159	7593.27
903.473	7523.9
903.787	7556.89
904.101	7479.38
904.415	7483.9
904.729	7405.94
905.042	7415.65
905.356	7374.75
905.67	7304.69
905.984	7394.86
906.297	7314.41
906.611	7273.74
906.924	7271.02
907.237	7259.5
907.551	7225.37
907.864	7171.59
908.177	7153.29
908.491	7089.33
908.804	7137.02
909.117	7103.57
909.43	6974.99
909.743	6959.85
910.056	7040.07
910.368	6994.65
910.681	6915.1
910.994	6887.08
911.307	6824.48
911.619	6840.98
911.932	6791.71
912.244	6762.56
912.557	6750.13
912.869	6719.4
913.181	6716.01
913.494	6675.78
913.806	6598.72
914.118	6642.79
914.43	6640.31
914.742	6604.15
915.054	6485.73
915.366	6520.53
915.678	6473.76
915.99	6473.08
916.302	6402.12
916.613	6380.88
916.925	6377.49
917.236	6343.14
917.548	6327.55
917.859	6310.6
918.171	6236.93
918.482	6226.76
918.794	6231.28
919.105	6208.23
919.416	6155.8
919.727	6166.19
920.038	6111.96
920.349	6092.75
920.66	6072.18
920.971	5990.83
921.282	6001.45
921.593	5955.58
921.903	5940.89
922.214	5941.11
922.525	5951.28
922.835	5875.58
923.146	5835.81
923.456	5814.79
923.767	5774.11
924.077	5803.94
924.387	5790.16
924.697	5736.83
925.008	5711.97
925.318	5699.77
925.628	5674.68
925.938	5596.94
926.248	5599.43
926.558	5590.39
926.867	5545.19
927.177	5554.46
927.487	5542.93
927.796	5503.61
928.106	5486.44
928.416	5474.69
928.725	5419.32
929.034	5345.2
929.344	5369.15
929.653	5395.37
929.962	5346.33
930.271	5320.11
930.581	5232.66
930.89	5294.58
931.199	5258.42
931.508	5215.03
931.817	5263.84
932.125	5180.91
932.434	5153.57
932.743	5097.07
933.051	5067.47
933.36	5116.5
933.669	5066.34
933.977	5040.57
934.286	5007.35
934.594	5038.99
934.902	4943.85
935.21	4929.16
935.519	4951.99
935.827	4978.65
936.135	4906.34
936.443	4902.95
936.751	4867.02
937.059	4815.49
937.367	4812.56
937.674	4801.03
937.982	4791.09
938.29	4729.4
938.597	4735.72
938.905	4719.23
939.213	4711.32
939.52	4672
939.827	4657.98
940.135	4617.76
940.442	4632.67
940.749	4592.68
941.056	4582.28
941.363	4552
941.67	4536.41
941.977	4512
942.284	4450.31
942.591	4470.87
942.898	4424.09
943.205	4446.69
943.511	4405.79
943.818	4410.31
944.125	4391.33
944.431	4368.73
944.738	4342.51
945.044	4331.21
945.35	4347.26
945.657	4283.76
945.963	4312.68
946.269	4234.04
946.575	4249.18
946.881	4201.5
947.187	4202.4
947.493	4145.23
947.799	4108.62
948.105	4099.13
948.41	4090.09
948.716	4145.23
949.022	4065.01
949.327	4074.05
949.633	4052.13
949.938	4045.57
950.244	4005.8
950.549	3971.68
950.854	3931.45
951.16	3933.03
951.465	3933.94
951.77	3951.11
952.075	3902.52
952.38	3943.88
952.685	3848.06
952.99	3865.92
953.294	3834.73
953.599	3814.62
953.904	3815.07
954.209	3718.8
954.513	3804.45
954.818	3719.03
955.122	3736.88
955.426	3716.99
955.731	3730.78
956.035	3733.94
956.339	3688.07
956.643	3687.61
956.948	3645.13
957.252	3645.58
957.556	3650.78
957.86	3598.58
958.163	3582.98
958.467	3587.5
958.771	3587.05
959.075	3562.42
959.378	3477.45
959.682	3524.91
959.985	3505.25
960.289	3502.31
960.592	3475.87
960.896	3420.28
961.199	3385.93
961.502	3439.71
961.805	3411.92
962.108	3413.95
962.411	3411.92
962.714	3370.11
963.017	3356.78
963.32	3385.48
963.623	3316.33
963.926	3344.57
964.228	3279.72
964.531	3228.42
964.833	3286.5
965.136	3253.73
965.438	3222.77
965.741	3202.88
966.043	3211.02
966.345	3185.71
966.648	3164.92
966.95	3188.64
967.252	3164.01
967.554	3169.66
967.856	3144.58
968.158	3091.47
968.46	3101.19
968.761	3054.41
969.063	3076.33
969.365	3046.5
969.666	3042.43
969.968	3011.7
970.269	3044.02
970.571	3028.2
970.872	2970.35
971.174	2968.31
971.475	2961.53
971.776	2957.46
972.077	2923.57
972.378	2898.03
972.679	2891.48
972.98	2925.15
973.281	2879.95
973.582	2900.06
973.883	2856
974.183	2839.95
974.484	2834.08
974.785	2823.23
975.085	2851.7
975.386	2830.91
975.686	2775.32
975.986	2807.64
976.287	2735.55
976.587	2727.64
976.887	2689
977.187	2744.59
977.487	2721.54
977.787	2710.69
978.087	2689
978.387	2708.43
978.687	2666.62
978.987	2632.95
979.286	2634.08
979.586	2660.98
979.885	2638.6
980.185	2611.94
980.484	2623.24
980.784	2574.65
981.083	2576.68
981.382	2581.43
981.682	2558.61
981.981	2559.51
982.28	2520.19
982.579	2533.52
982.878	2553.63
983.177	2472.51
983.475	2478.83
983.774	2468.66
984.073	2488.78
984.372	2458.72
984.67	2447.87
984.969	2422.56
985.267	2435.9
985.566	2396.8
985.864	2403.35
986.162	2423.69
986.461	2374.43
986.759	2359.29
987.057	2346.41
987.355	2367.65
987.653	2348.89
987.951	2352.28
988.249	2303.02
988.547	2308.22
988.844	2320.65
989.142	2270.93
989.44	2250.82
989.737	2261.89
990.035	2258.05
990.332	2249.46
990.63	2236.81
990.927	2218.5
991.224	2201.55
991.521	2201.78
991.819	2217.15
992.116	2172.63
992.413	2143.93
992.71	2164.04
993.006	2173.3
993.303	2163.36
993.6	2131.5
993.897	2128.79
994.193	2131.05
994.49	2122.46
994.787	2086.75
995.083	2085.4
995.379	2106.19
995.676	2056.92
995.972	2051.5
996.268	2027.09
996.565	2000.65
996.861	2033.87
997.157	2013.76
997.453	2042.23
997.749	1985.96
998.044	1995.68
998.34	1964.72
998.636	1965.17
998.932	1945.74
999.227	1924.72
999.523	1955.01
999.818	1907.77
1000.114	1901
1000.409	1894.89
1000.704	1874.56
1001	1880.2
1001.295	1865.74
1001.59	1874.78
1001.885	1874.33
1002.18	1844.5
1002.475	1803.82
1002.77	1831.39
1003.065	1813.99
1003.359	1817.83
1003.654	1800.43
1003.949	1788
1004.243	1759.53
1004.538	1753.65
1004.832	1775.57
1005.127	1749.59
1005.421	1724.05
1005.715	1736.25
1006.009	1721.34
1006.304	1703.03
1006.598	1712.3
1006.892	1665.97
1007.186	1671.17
1007.48	1682.7
1007.773	1663.49
1008.067	1631.85
1008.361	1658.29
1008.655	1643.83
1008.948	1632.53
1009.242	1611.74
1009.535	1648.57
1009.829	1582.81
1010.122	1610.16
1010.415	1590.72
1010.708	1576.94
1011.001	1559.08
1011.295	1550.95
1011.588	1566.99
1011.881	1500.78
1012.173	1547.11
1012.466	1541.91
1012.759	1498.52
1013.052	1526.32
1013.344	1494.9
1013.637	1498.52
1013.93	1462.36
1014.222	1481.35
1014.514	1468.46
1014.807	1423.72
1015.099	1461.91
1015.391	1442.02
1015.683	1450.39
1015.976	1423.95
1016.268	1416.94
1016.56	1403.16
1016.851	1386.21
1017.143	1391.18
1017.435	1370.39
1017.727	1341.01
1018.018	1369.48
1018.31	1339.65
1018.602	1340.33
1018.893	1328.13
1019.185	1316.6
1019.476	1325.19
1019.767	1324.74
1020.058	1304.4
1020.35	1302.82
1020.641	1291.29
1020.932	1290.16
1021.223	1274.35
1021.514	1254.68
1021.804	1255.36
1022.095	1238.41
1022.386	1231.18
1022.677	1238.64
1022.967	1227.79
1023.258	1224.18
1023.548	1198.19
1023.839	1195.7
1024.129	1180.56
1024.419	1158.42
1024.709	1189.6
1025	1169.49
1025.29	1153.67
1025.58	1157.51
1025.87	1141.47
1026.16	1137.85
1026.449	1148.92
1026.739	1127
1027.029	1118.19
1027.319	1144.63
1027.608	1138.53
1027.898	1087.91
1028.187	1084.75
1028.477	1071.86
1028.766	1082.94
1029.055	1063.96
1029.344	1058.76
1029.634	1060.11
1029.923	1031.64
1030.212	1077.97
1030.501	1029.38
1030.79	1034.13
1031.078	1022.6
1031.367	1018.08
1031.656	1025.31
1031.945	1007.91
1032.233	1004.3
1032.522	973.56
1032.81	1013.79
1033.099	956.84
1033.387	938.99
1033.675	995.03
1033.963	971.98
1034.251	954.13
1034.54	951.64
1034.828	948.48
1035.116	938.31
1035.403	927.91
1035.691	915.26
1035.979	908.25
1036.267	900.12
1036.554	909.61
1036.842	896.73
1037.129	913.68
1037.417	882.04
1037.704	884.98
1037.992	879.78
1038.279	870.74
1038.566	874.81
1038.853	874.81
1039.14	874.81
