Data from hue_60_FLMS001491_52.txt Node
Date: Mon Feb 06 15:17:35 GMT 2017
User: dcchb
Spectrometer: FLMS00149
Trigger mode: 0
Integration Time (sec): 2.000000E-2
Scans to average: 10
Electric dark correction enabled: true
Nonlinearity correction enabled: false
Boxcar width: 0
XAxis mode: Wavelengths
Number of Pixels in Spectrum: 2048
>>>>>Begin Spectral Data<<<<<
341.393	-10.25
341.776	-10.25
342.16	-10.25
342.543	-64.26
342.927	-87.09
343.31	-60.65
343.693	-71.72
344.077	-57.94
344.46	-64.72
344.843	-59.74
345.226	-35.79
345.61	-36.92
345.993	-3.25
346.376	-8.22
346.759	19.12
347.142	37.43
347.525	38.33
347.908	36.98
348.291	63.64
348.674	92.34
349.057	111.1
349.44	126.24
349.823	143.19
350.206	156.97
350.588	219.12
350.971	212.79
351.354	227.48
351.737	238.55
352.119	234.49
352.502	278.78
352.884	254.15
353.267	280.13
353.65	299.79
354.032	313.13
354.414	308.38
354.797	324.65
355.179	308.83
355.562	323.3
355.944	331.88
356.326	329.85
356.709	324.2
357.091	338.89
357.473	340.47
357.855	348.83
358.238	341.6
358.62	350.19
359.002	341.6
359.384	345.44
359.766	333.24
360.148	330.53
360.53	345.44
360.912	336.18
361.294	340.25
361.676	327.82
362.057	334.82
362.439	328.95
362.821	335.27
363.203	326.91
363.584	344.31
363.966	362.62
364.348	322.84
364.729	317.65
365.111	325.56
365.493	304.54
365.874	329.85
366.256	298.66
366.637	307.03
367.019	326.69
367.4	328.72
367.781	317.2
368.163	341.15
368.544	327.14
368.925	310.19
369.306	309.96
369.688	307.25
370.069	318.32
370.45	305.22
370.831	325.56
371.212	315.84
371.593	322.17
371.974	297.53
372.355	321.26
372.736	312.9
373.117	311.09
373.498	326.01
373.879	319.45
374.26	315.16
374.641	315.84
375.021	344.76
375.402	311.09
375.783	323.52
376.163	312.22
376.544	329.62
376.925	323.07
377.305	309.06
377.686	314.26
378.066	349.06
378.447	327.36
378.827	315.39
379.208	345.67
379.588	313.58
379.968	327.14
380.349	331.88
380.729	326.01
381.109	339.79
381.489	324.2
381.87	340.7
382.25	320.36
382.63	333.69
383.01	347.02
383.39	345.89
383.77	341.83
384.15	339.57
384.53	354.48
384.91	330.98
385.29	355.39
385.67	337.31
386.049	354.03
386.429	341.6
386.809	341.15
387.189	357.87
387.568	358.32
387.948	334.82
388.328	354.48
388.707	364.65
389.087	363.75
389.466	357.19
389.846	344.54
390.225	349.74
390.605	367.59
390.984	367.59
391.363	360.36
391.743	343.41
392.122	356.74
392.501	383.63
392.881	351.77
393.26	357.19
393.639	371.2
394.018	356.29
394.397	370.75
394.776	377.76
395.155	382.28
395.534	373.24
395.913	359
396.292	375.72
396.671	358.32
397.05	391.09
397.429	364.88
397.808	389.74
398.186	376.4
398.565	370.75
398.944	382.5
399.323	372.56
399.701	393.58
400.08	387.25
400.458	390.64
400.837	375.05
401.215	405.33
401.594	394.26
401.972	399.45
402.351	396.51
402.729	381.15
403.107	419.79
403.486	404.42
403.864	391.77
404.242	425.67
404.62	409.85
404.999	412.33
405.377	393.35
405.755	415.05
406.133	375.95
406.511	409.85
406.889	426.8
407.267	421.37
407.645	403.97
408.023	399.45
408.401	399.45
408.779	413.69
409.156	422.28
409.534	427.25
409.912	424.08
410.29	430.86
410.667	421.6
411.045	436.29
411.422	423.63
411.8	452.33
412.178	464.08
412.555	449.85
412.933	449.39
413.31	448.27
413.687	451.88
414.065	460.92
414.442	436.51
414.819	481.71
415.197	446.23
415.574	461.82
415.951	457.08
416.328	471.32
416.705	479
417.082	459.56
417.46	464.99
417.837	488.49
418.214	484.2
418.591	483.29
418.967	487.13
419.344	489.62
419.721	490.98
420.098	493.24
420.475	491.2
420.852	509.96
421.228	516.51
421.605	496.4
421.982	496.17
422.358	489.85
422.735	525.33
423.111	503.63
423.488	538.66
423.864	510.86
424.241	508.83
424.617	537.75
424.994	528.94
425.37	539.56
425.746	533.01
426.123	526.68
426.499	520.13
426.875	546.79
427.251	553.8
427.627	580.92
428.003	562.39
428.379	563.97
428.756	558.09
429.132	568.26
429.507	570.3
429.883	548.6
430.259	573.01
430.635	603.97
431.011	591.76
431.387	600.58
431.763	602.16
432.138	598.09
432.514	588.83
432.89	624.31
433.265	606.68
433.641	598.09
434.016	616.85
434.392	629.28
434.767	631.54
435.143	633.12
435.518	629.73
435.894	643.97
436.269	648.49
436.644	674.25
437.02	654.36
437.395	674.93
437.77	686.68
438.145	674.93
438.52	691.87
438.895	700.01
439.271	662.95
439.646	668.15
440.021	721.03
440.395	687.58
440.77	675.83
441.145	690.74
441.52	718.31
441.895	719.9
442.27	691.87
442.645	701.14
443.019	704.76
443.394	722.83
443.769	693.46
444.143	718.09
444.518	745.43
444.892	739.78
445.267	740.01
445.641	742.49
446.016	740.69
446.39	774.13
446.764	749.27
447.139	751.53
447.513	779.56
447.887	783.62
448.262	766
448.636	755.6
449.01	787.92
449.384	805.54
449.758	809.61
450.132	808.93
450.506	820.68
450.88	798.31
451.254	814.81
451.628	823.4
452.002	825.88
452.376	824.75
452.75	855.71
453.123	831.08
453.497	843.28
453.871	888.93
454.244	851.19
454.618	869.95
454.992	873.34
455.365	877.86
455.739	915.82
456.112	907.69
456.486	923.05
456.859	926.22
457.232	926.44
457.606	942.72
457.979	963.51
458.352	947.23
458.725	954.01
459.099	976.84
459.472	979.1
459.845	966.9
460.218	1023.39
460.591	1029.72
460.964	1026.78
461.337	1033.11
461.71	1041.02
462.083	1055.71
462.456	1080.56
462.829	1091.19
463.201	1107.23
463.574	1083.5
463.947	1120.34
464.32	1168.92
464.692	1171.64
465.065	1144.97
465.438	1197.17
465.81	1185.42
466.183	1210.73
466.555	1240.33
466.928	1221.35
467.3	1251.41
467.672	1249.6
468.045	1300.22
468.417	1316.26
468.789	1313.55
469.161	1334.12
469.534	1346.32
469.906	1402.59
470.278	1412.53
470.65	1461.35
471.022	1463.15
471.394	1509.71
471.766	1523.04
472.138	1561
472.51	1605.3
472.882	1628.57
473.253	1674
473.625	1699.31
473.997	1702.02
474.369	1743.6
474.74	1793.77
475.112	1850.26
475.484	1872.18
475.855	1932.97
476.227	1965.51
476.598	2030.6
476.97	2066.75
477.341	2123.93
477.713	2183.81
478.084	2219.74
478.455	2271.95
478.827	2344.71
479.198	2440.3
479.569	2476.01
479.94	2539.51
480.311	2647.98
480.682	2713.06
481.053	2820.63
481.424	2910.8
481.795	2957.8
482.166	3020.4
482.537	3108.76
482.908	3235.31
483.279	3287.74
483.65	3442.08
484.021	3501.52
484.391	3605.47
484.762	3704.22
485.133	3763.66
485.503	3919.36
485.874	4052.92
486.244	4122.74
486.615	4259.69
486.985	4367.48
487.356	4536.97
487.726	4616.74
488.097	4754.82
488.467	4858.54
488.837	5042.49
489.207	5163.85
489.578	5275.71
489.948	5426.21
490.318	5552.54
490.688	5650.16
491.058	5825.52
491.428	5962.7
491.798	6083.82
492.168	6346.19
492.538	6460.99
492.908	6559.52
493.278	6732.17
493.648	6830.02
494.017	7010.35
494.387	7129.67
494.757	7268.65
495.126	7495.54
495.496	7535.99
495.866	7777.56
496.235	7960.16
496.605	8027.73
496.974	8212.35
497.344	8330.32
497.713	8535.51
498.082	8642.17
498.452	8762.85
498.821	8956.97
499.19	9133.23
499.559	9277.41
499.928	9364.64
500.298	9485.99
500.667	9647.12
501.036	9749.72
501.405	9939.77
501.774	10093.66
502.143	10325.97
502.512	10384.73
502.88	10494.55
503.249	10575.46
503.618	10710.37
503.987	10885.28
504.356	11024.48
504.724	11182.67
505.093	11324.14
505.462	11361.2
505.83	11588.76
506.199	11739.95
506.567	11837.57
506.936	11940.39
507.304	12236.88
507.672	12220.16
508.041	12369.08
508.409	12517.1
508.777	12704.44
509.145	12868.5
509.514	12933.13
509.882	12988.27
510.25	13089.06
510.618	13323.86
510.986	13404.53
511.354	13494.02
511.722	13802.49
512.09	13957.97
512.458	13901.47
512.826	14126.32
513.193	14234.34
513.561	14275.92
513.929	14447.9
514.297	14689.02
514.664	14767.66
515.032	14918.62
515.4	15030.93
515.767	15131.72
516.135	15279.51
516.502	15158.16
516.869	15544.37
517.237	15749.33
517.604	15687.19
517.972	15787.75
518.339	15962.66
518.706	16114.29
519.073	16239.71
519.44	16369.43
519.808	16526.71
520.175	16527.39
520.542	16731.23
520.909	16888.06
521.276	16974.38
521.643	17175.96
522.009	17340.48
522.376	17399.91
522.743	17612.79
523.11	17671.32
523.477	17961.93
523.843	18041.93
524.21	18236.27
524.577	18426.1
524.943	18443.05
525.31	18573.89
525.676	18740.67
526.043	18943.15
526.409	19064.95
526.776	19195.57
527.142	19334.32
527.508	19435.11
527.874	19640.53
528.241	19752.62
528.607	19734.09
528.973	19979.05
529.339	19939.05
529.705	20312.83
530.071	20424.01
530.437	20523.22
530.803	20540.39
531.169	20797.79
531.535	20718.47
531.901	20872.59
532.267	20955.97
532.632	21041.85
532.998	21226.02
533.364	21327.49
533.73	21294.5
534.095	21546.02
534.461	21579.01
534.826	21705.11
535.192	21864.2
535.557	22041.6
535.923	21901.71
536.288	22111.88
536.653	22182.83
537.019	22288.37
537.384	22341.02
537.749	22469.38
538.114	22531.3
538.479	22549.38
538.845	22717.51
539.21	22628.7
539.575	22904.4
539.94	22927
540.305	23054.45
540.67	22891.52
541.034	23176.93
541.399	23181.45
541.764	23264.16
542.129	23404.72
542.494	23294.22
542.858	23527.88
543.223	23610.37
543.587	23660.31
543.952	23674.55
544.316	23780.76
544.681	23757.93
545.045	23957.7
545.41	24098.94
545.774	24095.33
546.138	24033.18
546.503	24226.4
546.867	24282.44
547.231	24449.44
547.595	24398.82
547.959	24518.59
548.324	24607.4
548.688	24600.85
549.052	24785.03
549.416	24816.66
549.779	24876.1
550.143	24942.31
550.507	25170.78
550.871	25236.31
551.235	25246.03
551.599	25408.29
551.962	25452.81
552.326	25524.44
552.689	25757.2
553.053	25664.33
553.417	25688.51
553.78	26038.55
554.143	25845.79
554.507	25949.74
554.87	26153.13
555.234	26453.23
555.597	26214.82
555.96	26464.76
556.323	26495.94
556.686	26588.82
557.05	26852.54
557.413	26890.73
557.776	26981.13
558.139	27141.57
558.502	27152.65
558.865	27211.63
559.228	27483.71
559.59	27551.73
559.953	27574.56
560.316	27815
560.679	27868.79
561.041	28040.08
561.404	28214.09
561.767	28268.55
562.129	28274.88
562.492	28615.43
562.854	28491.82
563.217	28599.16
563.579	28746.73
563.941	28800.51
564.304	28955.99
564.666	29124.57
565.028	29361.63
565.39	29375.41
565.753	29540.16
566.115	29568.4
566.477	29672.36
566.839	29825.35
567.201	29922.52
567.563	30121.84
567.925	30268.72
568.287	30114.6
568.648	30315.05
569.01	30644.76
569.372	30775.38
569.734	30674.81
570.095	30891.31
570.457	30999.55
570.819	31082.26
571.18	31131.3
571.542	31209.49
571.903	31257.62
572.265	31455.81
572.626	31574.9
572.987	31511.86
573.349	31652.64
573.71	31812.41
574.071	31936.25
574.432	31928.34
574.794	32237.03
575.155	32170.37
575.516	32064.16
575.877	32365.39
576.238	32225.28
576.599	32426.63
576.96	32562
577.32	32536.23
577.681	32683.58
578.042	32792.27
578.403	32690.36
578.763	32756.57
579.124	32820.07
579.485	32952.72
579.845	33104.36
580.206	33012.15
580.566	33044.47
580.927	33180.51
581.287	33208.53
581.648	33206.27
582.008	33248.08
582.368	33205.6
582.728	33364.46
583.089	33319.94
583.449	33321.52
583.809	33311.36
584.169	33477
584.529	33253.96
584.889	33528.75
585.249	33456.89
585.609	33416.44
585.969	33540.28
586.329	33459.6
586.688	33540.73
587.048	33587.28
587.408	33475.65
587.768	33465.7
588.127	33468.64
588.487	33404.46
588.846	33680.84
589.206	33590.44
589.565	33564.46
589.925	33731.01
590.284	33659.14
590.643	33700.95
591.003	33784.56
591.362	33793.83
591.721	33905.01
592.08	33866.6
592.44	33884.22
592.799	33953.15
593.158	33914.05
593.517	33901.4
593.876	34020.26
594.235	33939.14
594.593	33931.45
594.952	33998.8
595.311	33860.27
595.67	34064.78
596.029	34282.86
596.387	34295.96
596.746	34451.66
597.104	34141.39
597.463	34250.54
597.822	34227.49
598.18	34169.64
598.538	34245.12
598.897	34387.26
599.255	34115.85
599.613	34727.59
599.972	34352.46
600.33	34509.06
600.688	34305.45
601.046	34536.63
601.404	34646.01
601.762	34745.22
602.12	34829.73
602.478	34750.19
602.836	34860.92
603.194	34728.95
603.552	34740.92
603.91	34664.31
604.268	34947.92
604.625	34868.83
604.983	34980.01
605.341	34796.29
605.698	35040.12
606.056	35106.34
606.413	35205.54
606.771	35293.45
607.128	35336.16
607.485	35175.49
607.843	35222.27
608.2	35350.62
608.557	35460
608.914	35416.84
609.272	35554.01
609.629	35677.4
609.986	35867.45
610.343	35678.07
610.7	35931.4
611.057	35857.28
611.414	35807.79
611.771	35950.38
612.127	36139.53
612.484	36100.43
612.841	36225.4
613.198	36184.73
613.554	36175.46
613.911	36317.6
614.267	36418.84
614.624	36417.04
614.98	36505.62
615.337	36648.44
615.693	36548.56
616.05	36634.21
616.406	36636.24
616.762	36710.81
617.118	36640.08
617.475	36655.45
617.831	36737.71
618.187	37005.5
618.543	36931.15
618.899	37001.43
619.255	37050.92
619.611	37112.84
619.967	37202.1
620.323	37222.89
620.678	37145.61
621.034	37168.88
621.39	37191.03
621.746	37127.75
622.101	37565.26
622.457	37189.45
622.812	37289.56
623.168	37448.65
623.523	37468.08
623.879	37452.49
624.234	37259.73
624.589	37553.05
624.945	37545.37
625.3	37574.07
625.655	37480.96
626.01	37495.43
626.365	37625.37
626.72	37563.67
627.075	37583.11
627.43	37468.99
627.785	37601.41
628.14	37563.22
628.495	37569.55
628.85	37593.96
629.205	37477.8
629.559	37622.43
629.914	37517.8
630.269	37579.04
630.623	37592.83
630.978	37492.04
631.332	37682.99
631.687	37711.01
632.041	37586.05
632.396	37621.3
632.75	37544.24
633.104	37593.05
633.459	37451.13
633.813	37457.01
634.167	37459.72
634.521	37440.96
634.875	37466.73
635.229	37607.74
635.583	37403.68
635.937	37328.88
636.291	37227.41
636.645	37200.75
636.999	37186.96
637.352	37317.13
637.706	36961.2
638.06	37234.42
638.413	37063.8
638.767	37021.54
639.121	37082.56
639.474	36905.61
639.828	36975.89
640.181	37007.76
640.534	36944.25
640.888	36892.5
641.241	36693.19
641.594	36879.62
641.947	36974.99
642.301	36841.43
642.654	36727.99
643.007	36842.34
643.36	36783.58
643.713	36691.15
644.066	36915.1
644.419	36556.92
644.771	36399.64
645.124	35999.42
645.477	36040.32
645.83	35786.32
646.182	35745.87
646.535	35595.36
646.888	35665.19
647.24	35367.35
647.593	35660.67
647.945	35651.41
648.298	35478.76
648.65	35472.88
649.002	35311.76
649.355	35384.97
649.707	35414.13
650.059	35652.09
650.411	36033.32
650.763	36103.37
651.115	36369.35
651.467	36130.49
651.819	36327.32
652.171	36243.48
652.523	35995.13
652.875	36180.88
653.227	35929.59
653.578	36123.49
653.93	35995.13
654.282	35971.85
654.633	35787.67
654.985	35858.86
655.337	35969.59
655.688	35913.55
656.039	36086.65
656.391	35789.26
656.742	35852.98
657.094	35684.85
657.445	35800.78
657.796	35868.58
658.147	35815.47
658.498	35678.75
658.849	35821.57
659.2	35699.54
659.551	35735.92
659.902	35805.98
660.253	35684.4
660.604	35761.01
660.955	35626.55
661.306	35694.57
661.656	35628.58
662.007	35657.28
662.358	35617.74
662.708	35566.89
663.059	35530.51
663.409	35424.97
663.76	35713.1
664.11	35606.44
664.461	35659.77
664.811	35586.55
665.161	35595.82
665.511	35420
665.862	35620.9
666.212	35631.75
666.562	35566.21
666.912	35574.57
667.262	35463.84
667.612	35622.93
667.962	35557.85
668.312	35561.01
668.662	35620
669.011	35501.81
669.361	35414.8
669.711	35407.57
670.06	35439.21
670.41	35333.68
670.76	35233.34
671.109	35476.95
671.459	35393.33
671.808	35312.21
672.157	35392.88
672.507	35183.85
672.856	35155.15
673.205	35286.22
673.554	35398.53
673.904	35242.83
674.253	35359.44
674.602	35331.42
674.951	34697.31
675.3	34679.23
675.649	35236.73
675.998	35127.81
676.346	35114.02
676.695	35274.24
677.044	34866.34
677.393	34979.56
677.741	35109.05
678.09	34980.69
678.438	34916.06
678.787	35044.42
679.135	35058.2
679.484	34672.9
679.832	34793.35
680.181	34604.2
680.529	34838.77
680.877	34680.81
681.225	34659.12
681.573	34903.18
681.922	34530.76
682.27	34522.4
682.618	34545.22
682.966	34547.93
683.314	34463.64
683.661	34467.26
684.009	34284.89
684.357	34227.49
684.705	34143.65
685.053	34177.55
685.4	34073.14
685.748	34039.02
686.095	33980.04
686.443	33869.99
686.79	33839.03
687.138	33891.68
687.485	33820.49
687.832	33714.73
688.18	33692.36
688.527	33557.22
688.874	33497.79
689.221	33284.92
689.568	33422.54
689.915	33263.22
690.262	33299.6
690.609	33274.29
690.956	33123.79
691.303	33031.82
691.65	32979.61
691.997	32981.19
692.344	32673.18
692.69	32678.38
693.037	32668.89
693.383	32495.33
693.73	32565.61
694.077	32256.69
694.423	32328.1
694.769	32182.12
695.116	32162.23
695.462	32152.97
695.808	31993.88
696.155	32175.34
696.501	31860.09
696.847	31915.46
697.193	31676.14
697.539	31863.71
697.885	31589.59
698.231	31423.04
698.577	31402.03
698.923	31421.01
699.269	31281.13
699.614	31206.33
699.96	31046.33
700.306	31207.23
700.651	30825.55
700.997	30838.43
701.342	30759.78
701.688	30768.15
702.033	30727.02
702.379	30684.76
702.724	30568.38
703.069	30499
703.415	30075.06
703.76	30254.26
704.105	30244.32
704.45	30248.16
704.795	30023.98
705.14	29954.16
705.485	29963.2
705.83	29744.44
706.175	29838.23
706.52	29723.2
706.865	29600.27
707.209	29650.89
707.554	29458.8
707.899	29642.07
708.243	29348.3
708.588	29305.59
708.932	29240.05
709.277	29149.66
709.621	29165.25
709.966	28972.94
710.31	29095.42
710.654	28860.63
710.998	28923.67
711.342	28826.05
711.687	28769.78
712.031	28633.06
712.375	28549.67
712.719	28544.48
713.063	28494.99
713.407	28643.23
713.75	28449.79
714.094	28456.34
714.438	28294.99
714.782	28386.97
715.125	28149.91
715.469	28250.92
715.812	28080.08
716.156	27894.55
716.499	28074.66
716.843	27963.47
717.186	27816.13
717.53	27811.84
717.873	27858.39
718.216	27812.29
718.559	27689.36
718.902	27463.37
719.246	27614.33
719.589	27457.05
719.932	27445.97
720.275	27364.62
720.617	27235.81
720.96	27278.97
721.303	27316.71
721.646	27315.36
721.989	27176.15
722.331	27250.95
722.674	27164.17
723.016	27114.23
723.359	27074.23
723.701	27013.67
724.044	26898.87
724.386	26782.26
724.729	26991.75
725.071	26892.32
725.413	26826.78
725.755	26811.87
726.097	26634.47
726.439	26530.97
726.782	26573.45
727.124	26548.6
727.465	26447.58
727.807	26466.56
728.149	26339.56
728.491	26313.35
728.833	26399
729.175	26262.05
729.516	26199.45
729.858	26170.53
730.199	26170.07
730.541	26210.98
730.882	26041.49
731.224	26125.56
731.565	25979.8
731.906	25979.57
732.248	25972.11
732.589	25892.57
732.93	25703.65
733.271	25772.57
733.612	25825.22
733.953	25770.99
734.294	25688.73
734.635	25714.72
734.976	25733.02
735.317	25521.05
735.658	25605.57
735.999	25642.4
736.339	25397.21
736.68	25454.61
737.021	25486.02
737.361	25329.87
737.702	25408.06
738.042	25288.74
738.383	25410.77
738.723	25360.6
739.063	25261.62
739.404	25302.07
739.744	25103.89
740.084	25013.27
740.424	25084
740.764	24895.08
741.104	25115.87
741.444	24976.21
741.784	24877
742.124	24869.32
742.464	24814.86
742.804	24910.67
743.143	24684.01
743.483	24807.85
743.823	24634.07
744.162	24696.44
744.502	24668.87
744.841	24503
745.181	24709.1
745.52	24515.88
745.86	24560.85
746.199	24460.97
746.538	24416.67
746.877	24415.09
747.216	24424.81
747.556	24386.62
747.895	24405.15
748.234	24239.96
748.573	24188.88
748.911	24141.2
749.25	24230.92
749.589	24090.13
749.928	24040.64
750.267	24205.38
750.605	23940.3
750.944	23941.88
751.283	23814.66
751.621	23914.31
751.96	23721.78
752.298	23839.97
752.636	23737.82
752.975	23667.99
753.313	23542.57
753.651	23678.16
753.989	23575.79
754.327	23374.22
754.666	23315.23
755.004	23490.37
755.342	23335.12
755.679	23294.44
756.017	23153.2
756.355	23294.9
756.693	23111.85
757.031	23230.49
757.368	22993.21
757.706	22884.29
758.044	22997.28
758.381	22847.22
758.719	22770.39
759.056	22809.71
759.394	22720.9
759.731	22491.3
760.068	22607.68
760.405	22476.39
760.743	22390.51
761.08	22451.08
761.417	22288.37
761.754	22326.11
762.091	22277.07
762.428	22146.9
762.765	22018.32
763.102	22019
763.438	21984.65
763.775	21803.41
764.112	21930.86
764.449	21852.22
764.785	21754.37
765.122	21514.38
765.458	21473.93
765.795	21427.37
766.131	21408.84
766.467	21373.59
766.804	21352.57
767.14	21101.73
767.476	21193.71
767.812	21142.18
768.148	21085.24
768.485	20905.58
768.821	20911.68
769.157	20854.96
769.492	20695.19
769.828	20741.29
770.164	20668.98
770.5	20596.66
770.836	20479.6
771.171	20334.75
771.507	20275.31
771.842	20174.98
772.178	20196.45
772.513	20200.97
772.849	20142.44
773.184	20037.35
773.519	19956.45
773.855	19880.3
774.19	19823.57
774.525	19697.02
774.86	19694.09
775.195	19750.36
775.53	19534.32
775.865	19446.64
776.2	19364.6
776.535	19288
776.87	19213.87
777.205	19193.76
777.539	19049.36
777.874	19080.77
778.209	18944.28
778.543	18900.66
778.878	18668.58
779.212	18764.39
779.547	18591.29
779.881	18685.98
780.215	18558.75
780.55	18597.62
780.884	18373.9
781.218	18430.39
781.552	18514
781.886	18236.05
782.22	18164.18
782.554	18216.16
782.888	17933.23
783.222	17975.49
783.556	17735.04
783.889	17799.9
784.223	17700.01
784.557	17689.17
784.89	17654.82
785.224	17523.07
785.557	17437.87
785.891	17466.35
786.224	17371.44
786.558	17376.41
786.891	17181.38
787.224	17185.45
787.557	17174.83
787.891	17056.42
788.224	16982.52
788.557	17062.74
788.89	16828.17
789.223	16892.8
789.556	16772.13
789.888	16769.42
790.221	16750.89
790.554	16581.63
790.887	16536.88
791.219	16346.83
791.552	16475.87
791.884	16439.71
792.217	16333.72
792.549	16289.2
792.882	16196.33
793.214	16072.49
793.546	16083.56
793.879	15963.56
794.211	15955.65
794.543	16055.99
794.875	15840.18
795.207	15885.6
795.539	15819.84
795.871	15724.47
796.203	15687.86
796.535	15576.45
796.867	15488.1
797.198	15536.46
797.53	15528.32
797.862	15487.87
798.193	15361.77
798.525	15347.99
798.856	15262.56
799.188	15161.78
799.519	15141.89
799.85	15090.82
800.182	15093.3
800.513	15025.28
800.844	14943.48
801.175	14945.28
801.506	14948.22
801.837	14797.04
802.168	14826.87
802.499	14847.21
802.83	14689.25
803.161	14661
803.491	14673.43
803.822	14590.72
804.153	14486.09
804.483	14423.26
804.814	14415.81
805.145	14332.19
805.475	14344.4
805.805	14341.01
806.136	14275.25
806.466	14265.3
806.796	14294.91
807.126	14162.48
807.457	14028.92
807.787	14143.5
808.117	14040.9
808.447	13957.06
808.777	13999.55
809.107	13893.56
809.436	13875.93
809.766	13850.4
810.096	13858.53
810.426	13765.65
810.755	13810.63
811.085	13719.55
811.414	13654.02
811.744	13575.6
812.073	13617.41
812.403	13561.59
812.732	13469.39
813.061	13507.81
813.39	13457.41
813.719	13379.22
814.049	13461.03
814.378	13422.84
814.707	13372.44
815.036	13292
815.365	13200.7
815.693	13111.66
816.022	13123.64
816.351	13127.93
816.68	13054.94
817.008	13094.49
817.337	12970.87
817.665	12859.46
817.994	12927.26
818.322	12984.88
818.651	12840.48
818.979	12865.34
819.307	12909.18
819.636	12887.26
819.964	12642.97
820.292	12756.19
820.62	12757.55
820.948	12748.51
821.276	12748.05
821.604	12710.54
821.932	12694.95
822.259	12707.15
822.587	12674.84
822.915	12681.84
823.243	12712.8
823.57	12615.85
823.898	12677.1
824.225	12657.21
824.553	12652.24
824.88	12692.01
825.207	12633.93
825.535	12629.41
825.862	12600.49
826.189	12594.61
826.516	12602.52
826.843	12652.69
827.17	12660.15
827.497	12728.17
827.824	12687.72
828.151	12665.8
828.478	12633.03
828.805	12612.69
829.131	12486.82
829.458	12542.41
829.785	12473.49
830.111	12569.3
830.438	12654.05
830.764	12534.73
831.09	12575.86
831.417	12552.13
831.743	12621.96
832.069	12586.02
832.395	12560.94
832.722	12613.37
833.048	12493.15
833.374	12506.93
833.7	12497.67
834.026	12470.55
834.351	12358.69
834.677	12475.29
835.003	12491.34
835.329	12483.2
835.654	12488.17
835.98	12393.49
836.306	12392.13
836.631	12225.13
836.956	12374.51
837.282	12351.23
837.607	12317.11
837.932	12283.89
838.258	12231.91
838.583	12245.02
838.908	12196.88
839.233	12268.07
839.558	12219.25
839.883	12053.61
840.208	12098.13
840.533	12058.36
840.858	12084.8
841.182	12078.92
841.507	12191.01
841.832	11967.51
842.156	11976.78
842.481	11992.82
842.805	11950.79
843.13	11849.55
843.454	11889.77
843.778	11855.65
844.103	11825.82
844.427	11755.54
844.751	11767.74
845.075	11680.51
845.399	11760.74
845.723	11655.65
846.047	11683.22
846.371	11605.26
846.695	11584.92
847.019	11429.9
847.343	11442.1
847.666	11418.6
847.99	11240.52
848.313	11346.51
848.637	11206.4
848.96	11283.69
849.284	11216.12
849.607	11161.66
849.931	11078.27
850.254	10989
850.577	10921.44
850.9	10899.06
851.223	10855.68
851.546	10796.24
851.869	10680.31
852.192	10791.95
852.515	10718.28
852.838	10651.16
853.161	10657.94
853.483	10650.26
853.806	10564.61
854.129	10598.51
854.451	10620.88
854.774	10423.82
855.096	10426.99
855.419	10327.33
855.741	10407.33
856.063	10281.23
856.385	10349.93
856.708	10285.97
857.03	10237.39
857.352	10293.43
857.674	10242.36
857.996	10208.91
858.318	10086.2
858.64	10133.66
858.961	10060.89
859.283	10093.89
859.605	10018.18
859.926	9956.26
860.248	9980.22
860.57	9891.18
860.891	10001.01
861.212	9853.67
861.534	9934.34
861.855	9805.76
862.176	9914.68
862.498	9825.19
862.819	9907.9
863.14	9770.51
863.461	9738.64
863.782	9730.28
864.103	9763.95
864.424	9692.99
864.745	9711.3
865.065	9627.01
865.386	9703.61
865.707	9585.2
866.027	9652.54
866.348	9629.27
866.668	9595.6
866.989	9530.96
867.309	9436.96
867.63	9496.84
867.95	9531.19
868.27	9451.64
868.59	9500.68
868.91	9432.21
869.23	9396.96
869.55	9425.66
869.87	9411.87
870.19	9347.69
870.51	9450.97
870.83	9382.04
871.15	9346.11
871.469	9322.38
871.789	9325.09
872.109	9289.39
872.428	9188.37
872.748	9301.59
873.067	9267.02
873.386	9281.93
873.706	9262.27
874.025	9191.76
874.344	9200.13
874.663	9225.44
874.982	9121.48
875.301	9113.8
875.62	9111.09
875.939	9137.08
876.258	9121.26
876.577	9062.05
876.896	9070.19
877.214	9027.7
877.533	9061.15
877.852	9039.45
878.17	9033.35
878.489	9008.04
878.807	9002.84
879.125	8946.57
879.444	9007.14
879.762	8935.95
880.08	8928.04
880.398	8896.63
880.716	8881.72
881.034	8879.68
881.352	8869.06
881.67	8799.68
881.988	8814.6
882.306	8841.04
882.624	8813.47
882.941	8685.34
883.259	8726.92
883.577	8712.91
883.894	8669.74
884.212	8685.11
884.529	8611.44
884.846	8690.53
885.164	8582.74
885.481	8545.68
885.798	8641.27
886.115	8554.04
886.432	8560.37
886.75	8517.88
887.067	8392.24
887.383	8448.51
887.7	8490.31
888.017	8451.9
888.334	8446.92
888.651	8402.41
888.967	8372.35
889.284	8347.49
889.6	8268.62
889.917	8206.48
890.233	8308.4
890.55	8199.47
890.866	8192.69
891.182	8191.34
891.498	8164.22
891.815	8189.3
892.131	8150.21
892.447	8109.98
892.763	8065.01
893.079	8070.66
893.395	8050.78
893.71	7992.7
894.026	8005.81
894.342	7966.71
894.657	7958.8
894.973	7924.9
895.289	7906.6
895.604	7860.05
895.92	7867.96
896.235	7765.36
896.55	7800.61
896.865	7743.21
897.181	7737.11
897.496	7722.42
897.811	7694.63
898.126	7601.75
898.441	7613.95
898.756	7629.09
899.071	7519.49
899.386	7571.02
899.7	7549.77
900.015	7425.48
900.33	7449.44
900.644	7440.4
900.959	7418.03
901.273	7392.04
901.588	7373.05
901.902	7270.01
902.216	7295.32
902.531	7308.65
902.845	7232.04
903.159	7246.28
903.473	7254.87
903.787	7232.49
904.101	7131.48
904.415	7142.1
904.729	7084.93
905.042	7012.16
905.356	7058.94
905.67	7016.91
905.984	6994.76
906.297	6959.05
906.611	6964.7
906.924	6966.74
907.237	6926.06
907.551	6861.43
907.864	6840.41
908.177	6837.48
908.491	6802.67
908.804	6734.65
909.117	6700.98
909.43	6736.46
909.743	6626.86
910.056	6651.94
910.368	6655.79
910.681	6612.4
910.994	6536.47
911.307	6572.85
911.619	6509.57
911.932	6516.13
912.244	6451.5
912.557	6492.85
912.869	6360.88
913.181	6403.14
913.494	6381.67
913.806	6294.66
914.118	6307.32
914.43	6293.08
914.742	6299.41
915.054	6272.97
915.366	6153.2
915.678	6141.9
915.99	6094.44
916.302	6096.03
916.613	6100.55
916.925	6101
917.236	6105.07
917.548	6008.57
917.859	6016.03
918.171	5945.52
918.482	5928.35
918.794	5939.87
919.105	5943.26
919.416	5877.05
919.727	5823.94
920.038	5846.32
920.349	5806.99
920.66	5815.36
920.971	5720.22
921.282	5719.76
921.593	5707.34
921.903	5634.8
922.214	5649.94
922.525	5618.3
922.835	5614
923.146	5585.76
923.456	5558.64
923.767	5576.27
924.077	5504.18
924.387	5514.35
924.697	5466.66
925.008	5492.43
925.318	5424.86
925.628	5444.74
925.938	5395.25
926.248	5342.6
926.558	5299.21
926.867	5335.37
927.177	5350.96
927.487	5256.5
927.796	5256.5
928.106	5222.6
928.416	5216.73
928.725	5186.9
929.034	5193.45
929.344	5151.19
929.653	5130.4
929.962	5128.59
930.271	5058.99
930.581	5092.66
930.89	5019.9
931.199	4970.86
931.508	5004.98
931.817	4954.59
932.125	4944.19
932.434	4943.97
932.743	4906.68
933.051	4882.27
933.36	4852.89
933.669	4850.41
933.977	4790.3
934.286	4834.59
934.594	4761.37
934.902	4772.9
935.21	4752.11
935.519	4724.08
935.827	4711.2
936.135	4691.09
936.443	4703.29
936.751	4654.71
937.059	4602.51
937.367	4607.7
937.674	4598.21
937.982	4568.16
938.29	4517.99
938.597	4527.71
938.905	4501.27
939.213	4523.86
939.52	4437.54
939.827	4489.06
940.135	4424.21
940.442	4380.37
940.749	4378.56
941.056	4455.39
941.363	4381.95
941.67	4383.08
941.977	4317.99
942.284	4309.86
942.591	4279.12
942.898	4249.52
943.205	4209.3
943.511	4212.91
943.818	4187.15
944.125	4193.25
944.431	4176.3
944.738	4167.72
945.044	4110.09
945.35	4113.03
945.657	4061.5
945.963	4067.83
946.269	4059.92
946.575	4055.63
946.881	4034.16
947.187	3984.44
947.493	3966.36
947.799	4006.36
948.105	3964.1
948.41	3964.33
948.716	3939.47
949.022	3929.3
949.327	3920.94
949.633	3908.06
949.938	3885.01
950.244	3898.12
950.549	3826.93
950.854	3813.15
951.16	3788.06
951.465	3815.18
951.77	3762.3
952.075	3806.14
952.38	3767.27
952.685	3753.94
952.99	3681.17
953.294	3701.74
953.599	3688.86
953.904	3657.9
954.209	3649.54
954.513	3596.66
954.818	3630.33
955.122	3586.71
955.426	3599.14
955.731	3539.03
956.035	3565.25
956.339	3544.23
956.643	3525.02
956.948	3551.46
957.252	3494.96
957.556	3497.9
957.86	3459.71
958.163	3427.4
958.467	3406.83
958.771	3432.82
959.075	3415.64
959.378	3355.76
959.682	3386.04
959.985	3379.49
960.289	3315.76
960.592	3375.19
960.896	3296.55
961.199	3283.22
961.502	3264.24
961.805	3271.47
962.108	3248.64
962.411	3239.83
962.714	3233.28
963.017	3214.75
963.32	3242.54
963.623	3190.34
963.926	3171.58
964.228	3182.43
964.531	3142.21
964.833	3151.47
965.136	3146.05
965.438	3126.16
965.741	3086.61
966.043	3082.09
966.345	3033.96
966.648	3028.31
966.95	3047.07
967.252	3046.39
967.554	2985.6
967.856	2993.06
968.158	2977.01
968.46	2977.92
968.761	2979.27
969.063	2959.16
969.365	2921.42
969.666	2908.54
969.968	2926.17
970.269	2937.47
970.571	2873.51
970.872	2889.1
971.174	2869.44
971.475	2841.42
971.776	2812.95
972.077	2834.64
972.378	2836.9
972.679	2807.53
972.98	2784.7
973.281	2789.22
973.582	2749.67
973.883	2754.19
974.183	2737.47
974.484	2742.89
974.785	2718.04
975.085	2748.09
975.386	2719.39
975.686	2693.63
975.986	2694.31
976.287	2676.91
976.587	2657.7
976.887	2631.26
977.187	2650.69
977.487	2618.38
977.787	2613.63
978.087	2615.21
978.387	2572.95
978.687	2568.66
978.987	2552.84
979.286	2519.4
979.586	2538.15
979.885	2509.68
980.185	2494.99
980.484	2478.95
980.784	2461.77
981.083	2468.32
981.382	2447.53
981.682	2461.32
981.981	2447.53
982.28	2473.3
982.579	2419.51
982.878	2425.84
983.177	2428.78
983.475	2406.18
983.774	2378.84
984.073	2391.49
984.372	2397.37
984.67	2356.46
984.969	2353.75
985.267	2365.95
985.566	2331.83
985.864	2313.98
986.162	2311.72
986.461	2304.49
986.759	2293.41
987.057	2272.17
987.355	2284.37
987.653	2260.87
987.951	2266.07
988.249	2238.27
988.547	2229.24
988.844	2236.01
989.142	2228.56
989.44	2222.46
989.737	2202.34
990.035	2192.4
990.332	2168.67
990.63	2182.46
990.927	2123.7
991.224	2137.26
991.521	2114.21
991.819	2114.21
992.116	2136.81
992.413	2092.74
992.71	2110.37
993.006	2127.77
993.303	2093.42
993.6	2088.9
993.897	2063.59
994.193	2076.92
994.49	2043.25
994.787	2031.27
995.083	2037.15
995.379	2000.31
995.676	2007.55
995.972	2002.35
996.268	1965.06
996.565	1974.33
996.861	1951.73
997.157	1945.4
997.453	1909.24
997.749	1922.58
998.044	1922.35
998.34	1939.98
998.636	1908.34
998.932	1903.59
999.227	1863.82
999.523	1891.62
999.818	1883.71
1000.114	1880.54
1000.409	1817.04
1000.704	1862.47
1001	1825.18
1001.295	1829.92
1001.59	1838.74
1001.885	1824.73
1002.18	1782.92
1002.475	1799.87
1002.77	1775.46
1003.065	1775.24
1003.359	1763.26
1003.654	1753.54
1003.949	1739.76
1004.243	1717.84
1004.538	1738.85
1004.832	1709.47
1005.127	1687.55
1005.421	1696.59
1005.715	1690.27
1006.009	1652.08
1006.304	1694.11
1006.598	1647.56
1006.892	1657.95
1007.186	1635.35
1007.48	1616.14
1007.773	1631.51
1008.067	1636.93
1008.361	1593.77
1008.655	1584.28
1008.948	1558.07
1009.242	1562.59
1009.535	1579.76
1009.829	1580.66
1010.122	1562.36
1010.415	1559.2
1010.708	1523.94
1011.001	1530.72
1011.295	1544.06
1011.588	1488.92
1011.881	1488.69
1012.173	1476.03
1012.466	1483.72
1012.759	1467
1013.052	1468.35
1013.344	1473.1
1013.637	1443.27
1013.93	1452.98
1014.222	1463.83
1014.514	1424.96
1014.807	1415.47
1015.099	1395.58
1015.391	1417.73
1015.683	1409.82
1015.976	1375.02
1016.268	1378.64
1016.56	1400.1
1016.851	1384.29
1017.143	1323.72
1017.435	1348.81
1017.727	1330.05
1018.018	1349.03
1018.31	1338.86
1018.602	1319.65
1018.893	1293.44
1019.185	1283.72
1019.476	1318.52
1019.767	1309.26
1020.058	1265.87
1020.35	1261.13
1020.641	1266.77
1020.932	1254.57
1021.223	1254.35
1021.514	1240.33
1021.804	1215.93
1022.095	1208.02
1022.386	1238.75
1022.677	1207.12
1022.967	1188.13
1023.258	1208.92
1023.548	1198.53
1023.839	1172.77
1024.129	1148.59
1024.419	1172.99
1024.709	1149.49
1025	1144.97
1025.29	1134.12
1025.58	1151.75
1025.87	1109.94
1026.16	1086.67
1026.449	1101.36
1026.739	1133.22
1027.029	1115.14
1027.319	1092.99
1027.608	1075.82
1027.898	1052.54
1028.187	1055.25
1028.477	1080.11
1028.766	1043.05
1029.055	1071.53
1029.344	1042.83
1029.634	1046.44
1029.923	1047.35
1030.212	1039.66
1030.501	1024.07
1030.79	1019.1
1031.078	1008.25
1031.367	975.03
1031.656	979.1
1031.945	984.52
1032.233	1011.41
1032.522	979.55
1032.81	982.94
1033.099	954.47
1033.387	949.72
1033.675	942.72
1033.963	937.97
1034.251	931.87
1034.54	941.36
1034.828	930.96
1035.116	933.45
1035.403	909.04
1035.691	918.31
1035.979	920.57
1036.267	882.6
1036.554	891.42
1036.842	903.85
1037.129	888.93
1037.417	881.7
1037.704	869.5
1037.992	859.55
1038.279	881.25
1038.566	868.14
1038.853	868.14
1039.14	868.14
