Data from hue_220_FLMS001491_00059.txt Node
Date: Tue Feb 07 16:39:40 GMT 2017
User: dcchb
Spectrometer: FLMS00149
Trigger mode: 0
Integration Time (sec): 2.000000E-2
Scans to average: 10
Electric dark correction enabled: true
Nonlinearity correction enabled: false
Boxcar width: 0
XAxis mode: Wavelengths
Number of Pixels in Spectrum: 2048
>>>>>Begin Spectral Data<<<<<
341.393	-25.93
341.776	-25.93
342.16	-25.93
342.543	-51.02
342.927	-60.73
343.31	-68.19
343.693	-48.76
344.077	-72.94
344.46	-85.36
344.843	-51.02
345.226	-48.3
345.61	-21.41
345.993	-23.67
346.376	-0.62
346.759	31.69
347.142	28.08
347.525	39.38
347.908	55.2
348.291	63.33
348.674	95.65
349.057	106.95
349.44	120.28
349.823	150.34
350.206	178.81
350.588	182.42
350.971	206.6
351.354	220.39
351.737	238.69
352.119	250.67
352.502	244.34
352.884	270.11
353.267	275.53
353.65	279.82
354.032	282.53
354.414	292.03
354.797	326.83
355.179	316.88
355.562	311.91
355.944	310.1
356.326	316.21
356.709	320.73
357.091	325.47
357.473	325.02
357.855	348.3
358.238	345.58
358.62	336.54
359.002	349.88
359.384	322.31
359.766	338.35
360.148	332.25
360.53	341.74
360.912	319.37
361.294	324.12
361.676	332.93
362.057	326.38
362.439	320.5
362.821	321.86
363.203	324.79
363.584	309.43
363.966	299.03
364.348	316.66
364.729	315.53
365.111	315.08
365.493	305.81
365.874	330.9
366.256	309.88
366.637	300.61
367.019	311.46
367.4	314.62
367.781	305.59
368.163	320.73
368.544	311.23
368.925	290.9
369.306	302.2
369.688	312.59
370.069	303.78
370.45	323.21
370.831	317.56
371.212	310.1
371.593	301.07
371.974	318.24
372.355	319.14
372.736	300.39
373.117	321.4
373.498	313.72
373.879	307.62
374.26	308.07
374.641	311.91
375.021	318.69
375.402	307.62
375.783	330.44
376.163	317.11
376.544	338.13
376.925	327.73
377.305	299.26
377.686	310.78
378.066	315.3
378.447	341.29
378.827	330.44
379.208	338.8
379.588	311.69
379.968	319.82
380.349	328.64
380.729	318.01
381.109	339.93
381.489	352.82
381.87	324.79
382.25	311.23
382.63	334.96
383.01	360.05
383.39	347.17
383.77	329.31
384.15	337.45
384.53	334.96
384.91	348.97
385.29	359.6
385.67	343.1
386.049	324.12
386.429	354.85
386.809	338.8
387.189	341.74
387.568	356.43
387.948	367.5
388.328	350.78
388.707	363.44
389.087	345.58
389.466	360.27
389.846	344
390.225	344.68
390.605	356.66
390.984	367.5
391.363	361.4
391.743	364.34
392.122	363.44
392.501	364.11
392.881	371.35
393.26	380.16
393.639	363.66
394.018	370.89
394.397	381.29
394.776	361.18
395.155	378.8
395.534	367.73
395.913	386.94
396.292	381.97
396.671	398.46
397.05	368.41
397.429	385.13
397.808	384.91
398.186	402.98
398.565	413.83
398.944	389.88
399.323	389.42
399.701	389.88
400.08	411.12
400.458	375.87
400.837	407.96
401.215	398.69
401.594	419.25
401.972	394.4
402.351	416.54
402.729	422.19
403.107	429.42
403.486	406.83
403.864	426.94
404.242	403.89
404.62	426.49
404.999	425.13
405.377	425.13
405.755	439.14
406.133	459.03
406.511	467.39
406.889	437.56
407.267	453.15
407.645	489.31
408.023	468.97
408.401	472.59
408.779	497.44
409.156	493.83
409.534	488.63
409.912	498.35
410.29	495.18
410.667	499.93
411.045	522.08
411.422	518.01
411.8	515.75
412.178	531.57
412.555	534.28
412.933	536.54
413.31	559.82
413.687	572.92
414.065	590.55
414.442	572.47
414.819	580.38
415.197	588.97
415.574	618.57
415.951	608.85
416.328	605.24
416.705	628.97
417.082	609.53
417.46	649.3
417.837	652.69
418.214	650.21
418.591	657.89
418.967	661.06
419.344	660.38
419.721	687.04
420.098	689.53
420.475	703.09
420.852	682.75
421.228	724.78
421.605	742.18
421.982	728.62
422.358	736.31
422.735	770.43
423.111	758.45
423.488	791
423.864	782.18
424.241	805.23
424.617	816.53
424.994	817.89
425.37	842.97
425.746	842.52
426.123	889.52
426.499	898.34
426.875	897.89
427.251	907.15
427.627	908.51
428.003	924.33
428.379	909.64
428.756	938.34
429.132	928.85
429.507	970.2
429.883	976.75
430.259	967.71
430.635	1020.59
431.011	1007.94
431.387	1016.3
431.763	1024.89
432.138	1027.15
432.514	1088.84
432.89	1087.49
433.265	1088.62
433.641	1100.59
434.016	1128.61
434.392	1166.13
434.767	1168.39
435.143	1195.51
435.518	1215.17
435.894	1227.14
436.269	1263.75
436.644	1270.98
437.02	1287.93
437.395	1312.34
437.77	1339.46
438.145	1336.74
438.52	1362.05
438.895	1406.12
439.271	1392.34
439.646	1420.13
440.021	1446.35
440.395	1488.83
440.77	1476.18
441.145	1487.02
441.52	1510.75
441.895	1507.59
442.27	1564.08
442.645	1555.72
443.019	1573.57
443.394	1586.68
443.769	1587.81
444.143	1600.69
444.518	1660.35
444.892	1650.18
445.267	1659.67
445.641	1666.91
446.016	1703.06
446.39	1710.97
446.764	1717.3
447.139	1698.09
447.513	1765.66
447.887	1735.6
448.262	1723.18
448.636	1752.78
449.01	1770.63
449.384	1777.41
449.758	1814.7
450.132	1828.71
450.506	1841.82
450.88	1866.67
451.254	1890.4
451.628	1896.28
452.002	1913.45
452.376	1932.44
452.75	1927.46
453.123	1944.19
453.497	1962.49
453.871	2014.01
454.244	2008.37
454.618	2043.84
454.992	2062.83
455.365	2071.19
455.739	2083.39
456.112	2087.23
456.486	2145.99
456.859	2171.3
457.232	2214.69
457.606	2171.98
457.979	2205.87
458.352	2233.67
458.725	2313.67
459.099	2289.94
459.472	2319.54
459.845	2317.74
460.218	2379.65
460.591	2384.4
460.964	2408.81
461.337	2488.8
461.71	2457.84
462.083	2498.07
462.456	2523.15
462.829	2483.83
463.201	2543.49
463.574	2545.3
463.947	2624.17
464.32	2642.47
464.692	2672.08
465.065	2695.13
465.438	2726.09
465.81	2743.49
466.183	2762.47
466.555	2812.86
466.928	2822.13
467.3	2863.48
467.672	2872.52
468.045	2977.83
468.417	2939.64
468.789	2952.75
469.161	3057.6
469.534	3045.4
469.906	3105.96
470.278	3119.52
470.65	3134.21
471.022	3192.74
471.394	3253.76
471.766	3273.87
472.138	3324.71
472.51	3333.98
472.882	3414.2
473.253	3451.94
473.625	3493.52
473.997	3565.39
474.369	3590.24
474.74	3601.09
475.112	3660.3
475.484	3707.08
475.855	3747.53
476.227	3820.07
476.598	3885.6
476.97	3883.8
477.341	3976.45
477.713	4043.11
478.084	4020.06
478.455	4139.83
478.827	4142.77
479.198	4254.18
479.569	4236.1
479.94	4362.2
480.311	4422.31
480.682	4466.83
481.053	4555.42
481.424	4645.81
481.795	4631.57
482.166	4705.92
482.537	4717.9
482.908	4834.51
483.279	4854.84
483.65	4881.28
484.021	5036.99
484.391	5026.82
484.762	5075.4
485.133	5074.73
485.503	5208.73
485.874	5260.94
486.244	5314.72
486.615	5422.74
486.985	5462.51
487.356	5535.05
487.726	5563.53
488.097	5624.77
488.467	5687.36
488.837	5757.19
489.207	5801.94
489.578	5848.49
489.948	5915.38
490.318	5961.71
490.688	6029.73
491.058	6074.7
491.428	6141.82
491.798	6180.68
492.168	6293.9
492.538	6288.7
492.908	6353.79
493.278	6431.98
493.648	6352.43
494.017	6484.86
494.387	6548.36
494.757	6557.17
495.126	6635.14
495.496	6622.71
495.866	6621.8
496.235	6724.17
496.605	6747.68
496.974	6804.85
497.344	6843.94
497.713	6854.11
498.082	6914.45
498.452	6932.3
498.821	6960.1
499.19	6952.19
499.559	6982.47
499.928	7078.51
500.298	7125.97
500.667	7149.02
501.036	7115.12
501.405	7156.03
501.774	7175.69
502.143	7196.93
502.512	7235.57
502.88	7297.27
503.249	7236.48
503.618	7307.43
503.987	7311.73
504.356	7347.89
504.724	7398.73
505.093	7379.52
505.462	7402.57
505.83	7342.69
506.199	7410.03
506.567	7473.31
506.936	7482.35
507.304	7527.99
507.672	7533.64
508.041	7551.27
508.409	7586.75
508.777	7609.35
509.145	7634.88
509.514	7671.72
509.882	7662.45
510.25	7673.75
510.618	7742
510.986	7687.76
511.354	7714.2
511.722	7707.2
512.09	7848.66
512.458	7780.64
512.826	7838.72
513.193	7815.67
513.561	7820.64
513.929	7872.17
514.297	7841.21
514.664	7844.37
515.032	7836.46
515.4	7916.01
515.767	7872.39
516.135	7871.04
516.502	7853.18
516.869	7922.56
517.237	7927.31
517.604	7922.33
517.972	7918.94
518.339	7965.72
518.706	7968.21
519.073	7909.68
519.44	8012.95
519.808	7972.95
520.175	7892.5
520.542	8023.12
520.909	8023.57
521.276	7984.71
521.643	8026.06
522.009	8007.3
522.376	7950.13
522.743	8032.84
523.11	8108.09
523.477	8070.8
523.843	8132.95
524.21	8168.43
524.577	8131.59
524.943	8137.02
525.31	8159.84
525.676	8196.23
526.043	8135.21
526.409	8242.78
526.776	8255.21
527.142	8214.08
527.508	8223.12
527.874	8172.5
528.241	8273.51
528.607	8196
528.973	8246.85
529.339	8161.88
529.705	8250.24
530.071	8318.71
530.437	8257.01
530.803	8261.76
531.169	8202.1
531.535	8232.83
531.901	8203.23
532.267	8171.59
532.632	8191.93
532.998	8236.9
533.364	8170.92
533.73	8193.51
534.095	8190.8
534.461	8162.55
534.826	8158.49
535.192	8169.33
535.557	8148.99
535.923	8204.81
536.288	8127.75
536.653	8173.17
537.019	8082.56
537.384	8120.75
537.749	8054.76
538.114	8114.87
538.479	8008.89
538.845	8068.54
539.21	7945.38
539.575	7980.86
539.94	8030.58
540.305	7985.84
540.67	7964.59
541.034	7931.15
541.399	7900.87
541.764	7883.69
542.129	7880.3
542.494	7914.42
542.858	7891.83
543.223	7851.15
543.587	7881.21
543.952	7808.66
544.316	7892.5
544.681	7793.3
545.045	7738.16
545.41	7770.7
545.774	7689.57
546.138	7725.96
546.503	7659.52
546.867	7666.75
547.231	7606.41
547.595	7628.56
547.959	7650.25
548.324	7589.46
548.688	7579.29
549.052	7590.59
549.416	7504.27
549.779	7524.6
550.143	7513.08
550.507	7500.65
550.871	7548.11
551.235	7470.14
551.599	7509.46
551.962	7440.54
552.326	7462.91
552.689	7407.32
553.053	7334.33
553.417	7303.37
553.78	7423.59
554.143	7388.11
554.507	7333.42
554.87	7361.67
555.234	7444.38
555.597	7342.24
555.96	7318.73
556.323	7299.3
556.686	7260.2
557.05	7303.59
557.413	7352.18
557.776	7324.38
558.139	7265.4
558.502	7286.87
558.865	7261.56
559.228	7342.01
559.59	7273.09
559.953	7257.94
560.316	7361.44
560.679	7300.88
561.041	7352.86
561.404	7330.26
561.767	7332.07
562.129	7295.91
562.492	7348.56
562.854	7320.77
563.217	7304.72
563.579	7293.42
563.941	7286.87
564.304	7310.82
564.666	7365.74
565.028	7365.74
565.39	7373.65
565.753	7404.38
566.115	7365.29
566.477	7414.55
566.839	7403.48
567.201	7472.85
567.563	7442.12
567.925	7438.73
568.287	7455.91
568.648	7447.09
569.01	7527.32
569.372	7511.05
569.734	7476.24
570.095	7562.12
570.457	7550.14
570.819	7617.26
571.18	7523.93
571.542	7629.91
571.903	7537.71
572.265	7587.2
572.626	7629.46
572.987	7575.9
573.349	7623.13
573.71	7631.49
574.071	7647.99
574.432	7649.12
574.794	7708.1
575.155	7787.65
575.516	7669.23
575.877	7758.27
576.238	7703.81
576.599	7790.81
576.96	7780.42
577.32	7841.88
577.681	7807.76
578.042	7855.9
578.403	7881.88
578.763	7820.64
579.124	7879.17
579.485	7973.18
579.845	7892.5
580.206	7927.76
580.566	7991.48
580.927	8006.63
581.287	8021.09
581.648	7963.69
582.008	8051.82
582.368	7992.61
582.728	8011.6
583.089	8044.36
583.449	8060.86
583.809	8095.44
584.169	8043.69
584.529	8008.66
584.889	8144.7
585.249	8091.6
585.609	8099.28
585.969	8133.85
586.329	8159.39
586.688	8208.65
587.048	8220.41
587.408	8210.69
587.768	8169.56
588.127	8222.67
588.487	8186.96
588.846	8251.14
589.206	8213.17
589.565	8226.73
589.925	8284.36
590.284	8229.67
590.643	8275.32
591.003	8292.72
591.362	8324.58
591.721	8323.91
592.08	8324.81
592.44	8310.8
592.799	8347.18
593.158	8356.22
593.517	8362.77
593.876	8367.97
594.235	8363.9
594.593	8435.31
594.952	8379.95
595.311	8365.49
595.67	8398.48
596.029	8470.57
596.387	8372.27
596.746	8462.21
597.104	8479.61
597.463	8447.97
597.822	8539.49
598.18	8403
598.538	8478.93
598.897	8520.06
599.255	8423.11
599.613	8531.81
599.972	8480.51
600.33	8511.47
600.688	8521.41
601.046	8530
601.404	8579.94
601.762	8575.42
602.12	8577.68
602.478	8601.86
602.836	8602.32
603.194	8443.22
603.552	8534.52
603.91	8546.27
604.268	8554.63
604.625	8570.9
604.983	8607.97
605.341	8505.14
605.698	8567.74
606.056	8558.93
606.413	8596.44
606.771	8660.85
607.128	8666.95
607.485	8602.99
607.843	8600.51
608.2	8669.66
608.557	8670.79
608.914	8674.18
609.272	8722.54
609.629	8702.65
609.986	8729.32
610.343	8726.15
610.7	8686.83
611.057	8714.86
611.414	8720.05
611.771	8656.78
612.127	8714.4
612.484	8805.7
612.841	8789.88
613.198	8751.01
613.554	8809.09
613.911	8834.17
614.267	8771.13
614.624	8789.66
614.98	8738.58
615.337	8797.57
615.693	8790.33
616.05	8818.13
616.406	8831.24
616.762	8816.77
617.118	8874.17
617.475	8833.27
617.831	8905.36
618.187	8862.87
618.543	8872.82
618.899	8895.42
619.255	8840.05
619.611	8903.78
619.967	8969.99
620.323	8922.31
620.678	8888.41
621.034	8892.7
621.39	8903.33
621.746	8828.07
622.101	8958.47
622.457	8907.17
622.812	8868.52
623.168	8975.64
623.523	8908.75
623.879	8954.17
624.234	8906.94
624.589	8885.25
624.945	8914.4
625.3	8931.8
625.655	8913.49
626.01	8859.26
626.365	8867.17
626.72	8897.22
627.075	8933.15
627.43	8915.98
627.785	8907.62
628.14	8910.33
628.495	8982.65
628.85	8908.52
629.205	8912.59
629.559	8943.55
629.914	8855.42
630.269	8855.87
630.623	8796.21
630.978	8790.11
631.332	8894.74
631.687	8872.59
632.041	8832.59
632.396	8858.81
632.75	8787.4
633.104	8774.74
633.459	8759.6
633.813	8725.48
634.167	8714.63
634.521	8749.88
634.875	8707.62
635.229	8767.06
635.583	8697.91
635.937	8737
636.291	8663.33
636.645	8717.79
636.999	8627.4
637.352	8636.67
637.706	8618.59
638.06	8628.08
638.413	8621.98
638.767	8616.78
639.121	8649.09
639.474	8594.86
639.828	8567.74
640.181	8606.84
640.534	8635.76
640.888	8571.36
641.241	8566.16
641.594	8568.64
641.947	8570.9
642.301	8531.36
642.654	8573.39
643.007	8558.25
643.36	8524.8
643.713	8564.13
644.066	8593.73
644.419	8426.28
644.771	8421.08
645.124	8385.15
645.477	8369.1
645.83	8365.03
646.182	8296.34
646.535	8240.52
646.888	8261.08
647.24	8189.45
647.593	8249.78
647.945	8260.63
648.298	8240.74
648.65	8254.98
649.002	8137.92
649.355	8263.34
649.707	8193.06
650.059	8228.31
650.411	8372.27
650.763	8406.84
651.115	8421.53
651.467	8442.77
651.819	8415.65
652.171	8384.24
652.523	8430.12
652.875	8417.91
653.227	8407.07
653.578	8443
653.93	8416.11
654.282	8389.44
654.633	8414.98
654.985	8372.27
655.337	8393.51
655.688	8381.53
656.039	8440.06
656.391	8374.07
656.742	8406.62
657.094	8424.47
657.445	8380.18
657.796	8447.52
658.147	8414.98
658.498	8402.32
658.849	8410.23
659.2	8393.28
659.551	8373.62
659.902	8479.38
660.253	8429.44
660.604	8427.63
660.955	8387.18
661.306	8483.45
661.656	8410.46
662.007	8419.5
662.358	8430.8
662.708	8402.32
663.059	8452.94
663.409	8402.32
663.76	8417.24
664.11	8469.66
664.461	8443.68
664.811	8492.04
665.161	8493.39
665.511	8408.87
665.862	8466.5
666.212	8455.2
666.562	8542.2
666.912	8494.97
667.262	8483.9
667.612	8477.8
667.962	8471.02
668.312	8488.42
668.662	8494.97
669.011	8451.81
669.361	8450.23
669.711	8446.84
670.06	8478.03
670.41	8447.07
670.76	8454.75
671.109	8428.99
671.459	8390.12
671.808	8374.75
672.157	8448.2
672.507	8344.24
672.856	8294.98
673.205	8400.97
673.554	8443.22
673.904	8388.08
674.253	8472.38
674.602	8352.15
674.951	8221.31
675.3	8241.65
675.649	8358.03
675.998	8324.13
676.346	8331.36
676.695	8377.69
677.044	8272.83
677.393	8253.85
677.741	8319.61
678.09	8281.65
678.438	8257.47
678.787	8304.47
679.135	8280.74
679.484	8182.67
679.832	8289.56
680.181	8224.92
680.529	8238.48
680.877	8235.77
681.225	8181.76
681.573	8257.69
681.922	8193.51
682.27	8076.23
682.618	8097.24
682.966	8113.74
683.314	8123.46
683.661	8075.32
684.009	8069.45
684.357	8031.48
684.705	7992.61
685.053	8045.04
685.4	7965.5
685.748	7978.15
686.095	8013.63
686.443	7960.98
686.79	7955.78
687.138	7882.79
687.485	7894.31
687.832	7911.71
688.18	7856.57
688.527	7786.74
688.874	7782
689.221	7799.63
689.568	7825.39
689.915	7702
690.262	7745.62
690.609	7682.11
690.956	7661.32
691.303	7678.05
691.65	7706.75
691.997	7617.48
692.344	7553.98
692.69	7576.58
693.037	7590.14
693.383	7441.89
693.73	7545.17
694.077	7464.49
694.423	7462.01
694.769	7416.81
695.116	7386.53
695.462	7354.89
695.808	7315.34
696.155	7368.68
696.501	7309.02
696.847	7271.05
697.193	7202.13
697.539	7256.14
697.885	7185.4
698.231	7147.21
698.577	7159.42
698.923	7111.73
699.269	7140.21
699.614	7073.54
699.96	7033.09
700.306	7013.88
700.651	6977.05
700.997	6963.72
701.342	6939.08
701.688	6906.32
702.033	6899.31
702.379	6877.84
702.724	6866.32
703.069	6908.58
703.415	6825.64
703.76	6783.15
704.105	6791.29
704.45	6772.08
704.795	6721.24
705.14	6716.49
705.485	6705.87
705.83	6683.27
706.175	6671.75
706.52	6655.02
706.865	6609.15
707.209	6615.7
707.554	6583.16
707.899	6572.54
708.243	6492.99
708.588	6535.93
708.932	6547.68
709.277	6499.77
709.621	6478.98
709.966	6443.73
710.31	6485.31
710.654	6411.64
710.998	6352.88
711.342	6416.84
711.687	6386.78
712.031	6340.68
712.375	6319.66
712.719	6388.59
713.063	6351.08
713.407	6343.62
713.75	6292.09
714.094	6298.65
714.438	6232.89
714.782	6269.95
715.125	6236.95
715.469	6265.88
715.812	6227.24
716.156	6150.4
716.499	6193.11
716.843	6168.26
717.186	6148.82
717.53	6209.38
717.873	6184.53
718.216	6156.05
718.559	6172.32
718.902	6159.44
719.246	6198.09
719.589	6116.73
719.932	6071.99
720.275	6108.14
720.617	6129.39
720.96	6076.51
721.303	6065.89
721.646	6095.94
721.989	6074.25
722.331	6081.48
722.674	6099.33
723.016	6069.73
723.359	6063.63
723.701	6016.62
724.044	6038.54
724.386	5987.24
724.729	5993.57
725.071	6029.05
725.413	6042.16
725.755	5997.41
726.097	6010.07
726.439	5956.51
726.782	5958.09
727.124	6042.61
727.465	5964.19
727.807	5933.69
728.149	5982.05
728.491	5947.24
728.833	5983.18
729.175	6026.34
729.516	5955.38
729.858	6004.42
730.199	5997.64
730.541	5946.34
730.882	5952.89
731.224	5980.69
731.565	5934.14
731.906	5947.24
732.248	5954.48
732.589	5969.39
732.93	5919.9
733.271	5977.75
733.612	6028.6
733.953	5957.87
734.294	6000.12
734.635	5893.01
734.976	5962.16
735.317	5905.21
735.658	5984.76
735.999	5972.33
736.339	5988.15
736.68	5974.81
737.021	5968.04
737.361	5975.27
737.702	5999.9
738.042	5982.05
738.383	5969.39
738.723	6022.5
739.063	5994.25
739.404	6001.71
739.744	6011.42
740.084	6069.73
740.424	6003.51
740.764	5990.41
741.104	6043.51
741.444	6030.41
741.784	6030.63
742.124	6095.94
742.464	6066.79
742.804	6079.22
743.143	6139.33
743.483	6130.06
743.823	6129.61
744.162	6185.43
744.502	6209.61
744.841	6218.2
745.181	6254.36
745.52	6274.47
745.86	6321.47
746.199	6352.66
746.538	6390.17
746.877	6404.41
747.216	6400.79
747.556	6431.75
747.895	6492.77
748.234	6539.09
748.573	6546.1
748.911	6615.93
749.25	6687.56
749.589	6760.33
749.928	6854.11
750.267	6868.58
750.605	6892.76
750.944	6971.85
751.283	7037.16
751.621	7130.94
751.96	7161.68
752.298	7304.95
752.636	7370.26
752.975	7384.27
753.313	7473.76
753.651	7645.05
753.989	7691.83
754.327	7793.3
754.666	7890.47
755.004	7970.69
755.342	8083.01
755.679	8227.41
756.017	8303.34
756.355	8494.75
756.693	8631.69
757.031	8696.55
757.368	8903.1
757.706	8962.98
758.044	9126.82
758.381	9290.21
758.719	9385.8
759.056	9507.38
759.394	9727.94
759.731	9776.97
760.068	10016.97
760.405	10091.54
760.743	10225.78
761.08	10404.53
761.417	10520.46
761.754	10796.38
762.091	10991.63
762.428	11082.48
762.765	11205.86
763.102	11456.03
763.438	11601.79
763.775	11702.12
764.112	11924.71
764.449	12155.44
764.785	12256.46
765.122	12326.29
765.458	12503.46
765.795	12673.17
766.131	12815.09
766.467	12996.1
766.804	13168.98
767.14	13305.02
767.476	13458.23
767.812	13575.74
768.148	13714.72
768.485	13829.3
768.821	14013.93
769.157	14072.45
769.492	14230.87
769.828	14396.97
770.164	14565.78
770.5	14578.66
770.836	14747.92
771.171	14766.9
771.507	14987.46
771.842	15028.14
772.178	15186.1
772.513	15206.89
772.849	15295.7
773.184	15496.82
773.519	15502.02
773.855	15557.84
774.19	15668.57
774.525	15779.75
774.86	15869.02
775.195	16042.8
775.53	16015.91
775.865	15983.59
776.2	15986.08
776.535	16056.58
776.87	16087.77
777.205	16193.08
777.539	16193.53
777.874	16364.82
778.209	16279.85
778.543	16383.58
778.878	16349.91
779.212	16421.55
779.547	16391.49
779.881	16524.37
780.215	16396.69
780.55	16622.44
780.884	16626.29
781.218	16601.88
781.552	16671.03
781.886	16579.06
782.22	16711.93
782.554	16641.65
782.888	16564.59
783.222	16555.1
783.556	16585.84
783.889	16735.21
784.223	16568.66
784.557	16598.72
784.89	16597.81
785.224	16590.58
785.557	16547.64
785.891	16545.61
786.224	16643.91
786.558	16625.16
786.891	16518.49
787.224	16497.93
787.557	16487.53
787.891	16535.89
788.224	16643.69
788.557	16577.02
788.89	16557.81
789.223	16532.5
789.556	16503.58
789.888	16399.85
790.221	16403.02
790.554	16356.46
790.887	16387.42
791.219	16421.77
791.552	16336.12
791.884	16297.93
792.217	16336.12
792.549	16260.42
792.882	16145.85
793.214	16229.69
793.546	16206.41
793.879	16134.32
794.211	16092.97
794.543	16143.59
794.875	16092.29
795.207	16152.4
795.539	16077.83
795.871	16042.35
796.203	16003.25
796.535	15936.13
796.867	15866.76
797.198	15922.8
797.53	15813.88
797.862	15760.55
798.193	15861.33
798.525	15708.12
798.856	15777.04
799.188	15595.35
799.519	15557.16
799.85	15530.04
800.182	15456.37
800.513	15589.25
800.844	15418.41
801.175	15497.05
801.506	15488.91
801.837	15425.87
802.168	15369.82
802.499	15398.97
802.83	15271.52
803.161	15314.46
803.491	15221.13
803.822	15373.66
804.153	15202.37
804.483	15112.2
804.814	15086.21
805.145	15022.26
805.475	15084.18
805.805	14957.63
806.136	15078.53
806.466	15021.58
806.796	14950.85
807.126	14890.96
807.457	14913.56
807.787	14883.96
808.117	14826.56
808.447	14760.57
808.777	14786.79
809.107	14736.84
809.436	14740.91
809.766	14742.95
810.096	14577.3
810.426	14643.29
810.755	14570.97
811.085	14525.55
811.414	14592.89
811.744	14513.8
812.073	14448.72
812.403	14473.35
812.732	14416.17
813.061	14413.69
813.39	14237.87
813.719	14341.37
814.049	14354.26
814.378	14277.42
814.707	14196.52
815.036	14201.04
815.365	14161.94
815.693	14065.22
816.022	14104.32
816.351	14131.66
816.68	14052.12
817.008	14050.08
817.337	13957.88
817.665	13839.47
817.994	13985.68
818.322	13963.53
818.651	13830.2
818.979	13846.47
819.307	13924.89
819.636	13923.76
819.964	13920.37
820.292	13865.45
820.62	13917.2
820.948	13888.96
821.276	13830.2
821.604	13730.32
821.932	13781.84
822.259	13831.33
822.587	13827.94
822.915	13799.02
823.243	13867.49
823.57	13732.35
823.898	13811.44
824.225	13696.19
824.553	13764.21
824.88	13709.07
825.207	13804.89
825.535	13763.31
825.862	13808.51
826.189	13781.16
826.516	13800.82
826.843	13784.78
827.17	13838.79
827.497	13798.56
827.824	13809.86
828.151	13865
828.478	13724.22
828.805	13909.75
829.131	13835.4
829.458	13759.69
829.785	13783.42
830.111	13804.21
830.438	13823.65
830.764	13810.31
831.09	13821.61
831.417	13738.23
831.743	13784.55
832.069	13803.08
832.395	13778.68
832.722	13712.46
833.048	13682.63
833.374	13736.19
833.7	13729.19
834.026	13702.75
834.351	13724.89
834.677	13693.03
835.003	13804.44
835.329	13677.66
835.654	13686.93
835.98	13609.42
836.306	13666.59
836.631	13585.69
836.956	13732.12
837.282	13616.65
837.607	13630.88
837.932	13510.21
838.258	13534.16
838.583	13547.95
838.908	13502.75
839.233	13444
839.558	13424.79
839.883	13421.62
840.208	13431.57
840.533	13433.6
840.858	13444
841.182	13364.68
841.507	13357.22
841.832	13247.84
842.156	13266.37
842.481	13273.83
842.805	13229.99
843.13	13221.86
843.454	13170.33
843.778	13129.88
844.103	13080.39
844.427	13141.41
844.751	13109.99
845.075	12945.03
845.399	12962.43
845.723	12891.47
846.047	12947.96
846.371	12846.27
846.695	12840.85
847.019	12726.05
847.343	12658.71
847.666	12603.57
847.99	12614.87
848.313	12608.31
848.637	12529.22
848.96	12500.74
849.284	12435.44
849.607	12341.43
849.931	12309.79
850.254	12274.99
850.577	12277.93
850.9	12101.43
851.223	12098.5
851.546	12081.32
851.869	11912.29
852.192	12062.11
852.515	11825.96
852.838	11836.58
853.161	11783.25
853.483	11793.87
853.806	11707.55
854.129	11799.75
854.451	11661.9
854.774	11585.51
855.096	11609.92
855.419	11558.17
855.741	11536.93
856.063	11451.96
856.385	11462.35
856.708	11441.56
857.03	11325.41
857.352	11321.11
857.674	11277.05
857.996	11237.5
858.318	11197.95
858.64	11192.3
858.961	11155.47
859.283	11180.78
859.605	11049.48
859.926	11090.84
860.248	11073.44
860.57	11036.83
860.891	10982.37
861.212	10922.71
861.534	10932.42
861.855	10966.32
862.176	10876.38
862.498	10901.01
862.819	10914.57
863.14	10858.53
863.461	10843.84
863.782	10770.62
864.103	10821.24
864.424	10806.55
864.745	10783.73
865.065	10716.16
865.386	10652.43
865.707	10650.62
866.027	10684.52
866.348	10627.35
866.668	10634.13
866.989	10597.97
867.309	10598.2
867.63	10556.84
867.95	10528.37
868.27	10565.2
868.59	10538.76
868.91	10518.65
869.23	10469.39
869.55	10420.57
869.87	10487.01
870.19	10505.54
870.51	10487.92
870.83	10452.21
871.15	10367.24
871.469	10356.39
871.789	10417.18
872.109	10433.23
872.428	10325.43
872.748	10387.13
873.067	10309.62
873.386	10255.61
873.706	10265.55
874.025	10226.68
874.344	10229.39
874.663	10319.11
874.982	10207.92
875.301	10173.57
875.62	10201.6
875.939	10178.32
876.258	10187.59
876.577	10153.46
876.896	10079.11
877.214	10079.57
877.533	10130.19
877.852	10004.54
878.17	10019
878.489	10074.14
878.807	10017.87
879.125	10004.99
879.444	9989.4
879.762	9934.26
880.08	9942.85
880.398	9949.17
880.716	9914.6
881.034	9881.38
881.352	9854.49
881.67	9803.64
881.988	9801.83
882.306	9802.28
882.624	9807.93
882.941	9648.62
883.259	9675.06
883.577	9733.13
883.894	9641.38
884.212	9653.36
884.529	9610.65
884.846	9608.62
885.164	9608.17
885.481	9566.58
885.798	9540.14
886.115	9469.86
886.432	9537.88
886.75	9481.16
887.067	9507.6
887.383	9392.13
887.7	9503.54
888.017	9381.28
888.334	9451.56
888.651	9337.21
888.967	9303.99
889.284	9364.33
889.6	9268.06
889.917	9159.82
890.233	9266.25
890.55	9194.84
890.866	9167.95
891.182	9150.32
891.498	9129.08
891.815	9068.74
892.131	9043.66
892.447	9028.07
892.763	9007.28
893.079	9020.61
893.395	9009.09
893.71	8962.53
894.026	8943.55
894.342	8862.65
894.657	8791.24
894.973	8748.3
895.289	8863.55
895.604	8829.43
895.92	8719.15
896.235	8660.39
896.55	8699.26
896.865	8586.27
897.181	8545.59
897.496	8554.63
897.811	8559.61
898.126	8570.68
898.441	8467.18
898.756	8450
899.071	8364.81
899.386	8404.36
899.7	8359.84
900.015	8301.53
900.33	8239.16
900.644	8289.78
900.959	8235.32
901.273	8214.76
901.588	8221.99
901.902	8114.42
902.216	8078.26
902.531	8083.46
902.845	8097.92
903.159	8047.75
903.473	8025.83
903.787	7927.31
904.101	7967.98
904.415	7917.81
904.729	7919.17
905.042	7801.43
905.356	7812.73
905.67	7767.54
905.984	7824.94
906.297	7685.05
906.611	7680.76
906.924	7698.16
907.237	7685.73
907.551	7646.18
907.864	7590.37
908.177	7600.53
908.491	7483.93
908.804	7449.8
909.117	7401.67
909.43	7388.79
909.743	7387.88
910.056	7367.09
910.368	7351.28
910.681	7308.34
910.994	7242.8
911.307	7253.88
911.619	7216.36
911.932	7186.31
912.244	7095.92
912.557	7112.19
912.869	7100.66
913.181	7059.76
913.494	7036.93
913.806	6985.64
914.118	6942.25
914.43	6922.36
914.742	6915.58
915.054	6938.18
915.366	6844.85
915.678	6888.69
915.99	6838.07
916.302	6762.36
916.613	6758.52
916.925	6740.22
917.236	6727.34
917.548	6637.4
917.859	6633.78
918.171	6617.28
918.482	6596.49
918.794	6537.96
919.105	6530.05
919.416	6514.69
919.727	6471.3
920.038	6473.33
920.349	6433.33
920.66	6394.01
920.971	6353.11
921.282	6382.71
921.593	6334.58
921.903	6240.12
922.214	6237.18
922.525	6262.49
922.835	6216.39
923.146	6236.28
923.456	6189.05
923.767	6154.92
924.077	6175.71
924.387	6114.02
924.697	6121.03
925.008	6003.97
925.318	6010.29
925.628	6015.94
925.938	5961.71
926.248	5980.24
926.558	5942.05
926.867	5934.36
927.177	5884.87
927.487	5822.5
927.796	5775.95
928.106	5829.28
928.416	5772.56
928.725	5774.59
929.034	5719
929.344	5725.56
929.653	5699.79
929.962	5661.6
930.271	5697.99
930.581	5645.78
930.89	5570.76
931.199	5535.96
931.508	5530.08
931.817	5561.72
932.125	5508.61
932.434	5555.16
932.743	5443.98
933.051	5489.18
933.36	5414.15
933.669	5416.86
933.977	5370.54
934.286	5316.07
934.594	5352.23
934.902	5339.8
935.21	5305.23
935.519	5258.9
935.827	5251.22
936.135	5210.99
936.443	5185.91
936.751	5179.36
937.059	5155.85
937.367	5130.77
937.674	5139.58
937.982	5086.93
938.29	5117.44
938.597	5083.99
938.905	5014.16
939.213	4988.4
939.52	4969.42
939.827	5011.22
940.135	4961.06
940.442	4905.01
940.749	4877.22
941.056	4931.23
941.363	4893.26
941.67	4860.72
941.977	4790.21
942.284	4769.65
942.591	4754.96
942.898	4735.3
943.205	4742.98
943.511	4724.23
943.818	4705.24
944.125	4706.6
944.431	4647.84
944.738	4667.05
945.044	4636.77
945.35	4606.72
945.657	4553.38
945.963	4579.82
946.269	4549.99
946.575	4515.64
946.881	4485.81
947.187	4473.16
947.493	4445.14
947.799	4455.31
948.105	4433.16
948.41	4393.16
948.716	4425.93
949.022	4389.09
949.327	4359.04
949.633	4326.72
949.938	4298.02
950.244	4291.24
950.549	4257.57
950.854	4281.98
951.16	4237.91
951.465	4247.63
951.77	4210.12
952.075	4183.22
952.38	4136.44
952.685	4158.37
952.99	4137.8
953.294	4124.24
953.599	4100.97
953.904	4140.29
954.209	4076.11
954.513	4068.2
954.818	4047.41
955.122	3997.92
955.426	4023.68
955.731	3950.69
956.035	3953.4
956.339	3933.96
956.643	3912.27
956.948	3896.68
957.252	3907.98
957.556	3870.24
957.86	3852.84
958.163	3855.1
958.467	3824.36
958.771	3794.08
959.075	3824.36
959.378	3756.79
959.682	3781.65
959.985	3743.01
960.289	3749.79
960.592	3669.56
960.896	3704.82
961.199	3695.78
961.502	3666.85
961.805	3659.85
962.108	3681.77
962.411	3630.92
962.714	3612.16
963.017	3591.83
963.32	3579.85
963.623	3604.93
963.926	3606.29
964.228	3523.35
964.531	3518.38
964.833	3511.6
965.136	3500.08
965.438	3480.42
965.741	3490.81
966.043	3427.76
966.345	3442.68
966.648	3455.56
966.95	3475.22
967.252	3392.28
967.554	3374.88
967.856	3373.98
968.158	3337.14
968.46	3331.95
968.761	3329.01
969.063	3318.84
969.365	3313.87
969.666	3259.41
969.968	3258.95
970.269	3242.23
970.571	3217.37
970.872	3224.15
971.174	3186.41
971.475	3210.37
971.776	3190.03
972.077	3152.74
972.378	3165.4
972.679	3136.47
972.98	3131.27
973.281	3084.04
973.582	3117.94
973.883	3112.29
974.183	3049.47
974.484	3065.06
974.785	3084.95
975.085	3024.38
975.386	3023.71
975.686	2978.06
975.986	2949.36
976.287	2925.86
976.587	2934.67
976.887	2931.05
977.187	2919.08
977.487	2922.24
977.787	2906.19
978.087	2879.08
978.387	2879.98
978.687	2876.37
978.987	2888.57
979.286	2825.29
979.586	2829.81
979.885	2819.64
980.185	2813.32
980.484	2811.51
980.784	2754.79
981.083	2788.46
981.382	2755.24
981.682	2733.54
981.981	2729.02
982.28	2705.52
982.579	2713.88
982.878	2708.23
983.177	2689.03
983.475	2666.65
983.774	2686.31
984.073	2641.79
984.372	2644.28
984.67	2583.04
984.969	2620.55
985.267	2614.9
985.566	2617.61
985.864	2576.03
986.162	2579.2
986.461	2530.61
986.759	2536.94
987.057	2494.45
987.355	2517.5
987.653	2484.74
987.951	2519.31
988.249	2485.19
988.547	2494.45
988.844	2476.6
989.142	2463.27
989.44	2421.91
989.737	2467.34
990.035	2405.87
990.332	2398.64
990.63	2395.02
990.927	2420.78
991.224	2394.57
991.521	2380.78
991.819	2374.01
992.116	2308.7
992.413	2344.85
992.71	2294.01
993.006	2313.22
993.303	2301.92
993.6	2304.63
993.897	2235.7
994.193	2258.53
994.49	2283.61
994.787	2252.65
995.083	2262.14
995.379	2239.55
995.676	2237.74
995.972	2226.44
996.268	2198.42
996.565	2151.64
996.861	2201.13
997.157	2155.25
997.453	2173.33
997.749	2141.24
998.044	2137.4
998.34	2118.87
998.636	2115.48
998.932	2097.63
999.227	2082.04
999.523	2057.63
999.818	2062.15
1000.114	2071.41
1000.409	2033.9
1000.704	2034.13
1001	2050.62
1001.295	1968.37
1001.59	1993.9
1001.885	1984.19
1002.18	1977.63
1002.475	1977.18
1002.77	1970.85
1003.065	1978.76
1003.359	1914.36
1003.654	1920.91
1003.949	1922.04
1004.243	1930.4
1004.538	1891.98
1004.832	1909.16
1005.127	1889.95
1005.421	1860.57
1005.715	1865.77
1006.009	1861.48
1006.304	1830.52
1006.598	1805.66
1006.892	1812.89
1007.186	1798.2
1007.48	1790.97
1007.773	1804.08
1008.067	1775.6
1008.361	1728.15
1008.655	1735.6
1008.948	1766.56
1009.242	1727.92
1009.535	1743.29
1009.829	1706
1010.122	1708.94
1010.415	1708.49
1010.708	1680.92
1011.001	1677.07
1011.295	1661.48
1011.588	1661.93
1011.881	1659.67
1012.173	1626.45
1012.466	1656.28
1012.759	1652.89
1013.052	1601.6
1013.344	1614.48
1013.637	1600.47
1013.93	1570.64
1014.222	1575.16
1014.514	1573.12
1014.807	1552.78
1015.099	1569.28
1015.391	1543.29
1015.683	1533.58
1015.976	1516.63
1016.268	1499.45
1016.56	1468.27
1016.851	1496.29
1017.143	1484.76
1017.435	1460.36
1017.727	1459.23
1018.018	1458.78
1018.31	1439.57
1018.602	1442.73
1018.893	1421.04
1019.185	1409.51
1019.476	1390.08
1019.767	1408.83
1020.058	1391.43
1020.35	1377.2
1020.641	1379.68
1020.932	1386.69
1021.223	1359.57
1021.514	1325.9
1021.804	1316.86
1022.095	1330.19
1022.386	1330.19
1022.677	1294.71
1022.967	1293.58
1023.258	1280.7
1023.548	1300.81
1023.839	1269.18
1024.129	1276.18
1024.419	1259.23
1024.709	1276.63
1025	1268.27
1025.29	1260.14
1025.58	1205.9
1025.87	1193.25
1026.16	1213.36
1026.449	1207.48
1026.739	1224.43
1027.029	1214.49
1027.319	1155.28
1027.608	1170.42
1027.898	1164.09
1028.187	1162.96
1028.477	1177.65
1028.766	1167.48
1029.055	1114.83
1029.344	1158.67
1029.634	1120.03
1029.923	1114.6
1030.212	1129.29
1030.501	1115.28
1030.79	1062.85
1031.078	1077.09
1031.367	1084.32
1031.656	1075.51
1031.945	1089.75
1032.233	1060.59
1032.522	1044.1
1032.81	1061.72
1033.099	1054.27
1033.387	1051.33
1033.675	1045
1033.963	1004.78
1034.251	1014.27
1034.54	1008.17
1034.828	1014.49
1035.116	988.96
1035.403	990.76
1035.691	995.96
1035.979	973.36
1036.267	990.31
1036.554	996.87
1036.842	932.91
1037.129	951.44
1037.417	927.04
1037.704	925.68
1037.992	911.9
1038.279	910.99
1038.566	947.83
1038.853	947.83
1039.14	947.83
