Data from hue_100_FLMS001491_00017.txt Node
Date: Tue Feb 07 17:02:43 GMT 2017
User: dcchb
Spectrometer: FLMS00149
Trigger mode: 0
Integration Time (sec): 2.000000E-2
Scans to average: 10
Electric dark correction enabled: true
Nonlinearity correction enabled: false
Boxcar width: 0
XAxis mode: Wavelengths
Number of Pixels in Spectrum: 2048
>>>>>Begin Spectral Data<<<<<
341.393	-10.56
341.776	-10.56
342.16	-10.56
342.543	-51.02
342.927	-36.33
343.31	-72.26
343.693	-61.41
344.077	-70
344.46	-57.12
344.843	-62.99
345.226	-34.52
345.61	-28.87
345.993	-23.9
346.376	-15.31
346.759	1.64
347.142	21.3
347.525	46.83
347.908	65.82
348.291	75.08
348.674	103.78
349.057	111.92
349.44	136.78
349.823	159.6
350.206	174.97
350.588	204.12
350.971	188.75
351.354	231.91
351.737	245.7
352.119	256.77
352.502	255.64
352.884	283.21
353.267	287.28
353.65	302.65
354.032	293.61
354.414	299.03
354.797	326.6
355.179	325.7
355.562	319.14
355.944	335.19
356.326	338.13
356.709	333.16
357.091	348.97
357.473	331.35
357.855	342.87
358.238	339.71
358.62	331.57
359.002	336.77
359.384	342.42
359.766	331.8
360.148	346.26
360.53	342.87
360.912	358.69
361.294	343.1
361.676	345.13
362.057	348.52
362.439	315.08
362.821	331.8
363.203	320.95
363.584	337.22
363.966	343.78
364.348	329.99
364.729	332.93
365.111	336.32
365.493	337.9
365.874	326.38
366.256	289.09
366.637	305.81
367.019	328.41
367.4	341.97
367.781	335.41
368.163	322.08
368.544	310.1
368.925	312.36
369.306	318.92
369.688	306.49
370.069	315.08
370.45	342.87
370.831	300.61
371.212	312.59
371.593	325.92
371.974	300.61
372.355	328.41
372.736	329.99
373.117	324.79
373.498	322.08
373.879	327.05
374.26	327.96
374.641	306.26
375.021	319.6
375.402	328.41
375.783	326.83
376.163	343.78
376.544	339.93
376.925	332.93
377.305	329.09
377.686	331.35
378.066	325.47
378.447	335.41
378.827	334.51
379.208	341.74
379.588	350.56
379.968	357.79
380.349	336.32
380.729	341.29
381.109	357.56
381.489	347.84
381.87	353.95
382.25	359.6
382.63	356.21
383.01	348.07
383.39	342.87
383.77	317.79
384.15	345.13
384.53	342.87
384.91	365.47
385.29	366.83
385.67	351.46
386.049	384.68
386.429	365.92
386.809	373.83
387.189	377.45
387.568	383.32
387.948	361.85
388.328	357.34
388.707	352.14
389.087	349.65
389.466	374.51
389.846	372.25
390.225	377.45
390.605	390.78
390.984	389.42
391.363	377.9
391.743	396.88
392.122	378.35
392.501	391.23
392.881	371.12
393.26	379.48
393.639	366.15
394.018	401.4
394.397	393.49
394.776	395.98
395.155	383.55
395.534	398.69
395.913	378.58
396.292	405.24
396.671	398.01
397.05	417.22
397.429	429.88
397.808	393.27
398.186	402.98
398.565	407.05
398.944	404.57
399.323	377.9
399.701	426.26
400.08	420.16
400.458	413.38
400.837	410.22
401.215	395.98
401.594	423.32
401.972	422.87
402.351	430.78
402.729	426.26
403.107	437.11
403.486	438.69
403.864	432.36
404.242	424.23
404.62	434.85
404.999	441.85
405.377	449.08
405.755	435.98
406.133	456.77
406.511	449.99
406.889	450.89
407.267	441.17
407.645	459.48
408.023	459.48
408.401	468.07
408.779	467.16
409.156	480.27
409.534	505.58
409.912	479.14
410.29	467.84
410.667	489.08
411.045	479.82
411.422	496.09
411.8	504.22
412.178	487.05
412.555	491.12
412.933	500.16
413.31	504
413.687	506.26
414.065	515.07
414.442	498.57
414.819	536.54
415.197	489.08
415.574	538.57
415.951	522.53
416.328	523.43
416.705	548.06
417.082	519.36
417.46	536.99
417.837	565.01
418.214	575.18
418.591	548.06
418.967	542.19
419.344	579.25
419.721	551.68
420.098	556.2
420.475	559.59
420.852	572.7
421.228	594.39
421.605	593.26
421.982	593.26
422.358	585.35
422.735	602.53
423.111	585.8
423.488	595.07
423.864	596.42
424.241	606.14
424.617	610.66
424.994	606.59
425.37	633.26
425.746	629.64
426.123	639.36
426.499	648.85
426.875	639.81
427.251	656.99
427.627	659.02
428.003	646.82
428.379	654.5
428.756	681.39
429.132	685.01
429.507	680.49
429.883	675.07
430.259	699.93
430.635	672.58
431.011	715.29
431.387	712.58
431.763	711.68
432.138	711.68
432.514	727.27
432.89	720.26
433.265	729.75
433.641	741.73
434.016	754.39
434.392	755.97
434.767	785.35
435.143	796.19
435.518	772.92
435.894	780.83
436.269	783.09
436.644	776.76
437.02	838.23
437.395	811.11
437.77	841.84
438.145	839.81
438.52	824.89
438.895	826.93
439.271	827.61
439.646	858.79
440.021	849.53
440.395	870.09
440.77	886.59
441.145	846.59
441.52	906.7
441.895	868.28
442.27	901.5
442.645	903.08
443.019	882.07
443.394	891.11
443.769	899.69
444.143	925.68
444.518	926.13
444.892	937.21
445.267	930.2
445.641	959.13
446.016	952.8
446.39	971.56
446.764	958.45
447.139	960.03
447.513	1001.61
447.887	976.3
448.262	982.63
448.636	984.44
449.01	1001.84
449.384	1021.72
449.758	1024.66
450.132	1042.97
450.506	1048.39
450.88	1040.48
451.254	1038.45
451.628	1054.04
452.002	1076.41
452.376	1063.76
452.75	1053.81
453.123	1082.06
453.497	1125.9
453.871	1107.82
454.244	1147.37
454.618	1109.41
454.992	1143.76
455.365	1170.2
455.739	1168.16
456.112	1172.68
456.486	1209.97
456.859	1205.9
457.232	1244.09
457.606	1236.86
457.979	1227.14
458.352	1278.67
458.725	1311.21
459.099	1290.87
459.472	1319.8
459.845	1333.13
460.218	1365.22
460.591	1362.28
460.964	1330.42
461.337	1382.39
461.71	1425.33
462.083	1449.28
462.456	1422.17
462.829	1461.49
463.201	1489.06
463.574	1524.31
463.947	1490.64
464.32	1522.73
464.692	1543.97
465.065	1595.72
465.438	1614.03
465.81	1607.47
466.183	1645.21
466.555	1677.98
466.928	1733.57
467.3	1703.51
467.672	1731.99
468.045	1781.03
468.417	1797.75
468.789	1831.87
469.161	1821.03
469.534	1885.2
469.906	1907.12
470.278	1945.32
470.65	1964.3
471.022	2016.27
471.394	2061.47
471.766	2080
472.138	2135.82
472.51	2201.35
472.882	2216.72
473.253	2254.23
473.625	2323.16
473.997	2400.22
474.369	2428.69
474.74	2443.16
475.112	2535.13
475.484	2582.14
475.855	2622.59
476.227	2703.26
476.598	2766.31
476.97	2822.13
477.341	2905.97
477.713	2966.08
478.084	2985.97
478.455	3116.36
478.827	3211.72
479.198	3298.73
479.569	3368.1
479.94	3465.28
480.311	3511.6
480.682	3666.17
481.053	3777.36
481.424	3857.58
481.795	3944.13
482.166	4032.94
482.537	4124.69
482.908	4282.66
483.279	4331.02
483.65	4525.36
484.021	4609.2
484.391	4769.65
484.762	4842.19
485.133	4887.39
485.503	5082.18
485.874	5229.3
486.244	5343.87
486.615	5543.19
486.985	5624.99
487.356	5801.03
487.726	5938.43
488.097	6074.93
488.467	6163.96
488.837	6319.21
489.207	6500.9
489.578	6673.1
489.948	6822.48
490.318	6977.27
490.688	7079.64
491.058	7272.18
491.428	7446.41
491.798	7614.55
492.168	7826.07
492.538	7877.14
492.908	8011.15
493.278	8249.56
493.648	8322.32
494.017	8536.56
494.387	8686.38
494.757	8821.97
495.126	9016.09
495.496	9075.75
495.866	9219.93
496.235	9333.37
496.605	9503.99
496.974	9605.45
497.344	9811.55
497.713	9891.55
498.082	10103.07
498.452	10260.13
498.821	10314.14
499.19	10383.96
499.559	10627.57
499.928	10705.54
500.298	10862.82
500.667	10964.29
501.036	10968.58
501.405	11203.38
501.774	11252.19
502.143	11350.49
502.512	11443.6
502.88	11611.28
503.249	11674.33
503.618	11859.41
503.987	11890.14
504.356	11983.92
504.724	12044.71
505.093	12143.01
505.462	12228.44
505.83	12355.66
506.199	12474.3
506.567	12579.84
506.936	12561.08
507.304	12766.5
507.672	12828.65
508.041	12915.42
508.409	12979.83
508.777	13154.96
509.145	13257.56
509.514	13239.26
509.882	13345.24
510.25	13353.83
510.618	13423.66
510.986	13516.76
511.354	13614.84
511.722	13748.4
512.09	13814.83
512.458	13789.98
512.826	13894.38
513.193	14065
513.561	13986.13
513.929	14184.09
514.297	14212.11
514.664	14284.2
515.032	14370.98
515.4	14452.33
515.767	14411.2
516.135	14549.28
516.502	14424.08
516.869	14654.59
517.237	14612.55
517.604	14681.25
517.972	14719.67
518.339	14821.36
518.706	14831.3
519.073	14845.99
519.44	14878.08
519.808	14916.5
520.175	14920.57
520.542	15143.39
520.909	15179.77
521.276	15162.82
521.643	15206.89
522.009	15299.09
522.376	15343.16
522.743	15339.09
523.11	15534.79
523.477	15517.16
523.843	15469.48
524.21	15686.65
524.577	15799.64
524.943	15739.98
525.31	15759.19
525.676	15808
526.043	15873.54
526.409	15953.99
526.776	15958.51
527.142	16010.26
527.508	16066.3
527.874	16086.19
528.241	16104.04
528.607	16017.26
528.973	16087.54
529.339	16018.62
529.705	16226.3
530.071	16252.28
530.437	16250.02
530.803	16233.53
531.169	16284.6
531.535	16232.4
531.901	16264.71
532.267	16170.93
532.632	16278.95
532.998	16211.83
533.364	16240.31
533.73	16282.79
534.095	16318.5
534.461	16252.28
534.826	16277.59
535.192	16271.49
535.557	16362.34
535.923	16252.06
536.288	16295
536.653	16232.17
537.019	16156.92
537.384	16146.98
537.749	16146.3
538.114	16171.16
538.479	16108.56
538.845	16114.89
539.21	16133.64
539.575	15968
539.94	15986.53
540.305	16072.18
540.67	15941.33
541.034	15976.13
541.399	15902.24
541.764	15941.11
542.129	15820.66
542.494	15906.3
542.858	15823.14
543.223	15799.42
543.587	15844.84
543.952	15805.52
544.316	15704.05
544.681	15685.07
545.045	15729.13
545.41	15708.8
545.774	15655.69
546.138	15566.43
546.503	15490.27
546.867	15524.39
547.231	15532.3
547.595	15480.33
547.959	15510.61
548.324	15385.87
548.688	15410.27
549.052	15383.15
549.416	15354.68
549.779	15282.14
550.143	15295.47
550.507	15284.17
550.871	15200.11
551.235	15234.46
551.599	15295.93
551.962	15183.84
552.326	15177.06
552.689	15259.09
553.053	15115.59
553.417	15036.27
553.78	15141.81
554.143	15041.02
554.507	15142.94
554.87	15012.32
555.234	15063.39
555.597	15032.88
555.96	14974.8
556.323	15056.84
556.686	14995.82
557.05	14965.99
557.413	14968.25
557.776	14977.52
558.139	15063.62
558.502	14988.59
558.865	15017.74
559.228	14967.35
559.59	15034.24
559.953	15014.8
560.316	15008.02
560.679	15016.84
561.041	15016.61
561.404	15030.4
561.767	15125.76
562.129	15001.24
562.492	15087.57
562.854	15014.58
563.217	15040.34
563.579	15046.21
563.941	15101.13
564.304	15170.96
564.666	15143.16
565.028	15122.6
565.39	15206.44
565.753	15165.53
566.115	15232.2
566.477	15257.96
566.839	15175.7
567.201	15302.25
567.563	15235.36
567.925	15307.9
568.287	15248.02
568.648	15308.81
569.01	15349.71
569.372	15426.77
569.734	15261.12
570.095	15393.1
570.457	15571.4
570.819	15460.89
571.18	15423.61
571.542	15436.26
571.903	15581.34
572.265	15486.2
572.626	15538.86
572.987	15533.43
573.349	15608.01
573.71	15565.52
574.071	15484.62
574.432	15544.96
574.794	15728.68
575.155	15554
575.516	15498.86
575.877	15638.74
576.238	15536.37
576.599	15720.1
576.96	15566.88
577.32	15630.61
577.681	15711.96
578.042	15659.31
578.403	15652.53
578.763	15704.05
579.124	15699.76
579.485	15699.98
579.845	15801.9
580.206	15671.73
580.566	15727.1
580.927	15663.37
581.287	15739.98
581.648	15660.66
582.008	15726.65
582.368	15649.59
582.728	15717.61
583.089	15584.96
583.449	15600.1
583.809	15651.17
584.169	15628.57
584.529	15617.05
584.889	15666.99
585.249	15565.52
585.609	15530.95
585.969	15613.43
586.329	15586.31
586.688	15608.91
587.048	15540.21
587.408	15538.63
587.768	15453.44
588.127	15539.08
588.487	15453.66
588.846	15499.99
589.206	15479.88
589.565	15510.16
589.925	15549.03
590.284	15456.37
590.643	15455.02
591.003	15537.5
591.362	15518.52
591.721	15412.98
592.08	15452.08
592.44	15415.02
592.799	15483.49
593.158	15370.73
593.517	15402.36
593.876	15390.61
594.235	15468.58
594.593	15450.72
594.952	15332.53
595.311	15363.49
595.67	15377.28
596.029	15475.13
596.387	15459.99
596.746	15487.56
597.104	15367.79
597.463	15374.12
597.822	15434
598.18	15269.71
598.538	15320.78
598.897	15443.04
599.255	15202.14
599.613	15498.41
599.972	15344.29
600.33	15361.46
600.688	15322.14
601.046	15356.94
601.404	15436.94
601.762	15385.19
602.12	15452.08
602.478	15394
602.836	15347.22
603.194	15284.4
603.552	15301.58
603.91	15359.88
604.268	15400.56
604.625	15240.79
604.983	15362.59
605.341	15370.05
605.698	15462.93
606.056	15413.89
606.413	15393.55
606.771	15396.26
607.128	15424.96
607.485	15351.97
607.843	15384.28
608.2	15403.27
608.557	15456.83
608.914	15400.33
609.272	15482.14
609.629	15470.61
609.986	15570.49
610.343	15451.4
610.7	15547.67
611.057	15442.81
611.414	15518.97
611.771	15538.18
612.127	15536.82
612.484	15548.8
612.841	15613.66
613.198	15560.55
613.554	15482.81
613.911	15665.41
614.267	15623.6
614.624	15598.06
614.98	15584.05
615.337	15699.98
615.693	15715.58
616.05	15627.22
616.406	15704.05
616.762	15626.54
617.118	15735.01
617.475	15791.51
617.831	15710.6
618.187	15818.85
618.543	15762.13
618.899	15827.21
619.255	15782.47
619.611	15815.23
619.967	15867.21
620.323	15891.16
620.678	15813.43
621.034	15801
621.39	15808.91
621.746	15714.67
622.101	15909.47
622.457	15746.08
622.812	15809.36
623.168	15824.73
623.523	15779.53
623.879	15913.99
624.234	15687.78
624.589	15756.03
624.945	15824.95
625.3	15823.6
625.655	15826.08
626.01	15839.87
626.365	15786.31
626.72	15771.85
627.075	15777.04
627.43	15824.95
627.785	15781.11
628.14	15758.96
628.495	15870.83
628.85	15840.32
629.205	15690.94
629.559	15858.4
629.914	15701.79
630.269	15746.08
630.623	15681.23
630.978	15725.07
631.332	15777.72
631.687	15644.16
632.041	15638.97
632.396	15656.59
632.75	15604.62
633.104	15593.54
633.459	15544.05
633.813	15475.36
634.167	15521.68
634.521	15510.16
634.875	15553.09
635.229	15530.27
635.583	15481.46
635.937	15466.77
636.291	15457.05
636.645	15485.75
636.999	15428.13
637.352	15419.54
637.706	15312.42
638.06	15379.54
638.413	15232.65
638.767	15344.96
639.121	15353.33
639.474	15336.6
639.828	15297.51
640.181	15344.29
640.534	15245.08
640.888	15243.27
641.241	15123.27
641.594	15226.32
641.947	15259.77
642.301	15175.7
642.654	15213.67
643.007	15193.78
643.36	15236.94
643.713	15118.76
644.066	15135.48
644.419	15080.11
644.771	15018.19
645.124	14900.91
645.477	14915.14
645.83	14675.15
646.182	14729.84
646.535	14720.12
646.888	14649.16
647.24	14565.1
647.593	14803.28
647.945	14644.19
648.298	14611.88
648.65	14550.18
649.002	14639.67
649.355	14601.93
649.707	14601.93
650.059	14608.03
650.411	14868.37
650.763	14892.32
651.115	14989.27
651.467	14962.37
651.819	14995.82
652.171	15005.31
652.523	14952.21
652.875	14965.99
653.227	14789.72
653.578	14991.3
653.93	14943.17
654.282	14885.77
654.633	14848.71
654.985	14903.85
655.337	14870.63
655.688	15008.93
656.039	15034.01
656.391	14802.38
656.742	14898.2
657.094	14900
657.445	15005.54
657.796	14931.19
658.147	14911.08
658.498	14931.42
658.849	14907.91
659.2	14910.85
659.551	14935.71
659.902	14947.69
660.253	14956.73
660.604	15042.82
660.955	14923.05
661.306	14978.42
661.656	15011.87
662.007	15025.88
662.358	14969.83
662.708	14962.37
663.059	15001.02
663.409	14887.12
663.76	15045.08
664.11	14925.77
664.461	15017.97
664.811	15041.24
665.161	14975.26
665.511	15041.47
665.862	15048.02
666.212	14951.98
666.562	15087.34
666.912	15022.26
667.262	15048.47
667.612	15031.07
667.962	15038.53
668.312	14998.98
668.662	15052.54
669.011	14949.72
669.361	15037.18
669.711	14986.56
670.06	15025.2
670.41	14962.15
670.76	14925.77
671.109	14971.87
671.459	14858.87
671.808	14933.22
672.157	14831.53
672.507	14832.43
672.856	14881.25
673.205	14910.85
673.554	14990.85
673.904	14798.54
674.253	14929.16
674.602	14878.76
674.951	14673.34
675.3	14552.67
675.649	14815.03
675.998	14833.34
676.346	14722.61
676.695	14837.41
677.044	14717.18
677.393	14747.24
677.741	14770.74
678.09	14751.76
678.438	14622.72
678.787	14692.55
679.135	14670.18
679.484	14572.1
679.832	14634.47
680.181	14578.88
680.529	14536.62
680.877	14503.86
681.225	14418.43
681.573	14523.97
681.922	14422.5
682.27	14432.22
682.618	14432.22
682.966	14373.01
683.314	14428.6
683.661	14354.93
684.009	14212.56
684.357	14320.36
684.705	14320.13
685.053	14249.4
685.4	14239.46
685.748	14164.43
686.095	14139.12
686.443	14082.4
686.79	14050.53
687.138	14043.98
687.485	14027.03
687.832	13984.32
688.18	13949.75
688.527	13882.18
688.874	13842.4
689.221	13830.2
689.568	13807.6
689.915	13808.73
690.262	13740.71
690.609	13792.46
690.956	13643.09
691.303	13592.02
691.65	13678.79
691.997	13567.38
692.344	13458.69
692.69	13412.36
693.037	13496.2
693.383	13376.2
693.73	13465.47
694.077	13248.3
694.423	13324.9
694.769	13279.03
695.116	13189.09
695.462	13109.09
695.808	13063.44
696.155	13077.45
696.501	13002.2
696.847	13005.14
697.193	12866.61
697.539	12901.64
697.885	12797.91
698.231	12748.87
698.577	12813.96
698.923	12720.63
699.269	12652.61
699.614	12603.79
699.96	12533.51
700.306	12513.85
700.651	12482.67
700.997	12421.2
701.342	12341.2
701.688	12409.9
702.033	12363.8
702.379	12257.14
702.724	12265.04
703.069	12291.03
703.415	12015.11
703.76	12072.51
704.105	12064.15
704.45	12005.62
704.795	11997.71
705.14	11890.59
705.485	11854.89
705.83	11844.94
706.175	11841.55
706.52	11734.44
706.865	11779.63
707.209	11765.17
707.554	11650.82
707.899	11620.54
708.243	11631.84
708.588	11502.35
708.932	11396.82
709.277	11489.02
709.621	11476.82
709.966	11411.28
710.31	11453.99
710.654	11328.12
710.998	11313.88
711.342	11307.78
711.687	11273.88
712.031	11194.79
712.375	11204.96
712.719	11276.14
713.063	11129.03
713.407	11237.28
713.75	11125.87
714.094	11160.67
714.438	11107.79
714.782	11168.58
715.125	11064.62
715.469	11100.78
715.812	11012.65
716.156	10975.81
716.499	10978.75
716.843	10998.64
717.186	10924.74
717.53	11010.84
717.873	10897.17
718.216	10956.6
718.559	10881.8
718.902	10821.24
719.246	10792.54
719.589	10796.38
719.932	10729.94
720.275	10725.2
720.617	10757.06
720.96	10734.46
721.303	10761.58
721.646	10730.17
721.989	10695.59
722.331	10655.37
722.674	10681.13
723.016	10731.75
723.359	10625.77
723.701	10691.98
724.044	10580.57
724.386	10572.43
724.729	10634.35
725.071	10591.42
725.413	10643.62
725.755	10582.15
726.097	10595.71
726.439	10486.56
726.782	10563.39
727.124	10590.96
727.465	10551.64
727.807	10574.24
728.149	10498.31
728.491	10538.54
728.833	10487.24
729.175	10497.63
729.516	10496.05
729.858	10495.6
730.199	10476.84
730.541	10413.79
730.882	10502.61
731.224	10469.39
731.565	10477.3
731.906	10404.3
732.248	10475.94
732.589	10390.74
732.93	10326.79
733.271	10422.61
733.612	10427.58
733.953	10463.74
734.294	10406.34
734.635	10370.63
734.976	10406.11
735.317	10358.2
735.658	10405.66
735.999	10383.06
736.339	10399.11
736.68	10443.4
737.021	10393
737.361	10357.98
737.702	10470.29
738.042	10504.19
738.383	10421.7
738.723	10464.64
739.063	10400.01
739.404	10423.51
739.744	10440.69
740.084	10404.08
740.424	10413.12
740.764	10425.09
741.104	10490.85
741.444	10538.99
741.784	10559.33
742.124	10611.75
742.464	10582.15
742.804	10597.97
743.143	10619.66
743.483	10672.32
743.823	10561.36
744.162	10623.73
744.502	10741.02
744.841	10687.69
745.181	10798.64
745.52	10756.84
745.86	10838.19
746.199	10926.55
746.538	10888.13
746.877	10999.99
747.216	11034.34
747.556	11085.41
747.895	11057.39
748.234	11208.58
748.573	11190.27
748.911	11300.78
749.25	11475.91
749.589	11423.26
749.928	11501.9
750.267	11630.26
750.605	11615.34
750.944	11719.75
751.283	11786.41
751.621	11907.54
751.96	11918.39
752.298	12066.41
752.636	12170.13
752.975	12214.88
753.313	12363.57
753.651	12439.5
753.989	12579.39
754.327	12716.56
754.666	12772.38
755.004	13056.66
755.342	13135.08
755.679	13222.53
756.017	13296.43
756.355	13553.37
756.693	13618
757.031	13820.03
757.368	13906.58
757.706	14052.34
758.044	14172.34
758.381	14397.87
758.719	14514.7
759.056	14717.18
759.394	14895.71
759.731	15062.94
760.068	15176.61
760.405	15316.26
760.743	15434
761.08	15694.11
761.417	15793.77
761.754	15949.02
762.091	16135.45
762.428	16347.65
762.765	16424.94
763.102	16719.62
763.438	16731.59
763.775	16838.26
764.112	17214.97
764.449	17347.62
764.785	17430.33
765.122	17537.22
765.458	17590.78
765.795	17828.74
766.131	18032.58
766.467	18167.04
766.804	18208.17
767.14	18382.85
767.476	18511.89
767.812	18613.13
768.148	18853.35
768.485	18864.19
768.821	19007.69
769.157	19152.32
769.492	19340.34
769.828	19449.26
770.164	19367.68
770.5	19545.08
770.836	19614.68
771.171	19709.59
771.507	19808.35
771.842	19840.44
772.178	19975.58
772.513	20146.42
772.849	20125.18
773.184	20239.75
773.519	20373.31
773.855	20241.33
774.19	20298.05
774.525	20464.15
774.86	20522
775.195	20502.12
775.53	20619.18
775.865	20663.24
776.2	20551.38
776.535	20406.07
776.87	20644.26
777.205	20610.14
777.539	20613.98
777.874	20744.37
778.209	20674.77
778.543	20726.97
778.878	20679.06
779.212	20670.02
779.547	20752.28
779.881	20839.73
780.215	20760.64
780.55	20818.72
780.884	20719.96
781.218	20842.45
781.552	20775.56
781.886	20771.49
782.22	20808.55
782.554	20729.68
782.888	20634.09
783.222	20571.94
783.556	20626.86
783.889	20560.19
784.223	20508.9
784.557	20599.74
784.89	20569.46
785.224	20512.74
785.557	20428.9
785.891	20367.43
786.224	20356.36
786.558	20456.24
786.891	20336.24
787.224	20226.19
787.557	20302.12
787.891	20303.25
788.224	20304.16
788.557	20224.61
788.89	20256.47
789.223	20253.54
789.556	20159.98
789.888	20071.17
790.221	20051.96
790.554	19883.15
790.887	19908.01
791.219	19956.37
791.552	19941
791.884	19784.4
792.217	19831.17
792.549	19718.18
792.882	19724.74
793.214	19675.92
793.546	19662.82
793.879	19532.42
794.211	19465.31
794.543	19614
794.875	19466.21
795.207	19582.82
795.539	19437.06
795.871	19484.06
796.203	19336.72
796.535	19200.46
796.867	19184.64
797.198	19136.28
797.53	19102.83
797.862	19010.4
798.193	19167.91
798.525	18944.42
798.856	18903.51
799.188	18867.58
799.519	18696.51
799.85	18709.17
800.182	18635.95
800.513	18733.8
800.844	18575.61
801.175	18607.7
801.506	18616.06
801.837	18541.94
802.168	18472.57
802.499	18429.85
802.83	18341.5
803.161	18320.7
803.491	18305.34
803.822	18341.04
804.153	18200.48
804.483	18148.51
804.814	17983.76
805.145	18082.97
805.475	18055.63
805.805	17868.74
806.136	17960.49
806.466	17884.11
806.796	17880.49
807.126	17791.23
807.457	17852.47
807.787	17745.35
808.117	17651.8
808.447	17668.97
808.777	17623.32
809.107	17525.25
809.436	17477.11
809.766	17407.51
810.096	17409.99
810.426	17414.74
810.755	17406.38
811.085	17322.09
811.414	17288.64
811.744	17242.99
812.073	17199.38
812.403	17247.51
812.732	17038.93
813.061	17108.99
813.39	16996.67
813.719	16936.79
814.049	17083.45
814.378	17053.85
814.707	16993.06
815.036	16971.36
815.365	16737.92
815.693	16761.2
816.022	16785.15
816.351	16635.55
816.68	16671.93
817.008	16678.71
817.337	16574.08
817.665	16494.54
817.994	16597.81
818.322	16522.33
818.651	16466.06
818.979	16467.19
819.307	16513.29
819.636	16394.65
819.964	16323.47
820.292	16411.38
820.62	16375.22
820.948	16263.58
821.276	16323.02
821.604	16183.36
821.932	16310.36
822.259	16294.77
822.587	16316.01
822.915	16290.7
823.243	16236.01
823.57	16181.1
823.898	16207.31
824.225	16178.84
824.553	16174.55
824.88	16234.88
825.207	16308.33
825.535	16265.17
825.862	16320.98
826.189	16212.96
826.516	16286.18
826.843	16330.02
827.17	16255
827.497	16390.36
827.824	16376.58
828.151	16281.89
828.478	16310.36
828.805	16407.99
829.131	16250.7
829.458	16308.55
829.785	16207.31
830.111	16371.83
830.438	16307.42
830.764	16338.38
831.09	16316.24
831.417	16244.38
831.743	16200.53
832.069	16278.05
832.395	16245.73
832.722	16280.98
833.048	16241.21
833.374	16284.37
833.7	16095.23
834.026	16247.76
834.351	16185.85
834.677	16136.81
835.003	16104.04
835.329	16121.89
835.654	16127.54
835.98	16032.4
836.306	16065.62
836.631	15916.02
836.956	16034.89
837.282	16041.22
837.607	15928.45
837.932	15968.45
838.258	15931.39
838.583	15904.5
838.908	15711.73
839.233	15835.8
839.558	15797.61
839.883	15781.79
840.208	15724.16
840.533	15717.84
840.858	15702.69
841.182	15724.61
841.507	15728
841.832	15580.21
842.156	15534.56
842.481	15539.76
842.805	15496.82
843.13	15456.15
843.454	15470.61
843.778	15446.88
844.103	15391.52
844.427	15236.27
844.751	15294.8
845.075	15288.69
845.399	15300.9
845.723	15128.25
846.047	15169.83
846.371	15062.49
846.695	15054.8
847.019	14926.67
847.343	14853
847.666	14724.87
847.99	14770.29
848.313	14720.12
848.637	14567.58
848.96	14622.5
849.284	14577.98
849.607	14467.7
849.931	14401.71
850.254	14347.93
850.577	14237.42
850.9	14192
851.223	14119.91
851.546	14074.94
851.869	13960.14
852.192	14022.51
852.515	13855.51
852.838	13880.14
853.161	13888.5
853.483	13801.95
853.806	13693.93
854.129	13780.49
854.451	13632.01
854.774	13579.81
855.096	13530.1
855.419	13505.24
855.741	13509.76
856.063	13344.79
856.385	13367.61
856.708	13346.15
857.03	13308.86
857.352	13401.74
857.674	13234.28
857.996	13180.27
858.318	13126.27
858.64	13147.06
858.961	13135.08
859.283	13048.98
859.605	13010.11
859.926	13032.03
860.248	12918.36
860.57	13036.78
860.891	12930.79
861.212	12873.39
861.534	12863.45
861.855	12785.48
862.176	12805.6
862.498	12754.3
862.819	12717.01
863.14	12707.07
863.461	12668.42
863.782	12645.15
864.103	12616
864.424	12559.5
864.745	12610.12
865.065	12570.35
865.386	12476.34
865.707	12465.27
866.027	12456.68
866.348	12445.38
866.668	12402.44
866.989	12406.96
867.309	12369
867.63	12436.79
867.95	12404.25
868.27	12236.8
868.59	12325.38
868.91	12206.06
869.23	12310.24
869.55	12181.66
869.87	12343.46
870.19	12270.02
870.51	12248.77
870.83	12282.22
871.15	12169.91
871.469	12182.79
871.789	12154.54
872.109	12179.62
872.428	12079.74
872.748	12076.35
873.067	12046.07
873.386	12033.41
873.706	12011.94
874.025	11948.22
874.344	11824.83
874.663	11978.5
874.982	11923.81
875.301	11900.08
875.62	11844.49
875.939	11843.59
876.258	11865.73
876.577	11822.12
876.896	11750.71
877.214	11719.52
877.533	11756.36
877.852	11674.1
878.17	11713.42
878.489	11742.57
878.807	11702.12
879.125	11696.7
879.444	11586.64
879.762	11607.43
880.08	11680.88
880.398	11466.2
880.716	11584.61
881.034	11500.55
881.352	11547.1
881.67	11431.17
881.988	11479.08
882.306	11373.54
882.624	11376.25
882.941	11372.64
883.259	11319.53
883.577	11275.01
883.894	11309.36
884.212	11230.27
884.529	11249.25
884.846	11262.36
885.164	11259.65
885.481	11190.5
885.798	11190.72
886.115	11082.7
886.432	11034.34
886.75	11063.04
887.067	11103.49
887.383	10959.99
887.7	11018.75
888.017	10916.83
888.334	10983.72
888.651	10862.37
888.967	10823.5
889.284	10809.72
889.6	10804.52
889.917	10703.73
890.233	10710.51
890.55	10698.53
890.866	10709.38
891.182	10640.45
891.498	10614.47
891.815	10580.12
892.131	10567.91
892.447	10503.74
892.763	10565.43
893.079	10444.75
893.395	10426.67
893.71	10450.18
894.026	10344.64
894.342	10365.21
894.657	10276.4
894.973	10155.27
895.289	10216.96
895.604	10242.05
895.92	10155.5
896.235	10060.81
896.55	10141.26
896.865	10101.94
897.181	10064.65
897.496	10066.91
897.811	10007.7
898.126	9947.82
898.441	9921.15
898.756	9874.6
899.071	9879.34
899.386	9847.48
899.7	9742.85
900.015	9686.81
900.33	9571.1
900.644	9639.58
900.959	9638.45
901.273	9594.83
901.588	9561.16
901.902	9566.81
902.216	9457.43
902.531	9427.15
902.845	9426.02
903.159	9385.35
903.473	9373.82
903.787	9293.6
904.101	9259.25
904.415	9167.5
904.729	9134.51
905.042	9114.62
905.356	9123.66
905.67	9075.75
905.984	9163.43
906.297	8994.62
906.611	9012.47
906.924	8985.58
907.237	8982.19
907.551	8866.94
907.864	8831.01
908.177	8855.19
908.491	8739.04
908.804	8749.43
909.117	8779.03
909.43	8674.86
909.743	8637.34
910.056	8617.01
910.368	8538.59
910.681	8466.27
910.994	8468.08
911.307	8457.46
911.619	8432.83
911.932	8407.52
912.244	8403.9
912.557	8286.39
912.869	8266.05
913.181	8253.62
913.494	8205.94
913.806	8212.5
914.118	8129.33
914.43	8069
914.742	8075.32
915.054	8050.92
915.366	8021.09
915.678	7968.43
915.99	7934.09
916.302	7880.53
916.613	7845.27
916.925	7823.35
917.236	7836.46
917.548	7794.88
917.859	7819.29
918.171	7747.42
918.482	7683.47
918.794	7638.27
919.105	7670.59
919.416	7564.6
919.727	7529.8
920.038	7515.57
920.349	7447.09
920.66	7490.26
920.971	7508.11
921.282	7414.1
921.593	7424.72
921.903	7290.03
922.214	7305.18
922.525	7309.92
922.835	7238.51
923.146	7202.13
923.456	7213.2
923.767	7134.33
924.077	7171.17
924.387	7126.87
924.697	7113.09
925.008	7028.12
925.318	7035.13
925.628	6985.86
925.938	7014.56
926.248	6925.07
926.558	6889.37
926.867	6874
927.177	6788.13
927.487	6823.61
927.796	6793.32
928.106	6741.57
928.416	6737.96
928.725	6668.58
929.034	6641.69
929.344	6653.89
929.653	6700.45
929.962	6583.84
930.271	6529.15
930.581	6537.96
930.89	6486.44
931.199	6462.26
931.508	6453.67
931.817	6489.15
932.125	6380.45
932.434	6415.48
932.743	6323.51
933.051	6255.94
933.36	6252.32
933.669	6241.7
933.977	6180.68
934.286	6223.4
934.594	6222.94
934.902	6142.27
935.21	6141.59
935.519	6186.11
935.827	6081.7
936.135	6054.13
936.443	6025.89
936.751	5974.14
937.059	5927.13
937.367	5940.01
937.674	5907.02
937.982	5938.43
938.29	5903.86
938.597	5841.26
938.905	5782.96
939.213	5778.21
939.52	5759.23
939.827	5784.99
940.135	5725.1
940.442	5669.51
940.749	5666.12
941.056	5730.98
941.363	5615.05
941.67	5566.92
941.977	5611.21
942.284	5497.99
942.591	5463.42
942.898	5493.47
943.205	5495.28
943.511	5449.86
943.818	5457.99
944.125	5381.16
944.431	5385.9
944.738	5334.15
945.044	5358.11
945.35	5328.5
945.657	5306.13
945.963	5205.34
946.269	5221.39
946.575	5186.13
946.881	5210.99
947.187	5151.33
947.493	5156.98
947.799	5125.8
948.105	5149.53
948.41	5131
948.716	5113.14
949.022	5039.47
949.327	5007.83
949.633	5008.51
949.938	5043.54
950.244	4995.63
950.549	4962.41
950.854	4904.56
951.16	4942.07
951.465	4903.43
951.77	4851.45
952.075	4806.71
952.38	4812.59
952.685	4827.5
952.99	4777.78
953.294	4764
953.599	4692.59
953.904	4680.16
954.209	4665.02
954.513	4675.41
954.818	4644
955.122	4613.49
955.426	4619.14
955.731	4643.32
956.035	4602.65
956.339	4569.2
956.643	4603.78
956.948	4512.03
957.252	4491.69
957.556	4460.73
957.86	4425.48
958.163	4462.54
958.467	4400.17
958.771	4401.97
959.075	4435.65
959.378	4353.39
959.682	4394.97
959.985	4308.42
960.289	4333.28
960.592	4295.99
960.896	4244.92
961.199	4255.31
961.502	4224.13
961.805	4196.56
962.108	4173.73
962.411	4175.54
962.714	4146.84
963.017	4132.6
963.32	4137.12
963.623	4103.23
963.926	4075.2
964.228	4060.74
964.531	4044.02
964.833	4044.02
965.136	4002.21
965.438	3994.08
965.741	3994.3
966.043	3979.84
966.345	3945.49
966.648	3937.81
966.95	3930.12
967.252	3905.49
967.554	3880.41
967.856	3848.32
968.158	3857.13
968.46	3824.59
968.761	3828.43
969.063	3782.78
969.365	3782.1
969.666	3741.88
969.968	3698.49
970.269	3723.57
970.571	3728.32
970.872	3731.03
971.174	3674.99
971.475	3669.56
971.776	3644.48
972.077	3610.58
972.378	3607.19
972.679	3630.47
972.98	3603.35
973.281	3576.46
973.582	3531.72
973.883	3523.81
974.183	3524.03
974.484	3524.03
974.785	3467.08
975.085	3474.54
975.386	3486.97
975.686	3433.41
975.986	3417.82
976.287	3418.95
976.587	3406.75
976.887	3388.67
977.187	3351.83
977.487	3339.63
977.787	3336.24
978.087	3342.34
978.387	3256.69
978.687	3307.31
978.987	3322.91
979.286	3252.4
979.586	3289.91
979.885	3222.12
980.185	3230.03
980.484	3175.57
980.784	3217.6
981.083	3171.05
981.382	3176.24
981.682	3146.41
981.981	3099.64
982.28	3084.04
982.579	3103.48
982.878	3079.98
983.177	3071.16
983.475	3032.07
983.774	3079.07
984.073	3036.13
984.372	2996.59
984.67	2975.8
984.969	3002.69
985.267	2983.48
985.566	2959.98
985.864	2947.1
986.162	2909.58
986.461	2908.91
986.759	2898.29
987.057	2874.56
987.355	2843.82
987.653	2881.11
987.951	2847.21
988.249	2862.13
988.547	2826.2
988.844	2842.02
989.142	2793.2
989.44	2748.23
989.737	2797.5
990.035	2779.19
990.332	2764.28
990.63	2779.87
990.927	2751.85
991.224	2717.5
991.521	2720.44
991.819	2713.66
992.116	2699.19
992.413	2665.3
992.71	2639.31
993.006	2621.91
993.303	2616.03
993.6	2621.23
993.897	2585.75
994.193	2603.83
994.49	2593.21
994.787	2585.07
995.083	2575.58
995.379	2564.28
995.676	2521.35
995.972	2535.36
996.268	2497.84
996.565	2486.32
996.861	2482.03
997.157	2463.27
997.453	2492.42
997.749	2471.63
998.044	2397.06
998.34	2415.59
998.636	2381.24
998.932	2383.27
999.227	2379.88
999.523	2389.15
999.818	2347.11
1000.114	2341.69
1000.409	2305.98
1000.704	2304.63
1001	2308.24
1001.295	2270.96
1001.59	2265.08
1001.885	2291.97
1002.18	2244.07
1002.475	2233.67
1002.77	2261.69
1003.065	2219.43
1003.359	2243.16
1003.654	2173.33
1003.949	2166.55
1004.243	2177.63
1004.538	2175.59
1004.832	2163.62
1005.127	2156.38
1005.421	2122.71
1005.715	2085.88
1006.009	2072.09
1006.304	2070.96
1006.598	2076.16
1006.892	2066.89
1007.186	2038.87
1007.48	2063.28
1007.773	2029.61
1008.067	2007.46
1008.361	1990.06
1008.655	1987.57
1008.948	1972.66
1009.242	1973.79
1009.535	1955.94
1009.829	1953
1010.122	1922.04
1010.415	1936.28
1010.708	1895.6
1011.001	1902.83
1011.295	1898.99
1011.588	1877.97
1011.881	1868.48
1012.173	1838.2
1012.466	1838.43
1012.759	1845.21
1013.052	1803.17
1013.344	1804.98
1013.637	1808.82
1013.93	1766.56
1014.222	1770.63
1014.514	1762.95
1014.807	1722.5
1015.099	1727.47
1015.391	1769.5
1015.683	1757.75
1015.976	1709.39
1016.268	1709.16
1016.56	1684.76
1016.851	1674.81
1017.143	1696.28
1017.435	1667.58
1017.727	1649.5
1018.018	1651.09
1018.31	1642.95
1018.602	1607.02
1018.893	1596.62
1019.185	1630.07
1019.476	1606.12
1019.767	1569.73
1020.058	1548.26
1020.35	1548.04
1020.641	1519.56
1020.932	1535.16
1021.223	1512.11
1021.514	1524.76
1021.804	1517.53
1022.095	1505.55
1022.386	1481.15
1022.677	1483.63
1022.967	1475.5
1023.258	1440.24
1023.548	1447.93
1023.839	1429.62
1024.129	1421.49
1024.419	1416.97
1024.709	1411.77
1025	1423.3
1025.29	1393.24
1025.58	1378.33
1025.87	1392.11
1026.16	1377.87
1026.449	1367.7
1026.739	1342.62
1027.029	1342.85
1027.319	1319.34
1027.608	1295.16
1027.898	1319.57
1028.187	1289.51
1028.477	1272.11
1028.766	1283.41
1029.055	1275.5
1029.344	1275.73
1029.634	1243.64
1029.923	1251.55
1030.212	1251.77
1030.501	1243.64
1030.79	1235.05
1031.078	1239.57
1031.367	1200.48
1031.656	1196.18
1031.945	1196.41
1032.233	1155.28
1032.522	1182.85
1032.81	1186.24
1033.099	1172.23
1033.387	1147.37
1033.675	1165.68
1033.963	1133.13
1034.251	1127.48
1034.54	1116.86
1034.828	1112.34
1035.116	1113.25
1035.403	1082.51
1035.691	1110.54
1035.979	1091.55
1036.267	1082.06
1036.554	1101.04
1036.842	1074.38
1037.129	1054.27
1037.417	1064.44
1037.704	1055.17
1037.992	1016.07
1038.279	1048.39
1038.566	1035.51
1038.853	1035.51
1039.14	1035.51
