Data from hue_00_FLMS001491_76.txt Node
Date: Mon Feb 06 15:30:12 GMT 2017
User: dcchb
Spectrometer: FLMS00149
Trigger mode: 0
Integration Time (sec): 2.000000E-2
Scans to average: 10
Electric dark correction enabled: true
Nonlinearity correction enabled: false
Boxcar width: 0
XAxis mode: Wavelengths
Number of Pixels in Spectrum: 2048
>>>>>Begin Spectral Data<<<<<
341.393	0.72
341.776	0.72
342.16	0.72
342.543	-43.35
342.927	-57.13
343.31	-67.53
343.693	-82.67
344.077	-82.22
344.46	-51.93
344.843	-58.94
345.226	-39.5
345.61	-19.17
345.993	-17.58
346.376	-6.51
346.759	0.27
347.142	45.01
347.525	42.53
347.908	75.52
348.291	93.6
348.674	71.45
349.057	97.67
349.44	114.16
349.823	139.02
350.206	181.96
350.588	196.65
350.971	207.27
351.354	216.99
351.737	247.27
352.119	240.94
352.502	258.79
352.884	282.29
353.267	268.28
353.65	293.59
354.032	304.44
354.414	301.28
354.797	303.31
355.179	332.69
355.562	318.45
355.944	318.9
356.326	335.17
356.709	320.26
357.091	333.14
357.473	343.08
357.855	324.33
358.238	336.53
358.62	324.78
359.002	334.27
359.384	341.28
359.766	340.6
360.148	327.72
360.53	314.84
360.912	326.59
361.294	324.33
361.676	310.32
362.057	330.88
362.439	361.61
362.821	314.16
363.203	319.81
363.584	347.38
363.966	317.32
364.348	310.32
364.729	324.33
365.111	312.35
365.493	311.22
365.874	316.19
366.256	321.84
366.637	329.75
367.019	311.22
367.4	292.92
367.781	310.32
368.163	326.81
368.544	302.18
368.925	297.21
369.306	326.81
369.688	317.1
370.069	292.92
370.45	293.59
370.831	303.09
371.212	306.7
371.593	310.32
371.974	312.58
372.355	285.68
372.736	296.98
373.117	322.29
373.498	305.57
373.879	295.63
374.26	311.45
374.641	293.37
375.021	300.6
375.402	308.73
375.783	314.61
376.163	324.1
376.544	308.96
376.925	315.74
377.305	315.06
377.686	322.75
378.066	314.61
378.447	312.12
378.827	324.33
379.208	317.32
379.588	297.66
379.968	335.85
380.349	326.81
380.729	335.63
381.109	327.04
381.489	327.94
381.87	328.17
382.25	316.42
382.63	317.77
383.01	345.8
383.39	328.62
383.77	324.1
384.15	355.74
384.53	334.5
384.91	328.85
385.29	334.27
385.67	345.34
386.049	342.86
386.429	324.78
386.809	331.11
387.189	345.57
387.568	338.11
387.948	333.14
388.328	342.41
388.707	341.28
389.087	332.69
389.466	333.82
389.846	352.8
390.225	367.26
390.605	326.14
390.984	361.39
391.363	339.92
391.743	353.93
392.122	352.58
392.501	326.36
392.881	355.74
393.26	346.02
393.639	365.91
394.018	376.53
394.397	370.2
394.776	359.81
395.155	346.02
395.534	344.44
395.913	360.03
396.292	361.84
396.671	355.74
397.05	365.68
397.429	361.16
397.808	367.04
398.186	367.72
398.565	367.26
398.944	380.15
399.323	382.86
399.701	361.84
400.08	380.82
400.458	357.32
400.837	355.29
401.215	373.82
401.594	376.3
401.972	358.68
402.351	385.12
402.729	377.66
403.107	360.03
403.486	398.45
403.864	404.1
404.242	383.54
404.62	372.46
404.999	403.2
405.377	391.67
405.755	396.64
406.133	409.07
406.511	400.71
406.889	395.29
407.267	396.87
407.645	413.36
408.023	416.3
408.401	399.35
408.779	382.63
409.156	418.34
409.534	426.47
409.912	408.62
410.29	408.85
410.667	422.63
411.045	418.56
411.422	415.85
411.8	433.7
412.178	416.08
412.555	442.52
412.933	433.25
413.31	437.09
413.687	466.02
414.065	440.03
414.442	421.73
414.819	443.87
415.197	442.52
415.574	442.52
415.951	452.01
416.328	467.15
416.705	473.93
417.082	455.17
417.46	453.59
417.837	440.26
418.214	476.64
418.591	478.67
418.967	464.44
419.344	474.15
419.721	477.09
420.098	473.02
420.475	478
420.852	463.76
421.228	481.39
421.605	504.21
421.982	483.19
422.358	520.71
422.735	493.14
423.111	502.18
423.488	516.86
423.864	523.42
424.241	490.88
424.617	520.03
424.994	501.5
425.37	514.83
425.746	541.5
426.123	509.18
426.499	525.9
426.875	524.1
427.251	531.33
427.627	550.76
428.003	543.98
428.379	541.05
428.756	549.86
429.132	563.42
429.507	558.9
429.883	554.15
430.259	562.74
430.635	558.22
431.011	562.06
431.387	592.57
431.763	593.7
432.138	573.59
432.514	614.26
432.89	587.6
433.265	618.56
433.641	606.58
434.016	598.22
434.392	615.17
434.767	620.37
435.143	622.17
435.518	607.48
435.894	642.74
436.269	645.45
436.644	640.25
437.02	635.96
437.395	633.25
437.77	658.78
438.145	669.18
438.52	645.22
438.895	646.13
439.271	657.43
439.646	664.43
440.021	679.12
440.395	666.01
440.77	669.4
441.145	681.83
441.52	703.53
441.895	693.36
442.27	697.2
442.645	681.83
443.019	684.09
443.394	683.87
443.769	722.28
444.143	699.01
444.518	710.31
444.892	713.02
445.267	704.2
445.641	706.92
446.016	729.51
446.39	695.39
446.764	727.48
447.139	725
447.513	727.71
447.887	737.88
448.262	730.87
448.636	764.77
449.01	744.88
449.384	761.15
449.758	770.19
450.132	752.56
450.506	754.37
450.88	757.54
451.254	763.64
451.628	763.64
452.002	759.12
452.376	773.81
452.75	777.2
453.123	797.99
453.497	814.71
453.871	803.86
454.244	802.96
454.618	795.73
454.992	819.23
455.365	846.12
455.739	812.45
456.112	822.62
456.486	820.36
456.859	833.92
457.232	863.07
457.606	847.03
457.979	861.49
458.352	885.44
458.725	880.02
459.099	875.95
459.472	903.3
459.845	892.9
460.218	908.27
460.591	939.45
460.964	940.58
461.337	941.49
461.71	946.68
462.083	972.22
462.456	963.63
462.829	969.06
463.201	961.82
463.574	976.51
463.947	982.62
464.32	1002.73
464.692	1017.42
465.065	1003.18
465.438	1021.71
465.81	1049.96
466.183	1059
466.555	1059.68
466.928	1057.64
467.3	1080.24
467.672	1098.54
468.045	1127.92
468.417	1110.75
468.789	1134.48
469.161	1137.41
469.534	1160.01
469.906	1154.36
470.278	1178.32
470.65	1166.11
471.022	1224.19
471.394	1219.9
471.766	1236.39
472.138	1253.79
472.51	1284.3
472.882	1279.78
473.253	1263.96
473.625	1360.01
473.997	1334.7
474.369	1357.97
474.74	1346
475.112	1393
475.484	1428.25
475.855	1452.66
476.227	1461.02
476.598	1521.13
476.97	1499.89
477.341	1527.69
477.713	1571.53
478.084	1553.9
478.455	1630.06
478.827	1614.24
479.198	1661.69
479.569	1680.9
479.94	1712.31
480.311	1746.66
480.682	1768.81
481.053	1805.19
481.424	1840.22
481.795	1845.19
482.166	1895.36
482.537	1922.25
482.908	1974.68
483.279	1989.14
483.65	2025.98
484.021	2082.7
484.391	2072.98
484.762	2105.98
485.133	2117.73
485.503	2168.35
485.874	2225.75
486.244	2233.88
486.615	2277.72
486.985	2325.63
487.356	2357.27
487.726	2392.97
488.097	2495.8
488.467	2450.6
488.837	2500.99
489.207	2525.85
489.578	2565.4
489.948	2616.02
490.318	2625.28
490.688	2669.12
491.058	2705.28
491.428	2721.1
491.798	2775.34
492.168	2814.43
492.538	2832.28
492.908	2865.05
493.278	2909.57
493.648	2913.41
494.017	2977.14
494.387	3003.81
494.757	3034.09
495.126	3055.78
495.496	3041.77
495.866	3105.5
496.235	3126.06
496.605	3126.51
496.974	3166.96
497.344	3236.79
497.713	3247.41
498.082	3245.83
498.452	3276.34
498.821	3287.41
499.19	3322.67
499.559	3332.38
499.928	3373.51
500.298	3385.49
500.667	3420.97
501.036	3404.47
501.405	3426.62
501.774	3465.04
502.143	3481.08
502.512	3494.41
502.88	3567.41
503.249	3557.91
503.618	3552.49
503.987	3614.41
504.356	3602.43
504.724	3642.66
505.093	3644.24
505.462	3617.12
505.83	3663.45
506.199	3676.56
506.567	3749.77
506.936	3717.23
507.304	3740.51
507.672	3750.45
508.041	3804.01
508.409	3792.03
508.777	3822.77
509.145	3861.86
509.514	3825.93
509.882	3874.97
510.25	3891.69
510.618	3926.27
510.986	3936.44
511.354	3955.64
511.722	4002.42
512.09	3972.82
512.458	3997.9
512.826	4022.31
513.193	3998.58
513.561	4043.55
513.929	4034.74
514.297	4072.93
514.664	4126.26
515.032	4072.7
515.4	4121.74
515.767	4111.35
516.135	4171.68
516.502	4111.12
516.869	4182.08
517.237	4187.05
517.604	4163.1
517.972	4221.63
518.339	4234.06
518.706	4219.59
519.073	4227.28
519.44	4241.96
519.808	4263.66
520.175	4298.01
520.542	4307.05
520.909	4297.33
521.276	4307.73
521.643	4334.84
522.009	4359.48
522.376	4419.59
522.743	4411.23
523.11	4429.3
523.477	4440.6
523.843	4448.29
524.21	4436.08
524.577	4542.52
524.943	4521.28
525.31	4525.12
525.676	4578.45
526.043	4631.56
526.409	4594.27
526.776	4679.69
527.142	4664.55
527.508	4691.67
527.874	4730.99
528.241	4740.03
528.607	4742.52
528.973	4776.64
529.339	4780.26
529.705	4809.63
530.071	4836.3
530.437	4892.34
530.803	4867.71
531.169	4900.03
531.535	4910.42
531.901	4903.87
532.267	4930.08
532.632	4947.48
532.998	5032.45
533.364	5020.02
533.73	5053.69
534.095	5034.94
534.461	5079.23
534.826	5138.89
535.192	5096.86
535.557	5167.14
535.923	5129.17
536.288	5158.78
536.653	5187.02
537.019	5231.09
537.384	5208.04
537.749	5212.79
538.114	5222.5
538.479	5317.42
538.845	5309.96
539.21	5354.48
539.575	5343.18
539.94	5363.97
540.305	5417.08
540.67	5383.4
541.034	5408.49
541.399	5395.15
541.764	5461.59
542.129	5500.24
542.494	5473.34
542.858	5509.73
543.223	5528.03
543.587	5587.92
543.952	5554.92
544.316	5583.62
544.681	5645.09
545.045	5648.03
545.41	5637.41
545.774	5683.06
546.138	5750.85
546.503	5744.52
546.867	5740.91
547.231	5830.85
547.595	5783.39
547.959	5841.02
548.324	5867.23
548.688	5852.54
549.052	5841.02
549.416	5936.84
549.779	5914.46
550.143	5983.16
550.507	5983.16
550.871	5977.96
551.235	5969.83
551.599	6013.22
551.962	6013.9
552.326	6020.22
552.689	6065.65
553.053	6032.43
553.417	6085.76
553.78	6196.04
554.143	6099.54
554.507	6168.02
554.87	6176.6
555.234	6205.53
555.597	6189.26
555.96	6214.34
556.323	6269.93
556.686	6282.36
557.05	6276.49
557.413	6306.32
557.776	6328.92
558.139	6369.37
558.502	6398.29
558.865	6345.86
559.228	6437.16
559.59	6443.04
559.953	6438.07
560.316	6490.04
560.679	6531.85
561.041	6539.98
561.404	6576.59
561.767	6629.7
562.129	6526.65
562.492	6645.74
562.854	6615.91
563.217	6640.55
563.579	6619.98
563.941	6696.59
564.304	6687.1
564.666	6779.98
565.028	6722.35
565.39	6786.08
565.753	6790.37
566.115	6837.15
566.477	6796.47
566.839	6857.94
567.201	6958.96
567.563	6923.25
567.925	6953.08
568.287	6963.93
568.648	7006.64
569.01	7022.46
569.372	7095.68
569.734	7084.83
570.095	7136.35
570.457	7198.95
570.819	7157.14
571.18	7122.11
571.542	7270.81
571.903	7244.82
572.265	7293.41
572.626	7353.97
572.987	7342.22
573.349	7421.77
573.71	7459.73
574.071	7533.4
574.432	7577.7
574.794	7692.27
575.155	7726.17
575.516	7640.75
575.877	7753.28
576.238	7777.46
576.599	7920.51
576.96	8006.84
577.32	8041.64
577.681	8101.07
578.042	8159.83
578.403	8243.22
578.763	8301.29
579.124	8411.35
579.485	8473.94
579.845	8645.69
580.206	8668.29
580.566	8768.63
580.927	8903.09
581.287	9023.08
581.648	9124.77
582.008	9326.35
582.368	9371.1
582.728	9472.56
583.089	9628.04
583.449	9793.91
583.809	9893.12
584.169	10099.44
584.529	10214.92
584.889	10543.95
585.249	10568.58
585.609	10719.99
585.969	10961.79
586.329	11108.9
586.688	11284.27
587.048	11537.59
587.408	11790.69
587.768	11968.99
588.127	12137.8
588.487	12432.71
588.846	12737.11
589.206	12795.64
589.565	13043.32
589.925	13337.77
590.284	13596.07
590.643	13792
591.003	14164.87
591.362	14381.81
591.721	14684.18
592.08	14935.69
592.44	15225.63
592.799	15426.53
593.158	15672.85
593.517	15966.85
593.876	16266.96
594.235	16454.07
594.593	16876.21
594.952	17087.95
595.311	17282.53
595.67	17793.47
596.029	18061.04
596.387	18321.14
596.746	18721.58
597.104	18859.89
597.463	19064.85
597.822	19378.52
598.18	19699.41
598.538	19949.57
598.897	20343.01
599.255	20399.73
599.613	20975.31
599.972	21112.48
600.33	21383.89
600.688	21664.78
601.046	21893.25
601.404	22383.18
601.762	22529.85
602.12	22852.55
602.478	23104.97
602.836	23420.67
603.194	23561.46
603.552	23808.46
603.91	24149.46
604.268	24387.2
604.625	24572.28
604.983	24947.41
605.341	24947.86
605.698	25438.24
606.056	25615.41
606.413	25822.41
606.771	26229.86
607.128	26513.02
607.485	26453.81
607.843	26688.38
608.2	27074.81
608.557	27432.77
608.914	27392.09
609.272	27849.71
609.629	27972.64
609.986	28257.15
610.343	28339.64
610.7	28773.52
611.057	28820.75
611.414	28901.66
611.771	29194.08
612.127	29501.19
612.484	29738.02
612.841	29797.45
613.198	29915.87
613.554	30096.88
613.911	30413.25
614.267	30591.78
614.624	30579.8
614.98	30788.84
615.337	31200.13
615.693	31127.59
616.05	31287.81
616.406	31600.12
616.762	31628.59
617.118	31683.96
617.475	31862.03
617.831	32177.28
618.187	32302.47
618.543	32440.77
618.899	32724.61
619.255	32783.14
619.611	32825.17
619.967	33005.5
620.323	33125.73
620.678	33120.08
621.034	33177.7
621.39	33206.4
621.746	33327.75
622.101	33794.18
622.457	33571.36
622.812	33680.51
623.168	33848.64
623.523	33903.78
623.879	34098.58
624.234	33921.86
624.589	34170.22
624.945	34369.99
625.3	34317.11
625.655	34535.18
626.01	34489.31
626.365	34644.78
626.72	34683.42
627.075	34666.48
627.43	34705.34
627.785	34714.84
628.14	34836.64
628.495	34999.57
628.85	34827.6
629.205	34852.23
629.559	35207.93
629.914	35064.43
630.269	35213.81
630.623	34983.3
630.978	35068.72
631.332	35212.45
631.687	35410.18
632.041	35144.43
632.396	35320.92
632.75	35226.91
633.104	35402.28
633.459	35179.91
633.813	35283.63
634.167	35289.96
634.521	35245.22
634.875	35319.34
635.229	35397.53
635.583	35335.38
635.937	35177.65
636.291	35341.03
636.645	35317.76
636.999	35371.09
637.352	35386.68
637.706	35151.21
638.06	35289.96
638.413	35322.05
638.767	35284.76
639.121	35354.59
639.474	35204.31
639.828	35203.86
640.181	35324.76
640.534	35365.21
640.888	35261.71
641.241	35113.7
641.594	35254.48
641.947	35357.98
642.301	35273.47
642.654	35223.97
643.007	35137.2
643.36	35196.63
643.713	35156.41
644.066	35337.42
644.419	35148.04
644.771	34796.87
645.124	34592.58
645.477	34543.54
645.83	34421.96
646.182	34240.95
646.535	34116.43
646.888	34180.84
647.24	33966.38
647.593	34118.47
647.945	34058.81
648.298	33939.04
648.65	33900.62
649.002	33906.95
649.355	33945.36
649.707	33983.33
650.059	34085.25
650.411	34471.68
650.763	34502.41
651.115	34948.28
651.467	34832.35
651.819	34713.25
652.171	34693.59
652.523	34637.55
652.875	34617.89
653.227	34579.7
653.578	34822.86
653.93	34730.43
654.282	34487.27
654.633	34362.3
654.985	34618.57
655.337	34607.27
655.688	34701.5
656.039	34684.55
656.391	34399.59
656.742	34419.93
657.094	34398.23
657.445	34591.22
657.796	34433.71
658.147	34374.51
658.498	34508.29
658.849	34501.51
659.2	34400.95
659.551	34316.65
659.902	34506.93
660.253	34442.07
660.604	34376.54
660.955	34239.14
661.306	34493.6
661.656	34232.81
662.007	34397.1
662.358	34434.84
662.708	34338.35
663.059	34366.37
663.409	34195.98
663.76	34447.5
664.11	34269.2
664.461	34311
664.811	34380.38
665.161	34416.31
665.511	34301.29
665.862	34395.3
666.212	34371.79
666.562	34342.64
666.912	34426.03
667.262	34287.05
667.612	34399.14
667.962	34391
668.312	34280.95
668.662	34490.21
669.011	34241.85
669.361	34213.38
669.711	34230.33
670.06	34090.9
670.41	34080.73
670.76	34194.85
671.109	34193.27
671.459	34194.17
671.808	34112.14
672.157	34247.5
672.507	33987.62
672.856	34046.83
673.205	34029.66
673.554	34101.74
673.904	33898.13
674.253	34142.65
674.602	34053.84
674.951	33539.73
675.3	33427.41
675.649	33913.05
675.998	33941.97
676.346	33954.18
676.695	34046.15
677.044	33854.29
677.393	33911.92
677.741	33862.2
678.09	33877.34
678.438	33726.84
678.787	33846.61
679.135	33768.65
679.484	33586.96
679.832	33816.1
680.181	33564.36
680.529	33729.1
680.877	33546.73
681.225	33510.35
681.573	33699.5
681.922	33370.01
682.27	33337.47
682.618	33386.74
682.966	33364.36
683.314	33322.33
683.661	33254.76
684.009	33080.53
684.357	33104.48
684.705	32956.92
685.053	32977.03
685.4	32958.27
685.748	32806.86
686.095	32891.61
686.443	32835.56
686.79	32645.74
687.138	32826.98
687.485	32664.27
687.832	32522.13
688.18	32615.91
688.527	32520.32
688.874	32391.28
689.221	32280.55
689.568	32287.1
689.915	32224.96
690.262	32318.74
690.609	32162.59
690.956	32031.97
691.303	31971.18
691.65	31794.01
691.997	31839.21
692.344	31657.52
692.69	31624.52
693.037	31650.51
693.383	31400.35
693.73	31504.3
694.077	31419.56
694.423	31269.5
694.769	31161.71
695.116	31140.01
695.462	31088.72
695.808	30958.32
696.155	31034.03
696.501	30834.71
696.847	30735.05
697.193	30557.88
697.539	30689.4
697.885	30389.98
698.231	30379.58
698.577	30397.44
698.923	30241.06
699.269	30188.85
699.614	29977.33
699.96	30058.46
700.306	30010.55
700.651	29889.65
700.997	29843.33
701.342	29808.98
701.688	29743.89
702.033	29616.21
702.379	29705.02
702.724	29471.58
703.069	29462.77
703.415	29248.54
703.76	29274.98
704.105	29307.29
704.45	29107.07
704.795	28941.43
705.14	28871.83
705.485	29007.87
705.83	28831.15
706.175	28834.99
706.52	28809.45
706.865	28678.16
707.209	28672.06
707.554	28505.06
707.899	28660.76
708.243	28459.86
708.588	28492.85
708.932	28155.23
709.277	28249.92
709.621	28212.41
709.966	27964.05
710.31	28075.01
710.654	27825.07
710.998	27942.81
711.342	27834.34
711.687	27782.81
712.031	27711.86
712.375	27492.2
712.719	27695.81
713.063	27490.62
713.407	27665.76
713.75	27591.86
714.094	27511.18
714.438	27425.99
714.782	27307.57
715.125	27238.42
715.469	27283.62
715.812	27091.08
716.156	26989.62
716.499	27099.22
716.843	27069.39
717.186	26879.11
717.53	26980.12
717.873	26980.58
718.216	26862.16
718.559	26765.44
718.902	26549.63
719.246	26661.26
719.589	26603.64
719.932	26580.13
720.275	26467.37
720.617	26545.56
720.96	26404.77
721.303	26412
721.646	26346.24
721.989	26182.63
722.331	26353.7
722.674	26120.71
723.016	26242.97
723.359	26192.35
723.701	26206.13
724.044	25900.83
724.386	25931.56
724.729	25977.44
725.071	25867.61
725.413	25928.17
725.755	25862.64
726.097	25753.49
726.439	25696.32
726.782	25617.67
727.124	25737.22
727.465	25677.79
727.807	25553.72
728.149	25659.25
728.491	25455.64
728.833	25500.61
729.175	25369.32
729.516	25410.22
729.858	25348.08
730.199	25319.6
730.541	25243.9
730.882	25339.04
731.224	25194.86
731.565	25175.88
731.906	25087.29
732.248	25178.59
732.589	25001.64
732.93	24955.09
733.271	24877.13
733.612	25037.35
733.953	24971.14
734.294	24894.3
734.635	24859.05
734.976	24919.61
735.317	24758.04
735.658	24792.38
735.999	24765.27
736.339	24580.86
736.68	24754.42
737.021	24598.49
737.361	24531.15
737.702	24619.06
738.042	24533.63
738.383	24520.08
738.723	24555.78
739.063	24382.9
739.404	24469
739.744	24364.6
740.084	24349.46
740.424	24369.35
740.764	24252.06
741.104	24293.64
741.444	24180.88
741.784	24138.16
742.124	24138.84
742.464	24043.25
742.804	23964.38
743.143	23965.29
743.483	24048.45
743.823	23873.31
744.162	23920.32
744.502	23905.4
744.841	23798.29
745.181	23848.68
745.52	23799.42
745.86	23801.68
746.199	23707.44
746.538	23661.12
746.877	23727.78
747.216	23602.13
747.556	23599.42
747.895	23572.53
748.234	23528.01
748.573	23558.97
748.911	23540.67
749.25	23490.5
749.589	23278.3
749.928	23356.49
750.267	23384.96
750.605	23298.41
750.944	23260.22
751.283	23258.41
751.621	23231.75
751.96	23125.99
752.298	23093.67
752.636	23072.66
752.975	22904.07
753.313	22941.59
753.651	22971.42
753.989	22857.75
754.327	22817.75
754.666	22651.2
755.004	22806.45
755.342	22718.77
755.679	22723.51
756.017	22596.74
756.355	22615.27
756.693	22461.82
757.031	22530.98
757.368	22476.97
757.706	22506.34
758.044	22281.26
758.381	22354.71
758.719	22224.09
759.056	22308.83
759.394	22196.97
759.731	22024.1
760.068	22105.22
760.405	21872.01
760.743	21856.87
761.08	21953.82
761.417	21742.97
761.754	21761.28
762.091	21832.91
762.428	21611
762.765	21505.01
763.102	21566.48
763.438	21491
763.775	21360.38
764.112	21359.03
764.449	21266.6
764.785	21111.8
765.122	21081.3
765.458	21111.13
765.795	21048.75
766.131	21043.78
766.467	20931.02
766.804	20790.91
767.14	20725.15
767.476	20784.35
767.812	20571.7
768.148	20617.81
768.485	20534.64
768.821	20341.88
769.157	20345.04
769.492	20293.97
769.828	20236.8
770.164	20059.63
770.5	20084.71
770.836	20072.06
771.171	19945.73
771.507	19861.67
771.842	19771.05
772.178	19799.3
772.513	19669.36
772.849	19624.84
773.184	19524.73
773.519	19590.49
773.855	19437.95
774.19	19409.02
774.525	19340.55
774.86	19298.74
775.195	19305.75
775.53	19259.87
775.865	19039.32
776.2	18975.59
776.535	18827.8
776.87	18882.03
777.205	18756.39
777.539	18683.62
777.874	18734.92
778.209	18458.54
778.543	18518.43
778.878	18381.25
779.212	18447.47
779.547	18344.87
779.881	18284.53
780.215	18098.78
780.55	18211.31
780.884	18143.07
781.218	17974.49
781.552	18032.11
781.886	18020.81
782.22	17812.46
782.554	17749.41
782.888	17626.02
783.222	17558.9
783.556	17507.6
783.889	17554.84
784.223	17352.81
784.557	17361.85
784.89	17364.11
785.224	17165.47
785.557	17100.16
785.891	17095.86
786.224	17026.26
786.558	17035.75
786.891	16775.65
787.224	16770.67
787.557	16679.15
787.891	16732.94
788.224	16745.82
788.557	16670.79
788.89	16699.49
789.223	16604.58
789.556	16462.21
789.888	16391.7
790.221	16335.66
790.554	16214.76
790.887	16255.89
791.219	16185.61
791.552	16116.68
791.884	16080.75
792.217	16000.98
792.549	15924.82
792.882	15857.7
793.214	15786.07
793.546	15829.23
793.879	15707.88
794.211	15655
794.543	15631.95
794.875	15630.37
795.207	15637.37
795.539	15460.88
795.871	15446.64
796.203	15405.29
796.535	15293.43
796.867	15316.93
797.198	15110.15
797.53	15178.85
797.862	15075.13
798.193	15082.36
798.525	15007.56
798.856	15042.81
799.188	14794.91
799.519	14838.75
799.85	14758.75
800.182	14785.87
800.513	14747
800.844	14674.68
801.175	14633.56
801.506	14627.45
801.837	14573.9
802.168	14465.42
802.499	14500.45
802.83	14426.56
803.161	14405.31
803.491	14375.94
803.822	14359.66
804.153	14259.55
804.483	14142.5
804.814	14126.9
805.145	14154.25
805.475	14086.23
805.805	14001.48
806.136	14105.66
806.466	14006
806.796	13942.5
807.126	13897.76
807.457	13894.82
807.787	13822.5
808.117	13784.09
808.447	13756.97
808.777	13774.82
809.107	13689.63
809.436	13694.6
809.766	13612.79
810.096	13615.05
810.426	13583.41
810.755	13493.25
811.085	13393.14
811.414	13477.43
811.744	13332.35
812.073	13321.27
812.403	13224.1
812.732	13214.38
813.061	13265.46
813.39	13190.43
813.719	13086.48
814.049	13246.93
814.378	13095.74
814.707	13048.29
815.036	13077.44
815.365	12945.46
815.693	12955.63
816.022	12897.1
816.351	12844.9
816.68	12760.38
817.008	12739.82
817.337	12672.7
817.665	12590.45
817.994	12676.55
818.322	12696.21
818.651	12643.1
818.979	12562.42
819.307	12580.05
819.636	12550.45
819.964	12533.5
820.292	12608.75
820.62	12530.11
820.948	12525.36
821.276	12461.18
821.604	12456.89
821.932	12491.24
822.259	12523.55
822.587	12463.22
822.915	12427.74
823.243	12450.34
823.57	12457.34
823.898	12471.13
824.225	12384.35
824.553	12313.84
824.88	12325.14
825.207	12452.14
825.535	12393.84
825.862	12421.64
826.189	12341.19
826.516	12498.7
826.843	12473.84
827.17	12479.26
827.497	12424.8
827.824	12491.01
828.151	12507.28
828.478	12432.48
828.805	12441.3
829.131	12437
829.458	12364.01
829.785	12380.28
830.111	12347.06
830.438	12355.42
830.764	12342.32
831.09	12453.5
831.417	12342.32
831.743	12421.64
832.069	12392.94
832.395	12295.76
832.722	12366.27
833.048	12341.19
833.374	12324.01
833.7	12236.56
834.026	12260.28
834.351	12299.15
834.677	12276.1
835.003	12216.67
835.329	12301.64
835.654	12202.21
835.98	12238.36
836.306	12227.74
836.631	12196.11
836.956	12176.45
837.282	12114.53
837.607	12098.26
837.932	12072.95
838.258	12130.57
838.583	12037.24
838.908	11938.94
839.233	11988.88
839.558	11995.21
839.883	11970.58
840.208	11885.61
840.533	11934.42
840.858	11799.96
841.182	11832.05
841.507	11864.59
841.832	11823.23
842.156	11750.92
842.481	11761.77
842.805	11694.88
843.13	11765.16
843.454	11689.45
843.778	11622.11
844.103	11680.19
844.427	11576.01
844.751	11587.31
845.075	11540.98
845.399	11537.14
845.723	11545.05
846.047	11465.73
846.371	11355.45
846.695	11378.27
847.019	11303.25
847.343	11217.6
847.666	11189.13
847.99	11133.08
848.313	11223.02
848.637	11007.44
848.96	11083.37
849.284	11056.7
849.607	10900.77
849.931	10913.2
850.254	10884.95
850.577	10809.25
850.9	10708.46
851.223	10697.16
851.546	10690.38
851.869	10612.64
852.192	10677.28
852.515	10543.04
852.838	10528.81
853.161	10515.7
853.483	10406.1
853.806	10452.65
854.129	10402.71
854.451	10260.11
854.774	10311.41
855.096	10220.11
855.419	10200
855.741	10215.37
856.063	10139.89
856.385	10210.85
856.708	10112.77
857.03	10102.6
857.352	10067.57
857.674	10090.85
857.996	9993.9
858.318	9981.02
858.64	9976.73
858.961	9891.76
859.283	9877.3
859.605	9849.73
859.926	9819.22
860.248	9751.42
860.57	9763.4
860.891	9779.9
861.212	9749.39
861.534	9660.35
861.855	9652.44
862.176	9692.89
862.498	9691.54
862.819	9630.75
863.14	9614.48
863.461	9542.84
863.782	9521.6
864.103	9552.56
864.424	9515.72
864.745	9572.9
865.065	9484.76
865.386	9458.55
865.707	9506.46
866.027	9430.75
866.348	9397.99
866.668	9421.72
866.989	9444.54
867.309	9294.49
867.63	9368.38
867.95	9316.86
868.27	9292.23
868.59	9321.83
868.91	9278.89
869.23	9227.82
869.55	9215.17
869.87	9315.5
870.19	9259.69
870.51	9141.5
870.83	9223.98
871.15	9161.84
871.469	9173.13
871.789	9212.68
872.109	9129.75
872.428	9093.36
872.748	9132.46
873.067	9082.06
873.386	9048.84
873.706	9016.08
874.025	9015.17
874.344	8992.8
874.663	9027.6
874.982	9008.85
875.301	8952.12
875.62	8954.38
875.939	8913.25
876.258	8937.89
876.577	8853.59
876.896	8881.16
877.214	8825.35
877.533	8811.11
877.852	8809.98
878.17	8873.71
878.489	8817.89
878.807	8809.75
879.125	8805.69
879.444	8776.53
879.762	8730.89
880.08	8706.48
880.398	8699.7
880.716	8771.11
881.034	8670.55
881.352	8672.36
881.67	8621.06
881.988	8673.71
882.306	8622.64
882.624	8621.74
882.941	8545.58
883.259	8603.43
883.577	8554.85
883.894	8553.04
884.212	8521.4
884.529	8441.85
884.846	8452.93
885.164	8502.87
885.481	8456.77
885.798	8475.53
886.115	8404.57
886.432	8334.96
886.75	8378.35
887.067	8344.91
887.383	8284.12
887.7	8341.97
888.017	8282.99
888.334	8351.69
888.651	8223.55
888.967	8198.7
889.284	8221.3
889.6	8130.68
889.917	8148.3
890.233	8109.89
890.55	8119.15
890.866	8138.36
891.182	8040.73
891.498	7978.59
891.815	7994.18
892.131	7977.69
892.447	8026.05
892.763	7995.76
893.079	7933.62
893.395	7930.91
893.71	7889.55
894.026	7824.47
894.342	7843.23
894.657	7789.89
894.973	7786.96
895.289	7807.97
895.604	7756.67
895.92	7708.99
896.235	7639.39
896.55	7700.86
896.865	7682.78
897.181	7602.78
897.496	7607.3
897.811	7549.22
898.126	7543.35
898.441	7467.87
898.756	7461.09
899.071	7483.91
899.386	7396.91
899.7	7339.28
900.015	7354.2
900.33	7316.69
900.644	7248.21
900.959	7330.25
901.273	7280.3
901.588	7263.35
901.902	7235.11
902.216	7150.59
902.531	7184.26
902.845	7156.24
903.159	7089.57
903.473	7076.69
903.787	7056.58
904.101	7008.67
904.415	7011.38
904.729	6975
905.042	6980.88
905.356	6921.22
905.67	6948.56
905.984	6874.21
906.297	6865.85
906.611	6847.55
906.924	6824.27
907.237	6742.69
907.551	6763.03
907.864	6782.69
908.177	6749.02
908.491	6674.9
908.804	6639.64
909.117	6600.09
909.43	6563.03
909.743	6521.23
910.056	6541.79
910.368	6494.33
910.681	6473.77
910.994	6463.15
911.307	6424.96
911.619	6349.48
911.932	6366.65
912.244	6394.68
912.557	6305.64
912.869	6329.37
913.181	6300.67
913.494	6254.57
913.806	6189.03
914.118	6226.09
914.43	6190.61
914.742	6179.77
915.054	6131.41
915.366	6150.39
915.678	6032.2
915.99	6109.94
916.302	5991.98
916.613	6013.44
916.925	6009.38
917.236	5983.61
917.548	5905.42
917.859	5923.05
918.171	5843.28
918.482	5838.53
918.794	5815.26
919.105	5824.97
919.416	5770.74
919.727	5804.86
920.038	5734.13
920.349	5721.93
920.66	5709.04
920.971	5617.52
921.282	5611.87
921.593	5626.79
921.903	5613.68
922.214	5587.69
922.525	5550.86
922.835	5545.43
923.146	5502.04
923.456	5520.58
923.767	5459.56
924.077	5448.26
924.387	5422.72
924.697	5407.81
925.008	5405.32
925.318	5377.53
925.628	5312.67
925.938	5307.25
926.248	5254.59
926.558	5301.15
926.867	5269.06
927.177	5205.33
927.487	5183.63
927.796	5126.24
928.106	5136.86
928.416	5114.94
928.725	5106.57
929.034	5036.97
929.344	5079.23
929.653	5015.05
929.962	5034.26
930.271	5027.71
930.581	4942.74
930.89	4946.8
931.199	4963.3
931.508	4892.8
931.817	4890.76
932.125	4879.01
932.434	4871.55
932.743	4822.97
933.051	4844.21
933.36	4828.16
933.669	4763.98
933.977	4738.45
934.286	4690.54
934.594	4718.56
934.902	4662.29
935.21	4671.56
935.519	4693.48
935.827	4662.07
936.135	4610.99
936.443	4594.95
936.751	4560.37
937.059	4574.84
937.367	4578.45
937.674	4519.47
937.982	4498.68
938.29	4471.56
938.597	4497.55
938.905	4418.23
939.213	4399.93
939.52	4383.2
939.827	4374.16
940.135	4347.5
940.442	4382.07
940.749	4335.75
941.056	4318.35
941.363	4264.11
941.67	4236.09
941.977	4265.69
942.284	4208.97
942.591	4235.64
942.898	4202.42
943.205	4171.68
943.511	4171.23
943.818	4157.22
944.125	4102.31
944.431	4112.25
944.738	4090.1
945.044	4021.41
945.35	4043.55
945.657	4032.03
945.963	4039.48
946.269	3986.83
946.575	4032.25
946.881	3958.81
947.187	3913.39
947.493	3979.6
947.799	3902.54
948.105	3891.47
948.41	3883.1
948.716	3888.08
949.022	3867.06
949.327	3871.13
949.633	3806.95
949.938	3775.99
950.244	3803.11
950.549	3815.08
950.854	3751.58
951.16	3773.73
951.465	3705.03
951.77	3732.83
952.075	3678.59
952.38	3674.3
952.685	3671.36
952.99	3630.91
953.294	3647.63
953.599	3630
953.904	3606.5
954.209	3569.44
954.513	3528.76
954.818	3598.82
955.122	3539.61
955.426	3512.27
955.731	3534.86
956.035	3466.39
956.339	3497.58
956.643	3460.52
956.948	3439.27
957.252	3442.66
957.556	3420.07
957.86	3433.17
958.163	3370.58
958.467	3361.99
958.771	3411.7
959.075	3375.32
959.378	3292.16
959.682	3349.33
959.985	3293.52
960.289	3292.39
960.592	3272.72
960.896	3254.65
961.199	3225.72
961.502	3265.04
961.805	3216.23
962.108	3224.14
962.411	3177.59
962.714	3190.92
963.017	3171.26
963.32	3194.31
963.623	3191.37
963.926	3152.28
964.228	3097.59
964.531	3058.72
964.833	3100.3
965.136	3022.11
965.438	3032.51
965.741	3055.56
966.043	3029.34
966.345	3059.4
966.648	3016.01
966.95	3015.78
967.252	2973.75
967.554	2965.39
967.856	2948.89
968.158	2959.51
968.46	2891.27
968.761	2916.8
969.063	2904.15
969.365	2892.17
969.666	2854.2
969.968	2852.4
970.269	2890.81
970.571	2863.24
970.872	2827.99
971.174	2813.3
971.475	2840.65
971.776	2813.53
972.077	2801.32
972.378	2817.14
972.679	2740.76
972.98	2774.88
973.281	2749.12
973.582	2731.72
973.883	2715.68
974.183	2686.98
974.484	2690.59
974.785	2697.6
975.085	2662.57
975.386	2669.35
975.686	2673.19
975.986	2637.26
976.287	2611.27
976.587	2600.88
976.887	2596.58
977.187	2594.32
977.487	2544.16
977.787	2554.33
978.087	2546.42
978.387	2519.75
978.687	2543.93
978.987	2533.76
979.286	2498.51
979.586	2495.57
979.885	2521.33
980.185	2472.75
980.484	2453.31
980.784	2449.02
981.083	2451.5
981.382	2428
981.682	2421.22
981.981	2402.69
982.28	2387.32
982.579	2385.06
982.878	2372.18
983.177	2348.91
983.475	2354.78
983.774	2348.23
984.073	2338.74
984.372	2327.44
984.67	2306.87
984.969	2317.27
985.267	2305.52
985.566	2273.43
985.864	2296.03
986.162	2290.15
986.461	2258.29
986.759	2273.43
987.057	2255.12
987.355	2229.59
987.653	2284.28
987.951	2217.84
988.249	2198.18
988.547	2220.55
988.844	2174
989.142	2156.37
989.44	2182.81
989.737	2148.69
990.035	2151.4
990.332	2148.23
990.63	2141.23
990.927	2147.56
991.224	2136.71
991.521	2083.38
991.819	2086.09
992.116	2084.96
992.413	2075.47
992.71	2047.9
993.006	2050.84
993.303	2038.41
993.6	2011.06
993.897	2021.01
994.193	2037.05
994.49	1990.27
994.787	2001.12
995.083	1991.85
995.379	1989.14
995.676	1988.01
995.972	1964.06
996.268	1978.75
996.565	1941.23
996.861	1934.23
997.157	1918.41
997.453	1937.84
997.749	1937.84
998.044	1909.14
998.34	1898.75
998.636	1883.61
998.932	1852.42
999.227	1860.56
999.523	1860.11
999.818	1834.57
1000.114	1809.49
1000.409	1849.94
1000.704	1821.01
1001	1808.36
1001.295	1809.26
1001.59	1783.5
1001.885	1794.57
1002.18	1793.89
1002.475	1780.56
1002.77	1755.48
1003.065	1732.65
1003.359	1758.64
1003.654	1715.03
1003.949	1734.01
1004.243	1728.81
1004.538	1704.63
1004.832	1705.08
1005.127	1689.94
1005.421	1686.55
1005.715	1698.75
1006.009	1668.7
1006.304	1630.06
1006.598	1647.91
1006.892	1630.06
1007.186	1576.5
1007.48	1615.59
1007.773	1610.85
1008.067	1593.67
1008.361	1578.53
1008.655	1555.71
1008.948	1556.84
1009.242	1543.28
1009.535	1559.55
1009.829	1515.26
1010.122	1531.08
1010.415	1499.21
1010.708	1538.98
1011.001	1503.73
1011.295	1472.09
1011.588	1482.49
1011.881	1495.6
1012.173	1447.24
1012.466	1464.41
1012.759	1437.74
1013.052	1446.56
1013.344	1451.98
1013.637	1441.13
1013.93	1432.1
1014.222	1424.41
1014.514	1424.19
1014.807	1433.23
1015.099	1389.84
1015.391	1377.41
1015.683	1380.8
1015.976	1374.24
1016.268	1341.93
1016.56	1341.02
1016.851	1343.51
1017.143	1328.14
1017.435	1321.36
1017.727	1322.49
1018.018	1353.23
1018.31	1313.45
1018.602	1307.13
1018.893	1315.71
1019.185	1294.47
1019.476	1298.31
1019.767	1258.99
1020.058	1269.84
1020.35	1252.44
1020.641	1259.22
1020.932	1239.56
1021.223	1226.45
1021.514	1202.5
1021.804	1215.6
1022.095	1198.65
1022.386	1227.35
1022.677	1198.88
1022.967	1155.72
1023.258	1156.62
1023.548	1161.82
1023.839	1162.72
1024.129	1167.24
1024.419	1166.79
1024.709	1163.63
1025	1153.91
1025.29	1126.34
1025.58	1093.35
1025.87	1110.75
1026.16	1106.68
1026.449	1118.43
1026.739	1059.22
1027.029	1099.9
1027.319	1072.1
1027.608	1090.86
1027.898	1079.56
1028.187	1069.39
1028.477	1078.21
1028.766	1044.53
1029.055	1009.28
1029.344	1035.95
1029.634	1021.71
1029.923	1029.17
1030.212	1022.16
1030.501	1011.77
1030.79	1009.73
1031.078	993.01
1031.367	997.3
1031.656	987.36
1031.945	984.65
1032.233	967.47
1032.522	956.18
1032.81	966.12
1033.099	945.1
1033.387	940.13
1033.675	952.56
1033.963	929.28
1034.251	945.55
1034.54	901.26
1034.828	913.92
1035.116	920.92
1035.403	929.74
1035.691	896.97
1035.979	875.73
1036.267	896.29
1036.554	870.3
1036.842	873.69
1037.129	861.94
1037.417	846.8
1037.704	868.72
1037.992	873.92
1038.279	864.88
1038.566	848.38
1038.853	848.38
1039.14	848.38
