Data from hue_120_FLMS001491_00066.txt Node
Date: Tue Feb 07 16:59:49 GMT 2017
User: dcchb
Spectrometer: FLMS00149
Trigger mode: 0
Integration Time (sec): 2.000000E-2
Scans to average: 10
Electric dark correction enabled: true
Nonlinearity correction enabled: false
Boxcar width: 0
XAxis mode: Wavelengths
Number of Pixels in Spectrum: 2048
>>>>>Begin Spectral Data<<<<<
341.393	-11.33
341.776	-11.33
342.16	-11.33
342.543	-65.79
342.927	-61.5
343.31	-75.05
343.693	-62.4
344.077	-58.56
344.46	-59.91
344.843	-45.22
345.226	-51.33
345.61	-32.57
345.993	-26.02
346.376	4.27
346.759	1.78
347.142	0.88
347.525	54.66
347.908	63.7
348.291	70.7
348.674	89.01
349.057	126.07
349.44	127.2
349.823	129.91
350.206	174.2
350.588	192.74
350.971	198.61
351.354	249.91
351.737	223.92
352.119	250.59
352.502	269.12
352.884	307.08
353.267	284.71
353.65	293.3
354.032	307.08
354.414	326.52
354.797	319.96
355.179	308.21
355.562	328.78
355.944	317.93
356.326	323.13
356.709	340.08
357.091	350.25
357.473	343.01
357.855	362.45
358.238	354.54
358.62	369
359.002	341.21
359.384	333.52
359.766	344.6
360.148	348.89
360.53	347.08
360.912	348.21
361.294	331.26
361.676	342.79
362.057	333.3
362.439	322.68
362.821	341.43
363.203	324.03
363.584	334.2
363.966	327.19
364.348	315.67
364.729	335.78
365.111	329
365.493	327.87
365.874	327.65
366.256	328.78
366.637	336.01
367.019	312.05
367.4	331.71
367.781	319.74
368.163	329.45
368.544	327.65
368.925	329.91
369.306	344.82
369.688	333.97
370.069	321.55
370.45	314.99
370.831	319.51
371.212	326.74
371.593	331.04
371.974	319.29
372.355	303.92
372.736	303.92
373.117	308.89
373.498	322.22
373.879	324.48
374.26	308.21
374.641	320.64
375.021	305.05
375.402	320.19
375.783	318.83
376.163	342.56
376.544	332.84
376.925	337.14
377.305	326.06
377.686	334.43
378.066	324.48
378.447	335.56
378.827	329.91
379.208	349.79
379.588	334.65
379.968	340.98
380.349	344.6
380.729	354.09
381.109	342.56
381.489	347.99
381.87	348.66
382.25	369
382.63	349.57
383.01	329.68
383.39	353.41
383.77	333.75
384.15	358.38
384.53	354.31
384.91	363.8
385.29	354.54
385.67	370.36
386.049	379.4
386.429	369.23
386.809	369.68
387.189	346.63
387.568	371.94
387.948	375.56
388.328	378.04
388.707	375.33
389.087	371.94
389.466	350.47
389.846	397.02
390.225	371.94
390.605	374.88
390.984	388.89
391.363	373.3
391.743	369
392.122	394.54
392.501	385.27
392.881	380.53
393.26	393.41
393.639	397.93
394.018	407.87
394.397	392.05
394.776	366.29
395.155	384.82
395.534	416.46
395.913	400.87
396.292	418.49
396.671	404.71
397.05	401.54
397.429	418.04
397.808	417.14
398.186	424.37
398.565	418.94
398.944	416.68
399.323	413.07
399.701	423.46
400.08	431.15
400.458	429.11
400.837	403.35
401.215	422.33
401.594	433.63
401.972	423.01
402.351	443.58
402.729	437.02
403.107	449.23
403.486	425.72
403.864	451.03
404.242	434.08
404.62	462.56
404.999	473.63
405.377	442.22
405.755	441.99
406.133	448.1
406.511	481.99
406.889	480.41
407.267	468.66
407.645	472.73
408.023	479.06
408.401	444.71
408.779	473.41
409.156	503.24
409.534	477.47
409.912	479.51
410.29	481.09
410.667	505.27
411.045	515.44
411.422	489
411.8	504.59
412.178	511.14
412.555	505.5
412.933	536.23
413.31	520.64
413.687	519.73
414.065	538.49
414.442	518.6
414.819	521.09
415.197	553.18
415.574	557.92
415.951	544.36
416.328	549.11
416.705	557.25
417.082	551.6
417.46	552.95
417.837	568.77
418.214	572.39
418.591	559.96
418.967	576.91
419.344	584.14
419.721	580.97
420.098	588.66
420.475	574.65
420.852	592.27
421.228	585.27
421.605	572.61
421.982	592.72
422.358	601.54
422.735	632.5
423.111	586.17
423.488	622.55
423.864	641.76
424.241	604.02
424.617	643.12
424.994	643.8
425.37	646.28
425.746	629.33
426.123	662.78
426.499	642.67
426.875	658.26
427.251	681.99
427.627	676.11
428.003	697.58
428.379	674.76
428.756	678.37
429.132	686.06
429.507	693.06
429.883	701.65
430.259	718.6
430.635	717.24
431.011	726.05
431.387	738.26
431.763	730.57
432.138	757.24
432.514	743.68
432.89	769.44
433.265	779.84
433.641	796.11
434.016	802.44
434.392	787.75
434.767	806.28
435.143	821.65
435.518	824.13
435.894	786.39
436.269	823
436.644	842.89
437.02	859.61
437.395	837.69
437.77	844.47
438.145	852.6
438.52	873.17
438.895	894.64
439.271	856.45
439.646	893.73
440.021	897.8
440.395	879.5
440.77	903.9
441.145	895.77
441.52	917.91
441.895	934.18
442.27	946.39
442.645	953.39
443.019	957.46
443.394	921.3
443.769	994.52
444.143	942.77
444.518	965.37
444.892	965.6
445.267	976.67
445.641	1003.11
446.016	980.51
446.39	967.4
446.764	989.1
447.139	1015.09
447.513	1032.04
447.887	1025.26
448.262	1018.7
448.636	1037.68
449.01	1055.09
449.384	1032.49
449.758	1070.23
450.132	1063.45
450.506	1063.9
450.88	1079.94
451.254	1076.78
451.628	1076.33
452.002	1107.74
452.376	1106.16
452.75	1124.24
453.123	1124.91
453.497	1133.5
453.871	1161.3
454.244	1178.25
454.618	1195.19
454.992	1213.05
455.365	1221.86
455.739	1225.25
456.112	1258.7
456.486	1258.7
456.859	1235.42
457.232	1293.95
457.606	1300.05
457.979	1302.99
458.352	1336.21
458.725	1351.57
459.099	1371.91
459.472	1376.88
459.845	1384.57
460.218	1391.8
460.591	1427.28
460.964	1418.69
461.337	1458.92
461.71	1449.2
462.083	1467.05
462.456	1499.14
462.829	1502.53
463.201	1557.22
463.574	1506.15
463.947	1564.9
464.32	1632.92
464.692	1633.15
465.065	1662.07
465.438	1668.18
465.81	1695.97
466.183	1728.51
466.555	1753.37
466.928	1742.3
467.3	1774.16
467.672	1805.57
468.045	1856.65
468.417	1862.97
468.789	1859.13
469.161	1929.19
469.534	1953.14
469.906	1994.27
470.278	2018.9
470.65	2048.73
471.022	2140.93
471.394	2159.24
471.766	2185.9
472.138	2216.86
472.51	2276.75
472.882	2331.21
473.253	2360.14
473.625	2387.71
473.997	2449.17
474.369	2475.39
474.74	2539.79
475.112	2579.11
475.484	2662.05
475.855	2707.02
476.227	2756.96
476.598	2885.09
476.97	2942.04
477.341	2967.8
477.713	3033.34
478.084	3116.73
478.455	3209.15
478.827	3284.63
479.198	3395.81
479.569	3477.17
479.94	3551.74
480.311	3641.91
480.682	3748.57
481.053	3850.04
481.424	3984.95
481.795	4075.57
482.166	4173.42
482.537	4213.65
482.908	4382.91
483.279	4472.4
483.65	4553.07
484.021	4746.51
484.391	4896.34
484.762	4923.91
485.133	5057.92
485.503	5180.17
485.874	5391.02
486.244	5480.28
486.615	5620.16
486.985	5772.48
487.356	5910.1
487.726	5989.87
488.097	6208.17
488.467	6265.34
488.837	6476.41
489.207	6651.55
489.578	6834.14
489.948	6941.48
490.318	7043.18
490.688	7193.91
491.058	7372.89
491.428	7482.03
491.798	7667.57
492.168	7928.58
492.538	8004.28
492.908	8168.12
493.278	8317.95
493.648	8416.93
494.017	8668.44
494.387	8751.61
494.757	8896.24
495.126	9075.89
495.496	9128.77
495.866	9310.46
496.235	9496.67
496.605	9581.64
496.974	9762.65
497.344	9922.42
497.713	10008.97
498.082	10084.23
498.452	10300.94
498.821	10368.96
499.19	10471.79
499.559	10609.86
499.928	10721.95
500.298	10878.56
500.667	11003.75
501.036	11016.41
501.405	11203.97
501.774	11337.98
502.143	11430.18
502.512	11486.9
502.88	11606.22
503.249	11756.27
503.618	11824.52
503.987	11893.22
504.356	12014.12
504.724	12047.11
505.093	12139.09
505.462	12283.04
505.83	12403.04
506.199	12478.06
506.567	12735.68
506.936	12605.97
507.304	12791.27
507.672	12919.18
508.041	13007.99
508.409	13083.92
508.777	13141.55
509.145	13269.91
509.514	13296.35
509.882	13377.02
510.25	13433.52
510.618	13514.64
510.986	13469.67
511.354	13594.42
511.722	13777.69
512.09	13886.61
512.458	13913.5
512.826	14060.39
513.193	14020.39
513.561	14076.89
513.929	14151.24
514.297	14204.8
514.664	14378.58
515.032	14340.39
515.4	14484.11
515.767	14560.94
516.135	14602.3
516.502	14524.56
516.869	14654.05
517.237	14695.86
517.604	14583.09
517.972	14745.35
518.339	14859.69
518.706	14810.88
519.073	14837.1
519.44	14931.1
519.808	15101.04
520.175	15015.4
520.542	15161.61
520.909	15269.4
521.276	15213.13
521.643	15249.06
522.009	15383.07
522.376	15371.77
522.743	15469.17
523.11	15560.01
523.477	15617.64
523.843	15662.16
524.21	15721.37
524.577	15786.9
524.943	15796.17
525.31	15880.23
525.676	15938.31
526.043	15896.5
526.409	15914.81
526.776	16072.32
527.142	16058.76
527.508	16140.11
527.874	16113.9
528.241	16213.1
528.607	16180.79
528.973	16284.97
529.339	16270.05
529.705	16351.86
530.071	16411.52
530.437	16437.51
530.803	16358.41
531.169	16466.66
531.535	16341.24
531.901	16323.61
532.267	16386.43
532.632	16347.79
532.998	16447.22
533.364	16435.92
533.73	16408.13
534.095	16468.24
534.461	16498.3
534.826	16392.08
535.192	16364.29
535.557	16492.87
535.923	16337.17
536.288	16436.83
536.653	16509.37
537.019	16240.67
537.384	16349.37
537.749	16289.03
538.114	16406.32
538.479	16367.68
538.845	16323.84
539.21	16235.03
539.575	16240.9
539.94	16157.29
540.305	16250.17
540.67	16190.96
541.034	16183.73
541.399	16147.57
541.764	16156.61
542.129	16204.07
542.494	16073.67
542.858	16084.29
543.223	15971.53
543.587	15991.87
543.952	15974.02
544.316	15920.23
544.681	15923.85
545.045	15893.57
545.41	15957.74
545.774	15901.7
546.138	15787.35
546.503	15803.62
546.867	15755.49
547.231	15815.6
547.595	15809.5
547.959	15694.25
548.324	15665.77
548.688	15525.21
549.052	15632.33
549.416	15571.99
549.779	15544.87
550.143	15529.05
550.507	15573.12
550.871	15406.57
551.235	15422.17
551.599	15456.74
551.962	15487.93
552.326	15466.91
552.689	15460.58
553.053	15310.3
553.417	15357.76
553.78	15516.4
554.143	15299.91
554.507	15379.91
554.87	15358.44
555.234	15546.46
555.597	15266.91
555.96	15312.79
556.323	15347.59
556.686	15307.59
557.05	15331.55
557.413	15387.36
557.776	15306.91
558.139	15321.83
558.502	15280.7
558.865	15225.79
559.228	15336.29
559.59	15229.63
559.953	15266.01
560.316	15384.43
560.679	15348.04
561.041	15370.87
561.404	15407.25
561.767	15491.77
562.129	15321.6
562.492	15387.14
562.854	15389.62
563.217	15363.41
563.579	15435.95
563.941	15463.52
564.304	15481.15
564.666	15468.94
565.028	15437.98
565.39	15501.49
565.753	15583.52
566.115	15551.88
566.477	15586
566.839	15550.98
567.201	15616.28
567.563	15656.06
567.925	15738.77
568.287	15705.1
568.648	15667.36
569.01	15696.73
569.372	15702.38
569.734	15732.89
570.095	15778.09
570.457	15723.63
570.819	15869.84
571.18	15775.15
571.542	15860.8
571.903	15798.65
572.265	15820.8
572.626	15883.85
572.987	15880.01
573.349	15873.9
573.71	15893.57
574.071	15932.21
574.432	15948.48
574.794	15989.16
575.155	15963.62
575.516	15887.01
575.877	16041.36
576.238	16007.01
576.599	16027.12
576.96	16018.08
577.32	16042.94
577.681	16112.54
578.042	16121.58
578.403	16097.18
578.763	16098.08
579.124	16105.54
579.485	16176.95
579.845	16080.68
580.206	16098.08
580.566	16042.94
580.927	16083.16
581.287	16161.13
581.648	16032.77
582.008	16134.91
582.368	16063.28
582.728	16169.72
583.089	16129.04
583.449	16018.53
583.809	16123.62
584.169	16114.35
584.529	16034.35
584.889	16067.12
585.249	16030.06
585.609	15975.6
585.969	16112.54
586.329	15892.44
586.688	15938.54
587.048	15988.93
587.408	15928.37
587.768	15922.04
588.127	15960.91
588.487	15919.33
588.846	16014.24
589.206	15873.68
589.565	15881.36
589.925	15970.85
590.284	15864.64
590.643	15875.26
591.003	15995.94
591.362	16007.23
591.721	15823.74
592.08	15982.15
592.44	15933.11
592.799	15906.9
593.158	15945.99
593.517	15877.52
593.876	15912.55
594.235	15862.83
594.593	15806.56
594.952	15859.67
595.311	15767.47
595.67	15824.41
596.029	15919.55
596.387	15898.76
596.746	15836.84
597.104	15765.43
597.463	15825.09
597.822	15833.23
598.18	15725.21
598.538	15716.39
598.897	15918.42
599.255	15724.98
599.613	15916.84
599.972	15774.7
600.33	15874.81
600.688	15763.17
601.046	15905.54
601.404	15868.93
601.762	15909.38
602.12	15915.94
602.478	15920.91
602.836	15950.29
603.194	15772.21
603.552	15843.4
603.91	15854.24
604.268	15904.41
604.625	15769.27
604.983	15927.69
605.341	15768.14
605.698	15831.87
606.056	15833.23
606.413	15782.38
606.771	15851.98
607.128	15878.65
607.485	15802.72
607.843	15835.49
608.2	15930.63
608.557	15949.83
608.914	15944.64
609.272	15934.47
609.629	15975.37
609.986	16009.04
610.343	15912.77
610.7	16077.06
611.057	16050.17
611.414	16041.81
611.771	16020.12
612.127	16034.13
612.484	16022.15
612.841	16169.72
613.198	16137.17
613.554	16063.96
613.911	16108.93
614.267	16051.3
614.624	16099.21
614.98	16108.7
615.337	16221.47
615.693	16173.33
616.05	16208.36
616.406	16230.28
616.762	16181.02
617.118	16171.98
617.475	16141.24
617.831	16194.57
618.187	16277.51
618.543	16246.78
618.899	16386.89
619.255	16346.43
619.611	16332.65
619.967	16426.88
620.323	16392.54
620.678	16355.25
621.034	16252.2
621.39	16224.86
621.746	16365.42
622.101	16524.28
622.457	16280.67
622.812	16314.8
623.168	16357.73
623.523	16346.21
623.879	16364.97
624.234	16242.03
624.589	16303.72
624.945	16302.14
625.3	16418.98
625.655	16289.26
626.01	16290.84
626.365	16317.06
626.72	16355.02
627.075	16345.53
627.43	16364.29
627.785	16289.94
628.14	16319.54
628.495	16381.01
628.85	16273.22
629.205	16238.19
629.559	16340.11
629.914	16328.58
630.269	16272.76
630.623	16272.54
630.978	16222.6
631.332	16300.11
631.687	16290.16
632.041	16181.24
632.396	16169.49
632.75	16103.5
633.104	16205.87
633.459	16040.68
633.813	16087.23
634.167	16160.68
634.521	16006.56
634.875	16101.24
635.229	16046.78
635.583	15891.98
635.937	15976.73
636.291	15970.63
636.645	15947.12
636.999	15908.25
637.352	15911.19
637.706	15888.59
638.06	15933.79
638.413	15806.34
638.767	15781.48
639.121	15790.97
639.474	15723.85
639.828	15762.95
640.181	15815.15
640.534	15784.87
640.888	15785.55
641.241	15703.06
641.594	15811.08
641.947	15672.78
642.301	15651.76
642.654	15693.12
643.007	15666.9
643.36	15716.85
643.713	15767.92
644.066	15676.17
644.419	15555.27
644.771	15567.25
645.124	15309.17
645.477	15412.22
645.83	15321.83
646.182	15153.02
646.535	15183.75
646.888	15101.95
647.24	15028.5
647.593	15165.67
647.945	15184.43
648.298	14977.21
648.65	15057.2
649.002	15060.82
649.355	15106.92
649.707	15159.57
650.059	15179.91
650.411	15322.51
650.763	15368.61
651.115	15469.4
651.467	15501.71
651.819	15423.07
652.171	15364.31
652.523	15444.54
652.875	15348.27
653.227	15408.15
653.578	15482.05
653.93	15378.32
654.282	15311.43
654.633	15401.37
654.985	15405.89
655.337	15423.3
655.688	15434.37
656.039	15484.54
656.391	15384.43
656.742	15386.46
657.094	15492.45
657.445	15529.73
657.796	15356.63
658.147	15385.33
658.498	15374.26
658.849	15465.1
659.2	15457.42
659.551	15392.34
659.902	15412.22
660.253	15410.41
660.604	15463.29
660.955	15337.42
661.306	15422.84
661.656	15442.05
662.007	15421.94
662.358	15377.87
662.708	15369.06
663.059	15474.14
663.409	15384.43
663.76	15446.35
664.11	15436.85
664.461	15450.86
664.811	15478.66
665.161	15517.08
665.511	15426.01
665.862	15443.18
666.212	15548.04
666.562	15459
666.912	15472.79
667.262	15450.41
667.612	15459
667.962	15489.73
668.312	15420.13
668.662	15480.47
669.011	15369.74
669.361	15432.79
669.711	15468.94
670.06	15413.13
670.41	15382.39
670.76	15406.8
671.109	15445.67
671.459	15344.65
671.808	15348.04
672.157	15401.15
672.507	15217.88
672.856	15306.01
673.205	15261.04
673.554	15424.42
673.904	15297.87
674.253	15423.75
674.602	15341.26
674.951	15113.7
675.3	14910.31
675.649	15248.16
675.998	15198.22
676.346	15259.01
676.695	15242.28
677.044	15106.02
677.393	15168.61
677.741	15236.18
678.09	15117.99
678.438	15122.96
678.787	15144.88
679.135	15084.55
679.484	14977.66
679.832	15067.37
680.181	14899.24
680.529	14954.15
680.877	14992.12
681.225	14902.18
681.573	15057.2
681.922	14904.44
682.27	14805.91
682.618	14849.07
682.966	14813.14
683.314	14836.64
683.661	14815.4
684.009	14703.99
684.357	14767.04
684.705	14786.93
685.053	14756.65
685.4	14671.9
685.748	14621.28
686.095	14560.94
686.443	14535.18
686.79	14529.31
687.138	14525.92
687.485	14432.81
687.832	14380.61
688.18	14390.1
688.527	14313.49
688.874	14313.49
689.221	14240.5
689.568	14188.98
689.915	14239.15
690.262	14222.65
690.609	14121.63
690.956	14010.45
691.303	14109.21
691.65	13939.72
691.997	13970.23
692.344	13807.52
692.69	13865.6
693.037	13778.37
693.383	13783.79
693.73	13713.96
694.077	13653.62
694.423	13639.61
694.769	13702.44
695.116	13578.6
695.462	13548.09
695.808	13513.51
696.155	13500.18
696.501	13367.98
696.847	13395.78
697.193	13328.66
697.539	13254.54
697.885	13270.36
698.231	13172.96
698.577	13177.93
698.923	13080.31
699.269	13084.15
699.614	13094.32
699.96	12967.99
700.306	12960.53
700.651	12817.94
700.997	12806.64
701.342	12795.34
701.688	12749.02
702.033	12743.14
702.379	12694.1
702.724	12623.37
703.069	12615.01
703.415	12529.36
703.76	12394.45
704.105	12512.41
704.45	12418.4
704.795	12321.68
705.14	12326.43
705.485	12247.11
705.83	12158.97
706.175	12227.22
706.52	12132.76
706.865	12151.29
707.209	12020.45
707.554	12030.62
707.899	12090.73
708.243	12053.67
708.588	11973.89
708.932	11855.25
709.277	11895.03
709.621	11934.35
709.966	11797.63
710.31	11843.28
710.654	11670.85
710.998	11741.81
711.342	11677.18
711.687	11626.78
712.031	11672.21
712.375	11604.19
712.719	11627.01
713.063	11585.2
713.407	11634.47
713.75	11526.67
714.094	11557.63
714.438	11517.86
714.782	11517.64
715.125	11417.52
715.469	11504.75
715.812	11434.47
716.156	11293.91
716.499	11286.45
716.843	11279.68
717.186	11195.84
717.53	11328.26
717.873	11349.5
718.216	11300.01
718.559	11222.5
718.902	11148.83
719.246	11181.37
719.589	11137.76
719.932	11140.7
720.275	11151.54
720.617	11136.18
720.96	11095.27
721.303	11051.88
721.646	11112
721.989	11048.72
722.331	11013.47
722.674	11069.06
723.016	11072.22
723.359	11074.48
723.701	11078.78
724.044	10937.09
724.386	10972.56
724.729	10968.27
725.071	11020.92
725.413	10988.84
725.755	10952.68
726.097	10884.66
726.439	10865.67
726.782	10848.73
727.124	10957.65
727.465	10937.99
727.807	10818.67
728.149	10860.03
728.491	10805.79
728.833	10823.87
729.175	10842.4
729.516	10840.82
729.858	10883.3
730.199	10816.41
730.541	10802.85
730.882	10741.84
731.224	10780.48
731.565	10762.63
731.906	10742.06
732.248	10704.55
732.589	10735.28
732.93	10635.62
733.271	10683.76
733.612	10753.36
733.953	10803.08
734.294	10712.01
734.635	10664.32
734.976	10717.43
735.317	10666.13
735.658	10792.46
735.999	10653.93
736.339	10694.61
736.68	10780.71
737.021	10728.5
737.361	10692.35
737.702	10766.47
738.042	10745.9
738.383	10725.11
738.723	10740.71
739.063	10783.87
739.404	10792.68
739.744	10741.84
740.084	10719.46
740.424	10722.63
740.764	10778.9
741.104	10847.14
741.444	10770.99
741.784	10804.43
742.124	10832.23
742.464	10828.39
742.804	10903.41
743.143	10931.89
743.483	10909.74
743.823	10926.69
744.162	10923.07
744.502	11010.76
744.841	10926.69
745.181	11048.95
745.52	10989.29
745.86	11107.7
746.199	11067.25
746.538	11062.28
746.877	11215.72
747.216	11330.07
747.556	11286.23
747.895	11423.85
748.234	11403.97
748.573	11434.47
748.911	11523.74
749.25	11584.07
749.589	11537.75
749.928	11688.25
750.267	11787.23
750.605	11830.4
750.944	11883.05
751.283	11974.57
751.621	12154.91
751.96	12138.18
752.298	12191.29
752.636	12372.75
752.975	12410.72
753.313	12441.45
753.651	12699.52
753.989	12735.23
754.327	12857.94
754.666	12922.8
755.004	13010.93
755.342	13212.05
755.679	13351.71
756.017	13344.71
756.355	13657.47
756.693	13737.69
757.031	13893.62
757.368	13968.87
757.706	14145.81
758.044	14318.92
758.381	14552.36
758.719	14622.19
759.056	14859.24
759.394	14946.7
759.731	15058.78
760.068	15228.05
760.405	15338.78
760.743	15577.19
761.08	15810.18
761.417	15777.18
761.754	15995.71
762.091	16264.4
762.428	16320.45
762.765	16526.77
763.102	16745.29
763.438	16849.02
763.775	16864.39
764.112	17165.62
764.449	17413.53
764.785	17455.78
765.122	17534.43
765.458	17756.79
765.795	17811.48
766.131	18060.97
766.467	18119.5
766.804	18234.29
767.14	18444.68
767.476	18577.56
767.812	18633.38
768.148	18805.8
768.485	18889.87
768.821	18949.98
769.157	19152.01
769.492	19227.04
769.828	19412.34
770.164	19420.93
770.5	19509.06
770.836	19550.87
771.171	19655.05
771.507	19770.3
771.842	19751.32
772.178	19883.97
772.513	20022.95
772.849	19988.82
773.184	20053.68
773.519	20231.3
773.855	20309.72
774.19	20297.97
774.525	20403.05
774.86	20391.98
775.195	20569.37
775.53	20528.7
775.865	20510.62
776.2	20538.87
776.535	20464.97
776.87	20527.79
777.205	20504.74
777.539	20469.49
777.874	20746.09
778.209	20581.35
778.543	20735.7
778.878	20632.65
779.212	20651.41
779.547	20568.24
779.881	20740.22
780.215	20658.64
780.55	20799.65
780.884	20855.02
781.218	20727.56
781.552	20830.38
781.886	20709.03
782.22	20715.36
782.554	20721.01
782.888	20545.87
783.222	20582.26
783.556	20510.39
783.889	20563.05
784.223	20480.79
784.557	20463.39
784.89	20508.36
785.224	20346.1
785.557	20441.24
785.891	20376.39
786.224	20434.69
786.558	20418.87
786.891	20301.13
787.224	20258.42
787.557	20145.43
787.891	20273.34
788.224	20267.46
788.557	20234.69
788.89	20129.16
789.223	20171.19
789.556	20051.87
789.888	20028.82
790.221	19963.74
790.554	19941.82
790.887	19868.38
791.219	19790.64
791.552	19768.72
791.884	19773.92
792.217	19747.7
792.549	19732.33
792.882	19703.86
793.214	19537.99
793.546	19675.84
793.879	19621.38
794.211	19410.31
794.543	19407.37
794.875	19337.77
795.207	19507.48
795.539	19340.03
795.871	19336.64
796.203	19228.84
796.535	19134.84
796.867	19164.89
797.198	19152.46
797.53	19095.51
797.862	18963.77
798.193	18969.42
798.525	18865.46
798.856	19024.1
799.188	18764.68
799.519	18741.63
799.85	18674.96
800.182	18694.17
800.513	18672.02
800.844	18483.1
801.175	18655.53
801.506	18613.04
801.837	18468.64
802.168	18460.73
802.499	18466.83
802.83	18299.6
803.161	18290.79
803.491	18218.02
803.822	18267.51
804.153	18095.77
804.483	18125.6
804.814	18021.64
805.145	18095.77
805.475	17993.17
805.805	18019.84
806.136	17905.26
806.466	17940.74
806.796	17926.28
807.126	17785.49
807.457	17725.61
807.787	17726.96
808.117	17625.95
808.447	17644.48
808.777	17551.37
809.107	17618.49
809.436	17510.47
809.766	17481.77
810.096	17389.8
810.426	17326.97
810.755	17388.22
811.085	17357.26
811.414	17302.34
811.744	17179.41
812.073	17115.91
812.403	17087.43
812.732	17096.02
813.061	17129.01
813.39	16978.28
813.719	16938.74
814.049	17042.24
814.378	16948.23
814.707	16850.6
815.036	16917.94
815.365	16833.43
815.693	16672.75
816.022	16697.16
816.351	16585.98
816.68	16637.05
817.008	16637.73
817.337	16445.64
817.665	16493.1
817.994	16564.51
818.322	16483.61
818.651	16330.62
818.979	16377.85
819.307	16480.44
819.636	16456.26
819.964	16294.91
820.292	16301.46
820.62	16392.99
820.948	16286.55
821.276	16390.05
821.604	16278.19
821.932	16267.57
822.259	16323.61
822.587	16228.25
822.915	16168.81
823.243	16269.6
823.57	16280.45
823.898	16267.57
824.225	16172.88
824.553	16223.05
824.88	16277.74
825.207	16230.05
825.535	16223.73
825.862	16303.95
826.189	16314.12
826.516	16312.76
826.843	16267.11
827.17	16277.28
827.497	16344.85
827.824	16270.28
828.151	16307.57
828.478	16157.74
828.805	16305.53
829.131	16272.54
829.458	16262.14
829.785	16163.84
830.111	16287.68
830.438	16336.04
830.764	16177.4
831.09	16264.18
831.417	16235.48
831.743	16270.73
832.069	16245.19
832.395	16207.23
832.722	16180.11
833.048	16127.01
833.374	16187.57
833.7	16148.7
834.026	16122.26
834.351	16220.34
834.677	16021.7
835.003	16064.63
835.329	16083.16
835.654	16088.14
835.98	15919.1
836.306	16050.4
836.631	15961.13
836.956	16025.54
837.282	16076.16
837.607	15952.77
837.932	15884.75
838.258	15830.97
838.583	15917.97
838.908	15737.19
839.233	15883.85
839.558	15742.61
839.883	15675.27
840.208	15710.07
840.533	15758.88
840.858	15707.36
841.182	15759.78
841.507	15682.05
841.832	15577.42
842.156	15518.89
842.481	15475.5
842.805	15462.62
843.13	15450.86
843.454	15442.96
843.778	15427.81
844.103	15287.93
844.427	15317.08
844.751	15299.68
845.075	15202.51
845.399	15230.98
845.723	15189.18
846.047	15160.03
846.371	15040.93
846.695	15045.9
847.019	14890.43
847.343	14877.55
847.666	14795.97
847.99	14779.7
848.313	14751.22
848.637	14600.72
848.96	14575.18
849.284	14574.05
849.607	14528.86
849.931	14389.65
850.254	14395.75
850.577	14289.31
850.9	14175.87
851.223	14249.77
851.546	14169.32
851.869	14108.75
852.192	14110.34
852.515	13893.62
852.838	13901.75
853.161	13878.93
853.483	13803.22
853.806	13715.32
854.129	13746.73
854.451	13669.44
854.774	13599.16
855.096	13577.02
855.419	13540.18
855.741	13499.73
856.063	13431.71
856.385	13345.16
856.708	13332.5
857.03	13334.99
857.352	13327.3
857.674	13328.89
857.996	13277.36
858.318	13109.68
858.64	13186.29
858.961	13108.55
859.283	12979.29
859.605	12910.82
859.926	13047.31
860.248	12964.15
860.57	12887.77
860.891	12883.47
861.212	12932.74
861.534	12865.62
861.855	12737.72
862.176	12769.58
862.498	12782.01
862.819	12867.43
863.14	12646.64
863.461	12757.38
863.782	12644.61
864.103	12667.66
864.424	12592.86
864.745	12624.27
865.065	12550.38
865.386	12545.4
865.707	12493.88
866.027	12532.75
866.348	12468.57
866.668	12439.19
866.989	12425.18
867.309	12356.03
867.63	12330.95
867.95	12296.82
868.27	12274.23
868.59	12323.26
868.91	12261.12
869.23	12325.07
869.55	12231.97
869.87	12287.11
870.19	12186.32
870.51	12314.45
870.83	12231.97
871.15	12183.83
871.469	12140.67
871.789	12187.22
872.109	12123.27
872.428	12033.55
872.748	12094.79
873.067	12108.13
873.386	12024.06
873.706	11934.57
874.025	11912.88
874.344	11976.15
874.663	11865.65
874.982	11924.18
875.301	11884.41
875.62	11892.09
875.939	11902.48
876.258	11898.19
876.577	11803.05
876.896	11786.1
877.214	11740.68
877.533	11791.07
877.852	11716.73
878.17	11745.88
878.489	11731.87
878.807	11693.68
879.125	11637.18
879.444	11656.61
879.762	11605.32
880.08	11586.33
880.398	11574.36
880.716	11576.84
881.034	11511.08
881.352	11450.07
881.67	11482.38
881.988	11527.8
882.306	11449.61
882.624	11458.43
882.941	11378.2
883.259	11306.12
883.577	11312.67
883.894	11282.16
884.212	11279.9
884.529	11222.5
884.846	11278.55
885.164	11243.74
885.481	11121.94
885.798	11130.98
886.115	11079.23
886.432	11100.47
886.75	11054.37
887.067	11100.92
887.383	11077.19
887.7	11075.84
888.017	10985.22
888.334	10983.64
888.651	10938.89
888.967	10862.51
889.284	10851.21
889.6	10797.88
889.917	10779.8
890.233	10764.66
890.55	10759.69
890.866	10739.35
891.182	10658.22
891.498	10624.55
891.815	10611.22
892.131	10579.13
892.447	10540.49
892.763	10465.01
893.079	10466.14
893.395	10430.21
893.71	10389.53
894.026	10331.45
894.342	10376.42
894.657	10328.51
894.973	10335.97
895.289	10338.68
895.604	10292.58
895.92	10189.76
896.235	10199.48
896.55	10185.92
896.865	10077.9
897.181	10048.75
897.496	10087.62
897.811	9919.48
898.126	9963.33
898.441	9925.13
898.756	9874.74
899.071	9785.93
899.386	9862.76
899.7	9734.63
900.015	9691.47
900.33	9645.82
900.644	9711.81
900.959	9587.06
901.273	9547.74
901.588	9559.49
901.902	9482.66
902.216	9456.22
902.531	9481.53
902.845	9461.64
903.159	9346.62
903.473	9345.26
903.787	9303.46
904.101	9312.04
904.415	9198.6
904.729	9238.82
905.042	9132.84
905.356	9102.33
905.67	9051.03
905.984	9063.91
906.297	9055.1
906.611	8967.42
906.924	8975.55
907.237	8900.98
907.551	8927.87
907.864	8815.11
908.177	8819.17
908.491	8778.05
908.804	8745.96
909.117	8649.46
909.43	8662.12
909.743	8616.02
910.056	8578.05
910.368	8640.87
910.681	8555.23
910.994	8520.65
911.307	8460.09
911.619	8409.24
911.932	8342.13
912.244	8367.66
912.557	8397.72
912.869	8288.79
913.181	8240.43
913.494	8213.54
913.806	8207.89
914.118	8195.46
914.43	8097.61
914.742	8129.93
915.054	8090.61
915.366	8048.35
915.678	8016.03
915.99	7927.67
916.302	7943.94
916.613	7854
916.925	7838.41
917.236	7825.3
917.548	7755.02
917.859	7755.25
918.171	7735.81
918.482	7630.51
918.794	7623.73
919.105	7666.44
919.416	7609.94
919.727	7619.21
920.038	7529.49
920.349	7477.52
920.66	7441.58
920.971	7425.09
921.282	7410.62
921.593	7326.11
921.903	7377.86
922.214	7296.05
922.525	7283.85
922.835	7231.19
923.146	7243.17
923.456	7201.82
923.767	7198.2
924.077	7153.91
924.387	7084.08
924.697	7064.64
925.008	7054.25
925.318	6988.04
925.628	7019
925.938	6963.18
926.248	6929.73
926.558	6929.06
926.867	6868.94
927.177	6821.49
927.487	6801.6
927.796	6764.09
928.106	6773.58
928.416	6726.8
928.725	6764.31
929.034	6626.92
929.344	6647.25
929.653	6626.01
929.962	6604.09
930.271	6578.56
930.581	6489.74
930.89	6493.13
931.199	6513.47
931.508	6452.91
931.817	6390.09
932.125	6420.37
932.434	6395.74
932.743	6332.69
933.051	6299.47
933.36	6272.8
933.669	6246.36
933.977	6200.71
934.286	6225.34
934.594	6185.12
934.902	6136.76
935.21	6182.63
935.519	6123.88
935.827	6104.9
936.135	6064.9
936.443	6029.64
936.751	6028.97
937.059	6011.11
937.367	5962.53
937.674	5954.39
937.982	5909.42
938.29	5869.42
938.597	5883.66
938.905	5819.48
939.213	5781.74
939.52	5794.17
939.827	5772.25
940.135	5737.22
940.442	5723.66
940.749	5671.01
941.056	5663.1
941.363	5611.35
941.67	5628.07
941.977	5551.24
942.284	5544.46
942.591	5527.74
942.898	5501.97
943.205	5513.73
943.511	5458.36
943.818	5457.46
944.125	5411.58
944.431	5432.6
944.738	5426.27
945.044	5330
945.35	5348.31
945.657	5317.8
945.963	5287.06
946.269	5245.48
946.575	5226.28
946.881	5195.99
947.187	5232.83
947.493	5215.2
947.799	5169.1
948.105	5112.83
948.41	5094.08
948.716	5112.83
949.022	5092.72
949.327	5055.21
949.633	4973.4
949.938	5003.68
950.244	5000.74
950.549	4936.57
950.854	4957.58
951.16	4907.87
951.465	4872.61
951.77	4874.65
952.075	4823.57
952.38	4871.26
952.685	4809.34
952.99	4753.52
953.294	4772.05
953.599	4740.41
953.904	4694.54
954.209	4670.81
954.513	4682.56
954.818	4659.96
955.122	4670.58
955.426	4639.17
955.731	4601.21
956.035	4624.03
956.339	4531.6
956.643	4538.16
956.948	4515.79
957.252	4472.85
957.556	4492.96
957.86	4437.6
958.163	4438.95
958.467	4416.8
958.771	4407.77
959.075	4398.05
959.378	4414.54
959.682	4342.46
959.985	4319.63
960.289	4300.65
960.592	4292.51
960.896	4248.45
961.199	4291.38
961.502	4248.22
961.805	4242.8
962.108	4225.85
962.411	4223.14
962.714	4186.08
963.017	4154.89
963.32	4153.31
963.623	4105.4
963.926	4077.6
964.228	4074.89
964.531	4074.89
964.833	4011.62
965.136	4030.37
965.438	4013.88
965.741	3968.91
966.043	3986.31
966.345	3987.44
966.648	3915.58
966.95	3956.48
967.252	3929.59
967.554	3871.73
967.856	3841.9
968.158	3815.92
968.46	3843.26
968.761	3796.48
969.063	3753.32
969.365	3779.53
969.666	3760.32
969.968	3700.44
970.269	3715.81
970.571	3712.87
970.872	3717.16
971.174	3655.69
971.475	3688.46
971.776	3658.86
972.077	3603.04
972.378	3621.35
972.679	3615.47
972.98	3554
973.281	3539.31
973.582	3523.49
973.883	3540.22
974.183	3539.77
974.484	3521.46
974.785	3500.67
975.085	3481.91
975.386	3487.56
975.686	3511.07
975.986	3437.62
976.287	3423.61
976.587	3372.54
976.887	3350.84
977.187	3390.17
977.487	3356.72
977.787	3329.6
978.087	3339.09
978.387	3288.92
978.687	3346.55
978.987	3276.04
979.286	3263.61
979.586	3275.14
979.885	3225.88
980.185	3252.99
980.484	3221.81
980.784	3192.66
981.083	3177.97
981.382	3141.36
981.682	3181.81
981.981	3152.88
982.28	3129.38
982.579	3097.29
982.878	3073.11
983.177	3068.59
983.475	3065.2
983.774	3059.33
984.073	3075.15
984.372	3010.97
984.67	3030.4
984.969	3041.25
985.267	3008.48
985.566	2994.02
985.864	2973
986.162	2982.49
986.461	2935.94
986.759	2933
987.057	2923.74
987.355	2887.35
987.653	2828.82
987.951	2840.12
988.249	2850.52
988.547	2842.16
988.844	2845.77
989.142	2848.71
989.44	2797.41
989.737	2764.42
990.035	2797.19
990.332	2780.69
990.63	2725.55
990.927	2734.36
991.224	2728.49
991.521	2698.21
991.819	2699.79
992.116	2692.56
992.413	2681.48
992.71	2643.74
993.006	2665.44
993.303	2642.39
993.6	2606.46
993.897	2644.65
994.193	2595.84
994.49	2582.5
994.787	2545.22
995.083	2571.43
995.379	2554.71
995.676	2540.92
995.972	2498.89
996.268	2497.08
996.565	2505.67
996.861	2465.44
997.157	2490.75
997.453	2454.14
997.749	2437.2
998.044	2475.16
998.34	2404.2
998.636	2382.06
998.932	2361.94
999.227	2344.77
999.523	2347.93
999.818	2362.17
1000.114	2328.72
1000.409	2314.49
1000.704	2352.45
1001	2308.16
1001.295	2303.19
1001.59	2276.97
1001.885	2273.58
1002.18	2249.63
1002.475	2223.42
1002.77	2238.33
1003.065	2201.5
1003.359	2191.1
1003.654	2208.28
1003.949	2187.94
1004.243	2160.59
1004.538	2164.21
1004.832	2158.33
1005.127	2156.75
1005.421	2095.51
1005.715	2140.71
1006.009	2110.42
1006.304	2063.42
1006.598	2077.43
1006.892	2062.29
1007.186	2045.34
1007.48	2044.89
1007.773	2035.62
1008.067	2013.48
1008.361	1999.24
1008.655	1978.9
1008.948	1987.04
1009.242	1992.69
1009.535	1969.41
1009.829	1975.74
1010.122	1932.8
1010.415	1929.86
1010.708	1901.16
1011.001	1897.55
1011.295	1904.78
1011.588	1892.58
1011.881	1829.53
1012.173	1845.8
1012.466	1847.38
1012.759	1837.66
1013.052	1836.31
1013.344	1800.83
1013.637	1793.37
1013.93	1805.57
1014.222	1827.72
1014.514	1769.64
1014.807	1763.54
1015.099	1753.82
1015.391	1755.63
1015.683	1731.23
1015.976	1732.81
1016.268	1678.12
1016.56	1701.85
1016.851	1690.1
1017.143	1676.76
1017.435	1652.81
1017.727	1663.43
1018.018	1647.39
1018.31	1650.32
1018.602	1654.39
1018.893	1605.81
1019.185	1600.83
1019.476	1597.22
1019.767	1593.15
1020.058	1582.3
1020.35	1556.99
1020.641	1553.6
1020.932	1540.04
1021.223	1538.91
1021.514	1505.24
1021.804	1506.82
1022.095	1487.62
1022.386	1507.5
1022.677	1477.67
1022.967	1446.71
1023.258	1444.23
1023.548	1440.39
1023.839	1439.26
1024.129	1422.31
1024.419	1455.3
1024.709	1375.08
1025	1405.58
1025.29	1395.19
1025.58	1403.1
1025.87	1364.23
1026.16	1393.38
1026.449	1396.09
1026.739	1345.02
1027.029	1340.73
1027.319	1342.99
1027.608	1313.38
1027.898	1338.69
1028.187	1293.27
1028.477	1315.42
1028.766	1296.66
1029.055	1282.88
1029.344	1260.73
1029.634	1280.84
1029.923	1254.4
1030.212	1275.64
1030.501	1222.76
1030.79	1234.29
1031.078	1232.03
1031.367	1214.86
1031.656	1205.82
1031.945	1226.61
1032.233	1192.48
1032.522	1177.34
1032.81	1190.22
1033.099	1159.04
1033.387	1161.3
1033.675	1144.57
1033.963	1153.39
1034.251	1145.93
1034.54	1151.13
1034.828	1122.88
1035.116	1106.84
1035.403	1096.44
1035.691	1086.95
1035.979	1086.5
1036.267	1101.86
1036.554	1107.29
1036.842	1083.56
1037.129	1075.88
1037.417	1076.78
1037.704	1063.22
1037.992	1034.07
1038.279	1036.33
1038.566	1039.72
1038.853	1039.72
1039.14	1039.72
