Data from hue_140_FLMS001491_00081.txt Node
Date: Tue Feb 07 16:56:31 GMT 2017
User: dcchb
Spectrometer: FLMS00149
Trigger mode: 0
Integration Time (sec): 2.000000E-2
Scans to average: 10
Electric dark correction enabled: true
Nonlinearity correction enabled: false
Boxcar width: 0
XAxis mode: Wavelengths
Number of Pixels in Spectrum: 2048
>>>>>Begin Spectral Data<<<<<
341.393	-32.53
341.776	-32.53
342.16	-32.53
342.543	-54.22
342.927	-80.66
343.31	-53.09
343.693	-84.5
344.077	-82.47
344.46	-52.87
344.843	-59.65
345.226	-40.21
345.61	-19.87
345.993	-15.13
346.376	1.37
346.759	19
347.142	37.75
347.525	21.71
347.908	54.7
348.291	73.68
348.674	93.35
349.057	106.23
349.44	131.08
349.823	138.32
350.206	165.43
350.588	207.01
350.971	204.08
351.354	219.67
351.737	213.79
352.119	231.65
352.502	253.34
352.884	268.93
353.267	281.81
353.65	257.63
354.032	293.11
354.414	296.05
354.797	292.66
355.179	322.94
355.562	298.09
355.944	311.64
356.326	324.3
356.709	318.2
357.091	329.05
357.473	323.4
357.855	328.37
358.238	332.66
358.62	331.08
359.002	334.69
359.384	339.89
359.766	335.6
360.148	314.36
360.53	337.86
360.912	333.56
361.294	328.37
361.676	319.78
362.057	299.22
362.439	329.5
362.821	302.38
363.203	322.72
363.584	299.44
363.966	324.53
364.348	309.38
364.729	323.85
365.111	296.5
365.493	295.6
365.874	296.73
366.256	305.09
366.637	297.18
367.019	300.35
367.4	319.78
367.781	289.5
368.163	317.07
368.544	322.04
368.925	313.23
369.306	304.64
369.688	306.67
370.069	307.12
370.45	307.12
370.831	301.02
371.212	301.02
371.593	305.77
371.974	315.03
372.355	305.77
372.736	320.01
373.117	303.96
373.498	298.09
373.879	324.98
374.26	313.45
374.641	314.81
375.021	296.05
375.402	309.84
375.783	304.64
376.163	319.33
376.544	318.88
376.925	299.89
377.305	335.37
377.686	331.76
378.066	322.04
378.447	309.61
378.827	325.43
379.208	338.54
379.588	325.88
379.968	298.99
380.349	336.5
380.729	320.91
381.109	346.67
381.489	325.43
381.87	341.47
382.25	328.37
382.63	312.1
383.01	342.38
383.39	324.75
383.77	328.37
384.15	343.96
384.53	351.19
384.91	322.04
385.29	344.41
385.67	322.27
386.049	333.11
386.429	360
386.809	345.99
387.189	338.31
387.568	333.56
387.948	337.86
388.328	349.38
388.707	353
389.087	339.21
389.466	355.26
389.846	353.9
390.225	342.15
390.605	356.61
390.984	353.9
391.363	369.95
391.743	364.52
392.122	352.77
392.501	359.78
392.881	371.98
393.26	360.46
393.639	363.62
394.018	364.07
394.397	384.18
394.776	373.34
395.155	359.78
395.534	382.83
395.913	393.22
396.292	378.08
396.671	386.44
397.05	379.89
397.429	378.54
397.808	389.83
398.186	363.62
398.565	367.46
398.944	385.77
399.323	384.86
399.701	405.43
400.08	377.41
400.458	382.38
400.837	396.84
401.215	388.25
401.594	376.73
401.972	396.84
402.351	396.39
402.729	403.62
403.107	383.28
403.486	404.07
403.864	413.79
404.242	407.01
404.62	415.82
404.999	408.82
405.377	398.65
405.755	414.69
406.133	410.85
406.511	410.62
406.889	414.01
407.267	418.76
407.645	418.31
408.023	435.93
408.401	418.53
408.779	430.29
409.156	432.32
409.534	443.17
409.912	446.1
410.29	449.49
410.667	438.65
411.045	434.35
411.422	435.03
411.8	449.95
412.178	465.54
412.555	462.83
412.933	466.67
413.31	477.52
413.687	463.73
414.065	473.67
414.442	493.11
414.819	472.77
415.197	456.95
415.574	472.77
415.951	477.97
416.328	505.31
416.705	478.65
417.082	472.77
417.46	490.17
417.837	490.85
418.214	490.62
418.591	509.61
418.967	492.88
419.344	512.77
419.721	525.88
420.098	500.11
420.475	537.18
420.852	530.17
421.228	520.9
421.605	497.63
421.982	531.75
422.358	527.46
422.735	504.86
423.111	534.92
423.488	543.5
423.864	529.04
424.241	536.95
424.617	535.37
424.994	538.53
425.37	562.26
425.746	562.26
426.123	569.26
426.499	562.71
426.875	564.75
427.251	583.5
427.627	567
428.003	573.33
428.379	584.18
428.756	583.28
429.132	584.86
429.507	589.6
429.883	599.32
430.259	611.52
430.635	598.87
431.011	622.6
431.387	615.82
431.763	601.13
432.138	640
432.514	635.93
432.89	646.55
433.265	645.65
433.641	641.58
434.016	658.98
434.392	671.86
434.767	658.3
435.143	680.67
435.518	669.38
435.894	684.29
436.269	680.9
436.644	691.52
437.02	706.21
437.395	738.53
437.77	712.09
438.145	721.8
438.52	710.73
438.895	720
439.271	730.39
439.646	748.92
440.021	763.16
440.395	767.9
440.77	743.95
441.145	761.58
441.52	771.07
441.895	755.25
442.27	785.98
442.645	769.94
443.019	784.4
443.394	821.01
443.769	777.85
444.143	792.76
444.518	810.84
444.892	786.66
445.267	809.94
445.641	823.5
446.016	827.11
446.39	841.57
446.764	836.15
447.139	834.34
447.513	849.94
447.887	845.19
448.262	828.01
448.636	833.21
449.01	863.95
449.384	889.48
449.758	868.01
450.132	886.54
450.506	873.44
450.88	874.57
451.254	881.8
451.628	908.01
452.002	919.31
452.376	935.58
452.75	911.18
453.123	935.13
453.497	920.44
453.871	948.92
454.244	935.58
454.618	956.6
454.992	996.37
455.365	986.88
455.739	1012.42
456.112	1002.25
456.486	1016.71
456.859	1047.9
457.232	1036.37
457.606	1066.43
457.979	1067.33
458.352	1088.12
458.725	1094.22
459.099	1083.83
459.472	1120.44
459.845	1121.79
460.218	1141.91
460.591	1147.33
460.964	1177.16
461.337	1182.58
461.71	1190.04
462.083	1217.61
462.456	1207.44
462.829	1221
463.201	1254.44
463.574	1273.65
463.947	1287.66
464.32	1316.82
464.692	1313.2
465.065	1336.48
465.438	1365.85
465.81	1373.76
466.183	1380.54
466.555	1403.82
466.928	1420.09
467.3	1408.34
467.672	1480.2
468.045	1508
468.417	1511.84
468.789	1535.79
469.161	1561.55
469.534	1575.79
469.906	1641.55
470.278	1617.6
470.65	1677.03
471.022	1711.61
471.394	1745.05
471.766	1800.64
472.138	1805.16
472.51	1832.96
472.882	1891.49
473.253	1904.37
473.625	1930.81
473.997	1977.59
474.369	2015.33
474.74	2079.73
475.112	2110.24
475.484	2183.46
475.855	2255.55
476.227	2258.94
476.598	2342.33
476.97	2363.12
477.341	2432.94
477.713	2511.13
478.084	2553.85
478.455	2618.93
478.827	2697.12
479.198	2803.33
479.569	2800.17
479.94	2923.33
480.311	2985.47
480.682	3058.01
481.053	3163.55
481.424	3247.84
481.795	3320.15
482.166	3413.71
482.537	3499.58
482.908	3570.09
483.279	3699.8
483.65	3781.38
484.021	3914.71
484.391	4020.47
484.762	4046.46
485.133	4121.26
485.503	4256.85
485.874	4397.19
486.244	4486.45
486.615	4603.73
486.985	4751.53
487.356	4891.86
487.726	4989.04
488.097	5127.11
488.467	5164.4
488.837	5369.36
489.207	5484.16
489.578	5629.7
489.948	5736.59
490.318	5852.06
490.688	5985.17
491.058	6127.54
491.428	6263.13
491.798	6353.75
492.168	6580.63
492.538	6634.87
492.908	6726.62
493.278	6916.67
493.648	6927.52
494.017	7176.55
494.387	7263.78
494.757	7414.06
495.126	7511.46
495.496	7579.25
495.866	7750.77
496.235	7859.02
496.605	7978.34
496.974	8096.98
497.344	8255.84
497.713	8334.71
498.082	8407.02
498.452	8555.5
498.821	8645.66
499.19	8671.65
499.559	8868.93
499.928	9011.3
500.298	9063.28
500.667	9215.14
501.036	9243.84
501.405	9336.72
501.774	9374.23
502.143	9447.9
502.512	9530.84
502.88	9602.02
503.249	9731.06
503.618	9764.05
503.987	9915.46
504.356	9965.63
504.724	10104.83
505.093	10128.79
505.462	10162.68
505.83	10233.87
506.199	10379.63
506.567	10454.65
506.936	10444.71
507.304	10581.88
507.672	10642.45
508.041	10712.73
508.409	10737.36
508.777	10893.06
509.145	10902.78
509.514	10929.67
509.882	11065.26
510.25	11103.45
510.618	11084.92
510.986	11134.86
511.354	11350.68
511.722	11306.16
512.09	11416.21
512.458	11335.54
512.826	11505.47
513.193	11453.05
513.561	11493.72
513.929	11607.39
514.297	11651.46
514.664	11783.43
515.032	11686.94
515.4	11719.03
515.767	11828.4
516.135	11866.14
516.502	11861.17
516.869	11948.17
517.237	11939.14
517.604	11928.29
517.972	11969.64
518.339	12074.05
518.706	12065.69
519.073	12041.96
519.44	12226.36
519.808	12188.17
520.175	12194.5
520.542	12288.5
520.909	12329.86
521.276	12288.05
521.643	12334.83
522.009	12398.78
522.376	12409.41
522.743	12460.93
523.11	12582.51
523.477	12655.95
523.843	12575.5
524.21	12693.01
524.577	12678.1
524.943	12660.25
525.31	12780.7
525.676	12869.73
526.043	12839.45
526.409	12781.15
526.776	12894.36
527.142	12831.54
527.508	12916.06
527.874	12921.03
528.241	12980.46
528.607	12904.99
528.973	12974.14
529.339	12910.64
529.705	12957.41
530.071	13015.72
530.437	13055.04
530.803	13062.5
531.169	12988.15
531.535	12924.87
531.901	12915.38
532.267	12980.01
532.632	13011.42
532.998	12892.33
533.364	13051.65
533.73	13002.84
534.095	12970.97
534.461	13002.38
534.826	12943.85
535.192	13014.81
535.557	12984.98
535.923	12967.13
536.288	12864.31
536.653	12838.55
537.019	12799.23
537.384	12755.84
537.749	12767.81
538.114	12699.57
538.479	12693.47
538.845	12719.23
539.21	12665.22
539.575	12615.05
539.94	12634.26
540.305	12701.38
540.67	12611.66
541.034	12574.82
541.399	12614.37
541.764	12552.68
542.129	12525.56
542.494	12470.42
542.858	12427.71
543.223	12463.64
543.587	12376.64
543.952	12380.71
544.316	12305.45
544.681	12243.99
545.045	12262.29
545.41	12258.9
545.774	12241.5
546.138	12116.31
546.503	12187.04
546.867	12109.98
547.231	12076.31
547.595	12067.95
547.959	12039.25
548.324	12030.66
548.688	12010.09
549.052	12006.48
549.416	11981.62
549.779	11944.11
550.143	11861.62
550.507	11897.1
550.871	11905.69
551.235	11832.25
551.599	11841.96
551.962	11784.34
552.326	11824.11
552.689	11733.04
553.053	11716.09
553.417	11680.38
553.78	11793.6
554.143	11674.06
554.507	11630.22
554.87	11650.1
555.234	11639.93
555.597	11652.59
555.96	11661.63
556.323	11628.41
556.686	11643.78
557.05	11650.78
557.413	11597
557.776	11547.96
558.139	11605.58
558.502	11571.01
558.865	11504.57
559.228	11493.27
559.59	11562.42
559.953	11537.79
560.316	11581.4
560.679	11489.66
561.041	11529.88
561.404	11497.79
561.767	11561.97
562.129	11553.83
562.492	11585.02
562.854	11635.87
563.217	11467.74
563.579	11559.03
563.941	11546.83
564.304	11529.2
564.666	11604.23
565.028	11621.63
565.39	11634.06
565.753	11682.19
566.115	11693.49
566.477	11689.65
566.839	11693.49
567.201	11727.62
567.563	11702.08
567.925	11706.37
568.287	11640.61
568.648	11701.63
569.01	11764.68
569.372	11775.3
569.734	11748.18
570.095	11907.72
570.457	11813.71
570.819	11810.33
571.18	11851.91
571.542	11847.39
571.903	11801.51
572.265	11853.94
572.626	11824.56
572.987	11862.3
573.349	11895.52
573.71	11831.12
574.071	11950.66
574.432	11911.34
574.794	11949.76
575.155	11926.93
575.516	11878.12
575.877	11935.52
576.238	11914.28
576.599	12020.72
576.96	11908.18
577.32	11947.04
577.681	11940.72
578.042	11966.71
578.403	11929.87
578.763	11931.45
579.124	11955.86
579.485	11945.46
579.845	11918.34
580.206	12032.24
580.566	11973.48
580.927	11916.99
581.287	12077.21
581.648	11989.76
582.008	11992.92
582.368	12048.74
582.728	11971.68
583.089	11975.74
583.449	11943.2
583.809	11919.25
584.169	11976.42
584.529	11939.14
584.889	11991.56
585.249	11882.19
585.609	11898.23
585.969	11928.74
586.329	11870.66
586.688	11924.22
587.048	11853.49
587.408	11799.93
587.768	11809.65
588.127	11764
588.487	11791.57
588.846	11909.53
589.206	11768.74
589.565	11784.34
589.925	11848.52
590.284	11834.96
590.643	11770.78
591.003	11804.22
591.362	11826.6
591.721	11781.63
592.08	11798.57
592.44	11796.54
592.799	11757.22
593.158	11748.86
593.517	11751.57
593.876	11730.55
594.235	11750.21
594.593	11789.99
594.952	11763.77
595.311	11722.19
595.67	11775.98
596.029	11716.54
596.387	11736.65
596.746	11771.23
597.104	11693.27
597.463	11678.13
597.822	11732.81
598.18	11701.4
598.538	11714.73
598.897	11769.87
599.255	11638.13
599.613	11781.17
599.972	11700.5
600.33	11756.99
600.688	11666.37
601.046	11777.56
601.404	11724.45
601.762	11628.86
602.12	11754.96
602.478	11814.62
602.836	11707.73
603.194	11707.95
603.552	11672.7
603.91	11638.58
604.268	11742.3
604.625	11657.11
604.983	11728.52
605.341	11594.74
605.698	11701.63
606.056	11663.21
606.413	11677.22
606.771	11707.5
607.128	11762.19
607.485	11735.07
607.843	11699.14
608.2	11764
608.557	11857.56
608.914	11778.24
609.272	11736.88
609.629	11706.15
609.986	11815.07
610.343	11813.94
610.7	11905.69
611.057	11821.4
611.414	11797.44
611.771	11791.12
612.127	11905.01
612.484	11851.45
612.841	11869.76
613.198	11829.31
613.554	11912.92
613.911	11954.95
614.267	11810.78
614.624	11817.78
614.98	11855.3
615.337	11954.73
615.693	11876.76
616.05	11894.62
616.406	11927.16
616.762	11953.37
617.118	11930.77
617.475	11889.19
617.831	11983.43
618.187	11983.43
618.543	12015.52
618.899	12050.09
619.255	12002.86
619.611	12041.28
619.967	12024.33
620.323	12080.15
620.678	12073.59
621.034	11924.67
621.39	12027.04
621.746	11942.75
622.101	12145.01
622.457	12011.45
622.812	12013.26
623.168	12101.84
623.523	12027.72
623.879	12075.85
624.234	12041.51
624.589	12105.91
624.945	12046.48
625.3	12062.3
625.655	12057.55
626.01	12060.26
626.365	12143.88
626.72	12075.63
627.075	12086.25
627.43	11962.86
627.785	11963.32
628.14	12099.36
628.495	12027.72
628.85	12000.15
629.205	11977.55
629.559	12141.16
629.914	11973.03
630.269	11974.39
630.623	11955.63
630.978	11999.7
631.332	11976.87
631.687	12024.1
632.041	11983.88
632.396	11919.93
632.75	11957.89
633.104	11908.18
633.459	11893.71
633.813	11880.83
634.167	11862.75
634.521	11832.7
634.875	11875.41
635.229	11855.07
635.583	11739.37
635.937	11834.96
636.291	11733.49
636.645	11759.25
636.999	11708.18
637.352	11766.26
637.706	11632.02
638.06	11801.51
638.413	11662.08
638.767	11641.52
639.121	11708.63
639.474	11612.82
639.828	11667.73
640.181	11656.88
640.534	11700.05
640.888	11606.49
641.241	11536.21
641.594	11635.41
641.947	11605.13
642.301	11565.59
642.654	11589.54
643.007	11576.88
643.36	11546.83
643.713	11535.08
644.066	11556.09
644.419	11503.21
644.771	11441.07
645.124	11317.23
645.477	11317.68
645.83	11261.19
646.182	11158.14
646.535	11241.07
646.888	11203.79
647.24	11119.04
647.593	11216.22
647.945	11113.39
648.298	11147.97
648.65	11131.47
649.002	11141.19
649.355	11056.22
649.707	11143
650.059	11197.69
650.411	11366.04
650.763	11324.91
651.115	11380.51
651.467	11400.84
651.819	11393.84
652.171	11377.79
652.523	11412.37
652.875	11391.8
653.227	11339.83
653.578	11408.75
653.93	11434.52
654.282	11333.5
654.633	11336.44
654.985	11304.58
655.337	11381.64
655.688	11361.3
656.039	11415.99
656.391	11311.81
656.742	11333.05
657.094	11376.66
657.445	11425.25
657.796	11350.45
658.147	11295.99
658.498	11380.05
658.849	11381.41
659.2	11352.26
659.551	11348.42
659.902	11359.49
660.253	11356.55
660.604	11370.56
660.955	11329.21
661.306	11419.6
661.656	11375.08
662.007	11454.85
662.358	11400.62
662.708	11379.15
663.059	11369.66
663.409	11355.42
663.76	11385.48
664.11	11463.22
664.461	11449.66
664.811	11412.37
665.161	11444.91
665.511	11441.07
665.862	11388.64
666.212	11478.81
666.562	11479.49
666.912	11418.92
667.262	11434.97
667.612	11461.86
667.962	11455.08
668.312	11460.73
668.662	11485.14
669.011	11441.97
669.361	11414.63
669.711	11383.44
670.06	11379.83
670.41	11321.07
670.76	11312.26
671.109	11349.55
671.459	11331.02
671.808	11400.17
672.157	11390.45
672.507	11285.59
672.856	11314.52
673.205	11382.99
673.554	11358.81
673.904	11267.29
674.253	11427.74
674.602	11362.2
674.951	11201.3
675.3	11147.52
675.649	11226.16
675.998	11309.77
676.346	11230.91
676.695	11270
677.044	11181.42
677.393	11204.47
677.741	11229.55
678.09	11209.44
678.438	11171.7
678.787	11209.89
679.135	11199.04
679.484	11074.53
679.832	11117.01
680.181	11101.19
680.529	11028.42
680.877	11070.46
681.225	11042.21
681.573	11087.18
681.922	10993.4
682.27	10966.05
682.618	11023.23
682.966	10900.74
683.314	10976.67
683.661	10893.51
684.009	10857.13
684.357	10903.91
684.705	10914.76
685.053	10840.41
685.4	10856.23
685.748	10844.7
686.095	10818.26
686.443	10743.69
686.79	10693.29
687.138	10750.69
687.485	10719.73
687.832	10651.03
688.18	10684.7
688.527	10573.52
688.874	10619.4
689.221	10599.28
689.568	10510.02
689.915	10538.04
690.262	10536.23
690.609	10432.96
690.956	10446.29
691.303	10418.05
691.65	10364.04
691.997	10403.58
692.344	10299.18
692.69	10254.89
693.037	10325.62
693.383	10125.62
693.73	10123.82
694.077	10078.62
694.423	10091.73
694.769	10066.64
695.116	10028.9
695.462	9965.4
695.808	9971.05
696.155	9938.74
696.501	9843.6
696.847	9916.36
697.193	9827.55
697.539	9854.44
697.885	9706.43
698.231	9717.27
698.577	9703.49
698.923	9664.84
699.269	9609.7
699.614	9555.02
699.96	9530.39
700.306	9535.58
700.651	9545.98
700.997	9468.01
701.342	9383.95
701.688	9385.08
702.033	9339.66
702.379	9356.6
702.724	9305.76
703.069	9349.37
703.415	9257.62
703.76	9172.65
704.105	9202.94
704.45	9142.6
704.795	9160.23
705.14	9092.43
705.485	9109.83
705.83	9037.29
706.175	9053.11
706.52	8978.99
706.865	9003.39
707.209	8952.55
707.554	8931.76
707.899	8952.77
708.243	8845.21
708.588	8825.77
708.932	8767.24
709.277	8799.1
709.621	8805.88
709.966	8699.9
710.31	8730.63
710.654	8631.65
710.998	8698.77
711.342	8673.23
711.687	8588.49
712.031	8581.94
712.375	8600.92
712.719	8595.95
713.063	8558.89
713.407	8581.26
713.75	8606.57
714.094	8537.64
714.438	8527.02
714.782	8458.55
715.125	8441.83
715.469	8479.11
715.812	8417.42
716.156	8347.82
716.499	8371.32
716.843	8364.31
717.186	8378.78
717.53	8427.59
717.873	8367.7
718.216	8377.19
718.559	8227.14
718.902	8299.68
719.246	8260.59
719.589	8215.39
719.932	8255.39
720.275	8203.64
720.617	8241.83
720.96	8249.29
721.303	8173.36
721.646	8193.47
721.989	8143.3
722.331	8209.97
722.674	8193.47
723.016	8202.96
723.359	8210.19
723.701	8238.22
724.044	8050.88
724.386	8124.09
724.729	8181.49
725.071	8143.08
725.413	8110.08
725.755	8157.99
726.097	8061.72
726.439	8076.19
726.782	8087.71
727.124	8134.26
727.465	8108.05
727.807	8094.49
728.149	8047.26
728.491	8031.44
728.833	8109.41
729.175	8044.32
729.516	8040.93
729.858	8016.3
730.199	8041.16
730.541	8021.27
730.882	8009.3
731.224	7975.17
731.565	8021.95
731.906	7993.48
732.248	8006.58
732.589	7949.41
732.93	7947.15
733.271	7984.66
733.612	8004.55
733.953	7997.77
734.294	7998
734.635	7957.77
734.976	8028.73
735.317	8012.23
735.658	7900.37
735.999	7977.21
736.339	7982.4
736.68	7981.73
737.021	7959.35
737.361	8012.23
737.702	8034.83
738.042	8053.59
738.383	8068.05
738.723	8091.78
739.063	8009.3
739.404	8042.97
739.744	8031.89
740.084	8059.01
740.424	8056.3
740.764	8060.82
741.104	8061.05
741.444	8120.25
741.784	8098.33
742.124	8125
742.464	8170.65
742.804	8125
743.143	8093.59
743.483	8156.41
743.823	8111.21
744.162	8211.1
744.502	8233.47
744.841	8272.56
745.181	8328.38
745.52	8369.51
745.86	8350.08
746.199	8383.3
746.538	8427.59
746.877	8438.66
747.216	8524.08
747.556	8611.54
747.895	8643.85
748.234	8565.44
748.573	8698.54
748.911	8642.95
749.25	8841.14
749.589	8828.71
749.928	8922.27
750.267	9008.36
750.605	9008.59
750.944	9108.02
751.283	9141.92
751.621	9218.98
751.96	9260.34
752.298	9365.87
752.636	9509.82
752.975	9531.74
753.313	9625.07
753.651	9766.99
753.989	9821.22
754.327	9844.05
754.666	10016.47
755.004	10137.37
755.342	10258.05
755.679	10375.33
756.017	10500.98
756.355	10677.93
756.693	10752.05
757.031	10869.56
757.368	10994.75
757.706	11144.81
758.044	11240.17
758.381	11455.76
758.719	11571.24
759.056	11658.01
759.394	11891.45
759.731	11961.73
760.068	12082.41
760.405	12258.22
760.743	12359.92
761.08	12641.26
761.417	12758.55
761.754	12891.88
762.091	13084.19
762.428	13220.91
762.765	13306.1
763.102	13597.17
763.438	13598.75
763.775	13801.01
764.112	13971.62
764.449	14229.24
764.785	14217.27
765.122	14394.89
765.458	14429.24
765.795	14605.51
766.131	14876.46
766.467	14916.68
766.804	15077.81
767.14	15112.16
767.476	15374.75
767.812	15417.91
768.148	15596.21
768.485	15702.2
768.821	15752.59
769.157	15896.77
769.492	15997.11
769.828	16176.09
770.164	16182.19
770.5	16316.2
770.836	16407.94
771.171	16478
771.507	16595.28
771.842	16655.62
772.178	16837.76
772.513	16811.78
772.849	16955.5
773.184	16942.17
773.519	17103.75
773.855	17167.02
774.19	17153.69
774.525	17224.42
774.86	17306.68
775.195	17441.36
775.53	17384.19
775.865	17383.96
776.2	17450.4
776.535	17412.21
776.87	17606.78
777.205	17555.03
777.539	17535.82
777.874	17754.35
778.209	17579.89
778.543	17717.97
778.878	17615.82
779.212	17740.79
779.547	17675.71
779.881	17810.85
780.215	17700.79
780.55	17891.3
780.884	17842.93
781.218	17764.29
781.552	17954.12
781.886	17898.07
782.22	17788.7
782.554	17841.8
782.888	17695.37
783.222	17799.55
783.556	17600.68
783.889	17671.64
784.223	17656.73
784.557	17738.76
784.89	17719.77
785.224	17675.93
785.557	17588.03
785.891	17559.1
786.224	17589.61
786.558	17635.48
786.891	17489.72
787.224	17427.35
787.557	17504.64
787.891	17486.33
788.224	17490.4
788.557	17501.47
788.89	17541.47
789.223	17523.4
789.556	17397.3
789.888	17424.64
790.221	17313.01
790.554	17307.36
790.887	17258.32
791.219	17232.56
791.552	17262.16
791.884	17165.66
792.217	17184.65
792.549	17097.87
792.882	17030.53
793.214	16966.8
793.546	17067.81
793.879	16984.65
794.211	16894.49
794.543	17001.38
794.875	16877.76
795.207	16948.72
795.539	16913.02
795.871	16861.72
796.203	16720.7
796.535	16661.5
796.867	16640.03
797.198	16612.01
797.53	16693.81
797.862	16447.27
798.193	16534.95
798.525	16533.59
798.856	16461.28
799.188	16331.11
799.519	16304.44
799.85	16300.15
800.182	16268.74
800.513	16271
800.844	16112.13
801.175	16273.94
801.506	16178.8
801.837	16160.72
802.168	16104
802.499	16041.4
802.83	16044.34
803.161	15910.1
803.491	15903.78
803.822	15905.13
804.153	15855.87
804.483	15772.25
804.814	15688.64
805.145	15716.66
805.475	15703.56
805.805	15581.53
806.136	15641.86
806.466	15640.05
806.796	15543.79
807.126	15471.25
807.457	15525.26
807.787	15486.84
808.117	15434.41
808.447	15358.71
808.777	15400.97
809.107	15338.82
809.436	15301.08
809.766	15236.9
810.096	15278.71
810.426	15191.71
810.755	15216.79
811.085	15215.21
811.414	15088.66
811.744	15048.88
812.073	15003.24
812.403	15030.81
812.732	14944.48
813.061	14925.5
813.39	14832.62
813.719	14857.02
814.049	14850.7
814.378	14840.75
814.707	14822
815.036	14789
815.365	14730.93
815.693	14582.68
816.022	14591.04
816.351	14616.58
816.68	14515.79
817.008	14500.2
817.337	14471.27
817.665	14425.17
817.994	14471.95
818.322	14473.76
818.651	14431.5
818.979	14375.23
819.307	14426.98
819.636	14312.63
819.964	14220.43
820.292	14323.03
820.62	14287.1
820.948	14243.26
821.276	14292.52
821.604	14221.79
821.932	14310.6
822.259	14263.14
822.587	14188.34
822.915	14230.15
823.243	14312.63
823.57	14344.27
823.898	14241.22
824.225	14228.11
824.553	14217.04
824.88	14202.13
825.207	14188.12
825.535	14249.58
825.862	14241.67
826.189	14234.89
826.516	14317.83
826.843	14365.51
827.17	14229.7
827.497	14341.11
827.824	14357.6
828.151	14330.03
828.478	14298.4
828.805	14355.79
829.131	14242.58
829.458	14297.27
829.785	14146.31
830.111	14258.85
830.438	14347.66
830.764	14348.34
831.09	14329.13
831.417	14182.01
831.743	14292.52
832.069	14283.93
832.395	14218.4
832.722	14243.03
833.048	14098.17
833.374	14247.32
833.7	14182.01
834.026	14174.78
834.351	14220.66
834.677	14161.9
835.003	14109.47
835.329	14178.85
835.654	14091.4
835.98	14098.4
836.306	14075.12
836.631	13972.08
836.956	14118.06
837.282	14131.39
837.607	14078.74
837.932	13849.82
838.258	14039.87
838.583	13935.01
838.908	13901.12
839.233	13955.13
839.558	13888.46
839.883	13864.51
840.208	13785.19
840.533	13787.45
840.858	13809.14
841.182	13772.31
841.507	13767.11
841.832	13746.55
842.156	13643.05
842.481	13644.85
842.805	13652.31
843.13	13589.26
843.454	13481.69
843.778	13519.43
844.103	13437.85
844.427	13408.93
844.751	13473.78
845.075	13460.45
845.399	13342.94
845.723	13291.64
846.047	13355.6
846.371	13143.62
846.695	13253.22
847.019	13124.41
847.343	13065.21
847.666	13013.46
847.99	12984.08
848.313	12920.8
848.637	12833.35
848.96	12867.47
849.284	12770.53
849.607	12634.26
849.931	12625.22
850.254	12640.81
850.577	12524.66
850.9	12412.57
851.223	12462.74
851.546	12342.51
851.869	12318.11
852.192	12435.62
852.515	12237.66
852.838	12196.08
853.161	12205.12
853.483	12117.89
853.806	12102.07
854.129	12079.7
854.451	12014.16
854.774	11931.9
855.096	11945.01
855.419	11954.05
855.741	11851.91
856.063	11773.49
856.385	11765.13
856.708	11751.57
857.03	11713.83
857.352	11670.44
857.674	11658.92
857.996	11604.23
858.318	11504.57
858.64	11536.21
858.961	11481.97
859.283	11453.95
859.605	11414.63
859.926	11467.06
860.248	11359.49
860.57	11365.37
860.891	11387.96
861.212	11359.26
861.534	11215.99
861.855	11263.9
862.176	11247.85
862.498	11199.49
862.819	11264.58
863.14	11156.33
863.461	11194.52
863.782	11142.55
864.103	11186.39
864.424	11114.3
864.745	11156.56
865.065	11063.23
865.386	10936.45
865.707	10981.87
866.027	10920.4
866.348	10947.3
866.668	10860.97
866.989	10933.29
867.309	10829.33
867.63	10865.94
867.95	10784.14
868.27	10745.04
868.59	10873.4
868.91	10813.74
869.23	10787.53
869.55	10784.82
869.87	10777.58
870.19	10682.22
870.51	10707.3
870.83	10783.23
871.15	10670.47
871.469	10615.33
871.789	10662.11
872.109	10638.83
872.428	10542.56
872.748	10632.95
873.067	10533.3
873.386	10585.72
873.706	10552.96
874.025	10521.77
874.344	10477.25
874.663	10494.43
874.982	10479.06
875.301	10432.28
875.62	10419.18
875.939	10384.83
876.258	10419.4
876.577	10364.26
876.896	10247.2
877.214	10310.03
877.533	10271.83
877.852	10351.38
878.17	10299.63
878.489	10289.91
878.807	10278.39
879.125	10296.47
879.444	10241.78
879.762	10148.9
880.08	10223.93
880.398	10148.9
880.716	10155.91
881.034	10109.58
881.352	10143.25
881.67	10110.93
881.988	10082.91
882.306	10059.86
882.624	10097.83
882.941	9950.03
883.259	9952.29
883.577	9969.47
883.894	9929.7
884.212	9986.42
884.529	9915.69
884.846	9871.39
885.164	9883.37
885.481	9842.24
885.798	9833.88
886.115	9716.14
886.432	9793.65
886.75	9717.72
887.067	9793.65
887.383	9741.23
887.7	9715.46
888.017	9654.22
888.334	9624.62
888.651	9620.55
888.967	9617.16
889.284	9455.13
889.6	9546.2
889.917	9477.51
890.233	9484.28
890.55	9427.34
890.866	9422.82
891.182	9390.5
891.498	9378.52
891.815	9317.51
892.131	9303.5
892.447	9247.23
892.763	9206.33
893.079	9236.16
893.395	9198.42
893.71	9155.71
894.026	9091.3
894.342	9198.64
894.657	9048.59
894.973	9079.1
895.289	9020.57
895.604	9018.31
895.92	8905.32
896.235	8845.21
896.55	8912.32
896.865	8865.09
897.181	8883.85
897.496	8849.72
897.811	8702.84
898.126	8778.99
898.441	8743.06
898.756	8626.45
899.071	8697.64
899.386	8679.11
899.7	8539.68
900.015	8558.21
900.33	8468.27
900.644	8444.31
900.959	8453.58
901.273	8439.11
901.588	8408.61
901.902	8334.03
902.216	8344.43
902.531	8291.1
902.845	8224.88
903.159	8235.05
903.473	8220.81
903.787	8186.24
904.101	8133.13
904.415	8122.29
904.729	8057.43
905.042	8000.93
905.356	8043.42
905.67	7992.35
905.984	8027.15
906.297	8011.55
906.611	7852.69
906.924	7901.73
907.237	7866.47
907.551	7812.92
907.864	7753.93
908.177	7743.54
908.491	7730.66
908.804	7756.65
909.117	7619.7
909.43	7641.62
909.743	7606.14
910.056	7588.29
910.368	7545.13
910.681	7513.04
910.994	7455.19
911.307	7462.19
911.619	7404.79
911.932	7381.51
912.244	7334.51
912.557	7348.75
912.869	7305.81
913.181	7237.79
913.494	7190.56
913.806	7153.72
914.118	7158.92
914.43	7064.91
914.742	7078.92
915.054	7060.39
915.366	7086.61
915.678	7008.87
915.99	6993.95
916.302	6964.12
916.613	6895.88
916.925	6959.38
917.236	6878.48
917.548	6841.19
917.859	6859.49
918.171	6804.35
918.482	6751.48
918.794	6720.97
919.105	6706.73
919.416	6690.69
919.727	6660.63
920.038	6616.11
920.349	6565.04
920.66	6592.84
920.971	6577.92
921.282	6499.96
921.593	6490.69
921.903	6450.24
922.214	6394.65
922.525	6425.83
922.835	6398.26
923.146	6362.56
923.456	6264.93
923.767	6360.52
924.077	6335.21
924.387	6290.24
924.697	6210.7
925.008	6232.39
925.318	6168.89
925.628	6164.82
925.938	6144.26
926.248	6043.25
926.558	6091.15
926.867	6044.6
927.177	5953.98
927.487	6001.44
927.796	5975.9
928.106	5964.38
928.416	5983.36
928.725	5934.77
929.034	5894.77
929.344	5863.36
929.653	5859.07
929.962	5805.29
930.271	5800.31
930.581	5761.67
930.89	5777.94
931.199	5691.39
931.508	5714.67
931.817	5684.84
932.125	5711.95
932.434	5655.46
932.743	5625.85
933.051	5573.88
933.36	5565.29
933.669	5564.16
933.977	5493.65
934.286	5528.46
934.594	5506.99
934.902	5396.26
935.21	5429.25
935.519	5462.24
935.827	5396.26
936.135	5415.92
936.443	5336.82
936.751	5364.62
937.059	5346.77
937.367	5277.16
937.674	5262.7
937.982	5257.05
938.29	5177.96
938.597	5201.46
938.905	5133.89
939.213	5135.92
939.52	5110.39
939.827	5121.24
940.135	5025.42
940.442	5041.69
940.749	5038.53
941.056	5048.02
941.363	4998.3
941.67	5010.96
941.977	4956.27
942.284	4883.73
942.591	4882.82
942.898	4905.65
943.205	4868.59
943.511	4861.58
943.818	4827.68
944.125	4833.11
944.431	4820.23
944.738	4798.08
945.044	4726.22
945.35	4742.49
945.657	4657.52
945.963	4663.62
946.269	4601.48
946.575	4616.62
946.881	4632.21
947.187	4579.1
947.493	4532.1
947.799	4551.98
948.105	4566
948.41	4489.61
948.716	4504.53
949.022	4453.68
949.327	4468.6
949.633	4433.57
949.938	4440.58
950.244	4423.17
950.549	4347.02
950.854	4350.18
951.16	4368.26
951.465	4331.65
951.77	4305.44
952.075	4307.92
952.38	4276.29
952.685	4289.17
952.99	4200.81
953.294	4218.21
953.599	4169.85
953.904	4187.47
954.209	4131.66
954.513	4133.69
954.818	4124.43
955.122	4155.16
955.426	4104.99
955.731	4088.95
956.035	4034.26
956.339	4028.61
956.643	4067.03
956.948	4003.98
957.252	3977.31
957.556	3986.58
957.86	3962.4
958.163	3900.25
958.467	3895.28
958.771	3924.43
959.075	3893.25
959.378	3835.17
959.682	3850.08
959.985	3825.9
960.289	3805.79
960.592	3813.25
960.896	3790.65
961.199	3787.71
961.502	3796.07
961.805	3722.63
962.108	3739.58
962.411	3723.31
962.714	3677.66
963.017	3724.44
963.32	3686.7
963.623	3660.71
963.926	3648.28
964.228	3589.75
964.531	3595.63
964.833	3597.21
965.136	3601.95
965.438	3531.45
965.741	3525.8
966.043	3530.54
966.345	3522.18
966.648	3470.88
966.95	3488.06
967.252	3429.53
967.554	3465.01
967.856	3402.64
968.158	3388.17
968.46	3421.39
968.761	3363.09
969.063	3399.47
969.365	3387.95
969.666	3349.08
969.968	3258.91
970.269	3354.5
970.571	3296.65
970.872	3319.7
971.174	3253.49
971.475	3270.21
971.776	3256.2
972.077	3224.56
972.378	3212.81
972.679	3220.04
972.98	3189.53
973.281	3144.79
973.582	3137.78
973.883	3153.15
974.183	3136.43
974.484	3112.02
974.785	3102.31
975.085	3132.59
975.386	3090.55
975.686	3060.95
975.986	3045.58
976.287	3011.23
976.587	3024.34
976.887	3011.69
977.187	2987.73
977.487	3016.43
977.787	2948.64
978.087	2991.12
978.387	2967.62
978.687	2922.2
978.987	2914.97
979.286	2926.72
979.586	2926.94
979.885	2898.47
980.185	2859.83
980.484	2853.27
980.784	2832.03
981.083	2832.26
981.382	2811.24
981.682	2795.87
981.981	2801.3
982.28	2803.1
982.579	2761.07
982.878	2761.98
983.177	2715.2
983.475	2756.78
983.774	2684.01
984.073	2727.17
984.372	2696.89
984.67	2733.5
984.969	2665.48
985.267	2637.68
985.566	2638.14
985.864	2647.18
986.162	2625.93
986.461	2588.42
986.759	2623
987.057	2571.02
987.355	2560.62
987.653	2557.46
987.951	2574.18
988.249	2572.83
988.547	2540.96
988.844	2498.25
989.142	2512.26
989.44	2478.37
989.737	2448.76
990.035	2446.5
990.332	2460.51
990.63	2456.45
990.927	2421.19
991.224	2443.79
991.521	2418.93
991.819	2421.42
992.116	2409.67
992.413	2355.66
992.71	2402.89
993.006	2366.73
993.303	2330.35
993.6	2347.97
993.897	2320.41
994.193	2317.02
994.49	2320.63
994.787	2277.24
995.083	2286.51
995.379	2258.26
995.676	2281.76
995.972	2273.4
996.268	2258.49
996.565	2225.04
996.861	2200.63
997.157	2190.47
997.453	2156.12
997.749	2202.67
998.044	2173.29
998.34	2177.13
998.636	2156.34
998.932	2116.79
999.227	2124.93
999.523	2100.52
999.818	2111.82
1000.114	2057.36
1000.409	2086.29
1000.704	2058.27
1001	2083.58
1001.295	2091.71
1001.59	2027.98
1001.885	2037.25
1002.18	1989.79
1002.475	1999.74
1002.77	2004.03
1003.065	1971.94
1003.359	1954.54
1003.654	1971.49
1003.949	1944.82
1004.243	1906.86
1004.538	1937.36
1004.832	1957.48
1005.127	1915.9
1005.421	1885.84
1005.715	1900.53
1006.009	1881.55
1006.304	1893.52
1006.598	1846.75
1006.892	1836.35
1007.186	1843.13
1007.48	1827.08
1007.773	1827.54
1008.067	1828.44
1008.361	1772.17
1008.655	1775.33
1008.948	1783.02
1009.242	1768.56
1009.535	1755
1009.829	1743.92
1010.122	1740.31
1010.415	1750.7
1010.708	1730.59
1011.001	1703.02
1011.295	1675.22
1011.588	1682.91
1011.881	1681.55
1012.173	1665.28
1012.466	1653.08
1012.759	1671.61
1013.052	1658.95
1013.344	1615.11
1013.637	1628.45
1013.93	1645.17
1014.222	1607.2
1014.514	1632.97
1014.807	1597.26
1015.099	1616.69
1015.391	1553.42
1015.683	1574.44
1015.976	1513.42
1016.268	1513.19
1016.56	1519.52
1016.851	1519.07
1017.143	1513.19
1017.435	1485.17
1017.727	1466.42
1018.018	1477.04
1018.31	1486.08
1018.602	1492.63
1018.893	1466.87
1019.185	1433.87
1019.476	1431.61
1019.767	1428.45
1020.058	1419.19
1020.35	1383.48
1020.641	1367.66
1020.932	1425.29
1021.223	1377.83
1021.514	1359.75
1021.804	1380.09
1022.095	1340.09
1022.386	1333.76
1022.677	1348.45
1022.967	1300.77
1023.258	1309.36
1023.548	1318.62
1023.839	1292.41
1024.129	1293.99
1024.419	1285.63
1024.709	1284.27
1025	1277.95
1025.29	1275.01
1025.58	1262.35
1025.87	1262.13
1026.16	1224.61
1026.449	1236.14
1026.739	1229.36
1027.029	1186.88
1027.319	1212.64
1027.608	1216.71
1027.898	1168.8
1028.187	1200.66
1028.477	1165.18
1028.766	1159.31
1029.055	1167.22
1029.344	1166.31
1029.634	1143.71
1029.923	1137.39
1030.212	1124.5
1030.501	1138.74
1030.79	1126.99
1031.078	1104.84
1031.367	1115.47
1031.656	1073.43
1031.945	1096.48
1032.233	1090.38
1032.522	1096.48
1032.81	1061
1033.099	1049.93
1033.387	1045.86
1033.675	1066.43
1033.963	1057.39
1034.251	1036.15
1034.54	1041.79
1034.828	1041.12
1035.116	1032.53
1035.403	1025.3
1035.691	987.56
1035.979	983.04
1036.267	996.82
1036.554	993.43
1036.842	976.94
1037.129	946.66
1037.417	949.59
1037.704	955.02
1037.992	957.73
1038.279	943.72
1038.566	946.43
1038.853	946.43
1039.14	946.43
