Data from hue_340_FLMS001491_51.txt Node
Date: Mon Feb 06 15:43:17 GMT 2017
User: dcchb
Spectrometer: FLMS00149
Trigger mode: 0
Integration Time (sec): 2.000000E-2
Scans to average: 10
Electric dark correction enabled: true
Nonlinearity correction enabled: false
Boxcar width: 0
XAxis mode: Wavelengths
Number of Pixels in Spectrum: 2048
>>>>>Begin Spectral Data<<<<<
341.393	-17.43
341.776	-17.43
342.16	-17.43
342.543	-82.96
342.927	-53.59
343.31	-55.62
343.693	-88.61
344.077	-48.61
344.46	-55.62
344.843	-51.55
345.226	-47.26
345.61	-28.05
345.993	-14.27
346.376	-20.37
346.759	3.81
347.142	13.3
347.525	61.89
347.908	41.33
348.291	72.96
348.674	100.53
349.057	116.13
349.44	117.48
349.823	151.83
350.206	144.6
350.588	191.61
350.971	204.49
351.354	208.78
351.737	223.69
352.119	260.3
352.502	264.6
352.884	275.44
353.267	267.31
353.65	297.59
354.032	298.49
354.414	289.68
354.797	318.61
355.179	311.83
355.562	334.65
355.944	339.17
356.326	331.04
356.709	334.65
357.091	319.96
357.473	351.15
357.855	342.11
358.238	341.21
358.62	326.06
359.002	320.64
359.384	356.12
359.766	350.02
360.148	317.93
360.53	351.15
360.912	322.68
361.294	310.92
361.676	334.88
362.057	328.78
362.439	314.31
362.821	321.77
363.203	319.51
363.584	314.54
363.966	313.18
364.348	300.98
364.729	323.58
365.111	306.18
365.493	305.05
365.874	319.06
366.256	319.96
366.637	329.68
367.019	317.7
367.4	297.82
367.781	284.94
368.163	311.15
368.544	311.6
368.925	297.59
369.306	315.9
369.688	303.69
370.069	305.73
370.45	289.68
370.831	332.62
371.212	279.51
371.593	314.54
371.974	300.53
372.355	305.73
372.736	319.74
373.117	310.25
373.498	332.62
373.879	312.51
374.26	293.98
374.641	312.28
375.021	291.94
375.402	304.37
375.783	310.7
376.163	295.33
376.544	326.29
376.925	315.9
377.305	337.82
377.686	323.13
378.066	328.55
378.447	337.36
378.827	323.35
379.208	313.41
379.588	324.71
379.968	312.51
380.349	328.78
380.729	342.79
381.109	325.84
381.489	332.17
381.87	337.59
382.25	321.55
382.63	334.2
383.01	327.87
383.39	352.05
383.77	322
384.15	342.56
384.53	349.34
384.91	338.49
385.29	354.76
385.67	342.79
386.049	345.05
386.429	371.26
386.809	342.79
387.189	336.23
387.568	347.53
387.948	363.13
388.328	359.06
388.707	342.34
389.087	356.8
389.466	360.19
389.846	344.37
390.225	347.53
390.605	357.93
390.984	341.66
391.363	340.75
391.743	360.64
392.122	357.7
392.501	373.75
392.881	356.8
393.26	358.38
393.639	357.7
394.018	385.5
394.397	356.12
394.776	380.53
395.155	380.75
395.534	376.01
395.913	362
396.292	358.61
396.671	380.07
397.05	378.27
397.429	378.04
397.808	374.2
398.186	367.87
398.565	399.51
398.944	373.97
399.323	369.91
399.701	376.69
400.08	392.96
400.458	373.3
400.837	391.6
401.215	387.31
401.594	373.75
401.972	399.51
402.351	401.77
402.729	375.78
403.107	387.76
403.486	386.4
403.864	409.68
404.242	408.77
404.62	407.42
404.999	414.65
405.377	411.94
405.755	412.84
406.133	392.5
406.511	407.87
406.889	415.78
407.267	437.47
407.645	427.53
408.023	427.53
408.401	427.76
408.779	442.45
409.156	419.62
409.534	431.15
409.912	438.15
410.29	454.2
410.667	450.36
411.045	441.54
411.422	438.6
411.8	460.75
412.178	467.53
412.555	473.18
412.933	477.7
413.31	472.5
413.687	490.13
414.065	477.47
414.442	472.05
414.819	494.2
415.197	477.7
415.574	505.27
415.951	499.39
416.328	512.27
416.705	545.49
417.082	528.09
417.46	520.18
417.837	521.54
418.214	540.52
418.591	515.66
418.967	526.06
419.344	520.18
419.721	556.79
420.098	536.23
420.475	551.37
420.852	554.53
421.228	552.73
421.605	592.72
421.982	569.9
422.358	566.74
422.735	580.07
423.111	561.09
423.488	573.06
423.864	605.15
424.241	598.83
424.617	603.8
424.994	606.28
425.37	609.67
425.746	613.74
426.123	598.15
426.499	619.62
426.875	630.24
427.251	627.53
427.627	619.84
428.003	660.07
428.379	648.99
428.756	648.32
429.132	673.63
429.507	671.59
429.883	664.36
430.259	689.9
430.635	699.84
431.011	693.51
431.387	693.74
431.763	700.74
432.138	711.37
432.514	735.32
432.89	702.55
433.265	718.6
433.641	745.94
434.016	733.74
434.392	736.9
434.767	754.53
435.143	760.63
435.518	752.27
435.894	771.48
436.269	767.64
436.644	781.87
437.02	796.11
437.395	786.62
437.77	791.59
438.145	810.35
438.52	821.42
438.895	817.13
439.271	802.21
439.646	836.11
440.021	838.59
440.395	823
440.77	827.29
441.145	851.25
441.52	873.4
441.895	861.87
442.27	855.32
442.645	857.8
443.019	889.21
443.394	877.69
443.769	898.71
444.143	894.86
444.518	903
444.892	885.37
445.267	897.58
445.641	914.07
446.016	896.22
446.39	916.56
446.764	928.08
447.139	934.18
447.513	911.36
447.887	931.02
448.262	943.68
448.636	904.58
449.01	937.8
449.384	962.43
449.758	930.12
450.132	964.92
450.506	944.35
450.88	955.43
451.254	947.74
451.628	971.7
452.002	991.58
452.376	982.54
452.75	970.12
453.123	976.67
453.497	985.93
453.871	1012.83
454.244	1023.9
454.618	1023
454.992	1009.44
455.365	1055.54
455.739	1063.45
456.112	1068.42
456.486	1058.7
456.859	1073.16
457.232	1106.16
457.606	1077.91
457.979	1088.76
458.352	1084.46
458.725	1120.17
459.099	1093.5
459.472	1126.04
459.845	1118.13
460.218	1142.31
460.591	1165.82
460.964	1174.63
461.337	1202.43
461.71	1197.23
462.083	1222.99
462.456	1222.09
462.829	1185.7
463.201	1202.2
463.574	1230.45
463.947	1234.29
464.32	1269.09
464.692	1273.38
465.065	1274.06
465.438	1308.86
465.81	1297.56
466.183	1317.45
466.555	1328.98
466.928	1330.56
467.3	1326.04
467.672	1341.18
468.045	1365.36
468.417	1394.96
468.789	1386.83
469.161	1406.26
469.534	1451.46
469.906	1424.57
470.278	1461.4
470.65	1493.72
471.022	1444.91
471.394	1537.78
471.766	1529.88
472.138	1533.94
472.51	1534.17
472.882	1595.64
473.253	1577.56
473.625	1573.94
473.997	1680.83
474.369	1629.53
474.74	1679.93
475.112	1684.67
475.484	1738.01
475.855	1738.01
476.227	1759.25
476.598	1827.27
476.97	1785.01
477.341	1848.96
477.713	1875.85
478.084	1866.14
478.455	1921.5
478.827	1945.68
479.198	1993.37
479.569	1966.7
479.94	2032.23
480.311	2053.93
480.682	2093.25
481.053	2132.8
481.424	2152.23
481.795	2188.61
482.166	2247.6
482.537	2254.15
482.908	2267.48
483.279	2272.45
483.65	2299.35
484.021	2386.35
484.391	2393.36
484.762	2388.61
485.133	2420.02
485.503	2449.17
485.874	2515.16
486.244	2547.7
486.615	2600.13
486.985	2576.63
487.356	2634.93
487.726	2655.95
488.097	2706.79
488.467	2708.38
488.837	2722.39
489.207	2848.26
489.578	2822.04
489.948	2853
490.318	2903.62
490.688	2885.77
491.058	2936.39
491.428	2928.48
491.798	3051.87
492.168	3086.22
492.538	3055.71
492.908	3073.79
493.278	3169.15
493.648	3152.88
494.017	3182.49
494.387	3235.14
494.757	3244.41
495.126	3266.1
495.496	3287.34
495.866	3286.21
496.235	3342.48
496.605	3366.66
496.974	3434.23
497.344	3392.65
497.713	3399.2
498.082	3429.71
498.452	3453.44
498.821	3471.74
499.19	3515.36
499.559	3546.32
499.928	3533.89
500.298	3567.34
500.667	3604.4
501.036	3587.67
501.405	3664.06
501.774	3613.66
502.143	3627.9
502.512	3667.9
502.88	3677.62
503.249	3686.43
503.618	3744.51
503.987	3743.15
504.356	3770.49
504.724	3781.57
505.093	3799.65
505.462	3812.98
505.83	3835.58
506.199	3860.89
506.567	3897.27
506.936	3901.79
507.304	3928.46
507.672	3949.25
508.041	3974.56
508.409	3935.46
508.777	3931.17
509.145	4046.65
509.514	4005.52
509.882	4035.12
510.25	4024.05
510.618	4050.94
510.986	4030.6
511.354	4079.86
511.722	4114.67
512.09	4164.61
512.458	4113.54
512.826	4115.8
513.193	4187.66
513.561	4140.65
513.929	4176.59
514.297	4205.51
514.664	4206.41
515.032	4247.54
515.4	4238.05
515.767	4283.02
516.135	4320.99
516.502	4245.74
516.869	4348.11
517.237	4327.99
517.604	4299.29
517.972	4363.47
518.339	4400.99
518.706	4382.68
519.073	4406.41
519.44	4398.5
519.808	4406.86
520.175	4407.99
520.542	4473.53
520.909	4497.48
521.276	4460.19
521.643	4507.2
522.009	4556.69
522.376	4531.83
522.743	4599.17
523.11	4617.48
523.477	4592.62
523.843	4668.78
524.21	4661.54
524.577	4630.13
524.943	4697.93
525.31	4693.18
525.676	4734.31
526.043	4762.11
526.409	4801.2
526.776	4802.56
527.142	4846.62
527.508	4860.41
527.874	4848.66
528.241	4892.95
528.607	4915.77
528.973	4980.63
529.339	4963.46
529.705	4979.28
530.071	5026.96
530.437	5048.88
530.803	5071.48
531.169	5112.61
531.535	5088.2
531.901	5112.83
532.267	5155.99
532.632	5161.19
532.998	5187.63
533.364	5228.08
533.73	5188.54
534.095	5305.82
534.461	5259.72
534.826	5275.54
535.192	5345.59
535.557	5369.55
535.923	5325.71
536.288	5386.04
536.653	5400.06
537.019	5407.97
537.384	5442.77
537.749	5463.78
538.114	5500.84
538.479	5497
538.845	5493.39
539.21	5519.37
539.575	5569.32
539.94	5594.85
540.305	5646.15
540.67	5649.09
541.034	5667.62
541.399	5604.8
541.764	5676.21
542.129	5715.53
542.494	5727.05
542.858	5736.77
543.223	5788.52
543.587	5841.85
543.952	5830.1
544.316	5871.91
544.681	5847.95
545.045	5883.43
545.41	5915.75
545.774	5992.81
546.138	5944.22
546.503	5987.84
546.867	5961.4
547.231	6027.16
547.595	6030.77
547.959	6062.64
548.324	6070.77
548.688	6073.48
549.052	6178.11
549.416	6166.14
549.779	6162.3
550.143	6151
550.507	6186.48
550.871	6180.83
551.235	6220.37
551.599	6277.55
551.962	6286.36
552.326	6332.01
552.689	6355.51
553.053	6296.98
553.417	6375.17
553.78	6409.29
554.143	6404.32
554.507	6455.85
554.87	6458.56
555.234	6501.5
555.597	6489.97
555.96	6516.64
556.323	6531.33
556.686	6516.86
557.05	6583.75
557.413	6593.92
557.776	6585.56
558.139	6640.93
558.502	6610.65
558.865	6659.91
559.228	6745.56
559.59	6749.62
559.953	6732
560.316	6771.09
560.679	6751.88
561.041	6797.99
561.404	6863.52
561.767	6836.18
562.129	6871.66
562.492	6851.77
562.854	6914.82
563.217	6904.42
563.579	6934.03
563.941	7038.43
564.304	7005.21
564.666	7027.13
565.028	7047.02
565.39	7084.08
565.753	7077.53
566.115	7110.29
566.477	7193.68
566.839	7201.14
567.201	7282.04
567.563	7194.81
567.925	7241.36
568.287	7277.07
568.648	7347.8
569.01	7342.38
569.372	7387.8
569.734	7378.76
570.095	7436.84
570.457	7460.34
570.819	7533.11
571.18	7460.57
571.542	7553.45
571.903	7600.68
572.265	7615.82
572.626	7709.83
572.987	7690.39
573.349	7788.24
573.71	7790.5
574.071	7890.16
574.432	7898.97
574.794	7996.15
575.155	8012.64
575.516	8077.95
575.877	8097.16
576.238	8107.1
576.599	8218.96
576.96	8270.04
577.32	8290.6
577.681	8397.94
578.042	8521.1
578.403	8542.12
578.763	8613.98
579.124	8695.34
579.485	8801.77
579.845	9003.12
580.206	8973.75
580.566	9032.73
580.927	9145.04
581.287	9359.73
581.648	9339.84
582.008	9578.7
582.368	9640.17
582.728	9747.74
583.089	9927.62
583.449	9998.13
583.809	10195.86
584.169	10355.63
584.529	10512.46
584.889	10704.78
585.249	10869.06
585.609	10953.58
585.969	11248.49
586.329	11363.29
586.688	11641.93
587.048	11840.11
587.408	11983.39
587.768	12201.91
588.127	12352.87
588.487	12721.67
588.846	12887.99
589.206	13056.58
589.565	13194.65
589.925	13562.1
590.284	13804.35
590.643	14061.52
591.003	14397.56
591.362	14586.03
591.721	14822.18
592.08	15072.34
592.44	15421.71
592.799	15689.73
593.158	15887.24
593.517	16077.97
593.876	16336.49
594.235	16608.8
594.593	16934.44
594.952	17231.84
595.311	17433.41
595.67	17847.41
596.029	18084.02
596.387	18354.74
596.746	18678.12
597.104	18779.82
597.463	19175.96
597.822	19368.95
598.18	19687.59
598.538	19977.53
598.897	20389.94
599.255	20474.01
599.613	21018.4
599.972	21082.58
600.33	21368.68
600.688	21686.18
601.046	21936.34
601.404	22327.75
601.762	22515.31
602.12	22858.58
602.478	23069.42
602.836	23325.23
603.194	23571.33
603.552	23865.33
603.91	23983.52
604.268	24357.75
604.625	24450.63
604.983	24790.73
605.341	24907.11
605.698	25299.65
606.056	25513.88
606.413	25821.67
606.771	26042.45
607.128	26247.19
607.485	26348.43
607.843	26730.57
608.2	26905.48
608.557	27305.92
608.914	27338.69
609.272	27636.08
609.629	27768.28
609.986	28051.66
610.343	28110.65
610.7	28494.82
611.057	28773.23
611.414	28805.77
611.771	28961.92
612.127	29240.11
612.484	29390.61
612.841	29630.61
613.198	29737.95
613.554	29812.07
613.911	30156.69
614.267	30380.64
614.624	30497.7
614.98	30577.25
615.337	30887.3
615.693	31008.87
616.05	31024.69
616.406	31350.11
616.762	31459.94
617.118	31570.67
617.475	31591.23
617.831	31926.36
618.187	32051.33
618.543	32200.71
618.899	32423.07
619.255	32462.17
619.611	32475.5
619.967	32723.41
620.323	32811.99
620.678	32936.05
621.034	32869.16
621.39	32996.62
621.746	33195.71
622.101	33683.38
622.457	33316.38
622.812	33610.39
623.168	33749.82
623.523	33662.14
623.879	33882.24
624.234	33743.94
624.589	34026.87
624.945	34173.31
625.3	34134.22
625.655	34246.98
626.01	34325.85
626.365	34310.93
626.72	34424.6
627.075	34372.18
627.43	34482.45
627.785	34411.27
628.14	34596.35
628.495	34812.84
628.85	34656.69
629.205	34560.42
629.559	35037.69
629.914	34761.09
630.269	34943.69
630.623	34850.58
630.978	34940.75
631.332	35083.12
631.687	35261.87
632.041	34988.66
632.396	35151.36
632.75	35064.13
633.104	35166.05
633.459	34977.81
633.813	35013.29
634.167	35149.1
634.521	35131.93
634.875	35197.24
635.229	35087.86
635.583	35019.62
635.937	35084.92
636.291	35003.12
636.645	35183
636.999	35045.38
637.352	35111.82
637.706	34911.82
638.06	35196.56
638.413	35063.68
638.767	35068.43
639.121	35151.14
639.474	34909.11
639.828	35013.06
640.181	34947.53
640.534	35086.51
640.888	34867.76
641.241	34945.27
641.594	34926.06
641.947	35171.48
642.301	34812.39
642.654	35010.35
643.007	35059.84
643.36	35001.09
643.713	34945.95
644.066	35164.24
644.419	34940.52
644.771	34738.95
645.124	34350.25
645.477	34318.39
645.83	34138.74
646.182	34107.55
646.535	34025.29
646.888	34029.81
647.24	33756.15
647.593	34024.84
647.945	34013.09
648.298	33727.9
648.65	33764.51
649.002	33752.08
649.355	33962.24
649.707	33771.06
650.059	34009.25
650.411	34395.9
650.763	34431.83
651.115	34881.77
651.467	34719.96
651.819	34668.21
652.171	34695.78
652.523	34710.25
652.875	34541.66
653.227	34393.64
653.578	34762.22
653.93	34549.35
654.282	34512.96
654.633	34493.3
654.985	34497.14
655.337	34511.38
655.688	34480.2
656.039	34590.25
656.391	34170.15
656.742	34376.92
657.094	34334.44
657.445	34431.61
657.796	34407.43
658.147	34370.59
658.498	34314.32
658.849	34458.73
659.2	34391.61
659.551	34403.81
659.902	34337.6
660.253	34163.59
660.604	34329.24
660.955	34251.73
661.306	34309.35
661.656	34185.51
662.007	34385.28
662.358	34221.67
662.708	34177.15
663.059	34335.34
663.409	33998.85
663.76	34355.45
664.11	34195.46
664.461	34187.55
664.811	34194.55
665.161	34130.6
665.511	34151.39
665.862	34118.62
666.212	34219.18
666.562	34288.34
666.912	34219.64
667.262	34206.3
667.612	34191.84
667.962	34250.37
668.312	34030.94
668.662	34331.95
669.011	34235
669.361	34105.97
669.711	34093.99
670.06	33922.92
670.41	34098.51
670.76	34008.12
671.109	34211.73
671.459	34032.98
671.808	33940.32
672.157	34139.19
672.507	33836.6
672.856	33914.11
673.205	33944.16
673.554	34105.97
673.904	34008.8
674.253	34161.11
674.602	33971.06
674.951	33429.15
675.3	33314.8
675.649	33915.24
675.998	33724.06
676.346	33924.28
676.695	33938.74
677.044	33733.1
677.393	33717.05
677.741	33805.64
678.09	33764.51
678.438	33661.69
678.787	33737.16
679.135	33651.74
679.484	33471.41
679.832	33643.38
680.181	33419.66
680.529	33508.02
680.877	33490.16
681.225	33400
681.573	33662.82
681.922	33313.67
682.27	33281.81
682.618	33235.71
682.966	33270.51
683.314	33275.03
683.661	33252.43
684.009	32976.28
684.357	32952.1
684.705	32919.56
685.053	32883.17
685.4	32960.01
685.748	32709.17
686.095	32592.56
686.443	32711.43
686.79	32690.19
687.138	32591.88
687.485	32658.55
687.832	32583.97
688.18	32478.44
688.527	32257.43
688.874	32410.87
689.221	32391.89
689.568	32210.2
689.915	32136.08
690.262	32067.15
690.609	32188.5
690.956	31939.7
691.303	31911.22
691.65	31842.98
691.997	31793.49
692.344	31451.8
692.69	31693.38
693.037	31627.61
693.383	31354.18
693.73	31559.59
694.077	31225.59
694.423	31306.04
694.769	31136.78
695.116	31110.34
695.462	31045.71
695.808	30942.66
696.155	30978.59
696.501	30751.03
696.847	30706.06
697.193	30563.24
697.539	30725.27
697.885	30400.98
698.231	30447.76
698.577	30494.09
698.923	30300.42
699.269	30135.68
699.614	30008.22
699.96	29953.99
700.306	30047.77
700.651	29915.34
700.997	29823.59
701.342	29723.71
701.688	29775.01
702.033	29728.91
702.379	29627.22
702.724	29570.04
703.069	29580.89
703.415	29332.53
703.76	29194.68
704.105	29223.38
704.45	29149.49
704.795	28993.79
705.14	28915.14
705.485	28951.75
705.83	28751.31
706.175	28810.06
706.52	28713.79
706.865	28664.98
707.209	28568.49
707.554	28426.79
707.899	28596.73
708.243	28446.23
708.588	28398.32
708.932	28184.32
709.277	28181.38
709.621	28128.95
709.966	27967.15
710.31	28155.16
710.654	27823.87
710.998	27984.09
711.342	27865
711.687	27778
712.031	27641.05
712.375	27568.96
712.719	27716.98
713.063	27525.12
713.407	27616.42
713.75	27378.69
714.094	27494.84
714.438	27463.43
714.782	27368.74
715.125	27123.55
715.469	27373.04
715.812	27180.27
716.156	26955.87
716.499	27013.95
716.843	26969.88
717.186	26908.87
717.53	26955.2
717.873	26965.82
718.216	26895.31
718.559	26721.53
718.902	26634.53
719.246	26615.32
719.589	26552.27
719.932	26460.97
720.275	26470.91
720.617	26540.74
720.96	26297.36
721.303	26423.23
721.646	26333.06
721.989	26161.09
722.331	26338.49
722.674	26260.98
723.016	26314.08
723.359	26138.72
723.701	26111.6
724.044	25962.23
724.386	25892.17
724.729	25893.3
725.071	25901.89
725.413	25831.83
725.755	25876.13
726.097	25720.2
726.439	25603.14
726.782	25631.84
727.124	25719.52
727.465	25488.79
727.807	25586.19
728.149	25536.02
728.491	25483.37
728.833	25539.19
729.175	25383.71
729.516	25391.39
729.858	25296.48
730.199	25294.67
730.541	25155.02
730.882	25172.42
731.224	25209.7
731.565	25071.4
731.906	25122.02
732.248	25153.43
732.589	24942.14
732.93	24870.73
733.271	25020.56
733.612	25011.07
733.953	24976.26
734.294	24922.71
734.635	24745.54
734.976	24813.1
735.317	24611.98
735.658	24763.39
735.999	24727.23
736.339	24706.89
736.68	24657.63
737.021	24603.62
737.361	24563.62
737.702	24637.74
738.042	24518.88
738.383	24487.01
738.723	24553.22
739.063	24355.26
739.404	24404.3
739.744	24359.11
740.084	24242.27
740.424	24302.84
740.764	24205.21
741.104	24357.75
741.444	24159.34
741.784	24073.01
742.124	24153.46
742.464	24129.73
742.804	23932.45
743.143	24056.29
743.483	23990.08
743.823	23844.09
744.162	23891.09
744.502	23869.17
744.841	23802.51
745.181	24004.54
745.52	23791.44
745.86	23790.53
746.199	23858.1
746.538	23694.94
746.877	23722.06
747.216	23551.44
747.556	23660.59
747.895	23586.7
748.234	23555.96
748.573	23436.64
748.911	23569.07
749.25	23375.18
749.589	23328.4
749.928	23336.31
750.267	23317.1
750.605	23260.15
750.944	23065.35
751.283	23131.57
751.621	23117.1
751.96	23044.34
752.298	23031.91
752.636	23079.36
752.975	22915.75
753.313	22923.21
753.651	22926.6
753.989	22812.48
754.327	22744.68
754.666	22664.69
755.004	22748.98
755.342	22697.68
755.679	22591.69
756.017	22476.67
756.355	22568.19
756.693	22447.07
757.031	22544.92
757.368	22373.85
757.706	22345.6
758.044	22250.46
758.381	22160.29
758.719	22153.51
759.056	22172.04
759.394	22105.15
759.731	21939.73
760.068	21902.22
760.405	21796.46
760.743	21716.91
761.08	21815.67
761.417	21710.59
761.754	21656.13
762.091	21663.58
762.428	21602.12
762.765	21531.83
763.102	21499.52
763.438	21338.17
763.775	21198.96
764.112	21230.83
764.449	21320.32
764.785	21135.01
765.122	21025.86
765.458	20918.29
765.795	20805.3
766.131	20946.54
766.467	20738.86
766.804	20773.89
767.14	20633.78
767.476	20542.48
767.812	20543.39
768.148	20561.47
768.485	20375.48
768.821	20292.09
769.157	20319.44
769.492	20178.88
769.828	20288.48
770.164	19958.99
770.5	20050.74
770.836	19982.95
771.171	19814.14
771.507	19750.86
771.842	19777.53
772.178	19608.04
772.513	19632
772.849	19576.41
773.184	19476.97
773.519	19539.34
773.855	19288.73
774.19	19310.2
774.525	19269.75
774.86	19181.84
775.195	19157.66
775.53	19001.73
775.865	18895.75
776.2	18836.76
776.535	18703.21
776.87	18725.58
777.205	18758.12
777.539	18552.7
777.874	18707.28
778.209	18406.49
778.543	18378.25
778.878	18344.35
779.212	18276.55
779.547	18109.1
779.881	18166.05
780.215	18040.4
780.55	18104.13
780.884	17926.96
781.218	17910.91
781.552	17884.47
781.886	17791.14
782.22	17660.07
782.554	17661.43
782.888	17537.36
783.222	17442.9
783.556	17323.13
783.889	17333.75
784.223	17180.99
784.557	17154.55
784.89	17244.49
785.224	17103.25
785.557	17027.09
785.891	16985.51
786.224	16908.68
786.558	16848.34
786.891	16710.94
787.224	16581.68
787.557	16604.28
787.891	16563.38
788.224	16516.83
788.557	16578.07
788.89	16421.46
789.223	16499.42
789.556	16284.52
789.888	16262.59
790.221	16258.53
790.554	16145.99
790.887	16089.94
791.219	16040.68
791.552	16042.49
791.884	15903.51
792.217	15816.51
792.549	15924.75
792.882	15755.72
793.214	15659.45
793.546	15677.3
793.879	15535.83
794.211	15601.82
794.543	15553.01
794.875	15461.49
795.207	15511.88
795.539	15285.45
795.871	15437.98
796.203	15303.3
796.535	15238.44
796.867	15177.43
797.198	15081.61
797.53	15138.78
797.862	15001.61
798.193	14953.93
798.525	14923.65
798.856	14917.32
799.188	14762.07
799.519	14744.22
799.85	14687.04
800.182	14675.52
800.513	14673.48
800.844	14457.44
801.175	14610.21
801.506	14571.79
801.837	14520.04
802.168	14454.73
802.499	14415.19
802.83	14336.09
803.161	14323.44
803.491	14250.9
803.822	14301.29
804.153	14149.2
804.483	14065.14
804.814	14090
805.145	14080.73
805.475	13963.9
805.805	13928.42
806.136	13958.02
806.466	13843.22
806.796	13969.55
807.126	13727.52
807.457	13762.77
807.787	13748.76
808.117	13641.87
808.447	13646.17
808.777	13683
809.107	13662.44
809.436	13579.05
809.766	13513.74
810.096	13450.24
810.426	13508.32
810.755	13533.18
811.085	13419.51
811.414	13384.48
811.744	13326.4
812.073	13229.91
812.403	13214.09
812.732	13147.87
813.061	13112.85
813.39	13070.81
813.719	13087.31
814.049	13094.99
814.378	12997.82
814.707	12952.17
815.036	12959.63
815.365	12892.74
815.693	12766.87
816.022	12828.11
816.351	12754.44
816.68	12656.36
817.008	12703.37
817.337	12605.74
817.665	12533.88
817.994	12618.62
818.322	12569.36
818.651	12503.37
818.979	12484.16
819.307	12550.15
819.636	12442.81
819.964	12420.66
820.292	12416.14
820.62	12460.44
820.948	12445.97
821.276	12415.01
821.604	12295.24
821.932	12399.42
822.259	12365.75
822.587	12393.77
822.915	12346.99
823.243	12405.3
823.57	12293.21
823.898	12391.96
824.225	12258.41
824.553	12295.02
824.88	12286.88
825.207	12294.34
825.535	12316.94
825.862	12333.66
826.189	12296.6
826.516	12316.94
826.843	12387.67
827.17	12363.04
827.497	12267.22
827.824	12353.77
828.151	12384.5
828.478	12315.13
828.805	12414.56
829.131	12280.55
829.458	12214.57
829.785	12167.56
830.111	12314.9
830.438	12277.62
830.764	12352.64
831.09	12333.21
831.417	12269.25
831.743	12254.34
832.069	12264.51
832.395	12204.85
832.722	12261.34
833.048	12250.05
833.374	12262.93
833.7	12111.97
834.026	12157.84
834.351	12158.97
834.677	12187.45
835.003	12197.39
835.329	12194.45
835.654	12071.74
835.98	12086.43
836.306	12076.72
836.631	12057.06
836.956	12066.55
837.282	12088.47
837.607	11997.85
837.932	11935.48
838.258	11966.21
838.583	11921.47
838.908	11877.63
839.233	11926.21
839.558	11900.68
839.883	11831.07
840.208	11779.78
840.533	11832.43
840.858	11795.37
841.182	11767.57
841.507	11793.79
841.832	11729.15
842.156	11620.46
842.481	11690.51
842.805	11576.39
843.13	11614.58
843.454	11563.51
843.778	11522.83
844.103	11555.6
844.427	11514.92
844.751	11558.31
845.075	11499.1
845.399	11449.61
845.723	11392.89
846.047	11385.66
846.371	11319
846.695	11285.78
847.019	11287.58
847.343	11169.17
847.666	11145.22
847.99	11002.85
848.313	11071.55
848.637	11006.69
848.96	10948.84
849.284	10962.85
849.607	10792
849.931	10843.75
850.254	10817.09
850.577	10739.35
850.9	10637.43
851.223	10661.39
851.546	10589.98
851.869	10492.35
852.192	10533.71
852.515	10447.15
852.838	10365.12
853.161	10382.3
853.483	10373.26
853.806	10375.52
854.129	10270.66
854.451	10253.71
854.774	10297.78
855.096	10148.63
855.419	10209.65
855.741	10058.92
856.063	10024.57
856.385	10010.1
856.708	10124.68
857.03	10016.43
857.352	10010.56
857.674	9949.09
857.996	9895.3
858.318	9838.81
858.64	9908.86
858.961	9819.15
859.283	9825.7
859.605	9676.78
859.926	9718.59
860.248	9695.31
860.57	9675.2
860.891	9683.11
861.212	9637.46
861.534	9614.63
861.855	9591.81
862.176	9593.17
862.498	9611.92
862.819	9554.52
863.14	9533.73
863.461	9485.37
863.782	9468.2
864.103	9474.3
864.424	9427.75
864.745	9476.33
865.065	9378.03
865.386	9420.97
865.707	9447.63
866.027	9381.42
866.348	9340.52
866.668	9364.7
866.989	9304.59
867.309	9227.3
867.63	9284.7
867.95	9280.63
868.27	9192.27
868.59	9249.22
868.91	9170.58
869.23	9129.9
869.55	9149.34
869.87	9244.02
870.19	9236.34
870.51	9202.22
870.83	9167.41
871.15	9096.23
871.469	9085.83
871.789	9143.46
872.109	9103.24
872.428	9037.7
872.748	9047.42
873.067	9019.4
873.386	9031.37
873.706	9008.55
874.025	9025.5
874.344	9006.74
874.663	8907.99
874.982	8946.86
875.301	8931.26
875.62	8912.73
875.939	8879.29
876.258	8882.22
876.577	8823.47
876.896	8809.68
877.214	8816.01
877.533	8814.43
877.852	8811.04
878.17	8779.63
878.489	8813.75
878.807	8795.9
879.125	8768.1
879.444	8753.19
879.762	8731.49
880.08	8745.96
880.398	8636.81
880.716	8740.76
881.034	8599.07
881.352	8665.51
881.67	8614.43
881.988	8628.67
882.306	8597.03
882.624	8573.31
882.941	8520.88
883.259	8494.21
883.577	8526.75
883.894	8457.83
884.212	8459.41
884.529	8419.41
884.846	8351.62
885.164	8369.92
885.481	8299.87
885.798	8404.27
886.115	8268.68
886.432	8325.4
886.75	8302.58
887.067	8307.32
887.383	8341.45
887.7	8263.71
888.017	8215.12
888.334	8202.69
888.651	8163.82
888.967	8155.69
889.284	8119.08
889.6	8120.66
889.917	8042.25
890.233	8109.14
890.55	8064.17
890.866	8079.31
891.182	7970.61
891.498	8011.96
891.815	7953.89
892.131	7902.81
892.447	7960.89
892.763	7868.24
893.079	7849.03
893.395	7828.01
893.71	7756.83
894.026	7750.28
894.342	7816.72
894.657	7728.36
894.973	7731.97
895.289	7710.73
895.604	7707.11
895.92	7637.74
896.235	7616.27
896.55	7584.41
896.865	7583.28
897.181	7542.6
897.496	7518.19
897.811	7490.17
898.126	7445.2
898.441	7444.75
898.756	7414.47
899.071	7319.78
899.386	7372.21
899.7	7373.34
900.015	7274.13
900.33	7237.07
900.644	7263.06
900.959	7226.9
901.273	7240.23
901.588	7146.22
901.902	7131.08
902.216	7082.72
902.531	7101.03
902.845	7038.88
903.159	7029.62
903.473	6999.56
903.787	7009.96
904.101	6927.93
904.415	6911.43
904.729	6895.84
905.042	6841.83
905.356	6861.26
905.67	6862.16
905.984	6784.43
906.297	6820.58
906.611	6790.53
906.924	6755.27
907.237	6773.35
907.551	6664.43
907.864	6703.98
908.177	6695.61
908.491	6636.63
908.804	6568.16
909.117	6590.53
909.43	6553.25
909.743	6491.78
910.056	6524.55
910.368	6465.34
910.681	6418.11
910.994	6390.99
911.307	6386.02
911.619	6349.18
911.932	6384.44
912.244	6269.41
912.557	6285
912.869	6268.06
913.181	6212.01
913.494	6228.51
913.806	6216.76
914.118	6167.95
914.43	6160.94
914.742	6119.58
915.054	6086.82
915.366	6087.5
915.678	6043.2
915.99	5959.14
916.302	5925.24
916.613	5951.23
916.925	5976.54
917.236	5945.13
917.548	5890.66
917.859	5923.43
918.171	5864.68
918.482	5846.6
918.794	5845.69
919.105	5737.9
919.416	5728.86
919.727	5747.17
920.038	5808.86
920.349	5667.39
920.66	5643.67
920.971	5641.86
921.282	5587.62
921.593	5549.43
921.903	5592.59
922.214	5519.37
922.525	5537.23
922.835	5475.99
923.146	5486.16
923.456	5486.38
923.767	5378.81
924.077	5392.15
924.387	5415.2
924.697	5404.12
925.008	5343.33
925.318	5264.01
925.628	5321.19
925.938	5302.88
926.248	5254.52
926.558	5246.61
926.867	5202.32
927.177	5169.78
927.487	5176.11
927.796	5116.22
928.106	5104.92
928.416	5116.67
928.725	5028.31
929.034	5053.17
929.344	5040.52
929.653	5048.2
929.962	5007.3
930.271	4999.16
930.581	4951.48
930.89	4936.57
931.199	4942.67
931.508	4953.29
931.817	4884.14
932.125	4883.91
932.434	4876.23
932.743	4817.02
933.051	4778.38
933.36	4762.11
933.669	4718.04
933.977	4689.57
934.286	4688.44
934.594	4740.64
934.902	4651.6
935.21	4618.16
935.519	4610.47
935.827	4608.66
936.135	4570.7
936.443	4539.29
936.751	4513.3
937.059	4532.28
937.367	4459.29
937.674	4514.66
937.982	4461.55
938.29	4394.21
938.597	4464.71
938.905	4429.91
939.213	4413.87
939.52	4348.78
939.827	4393.53
940.135	4343.81
940.442	4352.63
940.749	4342.46
941.056	4327.77
941.363	4231.95
941.67	4259.97
941.977	4214.1
942.284	4241.89
942.591	4153.76
942.898	4188.11
943.205	4203.7
943.511	4123.03
943.818	4152.4
944.125	4091.84
944.431	4087.77
944.738	4075.8
945.044	4057.94
945.35	4006.19
945.657	4054.78
945.963	4035.57
946.269	4002.13
946.575	3965.07
946.881	4006.42
947.187	3940.66
947.493	3973.88
947.799	3922.58
948.105	3847.78
948.41	3866.54
948.716	3886.42
949.022	3814.33
949.327	3824.28
949.633	3822.7
949.938	3793.32
950.244	3814.79
950.549	3757.84
950.854	3758.07
951.16	3717.16
951.465	3720.1
951.77	3730.72
952.075	3635.13
952.38	3638.29
952.685	3656.82
952.99	3631.74
953.294	3630.61
953.599	3596.26
953.904	3555.36
954.209	3540.22
954.513	3587.22
954.818	3549.26
955.122	3530.27
955.426	3511.52
955.731	3558.97
956.035	3481.91
956.339	3442.37
956.643	3447.11
956.948	3445.08
957.252	3464.74
957.556	3425.19
957.86	3371.41
958.163	3415.93
958.467	3377.06
958.771	3344.97
959.075	3329.38
959.378	3363.5
959.682	3309.72
959.985	3308.13
960.289	3278.3
960.592	3235.82
960.896	3232.2
961.199	3239.43
961.502	3212.99
961.805	3191.53
962.108	3175.48
962.411	3179.1
962.714	3155.37
963.017	3168.93
963.32	3131.64
963.623	3102.26
963.926	3146.56
964.228	3110.85
964.531	3074.02
964.833	3085.31
965.136	3017.75
965.438	3046.67
965.741	3042.15
966.043	3017.97
966.345	3030.63
966.648	3005.77
966.95	2976.16
967.252	2963.96
967.554	2995.37
967.856	2953.79
968.158	2916.51
968.46	2900.91
968.761	2908.82
969.063	2899.1
969.365	2913.12
969.666	2857.3
969.968	2844.42
970.269	2815.72
970.571	2862.72
970.872	2799.67
971.174	2802.16
971.475	2842.38
971.776	2787.47
972.077	2741.59
972.378	2770.97
972.679	2771.88
972.98	2723.06
973.281	2743.85
973.582	2733.91
973.883	2720.8
974.183	2714.7
974.484	2723.97
974.785	2674.93
975.085	2699.34
975.386	2695.95
975.686	2640.81
975.986	2627.02
976.287	2632.9
976.587	2613.46
976.887	2593.8
977.187	2569.62
977.487	2573.69
977.787	2557.87
978.087	2556.97
978.387	2526.23
978.687	2517.65
978.987	2513.13
979.286	2505.67
979.586	2499.12
979.885	2495.5
980.185	2466.12
980.484	2435.84
980.784	2458.66
981.083	2444.43
981.382	2440.59
981.682	2441.26
981.981	2421.38
982.28	2400.36
982.579	2387.48
982.878	2385.45
983.177	2372.34
983.475	2337.99
983.774	2370.76
984.073	2335.96
984.372	2299.57
984.67	2332.79
984.969	2314.26
985.267	2306.58
985.566	2274.04
985.864	2280.59
986.162	2297.54
986.461	2249.18
986.759	2262.51
987.057	2235.17
987.355	2197.43
987.653	2239.23
987.951	2231.33
988.249	2203.3
988.547	2189.07
988.844	2204.43
989.142	2166.47
989.44	2158.56
989.737	2133.93
990.035	2156.3
990.332	2129.18
990.63	2138.67
990.927	2147.49
991.224	2129.86
991.521	2069.3
991.819	2062.29
992.116	2079.69
992.413	2067.71
992.71	2057.54
993.006	2067.04
993.303	2053.48
993.6	2028.17
993.897	2037.43
994.193	2016.64
994.49	2013.03
994.787	2020.48
995.083	2004.66
995.379	1966.47
995.676	1950.65
995.972	1942.52
996.268	1964.44
996.565	1943.88
996.861	1941.84
997.157	1913.59
997.453	1903.65
997.749	1894.61
998.044	1905.91
998.34	1906.81
998.636	1915.63
998.932	1879.24
999.227	1836.76
999.523	1860.94
999.818	1820.04
1000.114	1819.81
1000.409	1839.92
1000.704	1787.95
1001	1813.71
1001.295	1785.69
1001.59	1758.12
1001.885	1790.43
1002.18	1800.6
1002.475	1740.49
1002.77	1751.79
1003.065	1744.33
1003.359	1733.26
1003.654	1714.28
1003.949	1707.72
1004.243	1693.49
1004.538	1690.55
1004.832	1675.18
1005.127	1679.02
1005.421	1651.68
1005.715	1654.84
1006.009	1640.83
1006.304	1666.14
1006.598	1635.18
1006.892	1613.49
1007.186	1607.39
1007.48	1617.1
1007.773	1622.3
1008.067	1566.71
1008.361	1584.11
1008.655	1567.16
1008.948	1572.59
1009.242	1560.16
1009.535	1526.71
1009.829	1537.78
1010.122	1530.55
1010.415	1520.61
1010.708	1524.68
1011.001	1497.79
1011.295	1473.61
1011.588	1471.35
1011.881	1465.47
1012.173	1469.09
1012.466	1486.94
1012.759	1439.26
1013.052	1444.45
1013.344	1445.81
1013.637	1443.32
1013.93	1418.47
1014.222	1410.56
1014.514	1418.47
1014.807	1417.11
1015.099	1404.45
1015.391	1381.86
1015.683	1345.7
1015.976	1322.87
1016.268	1356.55
1016.56	1349.09
1016.851	1343.21
1017.143	1362.42
1017.435	1321.52
1017.727	1313.16
1018.018	1316.77
1018.31	1331.91
1018.602	1301.86
1018.893	1290.33
1019.185	1259.37
1019.476	1254.63
1019.767	1281.97
1020.058	1240.39
1020.35	1240.17
1020.641	1230.45
1020.932	1233.16
1021.223	1224.12
1021.514	1228.41
1021.804	1202.43
1022.095	1207.4
1022.386	1204.01
1022.677	1231.8
1022.967	1209.43
1023.258	1143.67
1023.548	1168.53
1023.839	1153.16
1024.129	1167.4
1024.419	1163.56
1024.709	1161.3
1025	1139.6
1025.29	1105.03
1025.58	1134.86
1025.87	1132.15
1026.16	1132.6
1026.449	1090.34
1026.739	1089.43
1027.029	1062.77
1027.319	1102.54
1027.608	1062.54
1027.898	1090.56
1028.187	1058.25
1028.477	1046.5
1028.766	1052.83
1029.055	1031.13
1029.344	1032.26
1029.634	1014.63
1029.923	1015.31
1030.212	995.2
1030.501	1029.55
1030.79	1012.6
1031.078	969.21
1031.367	987.52
1031.656	1011.92
1031.945	961.75
1032.233	994.3
1032.522	954.3
1032.81	959.49
1033.099	974.86
1033.387	947.74
1033.675	936.67
1033.963	908.42
1034.251	943.68
1034.54	940.29
1034.828	903.9
1035.116	929.66
1035.403	908.65
1035.691	886.73
1035.979	912.04
1036.267	892.83
1036.554	905.94
1036.842	877.46
1037.129	881.53
1037.417	867.75
1037.704	857.58
1037.992	877.24
1038.279	852.83
1038.566	833.62
1038.853	833.62
1039.14	833.62
