Data from hue_200_FLMS001491_00058.txt Node
Date: Tue Feb 07 16:43:38 GMT 2017
User: dcchb
Spectrometer: FLMS00149
Trigger mode: 0
Integration Time (sec): 2.000000E-2
Scans to average: 10
Electric dark correction enabled: true
Nonlinearity correction enabled: false
Boxcar width: 0
XAxis mode: Wavelengths
Number of Pixels in Spectrum: 2048
>>>>>Begin Spectral Data<<<<<
341.393	-1.34
341.776	-1.34
342.16	-1.34
342.543	-62.36
342.927	-70.49
343.31	-42.02
343.693	-70.72
344.077	-53.77
344.46	-71.85
344.843	-50.15
345.226	-42.02
345.61	-44.28
345.993	-15.13
346.376	-15.13
346.759	9.96
347.142	29.62
347.525	33.91
347.908	51.54
348.291	76.62
348.674	84.08
349.057	119.33
349.44	135.83
349.823	156.17
350.206	190.52
350.588	188.48
350.971	199.33
351.354	253.79
351.737	254.47
352.119	250.63
352.502	257.63
352.884	272.1
353.267	269.16
353.65	303.28
354.032	300.12
354.414	294.02
354.797	299.44
355.179	318.2
355.562	318.65
355.944	322.04
356.326	336.28
356.709	360.23
357.091	347.58
357.473	365.65
357.855	334.47
358.238	348.71
358.62	341.02
359.002	346.45
359.384	357.74
359.766	347.12
360.148	316.39
360.53	338.76
360.912	345.54
361.294	334.47
361.676	330.4
362.057	329.95
362.439	326.79
362.821	330.4
363.203	316.62
363.584	315.94
363.966	335.6
364.348	325.88
364.729	314.13
365.111	330.85
365.493	306.67
365.874	340.34
366.256	310.51
366.637	318.42
367.019	331.53
367.4	303.06
367.781	323.62
368.163	334.69
368.544	331.53
368.925	317.75
369.306	328.82
369.688	315.94
370.069	298.54
370.45	312.55
370.831	319.1
371.212	314.13
371.593	309.84
371.974	292.89
372.355	300.8
372.736	323.4
373.117	322.27
373.498	295.37
373.879	317.97
374.26	344.41
374.641	318.65
375.021	325.43
375.402	313.45
375.783	328.82
376.163	331.08
376.544	318.65
376.925	331.3
377.305	329.95
377.686	325.43
378.066	339.21
378.447	325.2
378.827	331.3
379.208	324.98
379.588	347.35
379.968	341.7
380.349	324.98
380.729	340.57
381.109	341.7
381.489	334.92
381.87	345.32
382.25	338.08
382.63	338.08
383.01	331.98
383.39	327.46
383.77	343.28
384.15	352.77
384.53	331.53
384.91	345.54
385.29	345.99
385.67	376.28
386.049	371.53
386.429	374.47
386.809	374.47
387.189	359.33
387.568	363.17
387.948	378.76
388.328	346.22
388.707	371.08
389.087	356.16
389.466	361.59
389.846	354.36
390.225	397.52
390.605	362.04
390.984	370.63
391.363	340.12
391.743	369.5
392.122	372.21
392.501	381.47
392.881	368.37
393.26	391.42
393.639	374.69
394.018	392.32
394.397	397.97
394.776	409.49
395.155	361.13
395.534	391.87
395.913	381.92
396.292	393.45
396.671	401.81
397.05	395.71
397.429	395.48
397.808	403.17
398.186	409.95
398.565	415.14
398.944	409.04
399.323	418.53
399.701	409.04
400.08	398.42
400.458	425.54
400.837	428.25
401.215	420.57
401.594	416.05
401.972	433.9
402.351	443.84
402.729	434.13
403.107	447.46
403.486	443.39
403.864	454.47
404.242	446.56
404.62	441.36
404.999	467.8
405.377	467.12
405.755	455.82
406.133	463.73
406.511	458.53
406.889	477.52
407.267	475.48
407.645	482.26
408.023	501.92
408.401	493.79
408.779	486.56
409.156	512.32
409.534	531.98
409.912	536.95
410.29	543.05
410.667	547.12
411.045	563.16
411.422	535.14
411.8	560
412.178	553.22
412.555	587.12
412.933	592.31
413.31	612.65
413.687	609.94
414.065	597.51
414.442	618.75
414.819	638.19
415.197	667.57
415.574	658.08
415.951	666.89
416.328	668.47
416.705	677.28
417.082	686.78
417.46	694.23
417.837	706.21
418.214	690.84
418.591	729.94
418.967	733.33
419.344	722.71
419.721	769.94
420.098	759.99
420.475	757.06
420.852	776.49
421.228	787.11
421.605	814.23
421.982	830.05
422.358	859.43
422.735	847.68
423.111	842.25
423.488	867.79
423.864	903.95
424.241	924.96
424.617	923.83
424.994	954.34
425.37	931.97
425.746	948.69
426.123	978.07
426.499	969.93
426.875	1008.35
427.251	1017.84
427.627	1060.55
428.003	1035.24
428.379	1063.49
428.756	1089.7
429.132	1087.67
429.507	1103.26
429.883	1114.79
430.259	1149.14
430.635	1142.13
431.011	1154.79
431.387	1165.18
431.763	1196.14
432.138	1195.69
432.514	1224.39
432.89	1234.33
433.265	1265.29
433.641	1282.92
434.016	1347.32
434.392	1346.65
434.767	1374.44
435.143	1365.4
435.518	1388.45
435.894	1425.29
436.269	1429.81
436.644	1480.2
437.02	1514.78
437.395	1524.95
437.77	1578.73
438.145	1596.58
438.52	1609.92
438.895	1634.77
439.271	1643.59
439.646	1706.41
440.021	1716.35
440.395	1740.31
440.77	1752.28
441.145	1769.23
441.52	1833.19
441.895	1842
442.27	1860.76
442.645	1830.93
443.019	1884.48
443.394	1911.38
443.769	1896.24
444.143	1926.97
444.518	1964.03
444.892	1992.28
445.267	1971.49
445.641	2049
446.016	2026.18
446.39	2066.85
446.764	2065.95
447.139	2088.55
447.513	2115.21
447.887	2091.03
448.262	2119.96
448.636	2156.79
449.01	2193.18
449.384	2232.27
449.758	2207.64
450.132	2259.62
450.506	2232.05
450.88	2277.47
451.254	2296.9
451.628	2295.55
452.002	2321.99
452.376	2331.25
452.75	2353.17
453.123	2391.14
453.497	2437.69
453.871	2449.22
454.244	2495.77
454.618	2529.67
454.992	2573.28
455.365	2585.71
455.739	2610.11
456.112	2667.74
456.486	2671.36
456.859	2647.63
457.232	2718.13
457.606	2728.76
457.979	2744.12
458.352	2844.23
458.725	2823.67
459.099	2881.07
459.472	2938.92
459.845	2963.33
460.218	2958.35
460.591	3001.52
460.964	3004.45
461.337	3076.54
461.71	3117.45
462.083	3166.71
462.456	3174.39
462.829	3197.9
463.201	3281.06
463.574	3231.12
463.947	3296.65
464.32	3355.41
464.692	3379.59
465.065	3417.33
465.438	3474.05
465.81	3509.07
466.183	3586.59
466.555	3619.35
466.928	3638.34
467.3	3617.55
467.672	3722.63
468.045	3803.76
468.417	3844.43
468.789	3830.65
469.161	3898.22
469.534	3943.19
469.906	4012.34
470.278	4055.5
470.65	4118.55
471.022	4191.54
471.394	4240.35
471.766	4256.85
472.138	4291.2
472.51	4382.95
472.882	4377.53
473.253	4482.61
473.625	4555.15
473.997	4615.26
474.369	4659.1
474.74	4679.44
475.112	4788.14
475.484	4820.9
475.855	4932.99
476.227	5004.18
476.598	5083.72
476.97	5110.39
477.341	5262.25
477.713	5323.49
478.084	5323.72
478.455	5473.32
478.827	5463.37
479.198	5650.71
479.569	5648.23
479.94	5802.8
480.311	5835.11
480.682	5967.09
481.053	6058.16
481.424	6196.24
481.795	6248.44
482.166	6279.17
482.537	6367.08
482.908	6478.04
483.279	6541.99
483.65	6686.39
484.021	6824.24
484.391	6821.53
484.762	6870.12
485.133	6917.57
485.503	6999.6
485.874	7093.84
486.244	7211.58
486.615	7326.83
486.985	7440.5
487.356	7492.92
487.726	7562.3
488.097	7685.69
488.467	7687.04
488.837	7887.04
489.207	7913.93
489.578	8024.66
489.948	8129.74
490.318	8191.44
490.688	8192.79
491.058	8370.87
491.428	8425.33
491.798	8508.04
492.168	8671.42
492.538	8710.07
492.908	8706.9
493.278	8797.3
493.648	8884.3
494.017	8920.46
494.387	9015.14
494.757	9072.32
495.126	9141.92
495.496	9143.95
495.866	9211.52
496.235	9236.16
496.605	9295.81
496.974	9350.95
497.344	9456.49
497.713	9583.94
498.082	9515.24
498.452	9546.88
498.821	9588.46
499.19	9589.59
499.559	9653.77
499.928	9708.91
500.298	9763.83
500.667	9862.35
501.036	9825.29
501.405	9928.57
501.774	9869.81
502.143	9926.76
502.512	9923.37
502.88	10022.35
503.249	10030.94
503.618	10034.1
503.987	10068.45
504.356	10125.17
504.724	10129.01
505.093	10175.79
505.462	10175.34
505.83	10196.58
506.199	10263.93
506.567	10393.87
506.936	10335.56
507.304	10383.24
507.672	10402.23
508.041	10450.13
508.409	10474.54
508.777	10544.14
509.145	10522.45
509.514	10542.79
509.882	10570.81
510.25	10570.81
510.618	10607.42
510.986	10627.76
511.354	10686.96
511.722	10754.99
512.09	10692.16
512.458	10639.51
512.826	10721.54
513.193	10778.71
513.561	10669.56
513.929	10813.06
514.297	10854.87
514.664	10937.81
515.032	10829.79
515.4	10910.46
515.767	10915.66
516.135	10917.02
516.502	10864.36
516.869	10988.65
517.237	10971.48
517.604	10938.48
517.972	10939.84
518.339	11066.39
518.706	10923.57
519.073	10934.42
519.44	11032.94
519.808	11099.61
520.175	10966.73
520.542	11123.79
520.909	11091.25
521.276	11057.58
521.643	11082.43
522.009	11190
522.376	11151.59
522.743	11148.87
523.11	11183.9
523.477	11235.88
523.843	11227.74
524.21	11272.49
524.577	11246.27
524.943	11268.19
525.31	11301.64
525.676	11338.47
526.043	11379.15
526.409	11289.21
526.776	11373.27
527.142	11302.32
527.508	11370.56
527.874	11319.26
528.241	11313.39
528.607	11310.45
528.973	11334.18
529.339	11289.66
529.705	11354.97
530.071	11338.25
530.437	11245.37
530.803	11250.34
531.169	11262.77
531.535	11271.36
531.901	11156.56
532.267	11177.12
532.632	11167.63
532.998	11175.99
533.364	11153.39
533.73	11143.68
534.095	11100.97
534.461	11082.89
534.826	11112.49
535.192	11117.01
535.557	11093.96
535.923	11020.97
536.288	11038.59
536.653	10986.39
537.019	10885.6
537.384	10803.57
537.749	10871.82
538.114	10802.89
538.479	10802.89
538.845	10781.43
539.21	10644.25
539.575	10743.46
539.94	10646.29
540.305	10700.07
540.67	10554.09
541.034	10530.36
541.399	10527.42
541.764	10479.74
542.129	10397.93
542.494	10402
542.858	10410.59
543.223	10279.29
543.587	10272.51
543.952	10231.38
544.316	10224.15
544.681	10199.07
545.045	10169.46
545.41	10152.52
545.774	10043.37
546.138	10090.14
546.503	9989.58
546.867	9898.51
547.231	9962.69
547.595	9948.91
547.959	9794.11
548.324	9765.41
548.688	9734.9
549.052	9741
549.416	9753.88
549.779	9664.17
550.143	9598.41
550.507	9689.48
550.871	9614.68
551.235	9453.1
551.599	9588.24
551.962	9499.65
552.326	9500.78
552.689	9511.85
553.053	9394.12
553.417	9350.95
553.78	9409.71
554.143	9337.4
554.507	9284.52
554.87	9261.92
555.234	9326.77
555.597	9208.36
555.96	9115.71
556.323	9165.2
556.686	9150.73
557.05	9158.42
557.413	9095.14
557.776	9058.53
558.139	9103.28
558.502	9042.26
558.865	9048.14
559.228	9027.35
559.59	9067.35
559.953	9021.47
560.316	9049.49
560.679	9008.14
561.041	9015.6
561.404	9048.59
561.767	9010.4
562.129	8932.89
562.492	9014.47
562.854	8902.38
563.217	8926.56
563.579	8964.52
563.941	8858.31
564.304	8926.11
564.666	8953.23
565.028	8953.68
565.39	9006.33
565.753	8947.58
566.115	8940.8
566.477	8962.49
566.839	8964.3
567.201	8958.42
567.563	8952.32
567.925	9029.38
568.287	8930.85
568.648	9000.46
569.01	8956.16
569.372	8953.9
569.734	8916.84
570.095	9042.49
570.457	8997.52
570.819	9010.85
571.18	8956.16
571.542	9064.86
571.903	9004.3
572.265	9014.01
572.626	9083.17
572.987	9050.62
573.349	8992.09
573.71	9010.17
574.071	9016.95
574.432	9054.69
574.794	9033.45
575.155	9042.49
575.516	9016.05
575.877	9057.4
576.238	8995.48
576.599	9148.47
576.96	9097.63
577.32	9072.32
577.681	9090.4
578.042	9066.44
578.403	9097.85
578.763	9139.21
579.124	9051.98
579.485	9112.54
579.845	9170.17
580.206	9067.8
580.566	9094.69
580.927	9073.9
581.287	9157.06
581.648	9070.74
582.008	9106.89
582.368	9085.65
582.728	9066.67
583.089	9070.28
583.449	9108.7
583.809	9038.87
584.169	9009.95
584.529	9000.46
584.889	9104.86
585.249	9085.88
585.609	9042.26
585.969	9065.99
586.329	9009.72
586.688	9006.33
587.048	9046.1
587.408	8969.04
587.768	8915.71
588.127	8911.87
588.487	9001.13
588.846	9017.63
589.206	8988.93
589.565	8978.31
589.925	9002.26
590.284	8995.03
590.643	9028.03
591.003	8961.13
591.362	9013.11
591.721	9062.6
592.08	8964.98
592.44	8949.61
592.799	8945.77
593.158	8953.45
593.517	8901.25
593.876	8997.74
594.235	8945.54
594.593	8946.9
594.952	8877.97
595.311	8928.14
595.67	8923.85
596.029	8974.24
596.387	8923.62
596.746	8951.42
597.104	8884.98
597.463	8844.75
597.822	8971.08
598.18	8851.53
598.538	8897.86
598.897	8893.34
599.255	8899.22
599.613	8878.65
599.972	8886.33
600.33	8941.02
600.688	8862.38
601.046	8834.36
601.404	8896.05
601.762	8919.1
602.12	8948.71
602.478	8953.45
602.836	8918.2
603.194	8864.19
603.552	8858.99
603.91	8821.93
604.268	8888.82
604.625	8825.09
604.983	8889.95
605.341	8839.78
605.698	8873.23
606.056	8920.46
606.413	8907.12
606.771	8891.08
607.128	8868.26
607.485	8837.97
607.843	8838.43
608.2	8910.29
608.557	8911.42
608.914	8900.57
609.272	8919.33
609.629	8939.21
609.986	8872.55
610.343	8900.57
610.7	8966.11
611.057	8976.5
611.414	8954.81
611.771	8929.04
612.127	9023.28
612.484	9011.75
612.841	9009.27
613.198	8989.83
613.554	8933.34
613.911	9012.88
614.267	9019.89
614.624	9013.34
614.98	9021.47
615.337	9023.05
615.693	8975.37
616.05	8965.65
616.406	8997.07
616.762	9003.39
617.118	8994.13
617.475	8950.06
617.831	9003.17
618.187	9016.5
618.543	9087.91
618.899	9065.99
619.255	9063.73
619.611	9059.66
619.967	9034.58
620.323	9076.84
620.678	9107.8
621.034	9045.65
621.39	9026.44
621.746	9028.93
622.101	9120.45
622.457	9051.98
622.812	9055.14
623.168	9031.19
623.523	9069.15
623.879	9127.68
624.234	9079.78
624.589	9099.44
624.945	9073.67
625.3	9074.13
625.655	9028.7
626.01	9038.65
626.365	9030.29
626.72	9031.64
627.075	9064.41
627.43	9038.65
627.785	9017.86
628.14	9054.24
628.495	9067.12
628.85	9087.01
629.205	9001.59
629.559	9019.21
629.914	8987.57
630.269	8966.33
630.623	8999.55
630.978	8940.57
631.332	9004.98
631.687	9025.99
632.041	8965.88
632.396	8976.5
632.75	8923.4
633.104	8958.65
633.459	8912.1
633.813	8916.16
634.167	8895.15
634.521	8904.41
634.875	8838.65
635.229	8853.34
635.583	8839.78
635.937	8867.8
636.291	8769.5
636.645	8825.09
636.999	8800.46
637.352	8776.73
637.706	8758.65
638.06	8752.33
638.413	8747.13
638.767	8742.38
639.121	8786.9
639.474	8712.78
639.828	8795.72
640.181	8741.48
640.534	8717.98
640.888	8727.92
641.241	8647.7
641.594	8669.62
641.947	8734.02
642.301	8614.48
642.654	8622.39
643.007	8649.5
643.36	8668.26
643.713	8668.49
644.066	8625.55
644.419	8611.09
644.771	8608.6
645.124	8484.31
645.477	8507.81
645.83	8458.77
646.182	8448.83
646.535	8297.2
646.888	8406.8
647.24	8345.56
647.593	8380.36
647.945	8373.35
648.298	8292.9
648.65	8352.79
649.002	8295.62
649.355	8334.26
649.707	8347.14
650.059	8361.6
650.411	8414.48
650.763	8451.77
651.115	8568.83
651.467	8567.02
651.819	8492.9
652.171	8539.68
652.523	8499.45
652.875	8481.37
653.227	8448.38
653.578	8483.63
653.93	8477.31
654.282	8470.3
654.633	8478.89
654.985	8486.34
655.337	8535.38
655.688	8500.13
656.039	8509.39
656.391	8454.93
656.742	8479.79
657.094	8527.93
657.445	8514.37
657.796	8503.75
658.147	8452.45
658.498	8531.99
658.849	8525.21
659.2	8489.51
659.551	8434.59
659.902	8462.84
660.253	8517.08
660.604	8499
660.955	8525.89
661.306	8540.81
661.656	8508.72
662.007	8581.71
662.358	8564.08
662.708	8538.55
663.059	8556.63
663.409	8502.39
663.76	8573.35
664.11	8534.93
664.461	8564.76
664.811	8561.6
665.161	8585.33
665.511	8520.47
665.862	8562.05
666.212	8578.32
666.562	8534.7
666.912	8581.94
667.262	8526.57
667.612	8559.79
667.962	8538.09
668.312	8556.85
668.662	8603.4
669.011	8468.27
669.361	8523.86
669.711	8574.48
670.06	8549.17
670.41	8474.37
670.76	8462.39
671.109	8550.98
671.459	8449.51
671.808	8436.85
672.157	8486.12
672.507	8397.53
672.856	8468.72
673.205	8462.16
673.554	8535.38
673.904	8458.32
674.253	8535.16
674.602	8506.91
674.951	8373.35
675.3	8326.35
675.649	8446.35
675.998	8442.28
676.346	8376.07
676.695	8466.91
677.044	8415.61
677.393	8384.88
677.741	8383.52
678.09	8385.56
678.438	8299.91
678.787	8384.88
679.135	8341.49
679.484	8240.02
679.832	8308.72
680.181	8256.97
680.529	8270.76
680.877	8213.58
681.225	8191.44
681.573	8328.38
681.922	8186.69
682.27	8218.56
682.618	8158.44
682.966	8176.07
683.314	8186.01
683.661	8175.84
684.009	8121.38
684.357	8070.54
684.705	8081.16
685.053	8081.38
685.4	8085.45
685.748	8029.41
686.095	8033.25
686.443	7959.13
686.79	7971.56
687.138	8013.14
687.485	7975.17
687.832	7927.04
688.18	7926.59
688.527	7936.3
688.874	7864.67
689.221	7781.28
689.568	7838.23
689.915	7789.19
690.262	7816.76
690.609	7765.91
690.956	7750.32
691.303	7706.7
691.65	7704.67
691.997	7597.33
692.344	7689.08
692.69	7657.44
693.037	7618.8
693.383	7526.37
693.73	7564.34
694.077	7503.77
694.423	7474.17
694.769	7519.59
695.116	7455.41
695.462	7436.88
695.808	7395.75
696.155	7420.84
696.501	7365.24
696.847	7398.92
697.193	7356.66
697.539	7289.31
697.885	7238.02
698.231	7204.8
698.577	7231.91
698.923	7186.94
699.269	7138.58
699.614	7075.31
699.96	7095.87
700.306	7087.96
700.651	7084.35
700.997	7068.3
701.342	6986.95
701.688	6968.19
702.033	6930.23
702.379	6947.18
702.724	6951.7
703.069	6904.47
703.415	6860.85
703.76	6788.31
704.105	6848.42
704.45	6812.94
704.795	6782.66
705.14	6716.67
705.485	6680.52
705.83	6642.1
706.175	6685.49
706.52	6637.58
706.865	6614.76
707.209	6593.97
707.554	6580.86
707.899	6610.01
708.243	6538.15
708.588	6518.26
708.932	6558.71
709.277	6506.96
709.621	6568.2
709.966	6493.85
710.31	6523.01
710.654	6421.54
710.998	6417.02
711.342	6419.05
711.687	6383.58
712.031	6358.72
712.375	6364.82
712.719	6372.95
713.063	6360.98
713.407	6353.75
713.75	6316.23
714.094	6349.68
714.438	6274.43
714.782	6305.16
715.125	6263.58
715.469	6249.12
715.812	6225.61
716.156	6184.94
716.499	6259.06
716.843	6183.35
717.186	6152.85
717.53	6236.46
717.873	6218.38
718.216	6196.69
718.559	6137.25
718.902	6106.07
719.246	6190.13
719.589	6186.52
719.932	6110.59
720.275	6064.71
720.617	6097.03
720.96	6116.24
721.303	6075.56
721.646	6122.34
721.989	6093.19
722.331	6089.57
722.674	6090.93
723.016	6083.02
723.359	6046.86
723.701	6045.96
724.044	6013.42
724.386	5990.59
724.729	6038.27
725.071	6021.1
725.413	6037.6
725.755	6034.21
726.097	5970.7
726.439	5932.74
726.782	5968.44
727.124	6055.9
727.465	5946.52
727.807	5971.16
728.149	5954.21
728.491	5926.41
728.833	5986.75
729.175	5898.62
729.516	5973.64
729.858	5994.88
730.199	5937.26
730.541	5913.76
730.882	5955.79
731.224	5955.34
731.565	5912.63
731.906	5987.43
732.248	5973.64
732.589	5924.83
732.93	5958.28
733.271	5946.98
733.612	5906.53
733.953	5984.94
734.294	5945.39
734.635	5913.76
734.976	5967.54
735.317	5965.96
735.658	5985.39
735.999	5967.54
736.339	5974.32
736.68	5950.59
737.021	5967.54
737.361	5952.85
737.702	5960.76
738.042	5978.39
738.383	5989.24
738.723	6035.56
739.063	6015
739.404	6011.61
739.744	6044.37
740.084	6024.26
740.424	6021.78
740.764	6049.57
741.104	6045.28
741.444	6073.53
741.784	6081.89
742.124	6165.28
742.464	6072.4
742.804	6109.46
743.143	6160.98
743.483	6177.93
743.823	6115.79
744.162	6158.04
744.502	6251.15
744.841	6236.91
745.181	6281.66
745.52	6264.71
745.86	6311.03
746.199	6354.88
746.538	6380.41
746.877	6433.07
747.216	6400.07
747.556	6463.35
747.895	6540.63
748.234	6621.08
748.573	6671.7
748.911	6595.32
749.25	6755.32
749.589	6734.53
749.928	6833.51
750.267	6887.06
750.605	6938.81
750.944	7002.09
751.283	7074.18
751.621	7117.79
751.96	7198.47
752.298	7266.72
752.636	7371.8
752.975	7445.24
753.313	7547.84
753.651	7708.29
753.989	7788.28
754.327	7819.02
754.666	7935.17
755.004	8035.74
755.342	8285.45
755.679	8311.21
756.017	8443.63
756.355	8598.66
756.693	8651.99
757.031	8775.38
757.368	8945.32
757.706	9098.31
758.044	9235.93
758.381	9408.13
758.719	9549.59
759.056	9688.8
759.394	9856.7
759.731	9988.9
760.068	10124.95
760.405	10249.69
760.743	10392.96
761.08	10582.56
761.417	10741.88
761.754	10939.39
762.091	11086.73
762.428	11248.31
762.765	11366.49
763.102	11692.81
763.438	11766.26
763.775	11872.7
764.112	12081.5
764.449	12346.36
764.785	12424.09
765.122	12516.52
765.458	12694.37
765.795	12867.92
766.131	13108.14
766.467	13271.08
766.804	13344.07
767.14	13539.55
767.476	13681.01
767.812	13831.29
768.148	14041.23
768.485	14067.21
768.821	14181.34
769.157	14333.65
769.492	14478.96
769.828	14724.37
770.164	14628.78
770.5	14900.87
770.836	14920.75
771.171	15104.7
771.507	15147.64
771.842	15216.56
772.178	15394.86
772.513	15453.39
772.849	15577.91
773.184	15656.1
773.519	15705.82
773.855	15790.79
774.19	15924.79
774.525	15957.33
774.86	16108.97
775.195	16198.91
775.53	16169.53
775.865	16159.36
776.2	16307.16
776.535	16269.87
776.87	16389.19
777.205	16421.96
777.539	16436.19
777.874	16536.3
778.209	16465.34
778.543	16538.79
778.878	16591.22
779.212	16658.33
779.547	16601.16
779.881	16707.15
780.215	16749.63
780.55	16863.3
780.884	16769.97
781.218	16792.79
781.552	16919.12
781.886	16865.79
782.22	16894.94
782.554	16760.93
782.888	16718.9
783.222	16754.15
783.556	16756.41
783.889	16744.88
784.223	16717.54
784.557	16724.09
784.89	16804.09
785.224	16845.9
785.557	16681.16
785.891	16643.19
786.224	16739.69
786.558	16743.98
786.891	16655.4
787.224	16714.83
787.557	16683.42
787.891	16663.98
788.224	16627.37
788.557	16792.11
788.89	16646.13
789.223	16689.74
789.556	16667.6
789.888	16588.5
790.221	16592.57
790.554	16530.88
790.887	16493.14
791.219	16545.79
791.552	16524.33
791.884	16403.88
792.217	16470.99
792.549	16426.7
792.882	16303.31
793.214	16404.55
793.546	16338.57
793.879	16357.55
794.211	16194.39
794.543	16366.59
794.875	16250.89
795.207	16263.99
795.539	16249.3
795.871	16170.66
796.203	16139.48
796.535	16092.7
796.867	16081.63
797.198	16023.32
797.53	15923.66
797.862	15923.44
798.193	15897.9
798.525	15850.67
798.856	15894.51
799.188	15722.31
799.519	15667.62
799.85	15676.89
800.182	15761.63
800.513	15673.73
800.844	15585.14
801.175	15702.65
801.506	15617.23
801.837	15545.37
802.168	15523.22
802.499	15592.37
802.83	15503.11
803.161	15407.74
803.491	15397.8
803.822	15484.13
804.153	15347.41
804.483	15297.69
804.814	15281.87
805.145	15197.81
805.475	15232.83
805.805	15126.17
806.136	15180.63
806.466	15100.86
806.796	15152.61
807.126	14968.89
807.457	14998.94
807.787	15014.53
808.117	14991.71
808.447	14892.05
808.777	15040.52
809.107	14923.46
809.436	14799.17
809.766	14846.63
810.096	14763.69
810.426	14757.37
810.755	14709.91
811.085	14756.69
811.414	14725.28
811.744	14671.49
812.073	14546.75
812.403	14645.96
812.732	14582.46
813.061	14621.78
813.39	14474.21
813.719	14325.51
814.049	14529.12
814.378	14449.58
814.707	14398.96
815.036	14392.63
815.365	14289.13
815.693	14151.28
816.022	14302.24
816.351	14262.69
816.68	14172.52
817.008	14179.08
817.337	14038.74
817.665	13984.05
817.994	14059.08
818.322	14055.01
818.651	14004.62
818.979	13914.22
819.307	14004.39
819.636	13935.69
819.964	13889.82
820.292	13994.22
820.62	13949.48
820.948	13815.47
821.276	13966.65
821.604	13902.7
821.932	13865.19
822.259	13859.54
822.587	13924.17
822.915	13865.41
823.243	13906.54
823.57	13836.71
823.898	13910.16
824.225	13852.53
824.553	13806.88
824.88	13930.95
825.207	13852.08
825.535	13843.72
825.862	13921.23
826.189	13822.25
826.516	13946.77
826.843	13918.52
827.17	13912.87
827.497	13979.99
827.824	13981.79
828.151	13990.38
828.478	13900.21
828.805	13976.37
829.131	13879.42
829.458	13931.4
829.785	13819.99
830.111	13894.56
830.438	13884.85
830.764	13853.89
831.09	13959.87
831.417	13851.18
831.743	13986.09
832.069	13916.03
832.395	13846.88
832.722	13914.9
833.048	13853.89
833.374	13767.79
833.7	13837.84
834.026	13831.97
834.351	13792.87
834.677	13698.86
835.003	13767.79
835.329	13795.58
835.654	13734.12
835.98	13762.36
836.306	13778.86
836.631	13742.03
836.956	13745.64
837.282	13747.68
837.607	13681.91
837.932	13647.56
838.258	13653.67
838.583	13612.99
838.908	13493.67
839.233	13560.34
839.558	13617.96
839.883	13560.56
840.208	13496.38
840.533	13461.81
840.858	13411.41
841.182	13445.31
841.507	13530.28
841.832	13343.17
842.156	13361.47
842.481	13421.58
842.805	13383.17
843.13	13318.53
843.454	13307.69
843.778	13350.4
844.103	13285.99
844.427	13171.65
844.751	13168.48
845.075	13047.81
845.399	13046.9
845.723	12995.15
846.047	13058.88
846.371	12914.7
846.695	12949.28
847.019	12865.66
847.343	12779.57
847.666	12663.41
847.99	12622.51
848.313	12635.61
848.637	12568.5
848.96	12596.75
849.284	12497.09
849.607	12413.93
849.931	12316.3
850.254	12307.94
850.577	12286.24
850.9	12169.41
851.223	12220.26
851.546	12156.53
851.869	12005.35
852.192	12058
852.515	11949.53
852.838	11938.46
853.161	11888.74
853.483	11849.87
853.806	11848.97
854.129	11756.32
854.451	11728.52
854.774	11755.41
855.096	11695.98
855.419	11657.79
855.741	11519.71
856.063	11494.85
856.385	11547.06
856.708	11493.5
857.03	11510.45
857.352	11419.15
857.674	11384.35
857.996	11341.18
858.318	11281.53
858.64	11258.02
858.961	11209.66
859.283	11215.09
859.605	11155.43
859.926	11200.62
860.248	11109.1
860.57	11174.18
860.891	11107.97
861.212	11126.5
861.534	11085.6
861.855	10957.92
862.176	11020.06
862.498	11011.02
862.819	10971.25
863.14	10920.4
863.461	10943.46
863.782	10898.71
864.103	10929.67
864.424	10861.2
864.745	10856.9
865.065	10764.7
865.386	10785.95
865.707	10762.44
866.027	10762.67
866.348	10778.04
866.668	10769
866.989	10701.65
867.309	10630.47
867.63	10668.89
867.95	10679.06
868.27	10574.43
868.59	10636.12
868.91	10605.38
869.23	10611.94
869.55	10532.17
869.87	10558.15
870.19	10536.01
870.51	10555.89
870.83	10512.05
871.15	10504.82
871.469	10475.22
871.789	10533.3
872.109	10492.39
872.428	10322.68
872.748	10414.66
873.067	10368.33
873.386	10433.86
873.706	10315.45
874.025	10374.88
874.344	10288.78
874.663	10342.57
874.982	10304.38
875.301	10287.2
875.62	10309.12
875.939	10180.99
876.258	10232.51
876.577	10253.76
876.896	10192.06
877.214	10146.19
877.533	10197.49
877.852	10159.3
878.17	10151.61
878.489	10159.52
878.807	10102.35
879.125	10020.77
879.444	10116.13
879.762	10075.46
880.08	10032.52
880.398	9999.3
880.716	9990.49
881.034	9947.55
881.352	9917.04
881.67	9970.83
881.988	9908.45
882.306	9914.1
882.624	9854.22
882.941	9817.61
883.259	9738.06
883.577	9738.74
883.894	9746.88
884.212	9675.69
884.529	9718.85
884.846	9710.72
885.164	9623.72
885.481	9660.78
885.798	9666.65
886.115	9577.84
886.432	9647.67
886.75	9544.4
887.067	9529.26
887.383	9515.02
887.7	9555.92
888.017	9421.69
888.334	9484.51
888.651	9430.5
888.967	9470.27
889.284	9398.86
889.6	9326.32
889.917	9326.77
890.233	9297.62
890.55	9219.43
890.866	9266.89
891.182	9211.52
891.498	9198.87
891.815	9194.35
892.131	9102.15
892.447	9095.59
892.763	9043.62
893.079	9077.52
893.395	9001.36
893.71	8982.6
894.026	8978.99
894.342	8962.72
894.657	8891.76
894.973	8894.24
895.289	8874.58
895.604	8860.12
895.92	8765.66
896.235	8764.3
896.55	8770.63
896.865	8741.25
897.181	8650.63
897.496	8670.29
897.811	8627.36
898.126	8549.62
898.441	8562.73
898.756	8576.74
899.071	8500.13
899.386	8467.81
899.7	8446.12
900.015	8391.43
900.33	8285.67
900.644	8373.58
900.959	8253.81
901.273	8302.85
901.588	8209.06
901.902	8191.66
902.216	8203.64
902.531	8167.48
902.845	8145.11
903.159	8058.56
903.473	8053.14
903.787	8028.73
904.101	8027.6
904.415	7950.09
904.729	7986.7
905.042	7875.74
905.356	7903.08
905.67	7835.74
905.984	7847.27
906.297	7805.46
906.611	7797.32
906.924	7713.48
907.237	7637.33
907.551	7671
907.864	7578.35
908.177	7586.26
908.491	7586.71
908.804	7475.75
909.117	7492.02
909.43	7442.53
909.743	7420.38
910.056	7391.01
910.368	7324.57
910.681	7368.63
910.994	7337.45
911.307	7307.84
911.619	7264
911.932	7218.36
912.244	7164.12
912.557	7198.02
912.869	7121.63
913.181	7083.67
913.494	7082.77
913.806	7050.68
914.118	7034.86
914.43	7013.39
914.742	6947.18
915.054	6919.61
915.366	6896.78
915.678	6873.51
915.99	6845.26
916.302	6816.11
916.613	6777.92
916.925	6773.85
917.236	6741.08
917.548	6735.88
917.859	6708.76
918.171	6635.77
918.482	6615.66
918.794	6578.15
919.105	6609.56
919.416	6543.57
919.727	6459.51
920.038	6539.05
920.349	6452.27
920.66	6445.49
920.971	6427.87
921.282	6447.08
921.593	6370.47
921.903	6347.87
922.214	6326.18
922.525	6301.77
922.835	6264.93
923.146	6234.65
923.456	6193.52
923.767	6166.63
924.077	6139.97
924.387	6154.43
924.697	6107.42
925.008	6102
925.318	6028.33
925.628	6042.34
925.938	6063.58
926.248	5955.34
926.558	5985.62
926.867	5921.67
927.177	5964.6
927.487	5876.47
927.796	5850.71
928.106	5892.06
928.416	5846.19
928.725	5813.19
929.034	5746.98
929.344	5794.21
929.653	5752.86
929.962	5710.82
930.271	5684.61
930.581	5695.46
930.89	5601
931.199	5625.4
931.508	5580.43
931.817	5561
932.125	5579.08
932.434	5571.39
932.743	5522.13
933.051	5458.63
933.36	5447.33
933.669	5419.53
933.977	5430.15
934.286	5434.67
934.594	5427.67
934.902	5353.32
935.21	5259.08
935.519	5330.95
935.827	5325.52
936.135	5293.43
936.443	5254.79
936.751	5161.91
937.059	5182.93
937.367	5167.34
937.674	5180.44
937.982	5146.55
938.29	5153.55
938.597	5101.57
938.905	5055.93
939.213	5039.88
939.52	5004.18
939.827	5062.25
940.135	4981.35
940.442	4935.93
940.749	4928.25
941.056	4932.77
941.363	4885.31
941.67	4879.43
941.977	4861.13
942.284	4855.93
942.591	4818.64
942.898	4806.22
943.205	4772.54
943.511	4775.93
943.818	4756.73
944.125	4718.76
944.431	4685.54
944.738	4666.78
945.044	4635.15
945.35	4614.81
945.657	4599.44
945.963	4591.31
946.269	4576.39
946.575	4555.37
946.881	4570.52
947.187	4557.63
947.493	4469.28
947.799	4484.19
948.105	4478.09
948.41	4452.78
948.716	4415.94
949.022	4416.62
949.327	4386.57
949.633	4338.66
949.938	4348.6
950.244	4325.1
950.549	4317.41
950.854	4297.3
951.16	4292.78
951.465	4287.36
951.77	4237.64
952.075	4217.53
952.38	4196.97
952.685	4176.63
952.99	4147.7
953.294	4147.02
953.599	4121.49
953.904	4126.23
954.209	4067.48
954.513	4109.74
954.818	4076.74
955.122	4082.39
955.426	4051.88
955.731	4029.29
956.035	3983.86
956.339	3991.77
956.643	3969.4
956.948	3943.87
957.252	3905.45
957.556	3916.07
957.86	3922.4
958.163	3883.53
958.467	3866.13
958.771	3867.26
959.075	3831.33
959.378	3814.15
959.682	3799.01
959.985	3804.89
960.289	3764.89
960.592	3733.02
960.896	3745.45
961.199	3720.14
961.502	3694.61
961.805	3711.1
962.108	3658.22
962.411	3641.95
962.714	3656.42
963.017	3600.37
963.32	3632.69
963.623	3578
963.926	3616.64
964.228	3564.67
964.531	3554.95
964.833	3548.17
965.136	3520.15
965.438	3486.93
965.741	3469.53
966.043	3408.29
966.345	3459.36
966.648	3440.6
966.95	3438.57
967.252	3403.31
967.554	3362.41
967.856	3385.24
968.158	3374.84
968.46	3317.44
968.761	3365.35
969.063	3340.72
969.365	3340.49
969.666	3309.31
969.968	3270.21
970.269	3242.19
970.571	3264.11
970.872	3262.98
971.174	3205.35
971.475	3193.83
971.776	3233.6
972.077	3167.16
972.378	3141.17
972.679	3181.17
972.98	3165.13
973.281	3085.13
973.582	3090.1
973.883	3065.24
974.183	3081.06
974.484	3072.93
974.785	3079.71
975.085	3048.3
975.386	3042.19
975.686	3023.44
975.986	3039.03
976.287	2978.47
976.587	2968.07
976.887	2953.83
977.187	2980.27
977.487	2931.46
977.787	2944.34
978.087	2928.52
978.387	2893.5
978.687	2912.25
978.987	2876.55
979.286	2881.75
979.586	2822.31
979.885	2824.35
980.185	2861.18
980.484	2861.41
980.784	2831.13
981.083	2787.74
981.382	2805.82
981.682	2775.31
981.981	2749.77
982.28	2747.29
982.579	2715.65
982.878	2731.24
983.177	2670.9
983.475	2685.37
983.774	2694.63
984.073	2672.03
984.372	2609.66
984.67	2683.56
984.969	2635.88
985.267	2623.22
985.566	2610.57
985.864	2587.97
986.162	2575.31
986.461	2573.73
986.759	2588.19
987.057	2539.83
987.355	2523.79
987.653	2514.07
987.951	2498.03
988.249	2497.8
988.547	2478.59
988.844	2490.57
989.142	2458.71
989.44	2488.99
989.737	2445.6
990.035	2426.62
990.332	2458.71
990.63	2421.87
990.927	2399.73
991.224	2420.06
991.521	2382.32
991.819	2394.53
992.116	2368.54
992.413	2376.45
992.71	2314.98
993.006	2347.75
993.303	2338.26
993.6	2324.7
993.897	2321.54
994.193	2276.11
994.49	2267.3
994.787	2285.83
995.083	2279.95
995.379	2250.58
995.676	2246.51
995.972	2215.55
996.268	2191.82
996.565	2203.35
996.861	2207.41
997.157	2187.75
997.453	2161.54
997.749	2135.78
998.044	2142.1
998.34	2141.65
998.636	2139.62
998.932	2103.46
999.227	2122.44
999.523	2112.95
999.818	2073.41
1000.114	2086.96
1000.409	2057.36
1000.704	2076.57
1001	2058.72
1001.295	2029.34
1001.59	2034.99
1001.885	2010.81
1002.18	2009
1002.475	1963.13
1002.77	1989.11
1003.065	1974.88
1003.359	1943.92
1003.654	1896.01
1003.949	1902.56
1004.243	1922
1004.538	1920.87
1004.832	1911.83
1005.127	1901.21
1005.421	1870.93
1005.715	1878.16
1006.009	1874.77
1006.304	1834.32
1006.598	1844.26
1006.892	1842.68
1007.186	1792.06
1007.48	1809.91
1007.773	1802
1008.067	1828.21
1008.361	1794.77
1008.655	1774.43
1008.948	1743.25
1009.242	1752.74
1009.535	1736.69
1009.829	1748.89
1010.122	1684.04
1010.415	1709.35
1010.708	1691.95
1011.001	1685.85
1011.295	1687.43
1011.588	1670.48
1011.881	1652.63
1012.173	1639.07
1012.466	1631.84
1012.759	1633.42
1013.052	1624.38
1013.344	1616.69
1013.637	1620.08
1013.93	1599.07
1014.222	1581.44
1014.514	1553.87
1014.807	1578.96
1015.099	1541.67
1015.391	1521.33
1015.683	1543.93
1015.976	1536.47
1016.268	1511.16
1016.56	1505.51
1016.851	1478.62
1017.143	1475.23
1017.435	1533.08
1017.727	1515.23
1018.018	1453.76
1018.31	1460.54
1018.602	1443.59
1018.893	1399.07
1019.185	1415.34
1019.476	1446.53
1019.767	1419.41
1020.058	1417.15
1020.35	1405.17
1020.641	1381.67
1020.932	1392.75
1021.223	1364.27
1021.514	1375.8
1021.804	1340.54
1022.095	1342.13
1022.386	1321.34
1022.677	1333.99
1022.967	1327.44
1023.258	1339.19
1023.548	1310.94
1023.839	1298.96
1024.129	1280.88
1024.419	1300.09
1024.709	1280.66
1025	1260.77
1025.29	1248.34
1025.58	1244.28
1025.87	1231.39
1026.16	1230.26
1026.449	1218.97
1026.739	1201.11
1027.029	1224.16
1027.319	1208.57
1027.608	1200.66
1027.898	1184.16
1028.187	1162.7
1028.477	1160.21
1028.766	1146.88
1029.055	1133.32
1029.344	1150.04
1029.634	1133.77
1029.923	1121.79
1030.212	1140.32
1030.501	1101.91
1030.79	1082.92
1031.078	1104.39
1031.367	1081.79
1031.656	1085.86
1031.945	1087.67
1032.233	1082.02
1032.522	1076.14
1032.81	1073.43
1033.099	1041.34
1033.387	1086.31
1033.675	1038.18
1033.963	1036.37
1034.251	1039.31
1034.54	1043.38
1034.828	1002.25
1035.116	1015.81
1035.403	998.86
1035.691	1014
1035.979	992.53
1036.267	981.46
1036.554	990.95
1036.842	974.23
1037.129	973.1
1037.417	980.55
1037.704	952.08
1037.992	955.24
1038.279	946.88
1038.566	927.67
1038.853	927.67
1039.14	927.67
