Data from hue_80_FLMS001491_64.txt Node
Date: Mon Feb 06 15:23:23 GMT 2017
User: dcchb
Spectrometer: FLMS00149
Trigger mode: 0
Integration Time (sec): 2.000000E-2
Scans to average: 10
Electric dark correction enabled: true
Nonlinearity correction enabled: false
Boxcar width: 0
XAxis mode: Wavelengths
Number of Pixels in Spectrum: 2048
>>>>>Begin Spectral Data<<<<<
341.393	-15.59
341.776	-15.59
342.16	-15.59
342.543	-44.29
342.927	-28.25
343.31	-56.27
343.693	-59.89
344.077	-73.22
344.46	-56.95
344.843	-69.83
345.226	-39.1
345.61	-29.83
345.993	-30.73
346.376	-27.8
346.759	-6.78
347.142	19.89
347.525	52.2
347.908	82.71
348.291	70.73
348.674	114.57
349.057	110.28
349.44	138.3
349.823	137.4
350.206	146.21
350.588	205.42
350.971	203.38
351.354	221.69
351.737	218.98
352.119	249.48
352.502	272.08
352.884	269.37
353.267	311.63
353.65	303.27
354.032	308.47
354.414	296.94
354.797	312.53
355.179	309.37
355.562	309.82
355.944	332.87
356.326	318.86
356.709	326.77
357.091	336.49
357.473	355.92
357.855	343.95
358.238	361.57
358.62	354.79
359.002	347.56
359.384	350.5
359.766	331.52
360.148	338.3
360.53	336.04
360.912	334.45
361.294	319.09
361.676	334
362.057	338.3
362.439	332.65
362.821	333.1
363.203	326.32
363.584	338.75
363.966	325.42
364.348	328.8
364.729	310.73
365.111	308.69
365.493	316.15
365.874	331.52
366.256	312.08
366.637	326.77
367.019	316.38
367.4	329.26
367.781	311.4
368.163	310.5
368.544	304.62
368.925	317.51
369.306	315.47
369.688	306.88
370.069	301.01
370.45	318.18
370.831	319.77
371.212	317.96
371.593	295.13
371.974	303.72
372.355	294.91
372.736	319.09
373.117	312.99
373.498	338.75
373.879	322.03
374.26	316.6
374.641	299.2
375.021	301.01
375.402	306.43
375.783	312.53
376.163	323.38
376.544	323.83
376.925	336.26
377.305	305.53
377.686	339.65
378.066	331.06
378.447	343.95
378.827	320.22
379.208	337.62
379.588	325.87
379.968	342.36
380.349	340.78
380.729	326.09
381.109	349.14
381.489	350.27
381.87	329.71
382.25	331.29
382.63	326.55
383.01	328.13
383.39	331.74
383.77	342.59
384.15	352.99
384.53	336.26
384.91	335.81
385.29	355.7
385.67	359.31
386.049	345.08
386.429	368.8
386.809	343.72
387.189	374.45
387.568	357.96
387.948	345.53
388.328	357.73
388.707	342.36
389.087	332.65
389.466	335.58
389.846	358.18
390.225	372.65
390.605	367
390.984	352.99
391.363	363.83
391.743	358.18
392.122	389.14
392.501	371.74
392.881	373.1
393.26	364.06
393.639	362.25
394.018	361.8
394.397	368.8
394.776	362.25
395.155	380.1
395.534	384.4
395.913	366.32
396.292	382.14
396.671	394.34
397.05	375.58
397.429	379.2
397.808	366.32
398.186	358.18
398.565	391.4
398.944	390.95
399.323	382.81
399.701	390.05
400.08	387.33
400.458	392.08
400.837	398.18
401.215	397.96
401.594	367.45
401.972	388.46
402.351	379.88
402.729	423.94
403.107	393.89
403.486	413.55
403.864	414
404.242	422.81
404.62	414
404.999	371.74
405.377	411.29
405.755	429.82
406.133	380.33
406.511	423.49
406.889	402.93
407.267	409.93
407.645	443.38
408.023	438.63
408.401	442.7
408.779	418.52
409.156	414.23
409.534	413.55
409.912	438.41
410.29	442.47
410.667	451.29
411.045	430.05
411.422	446.77
411.8	437.05
412.178	444.06
412.555	454
412.933	463.49
413.31	457.84
413.687	446.54
414.065	463.94
414.442	451.74
414.819	455.81
415.197	463.72
415.574	471.85
415.951	467.11
416.328	450.38
416.705	466.43
417.082	490.61
417.46	474.79
417.837	492.64
418.214	502.36
418.591	491.74
418.967	507.11
419.344	492.64
419.721	523.38
420.098	511.62
420.475	506.88
420.852	513.66
421.228	512.98
421.605	502.13
421.982	498.97
422.358	528.12
422.735	506.2
423.111	516.6
423.488	539.19
423.864	552.75
424.241	543.49
424.617	526.54
424.994	552.08
425.37	521.79
425.746	542.13
426.123	541.68
426.499	547.56
426.875	537.84
427.251	560.21
427.627	575.35
428.003	571.06
428.379	575.13
428.756	567.22
429.132	586.2
429.507	580.1
429.883	567.22
430.259	604.73
430.635	607.44
431.011	605.86
431.387	617.16
431.763	623.26
432.138	624.39
432.514	595.24
432.89	641.11
433.265	624.62
433.641	629.36
434.016	628.68
434.392	659.64
434.767	633.43
435.143	646.76
435.518	665.52
435.894	671.62
436.269	683.82
436.644	664.16
437.02	653.32
437.395	672.07
437.77	690.38
438.145	684.95
438.52	686.76
438.895	698.29
439.271	702.35
439.646	702.81
440.021	715.69
440.395	727.89
440.77	688.8
441.145	743.94
441.52	743.48
441.895	729.02
442.27	741.68
442.645	735.35
443.019	731.05
443.394	732.86
443.769	731.05
444.143	756.14
444.518	764.05
444.892	764.05
445.267	772.41
445.641	769.92
446.016	770.83
446.39	773.54
446.764	764.27
447.139	784.16
447.513	802.69
447.887	801.33
448.262	820.32
448.636	823.03
449.01	782.13
449.384	802.69
449.758	840.66
450.132	851.73
450.506	836.81
450.88	844.05
451.254	860.99
451.628	840.66
452.002	856.47
452.376	864.16
452.75	889.24
453.123	855.8
453.497	899.19
453.871	937.15
454.244	907.77
454.618	885.85
454.992	931.05
455.365	936.02
455.739	931.05
456.112	972.4
456.486	937.6
456.859	934.89
457.232	979.86
457.606	936.7
457.979	1011.72
458.352	999.52
458.725	1008.79
459.099	1008.79
459.472	1031.39
459.845	1044.49
460.218	1059.41
460.591	1065.06
460.964	1058.96
461.337	1083.36
461.71	1120.42
462.083	1143.7
462.456	1121.55
462.829	1149.35
463.201	1177.37
463.574	1155.68
463.947	1144.15
464.32	1197.26
464.692	1229.35
465.065	1218.05
465.438	1224.83
465.81	1230.02
466.183	1262.57
466.555	1290.81
466.928	1321.1
467.3	1319.29
467.672	1339.63
468.045	1387.31
468.417	1362.45
468.789	1384.37
469.161	1388.21
469.534	1446.97
469.906	1444.03
470.278	1543.01
470.65	1558.83
471.022	1536.91
471.394	1595.89
471.766	1635.66
472.138	1639.28
472.51	1668.88
472.882	1695.55
473.253	1724.25
473.625	1760.18
473.997	1818.71
474.369	1851.25
474.74	1889.44
475.112	1935.77
475.484	1994.52
475.855	2034.52
476.227	2074.97
476.598	2119.72
476.97	2154.29
477.341	2243.33
477.713	2281.3
478.084	2328.75
478.455	2408.98
478.827	2429.31
479.198	2537.79
479.569	2577.33
479.94	2671.79
480.311	2761.06
480.682	2851.9
481.053	2923.31
481.424	3014.84
481.795	3064.55
482.166	3169.18
482.537	3250.76
482.908	3346.58
483.279	3451.89
483.65	3535.95
484.021	3636.29
484.391	3714.03
484.762	3809.84
485.133	3910.18
485.503	4020.69
485.874	4127.8
486.244	4230.62
486.615	4353.78
486.985	4502.48
487.356	4614.57
487.726	4681.91
488.097	4887.1
488.467	4981.79
488.837	5144.72
489.207	5216.13
489.578	5409.58
489.948	5472.4
490.318	5627.2
490.688	5731.15
491.058	5894.31
491.428	6035.55
491.798	6150.12
492.168	6395.99
492.538	6453.84
492.908	6598.47
493.278	6714.63
493.648	6864.9
494.017	7044.33
494.387	7190.55
494.757	7273.26
495.126	7465.34
495.496	7549.63
495.866	7691.78
496.235	7810.19
496.605	7971.77
496.974	8087.7
497.344	8204.3
497.713	8366.33
498.082	8445.65
498.452	8613.56
498.821	8670.51
499.19	8830.95
499.559	8916.38
499.928	9096.03
500.298	9200.44
500.667	9352.52
501.036	9395.69
501.405	9611.27
501.774	9711.38
502.143	9821.66
502.512	9928.55
502.88	10023.24
503.249	10157.02
503.618	10244.7
503.987	10329.45
504.356	10427.52
504.724	10550.46
505.093	10610.57
505.462	10667.06
505.83	10871.35
506.199	10969.43
506.567	11113.38
506.936	11138.01
507.304	11352.02
507.672	11315.18
508.041	11441.06
508.409	11519.7
508.777	11710.65
509.145	11819.58
509.514	11872
509.882	11933.92
510.25	11982.96
510.618	12089.4
510.986	12266.57
511.354	12277.87
511.722	12410.97
512.09	12553.79
512.458	12473.34
512.826	12690.74
513.193	12657.52
513.561	12732.09
513.929	12827.46
514.297	12985.2
514.664	13097.51
515.032	13161.46
515.4	13201.01
515.767	13325.3
516.135	13325.3
516.502	13288.92
516.869	13519.87
517.237	13578.85
517.604	13549.02
517.972	13657.72
518.339	13667.89
518.706	13731.84
519.073	13827.66
519.44	13944.04
519.808	14017.26
520.175	14038.5
520.542	14232.85
520.909	14348.78
521.276	14272.62
521.643	14367.08
522.009	14469.22
522.376	14386.74
522.743	14582.67
523.11	14654.76
523.477	14793.28
523.843	14824.69
524.21	14869.67
524.577	14945.6
524.943	15070.34
525.31	15095.87
525.676	15251.12
526.043	15327.73
526.409	15371.12
526.776	15552.59
527.142	15387.39
527.508	15498.58
527.874	15547.61
528.241	15576.99
528.607	15641.4
528.973	15677.78
529.339	15646.37
529.705	15790.55
530.071	15892.92
530.437	15842.75
530.803	16005.23
531.169	16011.33
531.535	15931.78
531.901	16042.52
532.267	16048.39
532.632	16096.98
532.998	16069.63
533.364	16204.77
533.73	16118.22
534.095	16212.46
534.461	16150.76
534.826	16260.59
535.192	16321.15
535.557	16391.21
535.923	16340.59
536.288	16381.94
536.653	16390.3
537.019	16221.72
537.384	16365.22
537.749	16355.95
538.114	16333.81
538.479	16409.51
538.845	16413.81
539.21	16350.53
539.575	16414.26
539.94	16445.67
540.305	16457.65
540.67	16403.18
541.034	16440.92
541.399	16382.62
541.764	16344.2
542.129	16381.72
542.494	16413.58
542.858	16411.09
543.223	16386.01
543.587	16444.99
543.952	16324.77
544.316	16387.37
544.681	16296.29
545.045	16388.95
545.41	16393.92
545.774	16364.09
546.138	16360.93
546.503	16303.53
546.867	16399.79
547.231	16403.41
547.595	16398.21
547.959	16430.75
548.324	16321.6
548.688	16401.38
549.052	16343.07
549.416	16416.52
549.779	16314.15
550.143	16375.84
550.507	16445.22
550.871	16396.18
551.235	16327.71
551.599	16407.25
551.962	16379.91
552.326	16415.61
552.689	16393.47
553.053	16318.89
553.417	16349.85
553.78	16438.66
554.143	16416.07
554.507	16412.9
554.87	16383.52
555.234	16581.48
555.597	16423.52
555.96	16400.92
556.323	16445.9
556.686	16376.29
557.05	16496.97
557.413	16473.47
557.776	16444.99
558.139	16520.7
558.502	16526.57
558.865	16507.14
559.228	16649.05
559.59	16679.11
559.953	16662.39
560.316	16699.67
560.679	16607.02
561.041	16804.3
561.404	16756.17
561.767	16856.73
562.129	16725.66
562.492	16923.85
562.854	16838.2
563.217	16873
563.579	16904.41
563.941	16888.14
564.304	17000
564.666	17025.54
565.028	17065.31
565.39	17007.24
565.753	17099.44
566.115	17068.03
566.477	17162.03
566.839	17184.63
567.201	17220.11
567.563	17180.57
567.925	17266.89
568.287	17349.37
568.648	17316.15
569.01	17422.14
569.372	17428.92
569.734	17369.94
570.095	17433.44
570.457	17472.76
570.819	17620.1
571.18	17483.61
571.542	17611.51
571.903	17615.81
572.265	17694.22
572.626	17687.9
572.987	17776.93
573.349	17724.96
573.71	17763.15
574.071	17743.49
574.432	17790.72
574.794	17860.77
575.155	17837.72
575.516	17790.49
575.877	17889.93
576.238	17875.91
576.599	17921.56
576.96	17873.88
577.32	17929.25
577.681	17925.63
578.042	17932.86
578.403	18023.25
578.763	18058.73
579.124	17892.18
579.485	18090.15
579.845	18058.73
580.206	18108.22
580.566	18076.59
580.927	17997.27
581.287	18015.12
581.648	18062.35
582.008	18170.14
582.368	18093.08
582.728	18157.49
583.089	18065.06
583.449	18051.05
583.809	18065.06
584.169	18092.63
584.529	17976.25
584.889	18131.95
585.249	17963.6
585.609	17919.3
585.969	18010.83
586.329	18021
586.688	18031.16
587.048	17980.32
587.408	17962.69
587.768	17965.4
588.127	18030.49
588.487	18049.02
588.846	18132.63
589.206	17900.32
589.565	17937.61
589.925	18046.98
590.284	17941.68
590.643	17999.07
591.003	18052.86
591.362	17971.28
591.721	17968.79
592.08	18030.03
592.44	17993.65
592.799	18016.48
593.158	17966.99
593.517	17903.03
593.876	18002.46
594.235	17917.95
594.593	17932.64
594.952	17968.79
595.311	17871.85
595.67	17960.21
596.029	18047.66
596.387	18023.71
596.746	17994.78
597.104	17850.6
597.463	17894.22
597.822	17952.97
598.18	17812.86
598.538	17956.36
598.897	17937.83
599.255	17777.61
599.613	17988.91
599.972	17931.73
600.33	17928.57
600.688	17909.13
601.046	17995.91
601.404	18018.51
601.762	17917.49
602.12	17962.01
602.478	17984.61
602.836	18006.31
603.194	17940.09
603.552	17955.91
603.91	17942.13
604.268	17952.3
604.625	17917.72
604.983	18039.98
605.341	17909.59
605.698	17984.61
606.056	18020.77
606.413	18079.07
606.771	18216.47
607.128	18113.2
607.485	17936.93
607.843	18063.25
608.2	18133.08
608.557	18133.31
608.914	18020.09
609.272	18150.71
609.629	18207.43
609.986	18298.05
610.343	18127.21
610.7	18203.36
611.057	18199.3
611.414	18259.41
611.771	18292.17
612.127	18252.85
612.484	18303.7
612.841	18414.43
613.198	18376.47
613.554	18373.98
613.911	18477.71
614.267	18420.98
614.624	18429.12
614.98	18417.59
615.337	18555.44
615.693	18525.84
616.05	18405.17
616.406	18650.36
616.762	18549.57
617.118	18472.96
617.475	18478.84
617.831	18514.09
618.187	18612.17
618.543	18499.17
618.899	18788.21
619.255	18680.19
619.611	18639.06
619.967	18663.01
620.323	18719.28
620.678	18676.57
621.034	18565.39
621.39	18744.82
621.746	18607.65
622.101	18819.39
622.457	18680.86
622.812	18653.29
623.168	18787.75
623.523	18796.57
623.879	18745.27
624.234	18701.2
624.589	18695.1
624.945	18821.43
625.3	18880.86
625.655	18766.06
626.01	18799.28
626.365	18836.79
626.72	18704.59
627.075	18702.79
627.43	18836.11
627.785	18685.38
628.14	18845.61
628.495	18726.97
628.85	18762.22
629.205	18694.65
629.559	18794.08
629.914	18693.07
630.269	18616.01
630.623	18717.02
630.978	18565.16
631.332	18662.33
631.687	18730.81
632.041	18602.45
632.396	18651.26
632.75	18564.48
633.104	18616.46
633.459	18553.86
633.813	18537.59
634.167	18471.83
634.521	18459.4
634.875	18431.15
635.229	18481.77
635.583	18390.48
635.937	18327.43
636.291	18347.54
636.645	18367.2
636.999	18336.02
637.352	18407.65
637.706	18260.08
638.06	18322
638.413	18440.19
638.767	18293.53
639.121	18277.94
639.474	18223.25
639.828	18277.94
640.181	18183.93
640.534	18257.83
640.888	18149.81
641.241	18134.21
641.594	18125.17
641.947	18156.58
642.301	18150.26
642.654	18182.12
643.007	18071.62
643.36	18100.32
643.713	18037.94
644.066	18106.87
644.419	18004.5
644.771	17960.43
645.124	17828.46
645.477	17763.37
645.83	17544.17
646.182	17482.25
646.535	17437.06
646.888	17446.32
647.24	17428.92
647.593	17571.52
647.945	17525.64
648.298	17417.85
648.65	17450.39
649.002	17330.84
649.355	17384.85
649.707	17419.43
650.059	17498.3
650.411	17730.83
650.763	17682.47
651.115	17905.52
651.467	17814.9
651.819	17783.71
652.171	17766.09
652.523	17715.69
652.875	17799.53
653.227	17726.09
653.578	17803.15
653.93	17786.42
654.282	17775.58
654.633	17764.05
654.985	17811.74
655.337	17777.61
655.688	17759.99
656.039	17870.26
656.391	17738.52
656.742	17672.98
657.094	17869.13
657.445	17837.72
657.796	17764.05
658.147	17756.82
658.498	17782.81
658.849	17849.25
659.2	17804.5
659.551	17824.84
659.902	17875.69
660.253	17767.22
660.604	17858.29
660.955	17766.76
661.306	17846.76
661.656	17743.49
662.007	17814.67
662.358	17835.46
662.708	17830.27
663.059	17827.78
663.409	17683.83
663.76	17845.86
664.11	17878.4
664.461	17877.04
664.811	17934.44
665.161	17893.77
665.511	17722.47
665.862	17851.73
666.212	17821.9
666.562	17847.67
666.912	17801.57
667.262	17802.24
667.612	17816.93
667.962	17792.53
668.312	17819.87
668.662	17889.47
669.011	17756.14
669.361	17816.71
669.711	17879.08
670.06	17790.04
670.41	17762.92
670.76	17737.61
671.109	17767.67
671.459	17720.66
671.808	17777.84
672.157	17840.43
672.507	17741.68
672.856	17753.43
673.205	17729.03
673.554	17772.41
673.904	17722.25
674.253	17839.3
674.602	17793.66
674.951	17531.29
675.3	17373.33
675.649	17666.2
675.998	17601.12
676.346	17715.69
676.695	17715.24
677.044	17494.46
677.393	17568.13
677.741	17582.59
678.09	17563.61
678.438	17512.08
678.787	17551.18
679.135	17571.06
679.484	17495.81
679.832	17488.58
680.181	17351.41
680.529	17383.72
680.877	17353.67
681.225	17295.59
681.573	17441.12
681.922	17230.06
682.27	17232.77
682.618	17206.33
682.966	17184.41
683.314	17162.26
683.661	17139.44
684.009	17058.53
684.357	16984.86
684.705	17015.37
685.053	16973.11
685.4	16982.15
685.748	16902.83
686.095	16942.15
686.443	16795.04
686.79	16818.09
687.138	16826.9
687.485	16885.88
687.832	16724.31
688.18	16722.5
688.527	16665.32
688.874	16600.24
689.221	16584.2
689.568	16423.07
689.915	16373.58
690.262	16398.21
690.609	16400.25
690.956	16314.37
691.303	16256.52
691.65	16225.11
691.997	16092.68
692.344	16064.21
692.69	16098.33
693.037	16077.09
693.383	16054.95
693.73	16012.69
694.077	15906.25
694.423	15865.35
694.769	15830.32
695.116	15680.72
695.462	15699.02
695.808	15692.47
696.155	15595.75
696.501	15581.96
696.847	15492.7
697.193	15436.66
697.539	15480.27
697.885	15364.57
698.231	15318.47
698.577	15274.4
698.923	15196.44
699.269	15237.57
699.614	15056.33
699.96	14986.27
700.306	15079.38
700.651	14920.74
700.997	14887.74
701.342	14839.38
701.688	14839.16
702.033	14730.46
702.379	14739.05
702.724	14652.04
703.069	14731.14
703.415	14537.7
703.76	14556.68
704.105	14509.67
704.45	14458.6
704.795	14289.57
705.14	14337.02
705.485	14352.62
705.83	14278.95
706.175	14330.92
706.52	14159.85
706.865	14171.15
707.209	14203.92
707.554	14083.92
707.899	14106.07
708.243	13913.08
708.588	14055.45
708.932	13903.59
709.277	13828.34
709.621	13898.17
709.966	13722.35
710.31	13766.64
710.654	13648.45
710.998	13689.58
711.342	13696.14
711.687	13644.61
712.031	13498.18
712.375	13466.99
712.719	13539.76
713.063	13489.81
713.407	13496.59
713.75	13419.76
714.094	13446.88
714.438	13352.42
714.782	13438.52
715.125	13329.59
715.469	13350.38
715.812	13265.19
716.156	13176.38
716.499	13267.67
716.843	13168.47
717.186	13073.33
717.53	13216.6
717.873	13142.71
718.216	13116.49
718.559	13048.24
718.902	13042.59
719.246	13070.84
719.589	12982.71
719.932	12991.07
720.275	12963.5
720.617	12854.8
720.96	12918.53
721.303	12926.21
721.646	12904.75
721.989	12853.22
722.331	12919.43
722.674	12875.14
723.016	12848.93
723.359	12750.85
723.701	12813.9
724.044	12699.1
724.386	12600.12
724.729	12735.26
725.071	12703.17
725.413	12701.36
725.755	12658.65
726.097	12654.58
726.439	12526.68
726.782	12544.98
727.124	12699.1
727.465	12582.49
727.807	12555.15
728.149	12615.94
728.491	12552.44
728.833	12627.46
729.175	12518.99
729.516	12543.85
729.858	12641.7
730.199	12523.06
730.541	12506.34
730.882	12516.96
731.224	12484.64
731.565	12495.94
731.906	12451.2
732.248	12518.77
732.589	12394.02
732.93	12463.18
733.271	12487.36
733.612	12441.25
733.953	12521.7
734.294	12497.75
734.635	12488.71
734.976	12587.24
735.317	12453.91
735.658	12464.08
735.999	12446.68
736.339	12464.53
736.68	12490.07
737.021	12436.06
737.361	12473.34
737.702	12509.28
738.042	12485.77
738.383	12411.65
738.723	12431.99
739.063	12509.28
739.404	12506.79
739.744	12528.03
740.084	12431.76
740.424	12475.6
740.764	12524.87
741.104	12553.79
741.444	12551.53
741.784	12567.13
742.124	12563.51
742.464	12624.98
742.804	12520.57
743.143	12553.79
743.483	12634.02
743.823	12561.48
744.162	12685.32
744.502	12632.89
744.841	12693
745.181	12688.93
745.52	12657.07
745.86	12782.49
746.199	12762.83
746.538	12713.11
746.877	12933.9
747.216	12899.1
747.556	12939.32
747.895	12945.87
748.234	12869.04
748.573	13059.77
748.911	13118.53
749.25	13199.2
749.589	13169.82
749.928	13254.34
750.267	13356.26
750.605	13356.03
750.944	13492.75
751.283	13481.23
751.621	13668.12
751.96	13598.29
752.298	13795.57
752.636	13861.56
752.975	13881.22
753.313	13877.38
753.651	14113.53
753.989	14222.68
754.327	14237.14
754.666	14306.97
755.004	14448.89
755.342	14499.51
755.679	14677.13
756.017	14743.12
756.355	14923.22
756.693	14912.6
757.031	15118.7
757.368	15171.13
757.706	15233.95
758.044	15348.97
758.381	15548.97
758.719	15552.59
759.056	15768.17
759.394	15854.5
759.731	15993.25
760.068	15970.88
760.405	16058.56
760.743	16215.84
761.08	16409.96
761.417	16363.86
761.754	16453.58
762.091	16618.55
762.428	16718.66
762.765	16668.94
763.102	16851.76
763.438	16887.01
763.775	17003.39
764.112	17131.98
764.449	17231.41
764.785	17252.88
765.122	17365.19
765.458	17416.49
765.795	17457.39
766.131	17609.25
766.467	17680.89
766.804	17673.89
767.14	17638.18
767.476	17812.86
767.812	17808.35
768.148	17953.88
768.485	17925.86
768.821	17934.44
769.157	17963.6
769.492	18067.77
769.828	18152.52
770.164	18059.19
770.5	18102.8
770.836	18264.38
771.171	18233.87
771.507	18249.24
771.842	18240.2
772.178	18322.91
772.513	18364.49
772.849	18297.82
773.184	18298.73
773.519	18439.97
773.855	18309.35
774.19	18384.83
774.525	18313.87
774.86	18280.42
775.195	18345.73
775.53	18303.25
775.865	18331.95
776.2	18172.86
776.535	18098.96
776.87	18289.01
777.205	18227.32
777.539	18198.84
777.874	18213.76
778.209	18115.68
778.543	18187.09
778.878	18042.69
779.212	18147.32
779.547	17956.82
779.881	18151.61
780.215	18008.57
780.55	18111.16
780.884	17923.82
781.218	18005.85
781.552	17916.82
781.886	17950.04
782.22	17902.58
782.554	17854.45
782.888	17642.47
783.222	17670.27
783.556	17635.24
783.889	17515.7
784.223	17555.92
784.557	17422.82
784.89	17557.28
785.224	17374.01
785.557	17386.89
785.891	17367.9
786.224	17354.12
786.558	17278.87
786.891	17226.21
787.224	17152.32
787.557	17097.18
787.891	17156.61
788.224	17173.11
788.557	17000.91
788.89	17060.57
789.223	16985.54
789.556	16885.43
789.888	16913.68
790.221	16867.35
790.554	16738.32
790.887	16678.66
791.219	16701.03
791.552	16678.21
791.884	16631.2
792.217	16591.88
792.549	16453.8
792.882	16382.85
793.214	16380.81
793.546	16343.3
793.879	16287.71
794.211	16255.84
794.543	16254.49
794.875	16134.49
795.207	16150.31
795.539	16133.59
795.871	16087.94
796.203	16018.56
796.535	15923.88
796.867	15909.19
797.198	15898.11
797.53	15875.29
797.862	15709.42
798.193	15788.29
798.525	15715.97
798.856	15711
799.188	15535.64
799.519	15588.74
799.85	15411.12
800.182	15403.44
800.513	15522.53
800.844	15343.78
801.175	15364.12
801.506	15342.87
801.837	15323.44
802.168	15224.23
802.499	15243.89
802.83	15095.2
803.161	15060.62
803.491	15079.83
803.822	15078.25
804.153	14975.43
804.483	14833.06
804.814	14906.27
805.145	14830.12
805.475	14886.16
805.805	14744.47
806.136	14744.92
806.466	14724.36
806.796	14712.83
807.126	14511.26
807.457	14589.9
807.787	14534.31
808.117	14517.81
808.447	14469.45
808.777	14438.94
809.107	14513.29
809.436	14373.86
809.766	14370.02
810.096	14329.34
810.426	14202.34
810.755	14227.65
811.085	14247.31
811.414	14278.95
811.744	14087.54
812.073	14063.81
812.403	14152.4
812.732	14033.53
813.061	14002.57
813.39	13837.83
813.719	13933.42
814.049	14033.76
814.378	13978.16
814.707	13839.18
815.036	13781.11
815.365	13796.7
815.693	13591.96
816.022	13696.59
816.351	13582.24
816.68	13576.59
817.008	13634.9
817.337	13422.7
817.665	13523.26
817.994	13526.2
818.322	13487.55
818.651	13365.98
818.979	13368.46
819.307	13337.28
819.636	13359.87
819.964	13323.49
820.292	13353.77
820.62	13317.39
820.948	13332.08
821.276	13279.42
821.604	13246.66
821.932	13255.7
822.259	13247.79
822.587	13279.2
822.915	13172.31
823.243	13214.34
823.57	13213.66
823.898	13251.85
824.225	13218.64
824.553	13131.63
824.88	13154.23
825.207	13229.03
825.535	13219.09
825.862	13198.97
826.189	13193.55
826.516	13243.49
826.843	13252.98
827.17	13250.27
827.497	13195.13
827.824	13263.61
828.151	13202.14
828.478	13196.49
828.805	13203.27
829.131	13164.17
829.458	13186.77
829.785	13204.85
830.111	13167.11
830.438	13230.16
830.764	13185.42
831.09	13136.15
831.417	13111.07
831.743	13244.4
832.069	13170.95
832.395	13123.95
832.722	13189.71
833.048	13100.45
833.374	13187.45
833.7	13102.71
834.026	13092.99
834.351	13120.56
834.677	13164.63
835.003	13111.07
835.329	13111.52
835.654	13060.67
835.98	13031.97
836.306	13013.67
836.631	13007.57
836.956	13017.51
837.282	13019.77
837.607	12917.4
837.932	12795.82
838.258	12888.7
838.583	12872.43
838.908	12799.21
839.233	12840.11
839.558	12826.33
839.883	12729.38
840.208	12737.97
840.533	12714.24
840.858	12716.5
841.182	12699.33
841.507	12669.72
841.832	12685.09
842.156	12580.69
842.481	12513.34
842.805	12523.29
843.13	12554.47
843.454	12476.06
843.778	12494.13
844.103	12418.43
844.427	12381.14
844.751	12394.7
845.075	12393.8
845.399	12394.48
845.723	12340.47
846.047	12246.46
846.371	12194.93
846.695	12149.96
847.019	12036.29
847.343	11964.66
847.666	11972.79
847.99	11982.96
848.313	11895.73
848.637	11811.21
848.96	11760.14
849.284	11756.98
849.607	11693.03
849.931	11637.89
850.254	11584.1
850.577	11525.12
850.9	11458.68
851.223	11511.79
851.546	11402.86
851.869	11348.63
852.192	11453.71
852.515	11300.04
852.838	11289.87
853.161	11246.94
853.483	11207.39
853.806	11115.64
854.129	11103.66
854.451	11027.05
854.774	11028.64
855.096	10949.54
855.419	11002.2
855.741	10921.75
856.063	10899.37
856.385	10828.42
856.708	10806.5
857.03	10777.12
857.352	10819.15
857.674	10749.1
857.996	10738.7
858.318	10588.87
858.64	10708.87
858.961	10576.45
859.283	10588.65
859.605	10540.74
859.926	10479.5
860.248	10501.42
860.57	10480.85
860.891	10458.03
861.212	10398.6
861.534	10392.72
861.855	10347.75
862.176	10384.59
862.498	10399.95
862.819	10325.15
863.14	10260.3
863.461	10279.5
863.782	10232.73
864.103	10224.36
864.424	10171.94
864.745	10140.07
865.065	10126.06
865.386	10066.63
865.707	10139.62
866.027	10076.35
866.348	10058.94
866.668	10056.01
866.989	10034.99
867.309	9985.5
867.63	10020.53
867.95	9965.39
868.27	9970.36
868.59	9948.89
868.91	9919.51
869.23	9955.22
869.55	9851.72
869.87	9971.49
870.19	9825.96
870.51	9843.36
870.83	9912.06
871.15	9801.32
871.469	9813.3
871.789	9832.74
872.109	9762.46
872.428	9711.61
872.748	9786.64
873.067	9757.26
873.386	9766.75
873.706	9747.31
874.025	9672.06
874.344	9645.4
874.663	9658.05
874.982	9679.07
875.301	9598.84
875.62	9593.87
875.939	9602.01
876.258	9498.51
876.577	9544.38
876.896	9564.72
877.214	9495.12
877.533	9542.35
877.852	9543.25
878.17	9498.51
878.489	9509.81
878.807	9451.5
879.125	9470.26
879.444	9434.1
879.762	9359.53
880.08	9388.23
880.398	9434.1
880.716	9356.36
881.034	9305.07
881.352	9275.69
881.67	9362.92
881.988	9318.63
882.306	9202.24
882.624	9296.7
882.941	9167.22
883.259	9128.57
883.577	9161.79
883.894	9111.17
884.212	9073.66
884.529	9118.86
884.846	9076.37
885.164	9099.87
885.481	8998.41
885.798	9044.06
886.115	8973.32
886.432	9019.88
886.75	8948.92
887.067	8916.83
887.383	8907.11
887.7	8930.61
888.017	8790.96
888.334	8854.46
888.651	8877.05
888.967	8845.19
889.284	8799.77
889.6	8760
889.917	8650.85
890.233	8643.16
890.55	8664.18
890.866	8680.22
891.182	8608.14
891.498	8641.35
891.815	8546.44
892.131	8559.55
892.447	8508.25
892.763	8571.07
893.079	8473.22
893.395	8446.33
893.71	8407.91
894.026	8388.71
894.342	8372.66
894.657	8298.09
894.973	8277.75
895.289	8315.26
895.604	8312.55
895.92	8230.07
896.235	8180.35
896.55	8216.96
896.865	8102.61
897.181	8168.37
897.496	8093.12
897.811	8016.74
898.126	8117.3
898.441	7985.78
898.756	7986.46
899.071	7964.08
899.386	7956.85
899.7	7974.93
900.015	7859.91
900.33	7820.13
900.644	7780.36
900.959	7808.83
901.273	7777.2
901.588	7709.4
901.902	7737.65
902.216	7704.43
902.531	7661.04
902.845	7656.75
903.159	7613.81
903.473	7565.45
903.787	7497.88
904.101	7497.2
904.415	7478.9
904.729	7494.72
905.042	7447.26
905.356	7367.94
905.67	7397.55
905.984	7315.29
906.297	7273.26
906.611	7230.09
906.924	7299.7
907.237	7263.54
907.551	7188.96
907.864	7177.44
908.177	7144.9
908.491	7123.65
908.804	7103.09
909.117	7091.56
909.43	7024.22
909.743	6979.93
910.056	6973.38
910.368	6942.64
910.681	6922.3
910.994	6855.64
911.307	6864.9
911.619	6846.6
911.932	6834.62
912.244	6744.68
912.557	6746.26
912.869	6741.74
913.181	6727.05
913.494	6739.26
913.806	6628.98
914.118	6653.84
914.43	6601.63
914.742	6576.55
915.054	6502.88
915.366	6490.22
915.678	6466.27
915.99	6451.58
916.302	6445.25
916.613	6400.28
916.925	6394.41
917.236	6361.41
917.548	6337.01
917.859	6354.64
918.171	6276.67
918.482	6276.9
918.794	6228.54
919.105	6217.46
919.416	6206.16
919.727	6153.51
920.038	6223.34
920.349	6135.43
920.66	6061.76
920.971	6120.74
921.282	6015.66
921.593	5975.66
921.903	5969.33
922.214	5969.11
922.525	5967.98
922.835	5956.45
923.146	5841.65
923.456	5918.71
923.767	5812.73
924.077	5824.03
924.387	5793.07
924.697	5747.87
925.008	5727.31
925.318	5733.86
925.628	5685.5
925.938	5712.62
926.248	5633.3
926.558	5553.98
926.867	5583.36
927.177	5560.08
927.487	5493.41
927.796	5487.54
928.106	5535
928.416	5473.75
928.725	5438.28
929.034	5383.59
929.344	5441.89
929.653	5392.4
929.962	5367.32
930.271	5341.1
930.581	5295
930.89	5280.99
931.199	5270.14
931.508	5307.43
931.817	5237.15
932.125	5273.31
932.434	5194.67
932.743	5112.18
933.051	5115.8
933.36	5161.67
933.669	5109.24
933.977	5094.33
934.286	5109.24
934.594	5061.79
934.902	4999.19
935.21	5029.47
935.519	4989.02
935.827	4905.41
936.135	4941.79
936.443	4920.1
936.751	4887.33
937.059	4833.55
937.367	4849.14
937.674	4832.64
937.982	4796.48
938.29	4789.93
938.597	4768.46
938.905	4716.49
939.213	4746.09
939.52	4685.53
939.827	4737.05
940.135	4674.91
940.442	4640.33
940.749	4636.26
941.056	4695.24
941.363	4579.99
941.67	4560.33
941.977	4559.43
942.284	4550.16
942.591	4491.18
942.898	4513.1
943.205	4466.32
943.511	4457.96
943.818	4457.28
944.125	4434.46
944.431	4421.8
944.738	4360.34
945.044	4352.2
945.35	4353.11
945.657	4355.37
945.963	4337.29
946.269	4283.73
946.575	4264.75
946.881	4248.48
947.187	4266.33
947.493	4223.84
947.799	4201.25
948.105	4200.12
948.41	4170.06
948.716	4135.48
949.022	4084.19
949.327	4104.07
949.633	4087.12
949.938	4090.74
950.244	4045.09
950.549	4022.04
950.854	3995.38
951.16	4003.28
951.465	3960.12
951.77	3959.9
952.075	3932.78
952.38	3943.17
952.685	3945.88
952.99	3912.67
953.294	3919.44
953.599	3868.37
953.904	3862.95
954.209	3820.01
954.513	3805.1
954.818	3788.37
955.122	3751.99
955.426	3814.59
955.731	3773.91
956.035	3745.66
956.339	3704.54
956.643	3705.67
956.948	3668.15
957.252	3665.21
957.556	3671.09
957.86	3687.13
958.163	3674.25
958.467	3636.51
958.771	3612.33
959.075	3603.52
959.378	3562.17
959.682	3552.9
959.985	3539.34
960.289	3508.16
960.592	3508.38
960.896	3492.11
961.199	3466.8
961.502	3495.28
961.805	3417.31
962.108	3398.1
962.411	3413.92
962.714	3408.95
963.017	3371.21
963.32	3415.28
963.623	3354.94
963.926	3330.76
964.228	3323.3
964.531	3290.08
964.833	3312.68
965.136	3285.34
965.438	3274.94
965.741	3249.63
966.043	3199.46
966.345	3225.23
966.648	3244.89
966.95	3233.36
967.252	3193.14
967.554	3170.54
967.856	3170.09
968.158	3135.96
968.46	3152.46
968.761	3102.52
969.063	3116.98
969.365	3129.86
969.666	3099.58
969.968	3069.07
970.269	3058.9
970.571	3062.97
970.872	3025.91
971.174	2995.18
971.475	2993.14
971.776	2979.58
972.077	2954.05
972.378	2956.76
972.679	2952.01
972.98	2954.27
973.281	2942.3
973.582	2903.2
973.883	2910.88
974.183	2858.23
974.484	2888.29
974.785	2858.68
975.085	2863.43
975.386	2842.86
975.686	2845.35
975.986	2820.49
976.287	2810.77
976.587	2783.43
976.887	2778.01
977.187	2804.22
977.487	2738.91
977.787	2787.95
978.087	2733.94
978.387	2708.18
978.687	2711.57
978.987	2727.16
979.286	2693.49
979.586	2696.88
979.885	2673.15
980.185	2643.77
980.484	2633.83
980.784	2629.76
981.083	2589.54
981.382	2631.8
981.682	2597.9
981.981	2570.78
982.28	2614.17
982.579	2576.43
982.878	2538.01
983.177	2536.66
983.475	2544.34
983.774	2523.78
984.073	2507.5
984.372	2492.82
984.67	2492.14
984.969	2505.02
985.267	2465.25
985.566	2463.44
985.864	2450.56
986.162	2442.87
986.461	2427.05
986.759	2447.17
987.057	2406.72
987.355	2364.01
987.653	2397.9
987.951	2377.79
988.249	2342.54
988.547	2331.69
988.844	2329.66
989.142	2350.22
989.44	2324.01
989.737	2307.74
990.035	2279.49
990.332	2281.97
990.63	2272.93
990.927	2303.89
991.224	2268.64
991.521	2256.21
991.819	2237
992.116	2220.51
992.413	2207.85
992.71	2221.86
993.006	2227.29
993.303	2170.34
993.6	2199.49
993.897	2164.46
994.193	2145.71
994.49	2136.67
994.787	2145.93
995.083	2142.77
995.379	2135.09
995.676	2094.63
995.972	2098.7
996.268	2060.51
996.565	2034.75
996.861	2075.65
997.157	2074.3
997.453	2030.91
997.749	2047.86
998.044	2046.73
998.34	2021.42
998.636	1981.87
998.932	1975.32
999.227	1975.09
999.523	1994.3
999.818	1997.01
1000.114	1928.99
1000.409	1921.53
1000.704	1951.14
1001	1940.97
1001.295	1918.82
1001.59	1919.5
1001.885	1905.03
1002.18	1877.92
1002.475	1867.97
1002.77	1839.73
1003.065	1863.45
1003.359	1846.51
1003.654	1833.62
1003.949	1821.42
1004.243	1818.71
1004.538	1819.84
1004.832	1818.03
1005.127	1775.09
1005.421	1754.3
1005.715	1761.76
1006.009	1787.98
1006.304	1731.25
1006.598	1738.03
1006.892	1728.99
1007.186	1680.41
1007.48	1684.93
1007.773	1690.58
1008.067	1698.26
1008.361	1701.65
1008.655	1634.76
1008.948	1649.9
1009.242	1650.58
1009.535	1665.72
1009.829	1632.95
1010.122	1614.42
1010.415	1611.03
1010.708	1597.25
1011.001	1602.67
1011.295	1582.33
1011.588	1595.89
1011.881	1598.38
1012.173	1583.24
1012.466	1547.08
1012.759	1552.28
1013.052	1531.26
1013.344	1530.36
1013.637	1529.45
1013.93	1508.21
1014.222	1500.75
1014.514	1485.16
1014.807	1471.37
1015.099	1450.36
1015.391	1455.55
1015.683	1491.71
1015.976	1428.21
1016.268	1471.15
1016.56	1429.79
1016.851	1424.82
1017.143	1400.42
1017.435	1404.93
1017.727	1394.77
1018.018	1386.86
1018.31	1327.87
1018.602	1391.83
1018.893	1347.54
1019.185	1370.59
1019.476	1367.42
1019.767	1341.21
1020.058	1329.68
1020.35	1321.77
1020.641	1340.98
1020.932	1314.54
1021.223	1283.13
1021.514	1296.24
1021.804	1278.16
1022.095	1254.88
1022.386	1258.95
1022.677	1266.86
1022.967	1249.91
1023.258	1237.93
1023.548	1249.23
1023.839	1253.07
1024.129	1212.17
1024.419	1207.43
1024.709	1196.8
1025	1179.18
1025.29	1172.62
1025.58	1187.77
1025.87	1183.47
1026.16	1183.92
1026.449	1170.59
1026.739	1146.41
1027.029	1145.28
1027.319	1144.38
1027.608	1115.45
1027.898	1141.44
1028.187	1124.94
1028.477	1106.41
1028.766	1094.21
1029.055	1089.91
1029.344	1065.06
1029.634	1079.29
1029.923	1073.19
1030.212	1099.41
1030.501	1033.87
1030.79	1052.63
1031.078	1048.11
1031.367	1037.03
1031.656	1027.54
1031.945	1031.16
1032.233	1043.14
1032.522	1011.72
1032.81	1005.4
1033.099	1002.69
1033.387	970.37
1033.675	976.92
1033.963	964.95
1034.251	970.37
1034.54	972.4
1034.828	952.97
1035.116	948.68
1035.403	954.55
1035.691	941.9
1035.979	942.57
1036.267	942.57
1036.554	940.31
1036.842	927.43
1037.129	916.13
1037.417	897.6
1037.704	902.8
1037.992	903.03
1038.279	893.54
1038.566	911.16
1038.853	911.16
1039.14	911.16
