Data from hue_150_FLMS001491_00084.txt Node
Date: Tue Feb 07 16:54:39 GMT 2017
User: dcchb
Spectrometer: FLMS00149
Trigger mode: 0
Integration Time (sec): 2.000000E-2
Scans to average: 10
Electric dark correction enabled: true
Nonlinearity correction enabled: false
Boxcar width: 0
XAxis mode: Wavelengths
Number of Pixels in Spectrum: 2048
>>>>>Begin Spectral Data<<<<<
341.393	1.02
341.776	1.02
342.16	1.02
342.543	-60.9
342.927	-85.99
343.31	-86.89
343.693	-87.34
344.077	-61.81
344.46	-48.93
344.843	-42.6
345.226	-46.67
345.61	-18.19
345.993	-9.38
346.376	-9.83
346.759	0.56
347.142	46.21
347.525	18.42
347.908	55.7
348.291	59.77
348.674	102.48
349.057	128.47
349.44	118.08
349.823	137.74
350.206	166.66
350.588	201.69
350.971	197.62
351.354	219.09
351.737	237.17
352.119	248.02
352.502	257.51
352.884	278.52
353.267	277.62
353.65	282.82
354.032	283.04
354.414	321.23
354.797	305.87
355.179	312.65
355.562	332.31
355.944	320.33
356.326	341.35
356.709	342.25
357.091	354
357.473	345.87
357.855	359.88
358.238	335.02
358.62	339.31
359.002	325.53
359.384	334.79
359.766	335.92
360.148	339.77
360.53	332.08
360.912	319.65
361.294	327.11
361.676	335.25
362.057	334.57
362.439	361.23
362.821	329.37
363.203	330.5
363.584	335.7
363.966	319.88
364.348	331.4
364.729	312.2
365.111	314.23
365.493	317.17
365.874	336.38
366.256	310.16
366.637	325.98
367.019	310.84
367.4	292.99
367.781	296.38
368.163	304.06
368.544	311.29
368.925	332.76
369.306	311.52
369.688	324.17
370.069	325.98
370.45	302.93
370.831	326.21
371.212	327.79
371.593	307
371.974	319.43
372.355	304.29
372.736	332.76
373.117	320.56
373.498	314
373.879	315.81
374.26	303.16
374.641	323.27
375.021	313.1
375.402	315.36
375.783	324.62
376.163	332.08
376.544	346.32
376.925	335.7
377.305	343.83
377.686	335.7
378.066	326.21
378.447	330.95
378.827	321.01
379.208	337.96
379.588	341.8
379.968	338.18
380.349	343.15
380.729	318.75
381.109	338.64
381.489	332.08
381.87	337.05
382.25	345.19
382.63	343.83
383.01	328.92
383.39	342.7
383.77	336.38
384.15	353.1
384.53	346.32
384.91	347.9
385.29	364.62
385.67	344.06
386.049	351.52
386.429	350.84
386.809	368.24
387.189	342.48
387.568	347.22
387.948	355.36
388.328	367.11
388.707	361.91
389.087	366.66
389.466	368.01
389.846	376.37
390.225	380.89
390.605	364.17
390.984	392.42
391.363	365.75
391.743	396.26
392.122	371.4
392.501	384.96
392.881	399.2
393.26	382.25
393.639	370.05
394.018	378.41
394.397	396.94
394.776	381.8
395.155	389.93
395.534	392.42
395.913	383.38
396.292	380.89
396.671	390.39
397.05	385.87
397.429	413.21
397.808	392.87
398.186	425.41
398.565	386.32
398.944	391.74
399.323	415.24
399.701	411.63
400.08	410.5
400.458	412.98
400.837	418.86
401.215	426.99
401.594	407.79
401.972	406.43
402.351	404.62
402.729	420.21
403.107	431.29
403.486	434.23
403.864	431.29
404.242	449.59
404.62	439.42
404.999	432.42
405.377	429.71
405.755	465.86
406.133	436.94
406.511	423.83
406.889	416.15
407.267	428.8
407.645	438.29
408.023	456.6
408.401	458.18
408.779	446.65
409.156	450.72
409.534	472.19
409.912	455.02
410.29	468.58
410.667	481.23
411.045	477.61
411.422	485.98
411.8	483.04
412.178	477.61
412.555	492.08
412.933	487.11
413.31	499.76
413.687	513.09
414.065	500.66
414.442	497.28
414.819	511.29
415.197	533.43
415.574	521.68
415.951	521.68
416.328	524.17
416.705	546.54
417.082	525.07
417.46	533.43
417.837	523.94
418.214	533.66
418.591	525.07
418.967	517.61
419.344	551.51
419.721	558.06
420.098	563.71
420.475	566.88
420.852	548.57
421.228	556.93
421.605	576.37
421.982	567.56
422.358	560.1
422.735	582.47
423.111	574.56
423.488	579.31
423.864	600.32
424.241	595.35
424.617	618.63
424.994	607.55
425.37	620.44
425.746	606.42
426.123	622.92
426.499	627.89
426.875	624.96
427.251	625.63
427.627	640.32
428.003	654.11
428.379	658.63
428.756	653.66
429.132	671.73
429.507	671.28
429.883	662.69
430.259	654.11
430.635	686.65
431.011	687.78
431.387	702.24
431.763	687.78
432.138	690.49
432.514	702.02
432.89	715.57
433.265	727.78
433.641	737.04
434.016	712.86
434.392	756.7
434.767	759.19
435.143	747.21
435.518	750.38
435.894	775.46
436.269	794.44
436.644	776.59
437.02	804.84
437.395	809.13
437.77	820.43
438.145	816.36
438.52	826.76
438.895	836.25
439.271	813.88
439.646	827.89
440.021	857.72
440.395	848.45
440.77	851.84
441.145	855.46
441.52	881.67
441.895	892.52
442.27	889.13
442.645	871.5
443.019	894.55
443.394	881.45
443.769	904.95
444.143	913.54
444.518	913.76
444.892	907.66
445.267	904.04
445.641	907.89
446.016	922.12
446.39	959.41
446.764	969.13
447.139	930.71
447.513	965.29
447.887	957.6
448.262	964.83
448.636	962.12
449.01	992.18
449.384	988.11
449.758	996.92
450.132	1026.07
450.506	1011.39
450.88	1027.66
451.254	1014.1
451.628	1030.14
452.002	1039.18
452.376	1059.07
452.75	1057.03
453.123	1074.89
453.497	1102
453.871	1091.61
454.244	1122.34
454.618	1122.57
454.992	1133.42
455.365	1144.94
455.739	1133.64
456.112	1157.37
456.486	1204.83
456.859	1195.56
457.232	1211.15
457.606	1213.87
457.979	1211.83
458.352	1259.29
458.725	1236.92
459.099	1264.26
459.472	1289.34
459.845	1333.64
460.218	1329.12
460.591	1328.21
460.964	1346.29
461.337	1346.97
461.71	1411.15
462.083	1438.49
462.456	1392.17
462.829	1439.85
463.201	1473.29
463.574	1471.26
463.947	1487.76
464.32	1510.58
464.692	1528.89
465.065	1563.46
465.438	1552.16
465.81	1610.01
466.183	1598.72
466.555	1647.75
466.928	1638.04
467.3	1673.74
467.672	1697.92
468.045	1755.1
468.417	1751.71
468.789	1773.63
469.161	1825.15
469.534	1842.55
469.906	1889.55
470.278	1898.37
470.65	1933.17
471.022	1960.97
471.394	2023.11
471.766	2075.99
472.138	2090
472.51	2110.57
472.882	2136.33
473.253	2212.26
473.625	2246.38
473.997	2248.42
474.369	2297.45
474.74	2399.37
475.112	2451.12
475.484	2489.54
475.855	2526.6
476.227	2588.07
476.598	2666.03
476.97	2713.94
477.341	2773.83
477.713	2855.18
478.084	2888.85
478.455	3003.42
478.827	3039.36
479.198	3157.09
479.569	3225.34
479.94	3315.73
480.311	3358.44
480.682	3461.49
481.053	3576.29
481.424	3647.25
481.795	3733.57
482.166	3791.2
482.537	3913.46
482.908	4011.53
483.279	4115.94
483.65	4220.12
484.021	4391.18
484.391	4482.26
484.762	4542.14
485.133	4618.07
485.503	4747.56
485.874	4899.19
486.244	5010.6
486.615	5122.24
486.985	5246.3
487.356	5371.5
487.726	5481.1
488.097	5615.56
488.467	5693.75
488.837	5876.79
489.207	5995.21
489.578	6164.92
489.948	6230.91
490.318	6402.43
490.688	6519.72
491.058	6648.07
491.428	6803.32
491.798	6895.52
492.168	7090.55
492.538	7192.47
492.908	7337.55
493.278	7456.19
493.648	7609.4
494.017	7764.43
494.387	7848.27
494.757	7946.12
495.126	8126.45
495.496	8189.5
495.866	8274.7
496.235	8487.12
496.605	8614.58
496.974	8689.38
497.344	8814.8
497.713	8948.35
498.082	8975.92
498.452	9115.81
498.821	9212.98
499.19	9302.02
499.559	9457.94
499.928	9525.96
500.298	9616.58
500.667	9669.92
501.036	9782.45
501.405	9875.11
501.774	9951.72
502.143	10108.1
502.512	10164.14
502.88	10244.82
503.249	10226.74
503.618	10321.2
503.987	10410.23
504.356	10539.04
504.724	10695.2
505.093	10651.36
505.462	10732.94
505.83	10885.48
506.199	10961.18
506.567	11046.15
506.936	11064.45
507.304	11236.2
507.672	11278.01
508.041	11326.59
508.409	11423.09
508.777	11456.53
509.145	11507.38
509.514	11515.74
509.882	11716.64
510.25	11617.66
510.618	11758.67
510.986	11757.32
511.354	11908.27
511.722	11910.08
512.09	12072.56
512.458	12024.66
512.826	12198.89
513.193	12115.27
513.561	12146.23
513.929	12236.63
514.297	12494.93
514.664	12352.78
515.032	12390.75
515.4	12539.22
515.767	12481.14
516.135	12583.28
516.502	12515.72
516.869	12728.82
517.237	12677.29
517.604	12673.23
517.972	12761.59
518.339	12767.23
518.706	12822.6
519.073	12872.09
519.44	12839.1
519.808	12920.45
520.175	12863.73
520.542	13048.13
520.909	13177.62
521.276	13081.58
521.643	13164.06
522.009	13152.99
522.376	13252.19
522.743	13274.34
523.11	13296.49
523.477	13376.03
523.843	13471.4
524.21	13564.05
524.577	13549.59
524.943	13606.08
525.31	13564.5
525.676	13631.62
526.043	13613.09
526.409	13717.27
526.776	13768.56
527.142	13753.65
527.508	13769.69
527.874	13835
528.241	13740.09
528.607	13799.3
528.973	13818.05
529.339	13862.35
529.705	13944.38
530.071	13958.84
530.437	13872.06
530.803	14001.55
531.169	13956.58
531.535	13829.35
531.901	13855.57
532.267	13919.3
532.632	13899.86
532.998	13986.64
533.364	13926.53
533.73	13944.83
534.095	13896.92
534.461	13975.79
534.826	13963.59
535.192	13936.02
535.557	13984.83
535.923	13871.84
536.288	13981.67
536.653	13964.72
537.019	13876.58
537.384	13897.83
537.749	13841.56
538.114	13810.15
538.479	13764.04
538.845	13781.22
539.21	13733.09
539.575	13645.63
539.94	13688.34
540.305	13751.39
540.67	13639.08
541.034	13616.03
541.399	13613.31
541.764	13538.51
542.129	13595.01
542.494	13541
542.858	13512.75
543.223	13431.85
543.587	13522.47
543.952	13404.05
544.316	13377.39
544.681	13450.38
545.045	13416.03
545.41	13388.46
545.774	13386.65
546.138	13270.72
546.503	13255.36
546.867	13205.87
547.231	13265.98
547.595	13214.23
547.959	13190.95
548.324	13138.07
548.688	13051.3
549.052	13116.6
549.416	13058.98
549.779	13068.02
550.143	13012.43
550.507	13057.4
550.871	12987.34
551.235	13011.75
551.599	13037.96
551.962	12993.44
552.326	13018.75
552.689	12934.69
553.053	12854.69
553.417	12798.65
553.78	12947.57
554.143	12824.41
554.507	12773.79
554.87	12821.02
555.234	12930.62
555.597	12765.43
555.96	12831.87
556.323	12802.04
556.686	12762.04
557.05	12877.29
557.413	12780.34
557.776	12788.93
558.139	12889.04
558.502	12720.46
558.865	12701.02
559.228	12837.06
559.59	12697.63
559.953	12729.04
560.316	12782.38
560.679	12738.08
561.041	12783.96
561.404	12732.43
561.767	12829.83
562.129	12720.23
562.492	12874.8
562.854	12756.84
563.217	12783.05
563.579	12828.93
563.941	12880.23
564.304	12917.97
564.666	13056.27
565.028	12988.02
565.39	12892.88
565.753	12965.87
566.115	12973.78
566.477	12969.04
566.839	13016.49
567.201	13117.51
567.563	13029.6
567.925	13039.77
568.287	12999.55
568.648	13111.41
569.01	13178.3
569.372	13167.9
569.734	13093.1
570.095	13100.33
570.457	13184.85
570.819	13170.16
571.18	13086.77
571.542	13191.86
571.903	13254
572.265	13277.73
572.626	13306.88
572.987	13255.58
573.349	13275.92
573.71	13290.16
574.071	13367.22
574.432	13288.58
574.794	13426.65
575.155	13422.13
575.516	13320.89
575.877	13378.52
576.238	13411.29
576.599	13481.34
576.96	13371.74
577.32	13381.68
577.681	13423.71
578.042	13446.77
578.403	13393.43
578.763	13403.83
579.124	13332.64
579.485	13381.68
579.845	13494.22
580.206	13457.16
580.566	13407.44
580.927	13424.62
581.287	13467.78
581.648	13388.24
582.008	13478.18
582.368	13453.32
582.728	13467.33
583.089	13493.32
583.449	13379.87
583.809	13382.13
584.169	13483.15
584.529	13445.18
584.889	13511.62
585.249	13345.52
585.609	13257.84
585.969	13398.18
586.329	13301.46
586.688	13419.87
587.048	13379.42
587.408	13351.17
587.768	13312.31
588.127	13306.66
588.487	13239.54
588.846	13369.25
589.206	13282.25
589.565	13284.06
589.925	13400.66
590.284	13273.89
590.643	13338.97
591.003	13275.47
591.362	13350.5
591.721	13294.45
592.08	13273.21
592.44	13312.08
592.799	13251.52
593.158	13284.51
593.517	13210.84
593.876	13251.29
594.235	13179.2
594.593	13184.17
594.952	13275.92
595.311	13215.13
595.67	13247.22
596.029	13291.06
596.387	13316.82
596.746	13319.54
597.104	13310.5
597.463	13256.49
597.822	13265.98
598.18	13157.96
598.538	13251.06
598.897	13222.36
599.255	13117.73
599.613	13321.12
599.972	13239.99
600.33	13235.02
600.688	13166.32
601.046	13277.5
601.404	13225.08
601.762	13232.53
602.12	13244.96
602.478	13265.75
602.836	13239.31
603.194	13152.08
603.552	13212.65
603.91	13253.32
604.268	13201.12
604.625	13228.69
604.983	13309.59
605.341	13122.25
605.698	13150.28
606.056	13312.98
606.413	13222.82
606.771	13291.74
607.128	13195.7
607.485	13292.87
607.843	13268.92
608.2	13244.74
608.557	13286.32
608.914	13250.84
609.272	13343.94
609.629	13359.54
609.986	13414
610.343	13327.22
610.7	13421.68
611.057	13367.22
611.414	13379.87
611.771	13362.02
612.127	13414.68
612.484	13473.43
612.841	13465.75
613.198	13397.05
613.554	13464.84
613.911	13475.69
614.267	13488.8
614.624	13462.36
614.98	13443.15
615.337	13534.67
615.693	13575.12
616.05	13446.77
616.406	13633.88
616.762	13533.77
617.118	13556.14
617.475	13512.07
617.831	13507.1
618.187	13585.74
618.543	13568.34
618.899	13618.06
619.255	13610.38
619.611	13610.6
619.967	13641.34
620.323	13640.43
620.678	13596.37
621.034	13529.25
621.39	13559.08
621.746	13622.35
622.101	13715.01
622.457	13555.69
622.812	13602.92
623.168	13609.92
623.523	13656.03
623.879	13718.17
624.234	13630.26
624.589	13670.94
624.945	13658.06
625.3	13611.28
625.655	13588.91
626.01	13612.64
626.365	13596.37
626.72	13607.21
627.075	13538.51
627.43	13586.42
627.785	13612.18
628.14	13666.87
628.495	13652.41
628.85	13535.58
629.205	13531.51
629.559	13596.37
629.914	13505.29
630.269	13628.46
630.623	13564.05
630.978	13516.82
631.332	13541.45
631.687	13554.56
632.041	13462.81
632.396	13540.1
632.75	13376.48
633.104	13465.07
633.459	13423.71
633.813	13439.08
634.167	13456.03
634.521	13444.96
634.875	13336.71
635.229	13325.41
635.583	13303.27
635.937	13294.68
636.291	13288.35
636.645	13274.57
636.999	13301.23
637.352	13303.72
637.706	13222.82
638.06	13314.79
638.413	13140.33
638.767	13221.69
639.121	13239.31
639.474	13207.45
639.828	13154.34
640.181	13145.08
640.534	13111.63
640.888	13082.25
641.241	13062.14
641.594	13062.14
641.947	13146.43
642.301	13132.88
642.654	13067.11
643.007	13082.25
643.36	13063.95
643.713	13042.03
644.066	13121.58
644.419	13009.26
644.771	12974.46
645.124	12812.43
645.477	12815.82
645.83	12770.4
646.182	12647.24
646.535	12686.11
646.888	12664.19
647.24	12602.04
647.593	12747.35
647.945	12611.53
648.298	12583.74
648.65	12572.21
649.002	12593
649.355	12475.49
649.707	12550.29
650.059	12671.19
650.411	12794.8
650.763	12831.41
651.115	12950.05
651.467	12847.01
651.819	12844.52
652.171	12809.27
652.523	12858.31
652.875	12802.94
653.227	12874.35
653.578	12880
653.93	12825.31
654.282	12786.22
654.633	12775.37
654.985	12813.79
655.337	12852.43
655.688	12831.64
656.039	12827.12
656.391	12768.36
656.742	12719.33
657.094	12797.74
657.445	12772.43
657.796	12756.39
658.147	12834.8
658.498	12702.6
658.849	12821.47
659.2	12880
659.551	12781.7
659.902	12810.4
660.253	12787.57
660.604	12768.14
660.955	12784.86
661.306	12809.27
661.656	12762.94
662.007	12794.35
662.358	12839.32
662.708	12837.06
663.059	12754.35
663.409	12694.69
663.76	12847.01
664.11	12867.12
664.461	12846.55
664.811	12902.82
665.161	12836.84
665.511	12797.52
665.862	12821.02
666.212	12793.22
666.562	12874.8
666.912	12816.05
667.262	12905.08
667.612	12846.55
667.962	12823.5
668.312	12810.62
668.662	12853.79
669.011	12837.29
669.361	12863.28
669.711	12866.67
670.06	12881.81
670.41	12764.52
670.76	12842.94
671.109	12843.62
671.459	12756.39
671.808	12762.49
672.157	12802.04
672.507	12765.65
672.856	12661.93
673.205	12735.37
673.554	12778.08
673.904	12734.02
674.253	12766.33
674.602	12786.67
674.951	12572.21
675.3	12527.47
675.649	12728.59
675.998	12620.35
676.346	12748.7
676.695	12744.86
677.044	12566.34
677.393	12630.97
677.741	12672.1
678.09	12597.97
678.438	12597.97
678.787	12556.39
679.135	12613.11
679.484	12508.71
679.832	12558.43
680.181	12418.09
680.529	12522.95
680.877	12447.92
681.225	12424.42
681.573	12484.08
681.922	12455.15
682.27	12354.14
682.618	12337.87
682.966	12361.6
683.314	12355.27
683.661	12356.17
684.009	12253.12
684.357	12280.02
684.705	12273.46
685.053	12286.57
685.4	12214.03
685.748	12077.08
686.095	12154.82
686.443	12117.76
686.79	12056.52
687.138	12186.23
687.485	11974.26
687.832	11998.22
688.18	12014.03
688.527	11950.31
688.874	11948.73
689.221	11850.2
689.568	11886.81
689.915	11765.45
690.262	11809.29
690.609	11802.74
690.956	11744.66
691.303	11690.88
691.65	11685.68
691.997	11678.68
692.344	11626.02
692.69	11554.61
693.037	11560.49
693.383	11430.09
693.73	11457.66
694.077	11351.23
694.423	11360.49
694.769	11307.61
695.116	11331.57
695.462	11289.31
695.808	11198.46
696.155	11241.85
696.501	11184.68
696.847	11212.25
697.193	11091.12
697.539	11057.68
697.885	11045.02
698.231	10960.73
698.577	10948.07
698.923	10995.53
699.269	10930.9
699.614	10762.32
699.96	10836.21
700.306	10854.52
700.651	10733.16
700.997	10650.91
701.342	10692.94
701.688	10645.71
702.033	10608.2
702.379	10551.25
702.724	10541.08
703.069	10501.31
703.415	10374.76
703.76	10491.36
704.105	10402.33
704.45	10434.87
704.795	10260.86
705.14	10313.51
705.485	10289.11
705.83	10180.86
706.175	10217.02
706.52	10167.3
706.865	10132.28
707.209	10124.59
707.554	10129.79
707.899	10097.02
708.243	10036.69
708.588	9983.58
708.932	9926.41
709.277	9937.25
709.621	9911.49
709.966	9892.06
710.31	9912.39
710.654	9847.76
710.998	9840.53
711.342	9779.74
711.687	9805.05
712.031	9818.61
712.375	9701.1
712.719	9706.75
713.063	9721.21
713.407	9728.22
713.75	9621.33
714.094	9653.87
714.438	9619.97
714.782	9613.65
715.125	9556.02
715.469	9602.12
715.812	9542.69
716.156	9440.54
716.499	9439.19
716.843	9453.88
717.186	9423.82
717.53	9450.71
717.873	9502.69
718.216	9383.82
718.559	9442.58
718.902	9263.82
719.246	9382.24
719.589	9301.34
719.932	9339.98
720.275	9344.73
720.617	9246.65
720.96	9266.76
721.303	9283.03
721.646	9282.58
721.989	9192.87
722.331	9234.22
722.674	9253.88
723.016	9226.31
723.359	9194.9
723.701	9163.49
724.044	9162.58
724.386	9142.7
724.729	9221.11
725.071	9083.04
725.413	9160.55
725.755	9071.29
726.097	9142.02
726.439	9027.45
726.782	9058.18
727.124	9091.63
727.465	9037.39
727.807	9052.53
728.149	9049.37
728.491	8977.5
728.833	9041.91
729.175	9039.2
729.516	8990.84
729.858	8964.85
730.199	8999.42
730.541	9047.56
730.882	8945.87
731.224	9047.56
731.565	8969.37
731.906	8987.22
732.248	8985.41
732.589	8991.06
732.93	8912.2
733.271	8871.52
733.612	8983.61
733.953	9002.59
734.294	8947.67
734.635	8956.49
734.976	8911.52
735.317	8875.13
735.658	8959.2
735.999	8998.52
736.339	8946.54
736.68	8960.56
737.021	8954.23
737.361	8948.35
737.702	8937.28
738.042	8972.76
738.383	9002.81
738.723	9015.24
739.063	8948.13
739.404	8994.45
739.744	9017.95
740.084	8940.89
740.424	8981.12
740.764	8944.51
741.104	9074.9
741.444	8986.09
741.784	9001.68
742.124	9028.58
742.464	9068.12
742.804	9064.06
743.143	9123.94
743.483	9121
743.823	9148.8
744.162	9083.72
744.502	9236.03
744.841	9147.9
745.181	9243.03
745.52	9256.37
745.86	9316.7
746.199	9299.53
746.538	9359.19
746.877	9411.16
747.216	9448.45
747.556	9483.25
747.895	9525.51
748.234	9532.74
748.573	9611.39
748.911	9657.26
749.25	9722.12
749.589	9730.25
749.928	9803.47
750.267	9862.9
750.605	9857.48
750.944	9929.8
751.283	10108.1
751.621	10109.68
751.96	10223.8
752.298	10328.43
752.636	10412.27
752.975	10487.97
753.313	10522.55
753.651	10624.92
753.989	10702.43
754.327	10842.31
754.666	10869.66
755.004	11009.77
755.342	11106.26
755.679	11192.36
756.017	11208.18
756.355	11428.29
756.693	11488.62
757.031	11721.39
757.368	11743.31
757.706	11873.02
758.044	11966.58
758.381	12224.65
758.719	12324.99
759.056	12470.75
759.394	12589.39
759.731	12732.66
760.068	12856.5
760.405	12985.31
760.743	13164.29
761.08	13380.78
761.417	13421
761.754	13592.75
762.091	13792.07
762.428	13929.24
762.765	13959.07
763.102	14228.89
763.438	14314.31
763.775	14437.47
764.112	14593.85
764.449	14818.93
764.785	14822.32
765.122	14961.75
765.458	15146.16
765.795	15411.23
766.131	15491.23
766.467	15621.17
766.804	15676.99
767.14	15796.76
767.476	15933.48
767.812	16112.23
768.148	16219.35
768.485	16314.71
768.821	16358.55
769.157	16536.63
769.492	16579.56
769.828	16764.19
770.164	16826.56
770.5	16928.71
770.836	17079.44
771.171	17075.14
771.507	17176.84
771.842	17202.6
772.178	17361.24
772.513	17396.72
772.849	17480.78
773.184	17559.43
773.519	17712.87
773.855	17659.76
774.19	17680.1
774.525	17752.87
774.86	17777.27
775.195	18025.85
775.53	17892.07
775.865	17994.44
776.2	17968.91
776.535	18022.24
776.87	18019.53
777.205	18020.2
777.539	18101.56
777.874	18214.1
778.209	18110.6
778.543	18199.41
778.878	18152.86
779.212	18356.47
779.547	18250.93
779.881	18309.01
780.215	18255.23
780.55	18293.19
780.884	18249.35
781.218	18264.49
781.552	18303.81
781.886	18257.94
782.22	18217.49
782.554	18253.64
782.888	18183.14
783.222	18156.25
783.556	18150.6
783.889	18217.49
784.223	18035.57
784.557	18164.83
784.89	18143.59
785.224	18135
785.557	18093.2
785.891	18073.08
786.224	18118.28
786.558	18103.14
786.891	17880.77
787.224	17894.11
787.557	17961.67
787.891	17963.71
788.224	17871.73
788.557	17978.17
788.89	17889.13
789.223	17924.16
789.556	17822.02
789.888	17788.57
790.221	17757.16
790.554	17667.22
790.887	17718.97
791.219	17666.99
791.552	17634
791.884	17629.71
792.217	17556.04
792.549	17518.75
792.882	17493.21
793.214	17342.03
793.546	17407.56
793.879	17297.74
794.211	17230.17
794.543	17367.79
794.875	17204.18
795.207	17350.84
795.539	17186.78
795.871	17194.92
796.203	17109.27
796.535	16974.13
796.867	17032.21
797.198	17084.18
797.53	16959.89
797.862	16891.19
798.193	16951.98
798.525	16793.57
798.856	16851.42
799.188	16747.47
799.519	16659.79
799.85	16644.65
800.182	16580.02
800.513	16664.31
800.844	16426.35
801.175	16611.88
801.506	16531.43
801.837	16435.39
802.168	16438.55
802.499	16414.14
802.83	16344.32
803.161	16286.01
803.491	16349.29
803.822	16249.86
804.153	16143.42
804.483	16098.45
804.814	16103.87
805.145	16127.6
805.475	16056.41
805.805	15998.34
806.136	15980.71
806.466	15956.98
806.796	15864.1
807.126	15813.71
807.457	15771.68
807.787	15813.48
808.117	15689.64
808.447	15664.56
808.777	15749.76
809.107	15653.49
809.436	15562.42
809.766	15578.23
810.096	15514.06
810.426	15560.16
810.755	15526.26
811.085	15534.17
811.414	15490.55
811.744	15330.33
812.073	15339.82
812.403	15269.77
812.732	15221.86
813.061	15244.68
813.39	15156.78
813.719	15144.12
814.049	15235.42
814.378	15177.79
814.707	15148.19
815.036	15105.25
815.365	15072.94
815.693	14914.98
816.022	14977.35
816.351	14964.69
816.68	14835.43
817.008	14908.87
817.337	14764.24
817.665	14728.31
817.994	14807.86
818.322	14680.63
818.651	14756.34
818.979	14639.05
819.307	14729.22
819.636	14696.45
819.964	14588.66
820.292	14639.95
820.62	14591.82
820.948	14503.69
821.276	14610.58
821.604	14592.5
821.932	14494.2
822.259	14614.42
822.587	14590.01
822.915	14582.33
823.243	14600.86
823.57	14471.37
823.898	14551.14
824.225	14484.48
824.553	14502.56
824.88	14515.89
825.207	14600.18
825.535	14603.12
825.862	14553.85
826.189	14513.4
826.516	14527.87
826.843	14590.24
827.17	14577.13
827.497	14558.6
827.824	14512.05
828.151	14562.89
828.478	14606.73
828.805	14642.21
829.131	14586.85
829.458	14619.16
829.785	14531.03
830.111	14592.27
830.438	14532.61
830.764	14517.02
831.09	14632.5
831.417	14512.05
831.743	14573.74
832.069	14512.27
832.395	14520.86
832.722	14577.58
833.048	14415.1
833.374	14445.83
833.7	14409.9
834.026	14490.81
834.351	14449.45
834.677	14406.06
835.003	14486.96
835.329	14463.24
835.654	14456.91
835.98	14274.99
836.306	14388.44
836.631	14381.88
836.956	14351.37
837.282	14369.45
837.607	14320.41
837.932	14284.94
838.258	14236.12
838.583	14296.01
838.908	14220.08
839.233	14255.56
839.558	14196.12
839.883	14080.87
840.208	14031.38
840.533	14155.22
840.858	14038.61
841.182	14035.22
841.507	14042.68
841.832	13915.45
842.156	13982.34
842.481	13956.58
842.805	13935.79
843.13	13832.07
843.454	13828.22
843.778	13768.79
844.103	13801.33
844.427	13733.54
844.751	13713.2
845.075	13795.91
845.399	13655.8
845.723	13475.92
846.047	13582.35
846.371	13487.22
846.695	13450.61
847.019	13346.2
847.343	13332.19
847.666	13271.4
847.99	13154.8
848.313	13250.16
848.637	13150.95
848.96	13097.85
849.284	13042.48
849.607	12966.33
849.931	13006.32
850.254	12878.19
850.577	12788.93
850.9	12698.31
851.223	12745.99
851.546	12659.89
851.869	12549.84
852.192	12647.01
852.515	12477.07
852.838	12465.32
853.161	12519.33
853.483	12345.1
853.806	12356.4
854.129	12315.04
854.451	12294.93
854.774	12223.75
855.096	12176.29
855.419	12172.67
855.741	12173.58
856.063	12013.81
856.385	12103.98
856.708	12032.56
857.03	11992.34
857.352	11955.73
857.674	11881.61
857.996	11870.31
858.318	11852.68
858.64	11836.41
858.961	11807.94
859.283	11702.86
859.605	11677.32
859.926	11637.32
860.248	11601.39
860.57	11598.45
860.891	11635.51
861.212	11534.27
861.534	11482.3
861.855	11478.46
862.176	11407.72
862.498	11468.51
862.819	11497.66
863.14	11375.41
863.461	11401.85
863.782	11364.79
864.103	11344.67
864.424	11265.81
864.745	11300.15
865.065	11248.18
865.386	11174.06
865.707	11230.55
866.027	11186.26
866.348	11183.77
866.668	11139.26
866.989	11177.45
867.309	11050.9
867.63	11148.07
867.95	11058.35
868.27	11139.48
868.59	11038.92
868.91	10986.72
869.23	11022.65
869.55	10932.48
869.87	10944.68
870.19	10911.24
870.51	10977.23
870.83	10946.27
871.15	10903.33
871.469	10896.55
871.789	10935.87
872.109	10915.31
872.428	10812.03
872.748	10878.92
873.067	10799.38
873.386	10853.84
873.706	10812.48
874.025	10712.83
874.344	10716.22
874.663	10781.07
874.982	10699.72
875.301	10732.49
875.62	10712.83
875.939	10589.44
876.258	10647.29
876.577	10611.59
876.896	10615.43
877.214	10574.98
877.533	10637.57
877.852	10631.47
878.17	10539.72
878.489	10545.15
878.807	10531.81
879.125	10494.53
879.444	10479.39
879.762	10488.42
880.08	10450.69
880.398	10367.07
880.716	10391.25
881.034	10354.42
881.352	10381.53
881.67	10299.28
881.988	10325.72
882.306	10271.48
882.624	10219.05
882.941	10205.49
883.259	10168.66
883.577	10197.36
883.894	10157.36
884.212	10170.69
884.529	10198.49
884.846	10052.96
885.164	10022
885.481	10063.35
885.798	10062.9
886.115	9946.97
886.432	9944.94
886.75	9939.29
887.067	9945.61
887.383	9920.98
887.7	9874.2
888.017	9856.58
888.334	9859.29
888.651	9820.19
888.967	9742.46
889.284	9748.33
889.6	9717.15
889.917	9659.97
890.233	9674.66
890.55	9655.9
890.866	9600.54
891.182	9614.1
891.498	9581.56
891.815	9616.58
892.131	9487.32
892.447	9451.16
892.763	9416.36
893.079	9445.74
893.395	9347.21
893.71	9389.02
894.026	9378.4
894.342	9256.82
894.657	9295.24
894.973	9263.15
895.289	9225.86
895.604	9251.62
895.92	9175.24
896.235	9115.58
896.55	9099.99
896.865	9055.47
897.181	9024.06
897.496	9092.53
897.811	8976.37
898.126	8961.69
898.441	8913.1
898.756	8844.85
899.071	8892.76
899.386	8889.6
899.7	8832.42
900.015	8717.62
900.33	8651.18
900.644	8668.59
900.959	8685.99
901.273	8610.06
901.588	8625.2
901.902	8523.28
902.216	8555.59
902.531	8563.28
902.845	8472.88
903.159	8415.71
903.473	8380.23
903.787	8300.46
904.101	8276.28
904.415	8294.81
904.729	8271.53
905.042	8286.9
905.356	8186.11
905.67	8161.71
905.984	8159.67
906.297	8096.62
906.611	8062.5
906.924	8077.41
907.237	7997.42
907.551	7983.41
907.864	7978.66
908.177	7986.34
908.491	7956.06
908.804	7849.85
909.117	7780.47
909.43	7740.47
909.743	7750.64
910.056	7762.85
910.368	7727.37
910.681	7666.13
910.994	7591.1
911.307	7589.07
911.619	7541.16
911.932	7517.88
912.244	7487.6
912.557	7444.44
912.869	7443.31
913.181	7356.76
913.494	7372.35
913.806	7306.14
914.118	7331.67
914.43	7262.75
914.742	7246.25
915.054	7216.42
915.366	7196.99
915.678	7181.85
915.99	7102.07
916.302	7130.77
916.613	7045.13
916.925	7058.91
917.236	7021.4
917.548	7042.64
917.859	7001.51
918.171	6939.59
918.482	6889.65
918.794	6889.88
919.105	6866.6
919.416	6879.03
919.727	6820.27
920.038	6789.76
920.349	6709.77
920.66	6780.73
920.971	6708.86
921.282	6694.4
921.593	6665.02
921.903	6631.8
922.214	6558.36
922.525	6575.08
922.835	6518.81
923.146	6535.76
923.456	6500.06
923.767	6499.15
924.077	6404.92
924.387	6453.5
924.697	6357.91
925.008	6312.26
925.318	6340.06
925.628	6286.95
925.938	6293.05
926.248	6262.77
926.558	6226.84
926.867	6231.36
927.177	6176
927.487	6161.98
927.796	6130.57
928.106	6093.96
928.416	6100.29
928.725	6101.87
929.034	6066.85
929.344	6013.06
929.653	6009.9
929.962	5920.41
930.271	5945.72
930.581	5931.93
930.89	5840.64
931.199	5784.82
931.508	5861.43
931.817	5820.98
932.125	5822.33
932.434	5761.77
932.743	5743.46
933.051	5681.77
933.36	5698.49
933.669	5618.72
933.977	5646.97
934.286	5657.14
934.594	5609.46
934.902	5539.18
935.21	5546.41
935.519	5520.65
935.827	5476.58
936.135	5474.32
936.443	5426.64
936.751	5437.71
937.059	5405.62
937.367	5411.72
937.674	5373.31
937.982	5373.08
938.29	5296.7
938.597	5292.86
938.905	5286.3
939.213	5225.51
939.52	5250.37
939.827	5236.59
940.135	5157.49
940.442	5178.73
940.749	5128.57
941.056	5101.22
941.363	5073.2
941.67	5075.46
941.977	5079.3
942.284	5009.47
942.591	5050.6
942.898	4952.07
943.205	4997.5
943.511	4969.93
943.818	4903.49
944.125	4887.22
944.431	4871.17
944.738	4886.76
945.044	4802.47
945.35	4853.77
945.657	4783.72
945.963	4796.15
946.269	4756.15
946.575	4763.83
946.881	4708.92
947.187	4691.74
947.493	4711.4
947.799	4662.82
948.105	4646.09
948.41	4610.84
948.716	4615.36
949.022	4548.24
949.327	4545.98
949.633	4491.52
949.938	4513.21
950.244	4517.28
950.549	4489.26
950.854	4465.98
951.16	4445.42
951.465	4417.62
951.77	4402.03
952.075	4365.42
952.38	4377.85
952.685	4374.24
952.99	4303.28
953.294	4293.79
953.599	4317.74
953.904	4306.21
954.209	4261.7
954.513	4242.71
954.818	4228.25
955.122	4233.45
955.426	4193.45
955.731	4173.34
956.035	4128.14
956.339	4129.72
956.643	4108.71
956.948	4088.37
957.252	4072.77
957.556	4082.94
957.86	4085.88
958.163	4054.92
958.467	4030.52
958.771	3972.89
959.075	4000.91
959.378	3970.86
959.682	3929.28
959.985	3929.5
960.289	3900.58
960.592	3842.5
960.896	3829.62
961.199	3894.25
961.502	3842.95
961.805	3819.9
962.108	3773.12
962.411	3811.31
962.714	3753.23
963.017	3723.86
963.32	3789.84
963.623	3692.67
963.926	3709.39
964.228	3686.34
964.531	3691.09
964.833	3637.76
965.136	3621.71
965.438	3651.54
965.741	3633.69
966.043	3621.71
966.345	3584.43
966.648	3588.27
966.95	3553.24
967.252	3551.21
967.554	3530.42
967.856	3538.1
968.158	3516.86
968.46	3494.94
968.761	3441.38
969.063	3424.2
969.365	3458.33
969.666	3412.45
969.968	3375.62
970.269	3419.68
970.571	3366.35
970.872	3357.76
971.174	3352.12
971.475	3328.16
971.776	3339.69
972.077	3268.5
972.378	3315.28
972.679	3301.27
972.98	3264.43
973.281	3214.27
973.582	3233.7
973.883	3215.17
974.183	3213.14
974.484	3189.86
974.785	3206.81
975.085	3187.15
975.386	3178.79
975.686	3116.42
975.986	3111.44
976.287	3130.43
976.587	3092.24
976.887	3061.95
977.187	3112.8
977.487	3050.65
977.787	3050.2
978.087	3038.9
978.387	3004.33
978.687	3007.04
978.987	3027.15
979.286	2970.88
979.586	2962.75
979.885	2915.06
980.185	2909.64
980.484	2898.12
980.784	2903.77
981.083	2877.78
981.382	2887.95
981.682	2885.69
981.981	2844.56
982.28	2835.29
982.579	2829.19
982.878	2818.57
983.177	2793.94
983.475	2798.01
983.774	2777.44
984.073	2745.8
984.372	2738.12
984.67	2738.8
984.969	2728.85
985.267	2714.84
985.566	2665.81
985.864	2647.73
986.162	2636.88
986.461	2639.59
986.759	2621.74
987.057	2616.99
987.355	2658.57
987.653	2616.77
987.951	2610.89
988.249	2583.1
988.547	2584.68
988.844	2558.01
989.142	2599.37
989.44	2544
989.737	2518.24
990.035	2517.56
990.332	2472.82
990.63	2504.23
990.927	2483.44
991.224	2525.47
991.521	2474.4
991.819	2451.35
992.116	2463.1
992.413	2448.18
992.71	2424.68
993.006	2442.99
993.303	2412.03
993.6	2411.35
993.897	2389.2
994.193	2362.54
994.49	2360.05
994.787	2353.5
995.083	2323.67
995.379	2327.28
995.676	2318.24
995.972	2289.32
996.268	2302.88
996.565	2278.92
996.861	2261.97
997.157	2237.79
997.453	2269.21
997.749	2239.83
998.044	2237.79
998.34	2197.12
998.636	2198.02
998.932	2192.15
999.227	2145.59
999.523	2174.75
999.818	2169.55
1000.114	2120.06
1000.409	2137.91
1000.704	2127.29
1001	2073.5
1001.295	2062.88
1001.59	2097.68
1001.885	2098.81
1002.18	2118.02
1002.475	2059.27
1002.77	2053.39
1003.065	2009.55
1003.359	2004.81
1003.654	1989.21
1003.949	1997.57
1004.243	1988.76
1004.538	1960.29
1004.832	1964.13
1005.127	1959.61
1005.421	1969.78
1005.715	1942.21
1006.009	1925.71
1006.304	1918.25
1006.598	1912.15
1006.892	1851.14
1007.186	1870.12
1007.48	1846.84
1007.773	1875.77
1008.067	1855.66
1008.361	1838.26
1008.655	1813.85
1008.948	1827.41
1009.242	1823.12
1009.535	1808.43
1009.829	1794.19
1010.122	1765.94
1010.415	1754.87
1010.708	1781.54
1011.001	1769.56
1011.295	1746.51
1011.588	1719.62
1011.881	1697.24
1012.173	1699.73
1012.466	1702.67
1012.759	1673.29
1013.052	1669.45
1013.344	1666.51
1013.637	1663.57
1013.93	1635.1
1014.222	1623.35
1014.514	1617.7
1014.807	1627.19
1015.099	1636.23
1015.391	1601.65
1015.683	1577.7
1015.976	1584.7
1016.268	1573.18
1016.56	1560.07
1016.851	1571.82
1017.143	1557.59
1017.435	1520.52
1017.727	1521.65
1018.018	1506.51
1018.31	1486.63
1018.602	1485.05
1018.893	1488.21
1019.185	1467.19
1019.476	1453.18
1019.767	1447.76
1020.058	1470.13
1020.35	1437.82
1020.641	1425.84
1020.932	1373.86
1021.223	1405.5
1021.514	1415.89
1021.804	1365.27
1022.095	1381.09
1022.386	1389.45
1022.677	1362.34
1022.967	1343.35
1023.258	1325.05
1023.548	1379.29
1023.839	1296.58
1024.129	1312.17
1024.419	1317.14
1024.709	1263.36
1025	1323.47
1025.29	1302.9
1025.58	1293.19
1025.87	1272.17
1026.16	1260.87
1026.449	1256.35
1026.739	1242.57
1027.029	1236.01
1027.319	1241.66
1027.608	1207.54
1027.898	1247.09
1028.187	1209.57
1028.477	1208.22
1028.766	1195.79
1029.055	1172.74
1029.344	1196.24
1029.634	1167.31
1029.923	1157.82
1030.212	1155.11
1030.501	1160.08
1030.79	1121.67
1031.078	1118.5
1031.367	1146.3
1031.656	1129.35
1031.945	1103.36
1032.233	1097.71
1032.522	1107.88
1032.81	1076.02
1033.099	1066.07
1033.387	1077.6
1033.675	1075.11
1033.963	1060.65
1034.251	1080.99
1034.54	1036.47
1034.828	1021.33
1035.116	1045.28
1035.403	1030.82
1035.691	1014.1
1035.979	1023.36
1036.267	979.52
1036.554	1017.49
1036.842	988.11
1037.129	998.05
1037.417	992.18
1037.704	971.16
1037.992	963.25
1038.279	994.21
1038.566	960.31
1038.853	960.31
1039.14	960.31
