Data from hue_220_FLMS001491_00093.txt Node
Date: Tue Feb 07 16:40:11 GMT 2017
User: dcchb
Spectrometer: FLMS00149
Trigger mode: 0
Integration Time (sec): 2.000000E-2
Scans to average: 10
Electric dark correction enabled: true
Nonlinearity correction enabled: false
Boxcar width: 0
XAxis mode: Wavelengths
Number of Pixels in Spectrum: 2048
>>>>>Begin Spectral Data<<<<<
341.393	-24.28
341.776	-24.28
342.16	-24.28
342.543	-64.05
342.927	-78.74
343.31	-59.31
343.693	-76.93
344.077	-62.02
344.46	-72.87
344.843	-62.02
345.226	-56.14
345.61	-12.3
345.993	-10.27
346.376	1.48
346.759	-11.62
347.142	24.76
347.525	41.93
347.908	63.4
348.291	81.71
348.674	88.03
349.057	122.16
349.44	124.42
349.823	139.11
350.206	158.99
350.588	187.69
350.971	214.36
351.354	224.08
351.737	244.19
352.119	212.32
352.502	268.14
352.884	267.24
353.267	269.95
353.65	284.41
354.032	297.97
354.414	295.03
354.797	305.43
355.179	318.08
355.562	300.01
355.944	328.93
356.326	324.64
356.709	306.56
357.091	339.55
357.473	331.87
357.855	357.86
358.238	346.78
358.62	350.17
359.002	340.91
359.384	352.43
359.766	343.17
360.148	350.85
360.53	323.06
360.912	341.59
361.294	317.86
361.676	347.91
362.057	330.97
362.439	314.24
362.821	320.34
363.203	321.25
363.584	308.14
363.966	325.09
364.348	318.31
364.729	324.41
365.111	311.31
365.493	339.78
365.874	319.67
366.256	303.17
366.637	309.72
367.019	309.5
367.4	310.85
367.781	328.48
368.163	293.68
368.544	307.01
368.925	317.41
369.306	314.92
369.688	306.56
370.069	310.63
370.45	302.72
370.831	312.44
371.212	337.75
371.593	319.44
371.974	318.54
372.355	309.05
372.736	323.51
373.117	296.16
373.498	300.46
373.879	295.03
374.26	289.61
374.641	306.56
375.021	326.22
375.402	314.92
375.783	299.78
376.163	323.51
376.544	328.71
376.925	316.73
377.305	314.47
377.686	313.79
378.066	363.06
378.447	303.4
378.827	344.52
379.208	307.46
379.588	316.05
379.968	332.77
380.349	302.27
380.729	335.26
381.109	321.02
381.489	336.62
381.87	321.93
382.25	343.62
382.63	335.71
383.01	322.15
383.39	342.72
383.77	331.87
384.15	334.58
384.53	355.37
384.91	332.55
385.29	345.65
385.67	327.8
386.049	336.39
386.429	355.6
386.809	346.11
387.189	345.88
387.568	349.5
387.948	350.4
388.328	346.78
388.707	365.54
389.087	367.35
389.466	361.7
389.846	350.85
390.225	351.08
390.605	358.99
390.984	376.61
391.363	361.93
391.743	375.26
392.122	351.98
392.501	346.56
392.881	359.89
393.26	356.95
393.639	379.55
394.018	382.94
394.397	359.67
394.776	358.54
395.155	383.62
395.534	396.95
395.913	367.8
396.292	384.52
396.671	391.53
397.05	390.85
397.429	382.26
397.808	390.63
398.186	384.07
398.565	384.3
398.944	405.99
399.323	396.95
399.701	398.31
400.08	397.4
400.458	408.48
400.837	424.07
401.215	412.77
401.594	426.33
401.972	415.48
402.351	424.97
402.729	420
403.107	418.87
403.486	431.53
403.864	427.01
404.242	432.88
404.62	443.51
404.999	429.49
405.377	419.1
405.755	451.64
406.133	418.65
406.511	442.15
406.889	441.02
407.267	469.27
407.645	463.62
408.023	466.56
408.401	476.5
408.779	501.13
409.156	472.43
409.534	496.39
409.912	515.14
410.29	516.72
410.667	494.58
411.045	500.9
411.422	535.93
411.8	521.47
412.178	560.79
412.555	554.24
412.933	572.09
413.31	547.68
413.687	579.77
414.065	580
414.442	617.96
414.819	599.89
415.197	589.26
415.574	614.35
415.951	620.45
416.328	629.04
416.705	620.22
417.082	649.15
417.46	653.67
417.837	653.67
418.214	668.58
418.591	692.09
418.967	686.21
419.344	689.6
419.721	679.66
420.098	697.28
420.475	734.8
420.852	735.25
421.228	723.27
421.605	761.24
421.982	758.3
422.358	770.05
422.735	790.39
423.111	801.69
423.488	817.05
423.864	819.09
424.241	825.19
424.617	845.3
424.994	857.05
425.37	878.07
425.746	870.39
426.123	905.41
426.499	923.94
426.875	929.82
427.251	918.97
427.627	928.69
428.003	967.56
428.379	992.42
428.756	975.92
429.132	973.66
429.507	1002.36
429.883	1007.33
430.259	1036.48
430.635	1028.12
431.011	1047.56
431.387	1040.55
431.763	1067.22
432.138	1077.39
432.514	1094.79
432.89	1121.68
433.265	1158.06
433.641	1172.07
434.016	1169.14
434.392	1219.53
434.767	1216.14
435.143	1261.79
435.518	1261.56
435.894	1266.76
436.269	1295.23
436.644	1325.97
437.02	1328.68
437.395	1346.76
437.77	1403.93
438.145	1401.45
438.52	1433.76
438.895	1459.52
439.271	1454.55
439.646	1507.43
440.021	1514.44
440.395	1496.13
440.77	1528.22
441.145	1544.27
441.52	1552.85
441.895	1583.36
442.27	1610.03
442.645	1608.67
443.019	1636.02
443.394	1650.71
443.769	1648.45
444.143	1662.46
444.518	1693.64
444.892	1687.09
445.267	1718.05
445.641	1685.05
446.016	1738.16
446.39	1746.97
446.764	1759.4
447.139	1762.34
447.513	1793.3
447.887	1789.91
448.262	1836.69
448.636	1822
449.01	1871.72
449.384	1902
449.758	1879.63
450.132	1891.15
450.506	1884.15
450.88	1906.29
451.254	1923.92
451.628	1924.6
452.002	1964.82
452.376	1982.67
452.75	1991.94
453.123	2017.93
453.497	2046.18
453.871	2052.5
454.244	2109.9
454.618	2104.93
454.992	2125.95
455.365	2119.62
455.739	2167.08
456.112	2195.1
456.486	2238.94
456.859	2236.68
457.232	2262.21
457.606	2259.73
457.979	2280.52
458.352	2332.27
458.725	2376.79
459.099	2376.56
459.472	2420.63
459.845	2402.1
460.218	2471.7
460.591	2459.27
460.964	2490.46
461.337	2561.64
461.71	2567.52
462.083	2590.79
462.456	2583.79
462.829	2597.12
463.201	2670.11
463.574	2650.23
463.947	2688.64
464.32	2749.89
464.692	2755.31
465.065	2818.13
465.438	2797.57
465.81	2810
466.183	2867.4
466.555	2961.86
466.928	2926.6
467.3	2917.79
467.672	2970.67
468.045	3062.65
468.417	3130.21
468.789	3084.57
469.161	3167.28
469.534	3147.16
469.906	3228.29
470.278	3247.95
470.65	3253.83
471.022	3301.51
471.394	3391.45
471.766	3419.25
472.138	3424.44
472.51	3492.69
472.882	3527.04
473.253	3574.5
473.625	3605.68
473.997	3738.33
474.369	3669.18
474.74	3725.9
475.112	3793.47
475.484	3833.02
475.855	3894.49
476.227	3939.46
476.598	4000.93
476.97	4062.85
477.341	4115.5
477.713	4157.53
478.084	4164.54
478.455	4259.68
478.827	4337.64
479.198	4460.57
479.569	4425.55
479.94	4497.18
480.311	4558.65
480.682	4657.63
481.053	4769.49
481.424	4795.93
481.795	4767.46
482.166	4905.08
482.537	4916.83
482.908	5010.62
483.279	5060.33
483.65	5106.21
484.021	5213.55
484.391	5246.54
484.762	5283.38
485.133	5329.93
485.503	5401.79
485.874	5468.23
486.244	5549.81
486.615	5623.93
486.985	5665.74
487.356	5755
487.726	5809.24
488.097	5877.94
488.467	5910.48
488.837	6022.79
489.207	6026.41
489.578	6151.83
489.948	6184.37
490.318	6282.9
490.688	6316.12
491.058	6342.56
491.428	6436.79
491.798	6411.26
492.168	6624.59
492.538	6570.8
492.908	6595.66
493.278	6730.12
493.648	6713.85
494.017	6768.76
494.387	6830
494.757	6916.78
495.126	6871.81
495.496	6885.82
495.866	6968.08
496.235	7073.61
496.605	7025.93
496.974	7126.04
497.344	7102.54
497.713	7134.85
498.082	7262.54
498.452	7265.7
498.821	7282.42
499.19	7288.98
499.559	7403.1
499.928	7369.65
500.298	7416.88
500.667	7486.71
501.036	7503.21
501.405	7552.24
501.774	7512.47
502.143	7502.75
502.512	7578.68
502.88	7593.6
503.249	7707.5
503.618	7613.26
503.987	7672.92
504.356	7705.46
504.724	7725.12
505.093	7697.33
505.462	7794.72
505.83	7805.57
506.199	7908.62
506.567	7938.9
506.936	7836.53
507.304	7948.17
507.672	7935.74
508.041	7946.58
508.409	8041.5
508.777	8031.1
509.145	8039.01
509.514	8039.01
509.882	8074.04
510.25	8092.57
510.618	8147.94
510.986	8079.24
511.354	8133.25
511.722	8193.13
512.09	8147.94
512.458	8207.59
512.826	8286.69
513.193	8260.25
513.561	8237.42
513.929	8282.4
514.297	8313.81
514.664	8319.91
515.032	8363.52
515.4	8411.88
515.767	8331.66
516.135	8363.07
516.502	8321.94
516.869	8428.83
517.237	8369.4
517.604	8357.2
517.972	8347.93
518.339	8385.22
518.706	8383.18
519.073	8418.21
519.44	8463.63
519.808	8465.89
520.175	8469.96
520.542	8536.17
520.909	8520.13
521.276	8455.72
521.643	8484.42
522.009	8491.88
522.376	8511.32
522.743	8537.08
523.11	8537.53
523.477	8586.57
523.843	8598.77
524.21	8602.84
524.577	8666.57
524.943	8672.44
525.31	8687.36
525.676	8695.49
526.043	8719.45
526.409	8689.62
526.776	8714.7
527.142	8710.63
527.508	8746.79
527.874	8725.32
528.241	8732.78
528.607	8806
528.973	8782.27
529.339	8726.9
529.705	8818.2
530.071	8814.13
530.437	8817.52
530.803	8769.39
531.169	8844.64
531.535	8804.19
531.901	8769.39
532.267	8761.25
532.632	8794.02
532.998	8794.02
533.364	8757.41
533.73	8786.34
534.095	8718.09
534.461	8763.74
534.826	8782.04
535.192	8705.66
535.557	8746.79
535.923	8695.27
536.288	8669.73
536.653	8769.61
537.019	8685.1
537.384	8637.64
537.749	8665.21
538.114	8617.98
538.479	8606.23
538.845	8653.46
539.21	8591.31
539.575	8595.38
539.94	8542.28
540.305	8571.88
540.67	8547.92
541.034	8498.66
541.399	8495.95
541.764	8561.71
542.129	8471.32
542.494	8436.52
542.858	8502.28
543.223	8444.42
543.587	8469.73
543.952	8453.69
544.316	8395.16
544.681	8354.94
545.045	8348.61
545.41	8366.91
545.774	8370.98
546.138	8333.69
546.503	8355.84
546.867	8298.67
547.231	8361.94
547.595	8231.78
547.959	8272.9
548.324	8240.81
548.688	8214.15
549.052	8192.23
549.416	8232.68
549.779	8102.74
550.143	8183.19
550.507	8125.34
550.871	8202.62
551.235	8099.12
551.599	8162.4
551.962	8107.26
552.326	8047.37
552.689	8095.73
553.053	8054.38
553.417	8016.87
553.78	8133.47
554.143	8047.37
554.507	8010.54
554.87	8047.37
555.234	8081.5
555.597	8048.05
555.96	8058.67
556.323	7942.07
556.686	7991.33
557.05	8025.9
557.413	8031.55
557.776	7938.68
558.139	7992.69
558.502	8007.37
558.865	7989.52
559.228	8002.18
559.59	7943.87
559.953	7972.35
560.316	8033.14
560.679	7961.73
561.041	8007.15
561.404	8007.83
561.767	8021.84
562.129	7975.74
562.492	8032.01
562.854	8069.75
563.217	7987.04
563.579	8040.14
563.941	8049.18
564.304	8082.4
564.666	8142.06
565.028	8095.96
565.39	8045.57
565.753	8149.29
566.115	8088.28
566.477	8139.8
566.839	8164.21
567.201	8196.07
567.563	8105.45
567.925	8178.44
568.287	8106.81
568.648	8181.83
569.01	8197.43
569.372	8260.25
569.734	8233.58
570.095	8259.57
570.457	8293.47
570.819	8264.32
571.18	8272.45
571.542	8264.77
571.903	8319.68
572.265	8381.38
572.626	8319.68
572.987	8403.3
573.349	8343.18
573.71	8384.09
574.071	8402.62
574.432	8465.67
574.794	8496.17
575.155	8481.94
575.516	8414.82
575.877	8508.15
576.238	8488.27
576.599	8552.22
576.96	8530.98
577.32	8534.82
577.681	8595.38
578.042	8644.19
578.403	8657.3
578.763	8517.42
579.124	8607.58
579.485	8662.27
579.845	8655.94
580.206	8618.21
580.566	8714.7
580.927	8645.78
581.287	8697.53
581.648	8682.16
582.008	8704.31
582.368	8727.58
582.728	8813
583.089	8763.96
583.449	8870.18
583.809	8780.24
584.169	8778.2
584.529	8806.68
584.889	8888.25
585.249	8817.52
585.609	8825.88
585.969	8893.23
586.329	8818.88
586.688	8868.82
587.048	8931.42
587.408	8883.06
587.768	8926.22
588.127	8921.25
588.487	8915.6
588.846	8991.76
589.206	8930.74
589.565	8973
589.925	8962.38
590.284	8952.43
590.643	9038.31
591.003	8982.49
591.362	9034.24
591.721	9041.02
592.08	9094.35
592.44	9128.25
592.799	9025.43
593.158	9059.78
593.517	9064.07
593.876	9105.42
594.235	9090.06
594.593	9126.67
594.952	9162.15
595.311	9083.73
595.67	9137.51
596.029	9215.03
596.387	9184.52
596.746	9216.16
597.104	9122.15
597.463	9141.58
597.822	9231.07
598.18	9130.73
598.538	9164.86
598.897	9200.11
599.255	9207.57
599.613	9266.78
599.972	9242.6
600.33	9247.34
600.688	9219.09
601.046	9211.86
601.404	9294.35
601.762	9255.48
602.12	9319.66
602.478	9342.48
602.836	9279.66
603.194	9306.1
603.552	9207.57
603.91	9225.65
604.268	9250.51
604.625	9255.03
604.983	9312.65
605.341	9246.89
605.698	9311.97
606.056	9296.61
606.413	9316.72
606.771	9312.65
607.128	9315.14
607.485	9297.74
607.843	9285.76
608.2	9393.78
608.557	9378.19
608.914	9343.16
609.272	9393.33
609.629	9363.72
609.986	9473.1
610.343	9394
610.7	9482.14
611.057	9448.92
611.414	9484.4
611.771	9480.33
612.127	9504.51
612.484	9448.92
612.841	9499.31
613.198	9420.9
613.554	9457.51
613.911	9485.75
614.267	9577.05
614.624	9503.38
614.98	9531.18
615.337	9562.81
615.693	9503.83
616.05	9483.27
616.406	9631.51
616.762	9495.02
617.118	9580.89
617.475	9578.18
617.831	9610.04
618.187	9591.51
618.543	9596.26
618.899	9607.78
619.255	9666.77
619.611	9630.16
619.967	9664.05
620.323	9691.85
620.678	9647.78
621.034	9672.19
621.39	9567.33
621.746	9577.28
622.101	9667.9
622.457	9635.35
622.812	9667.44
623.168	9710.38
623.523	9641.91
623.879	9706.09
624.234	9623.38
624.589	9650.72
624.945	9677.16
625.3	9621.57
625.655	9658.86
626.01	9581.12
626.365	9655.92
626.72	9571.85
627.075	9587.45
627.43	9609.37
627.785	9619.54
628.14	9660.66
628.495	9614.79
628.85	9586.77
629.205	9561.68
629.559	9548.8
629.914	9560.78
630.269	9578.86
630.623	9529.14
630.978	9574.56
631.332	9590.61
631.687	9579.76
632.041	9521.91
632.396	9553.55
632.75	9575.92
633.104	9588.12
633.459	9465.64
633.813	9469.93
634.167	9537.05
634.521	9452.76
634.875	9486.43
635.229	9437.17
635.583	9407.56
635.937	9397.39
636.291	9422.25
636.645	9468.13
636.999	9446.21
637.352	9391.07
637.706	9348.36
638.06	9376.6
638.413	9360.56
638.767	9332.09
639.121	9349.94
639.474	9283.95
639.828	9314.01
640.181	9310.62
640.534	9213.67
640.888	9332.54
641.241	9231.3
641.594	9190.62
641.947	9286.66
642.301	9257.51
642.654	9257.96
643.007	9281.69
643.36	9229.26
643.713	9197.63
644.066	9256.83
644.419	9202.15
644.771	9146.1
645.124	9069.27
645.477	9049.83
645.83	8944.52
646.182	8937.52
646.535	9008.25
646.888	8972.09
647.24	8877.41
647.593	8946.33
647.945	8905.2
648.298	8886
648.65	8849.61
649.002	8896.39
649.355	8894.81
649.707	8906.33
650.059	8987.91
650.411	9025.88
650.763	9079.66
651.115	9122.37
651.467	9091.64
651.819	9129.38
652.171	9110.85
652.523	9055.71
652.875	9052.54
653.227	9018.2
653.578	9132.99
653.93	9086.67
654.282	9022.26
654.633	9020.45
654.985	9080.57
655.337	9090.96
655.688	9111.75
656.039	9089.61
656.391	9026.78
656.742	9102.03
657.094	9034.24
657.445	9119.66
657.796	9026.56
658.147	9137.51
658.498	9058.19
658.849	9056.84
659.2	9042.38
659.551	9040.79
659.902	9097.97
660.253	9121.92
660.604	9070.17
660.955	9008.7
661.306	9059.32
661.656	9062.71
662.007	9090.06
662.358	9155.14
662.708	9105.65
663.059	9128.93
663.409	9031.75
663.76	9160.11
664.11	9131.64
664.461	9147.68
664.811	9168.02
665.161	9108.81
665.511	9143.84
665.862	9134.12
666.212	9241.47
666.562	9204.4
666.912	9174.8
667.262	9140.9
667.612	9155.14
667.962	9110.85
668.312	9099.1
668.662	9257.51
669.011	9135.03
669.361	9135.03
669.711	9011.42
670.06	9156.5
670.41	9048.02
670.76	9089.61
671.109	9116.27
671.459	9101.58
671.808	9081.47
672.157	9137.29
672.507	8991.3
672.856	9060
673.205	8974.13
673.554	9075.14
673.904	9044.64
674.253	9066.1
674.602	9067.91
674.951	8931.19
675.3	8882.61
675.649	9027.46
675.998	8999.89
676.346	9016.16
676.695	9023.84
677.044	8981.81
677.393	9020.68
677.741	9025.2
678.09	8971.42
678.438	8874.02
678.787	8998.31
679.135	8957.86
679.484	8936.39
679.832	8972.77
680.181	8859.1
680.529	8875.15
680.877	8874.02
681.225	8835.38
681.573	8854.13
681.922	8768.03
682.27	8798.54
682.618	8754.25
682.966	8748.82
683.314	8812.32
683.661	8714.47
684.009	8678.54
684.357	8655.27
684.705	8606.45
685.053	8668.83
685.4	8647.58
685.748	8613.69
686.095	8642.39
686.443	8571.88
686.79	8585.21
687.138	8522.84
687.485	8589.05
687.832	8504.08
688.18	8502.28
688.527	8468.38
688.874	8453.01
689.221	8412.79
689.568	8401.49
689.915	8429.96
690.262	8334.82
690.609	8323.3
690.956	8358.1
691.303	8225.9
691.65	8208.05
691.997	8152.91
692.344	8210.53
692.69	8175.96
693.037	8149.52
693.383	8085.79
693.73	8080.14
694.077	8075.17
694.423	8083.98
694.769	7987.04
695.116	7943.42
695.462	7951.33
695.808	7932.8
696.155	7934.38
696.501	7844.44
696.847	7890.54
697.193	7826.81
697.539	7829.53
697.885	7705.91
698.231	7827.72
698.577	7722.41
698.923	7720.15
699.269	7682.19
699.614	7572.81
699.96	7524.45
700.306	7625.69
700.651	7504.34
700.997	7554.28
701.342	7485.58
701.688	7473.6
702.033	7431.8
702.379	7331.91
702.724	7338.01
703.069	7438.35
703.415	7312.48
703.76	7337.34
704.105	7303.21
704.45	7255.3
704.795	7208.53
705.14	7223.89
705.485	7194.74
705.83	7236.55
706.175	7143.44
706.52	7122.88
706.865	7072.03
707.209	7077.91
707.554	7056.66
707.899	7134.4
708.243	7067.29
708.588	7033.16
708.932	7007.85
709.277	6997.91
709.621	6997.46
709.966	6961.75
710.31	6949.1
710.654	6880.62
710.998	6916.1
711.342	6878.82
711.687	6871.81
712.031	6761.31
712.375	6821.19
712.719	6858.03
713.063	6824.35
713.407	6835.65
713.75	6784.13
714.094	6764.7
714.438	6769.21
714.782	6733.06
715.125	6673.62
715.469	6713.17
715.812	6698.48
716.156	6700.97
716.499	6662.1
716.843	6655.55
717.186	6656.22
717.53	6643.57
717.873	6640.86
718.216	6640.18
718.559	6568.09
718.902	6510.01
719.246	6590.01
719.589	6552.95
719.932	6532.61
720.275	6549.33
720.617	6491.93
720.96	6514.31
721.303	6486.96
721.646	6587.98
721.989	6492.61
722.331	6501.2
722.674	6498.26
723.016	6484.02
723.359	6501.43
723.701	6503.23
724.044	6461.88
724.386	6492.61
724.729	6432.5
725.071	6466.4
725.413	6465.72
725.755	6408.32
726.097	6393.63
726.439	6351.37
726.782	6382.33
727.124	6446.29
727.465	6389.56
727.807	6401.31
728.149	6366.51
728.491	6351.82
728.833	6397.25
729.175	6351.82
729.516	6366.97
729.858	6388.43
730.199	6348.21
730.541	6373.29
730.882	6294.88
731.224	6417.13
731.565	6340.75
731.906	6364.03
732.248	6352.73
732.589	6337.14
732.93	6311.15
733.271	6362.67
733.612	6415.78
733.953	6331.26
734.294	6351.82
734.635	6321.09
734.976	6401.09
735.317	6337.59
735.658	6334.65
735.999	6350.02
736.339	6347.98
736.68	6361.77
737.021	6350.47
737.361	6374.87
737.702	6383.69
738.042	6334.88
738.383	6392.73
738.723	6399.73
739.063	6389.56
739.404	6412.16
739.744	6402.44
740.084	6369.68
740.424	6424.36
740.764	6522.44
741.104	6399.51
741.444	6461.2
741.784	6447.87
742.124	6466.62
742.464	6480.18
742.804	6540.29
743.143	6571.25
743.483	6548.66
743.823	6574.42
744.162	6549.11
744.502	6571.25
744.841	6601.31
745.181	6657.81
745.52	6602.67
745.86	6712.04
746.199	6707.97
746.538	6773.28
746.877	6845.14
747.216	6858.25
747.556	6873.62
747.895	6898.48
748.234	6982.77
748.573	6996.55
748.911	7040.17
749.25	7077.91
749.589	7142.31
749.928	7159.26
750.267	7287.85
750.605	7365.58
750.944	7411.23
751.283	7403.55
751.621	7489.65
751.96	7608.51
752.298	7662.07
752.636	7789.98
752.975	7823.42
753.313	7852.58
753.651	8091.21
753.989	8076.52
754.327	8202.17
754.666	8278.55
755.004	8416.63
755.342	8521.94
755.679	8700.24
756.017	8743.85
756.355	8918.54
756.693	8928.03
757.031	9074.01
757.368	9267.91
757.706	9394.91
758.044	9486.88
758.381	9709.93
758.719	9751.28
759.056	10010.03
759.394	10107.21
759.731	10229.91
760.068	10381.1
760.405	10504.94
760.743	10645.04
761.08	10851.59
761.417	11032.15
761.754	11170.68
762.091	11316.21
762.428	11520.05
762.765	11658.8
763.102	11875.52
763.438	11939.7
763.775	12070.54
764.112	12299.46
764.449	12514.83
764.785	12652.9
765.122	12833.24
765.458	12889.05
765.795	13087.24
766.131	13306.67
766.467	13385.76
766.804	13541.01
767.14	13667.11
767.476	13809.48
767.812	13893.1
768.148	14036.14
768.485	14220.32
768.821	14344.83
769.157	14376.25
769.492	14581.89
769.828	14644.04
770.164	14755.45
770.5	14882.22
770.836	15034.53
771.171	15074.98
771.507	15189.78
771.842	15262.78
772.178	15483.79
772.513	15589.77
772.849	15653.05
773.184	15715.87
773.519	15749.09
773.855	15848.3
774.19	15989.76
774.525	16086.26
774.86	16101.17
775.195	16196.31
775.53	16177.55
775.865	16228.85
776.2	16253.03
776.535	16297.33
776.87	16377.55
777.205	16442.63
777.539	16500.94
777.874	16750.2
778.209	16573.25
778.543	16649.63
778.878	16542.74
779.212	16718.33
779.547	16766.47
779.881	16793.36
780.215	16756.52
780.55	16842.4
780.884	16733.92
781.218	16816.41
781.552	16876.97
781.886	16830.87
782.22	16912
782.554	16912.68
782.888	16795.62
783.222	16783.64
783.556	16886.69
783.889	16819.12
784.223	16762.62
784.557	16804.88
784.89	16754.26
785.224	16730.31
785.557	16788.39
785.891	16792.91
786.224	16810.08
786.558	16766.24
786.891	16670.65
787.224	16644.44
787.557	16656.19
787.891	16693.93
788.224	16722.17
788.557	16803.53
788.89	16700.93
789.223	16741.61
789.556	16664.77
789.888	16664.55
790.221	16659.58
790.554	16490.09
790.887	16605.11
791.219	16436.31
791.552	16513.82
791.884	16483.76
792.217	16538.22
792.549	16448.28
792.882	16390.43
793.214	16315.86
793.546	16337.55
793.879	16263.65
794.211	16255.74
794.543	16295.07
794.875	16273.82
795.207	16328.51
795.539	16228.4
795.871	16128.52
796.203	16091.68
796.535	16028.18
796.867	16071.12
797.198	16022.53
797.53	15984.11
797.862	15986.83
798.193	15948.86
798.525	15881.74
798.856	15934.4
799.188	15669.55
799.519	15713.84
799.85	15706.83
800.182	15671.81
800.513	15668.42
800.844	15576.67
801.175	15696.21
801.506	15699.15
801.837	15526.95
802.168	15487.4
802.499	15431.59
802.83	15440.4
803.161	15398.82
803.491	15393.62
803.822	15399.04
804.153	15371.93
804.483	15307.75
804.814	15310.23
805.145	15221.65
805.475	15172.16
805.805	15198.15
806.136	15097.13
806.466	15105.27
806.796	15079.28
807.126	15030.92
807.457	14984.14
807.787	15005.16
808.117	14966.97
808.447	14876.12
808.777	14920.41
809.107	14833.64
809.436	14833.64
809.766	14749.12
810.096	14710.47
810.426	14707.09
810.755	14797.48
811.085	14667.54
811.414	14672.96
811.744	14607.65
812.073	14547.77
812.403	14638.16
812.732	14472.51
813.061	14455.34
813.39	14428.9
813.719	14427.77
814.049	14488.79
814.378	14470.03
814.707	14428.22
815.036	14371.73
815.365	14206.08
815.693	14150.26
816.022	14218.28
816.351	14138.06
816.68	14085.18
817.008	14192.75
817.337	13980.1
817.665	14069.36
817.994	13998.4
818.322	14043.15
818.651	14042.47
818.979	13895.81
819.307	13927.44
819.636	13962.25
819.964	13869.59
820.292	13982.81
820.62	13914.79
820.948	13903.04
821.276	13964.96
821.604	13890.84
821.932	13908.01
822.259	13883.15
822.587	13948.69
822.915	13824.4
823.243	13952.53
823.57	13830.95
823.898	13898.97
824.225	13834.57
824.553	13775.36
824.88	13909.37
825.207	13912.98
825.535	13824.17
825.862	13904.17
826.189	13861.91
826.516	13863.72
826.843	14018.97
827.17	13844.28
827.497	13900.1
827.824	13922.92
828.151	13874.11
828.478	13890.61
828.805	13980.78
829.131	13876.37
829.458	13861.01
829.785	13799.09
830.111	13887.22
830.438	14004.05
830.764	13952.53
831.09	13895.35
831.417	13792.31
831.743	13901.68
832.069	13889.48
832.395	13851.74
832.722	13862.81
833.048	13840.89
833.374	13803.61
833.7	13754.12
834.026	13784.17
834.351	13803.15
834.677	13847.22
835.003	13868.91
835.329	13820.78
835.654	13771.97
835.98	13691.07
836.306	13794.57
836.631	13644.74
836.956	13695.13
837.282	13704.63
837.607	13673.67
837.932	13667.34
838.258	13672.08
838.583	13575.59
838.908	13556.15
839.233	13615.59
839.558	13476.16
839.883	13436.61
840.208	13409.27
840.533	13425.08
840.858	13495.59
841.182	13415.59
841.507	13393.67
841.832	13371.07
842.156	13365.88
842.481	13346.67
842.805	13258.31
843.13	13303.05
843.454	13148.71
843.778	13162.04
844.103	13108.48
844.427	13064.64
844.751	13104.87
845.075	13101.03
845.399	12985.1
845.723	13060.57
846.047	12930.41
846.371	12949.84
846.695	12938.09
847.019	12753.01
847.343	12776.06
847.666	12686.8
847.99	12636.86
848.313	12622.17
848.637	12558.67
848.96	12517.09
849.284	12445.45
849.607	12399.8
849.931	12364.32
850.254	12311.67
850.577	12313.93
850.9	12253.36
851.223	12153.25
851.546	12098.79
851.869	11948.51
852.192	12108.96
852.515	11957.78
852.838	11915.75
853.161	11890.66
853.483	11896.31
853.806	11802.3
854.129	11722.98
854.451	11711.23
854.774	11735.41
855.096	11588.52
855.419	11671.91
855.741	11575.19
856.063	11506.72
856.385	11550.11
856.708	11489.77
857.03	11419.04
857.352	11391.92
857.674	11434.85
857.996	11348.76
858.318	11253.84
858.64	11305.14
858.961	11248.87
859.283	11245.48
859.605	11123
859.926	11204.13
860.248	11104.47
860.57	11090.46
860.891	11154.64
861.212	11006.84
861.534	11036.9
861.855	10989.22
862.176	11009.33
862.498	10963
862.819	10956
863.14	10859.05
863.461	10870.12
863.782	10839.16
864.103	10899.73
864.424	10801.2
864.745	10886.39
865.065	10805.04
865.386	10715.1
865.707	10770.92
866.027	10714.87
866.348	10727.75
866.668	10683.24
866.989	10678.26
867.309	10621.77
867.63	10612.73
867.95	10641.43
868.27	10576.12
868.59	10579.51
868.91	10526.4
869.23	10551.04
869.55	10521.66
869.87	10576.35
870.19	10522.56
870.51	10503.13
870.83	10512.62
871.15	10480.76
871.469	10405.96
871.789	10424.03
872.109	10383.36
872.428	10341.78
872.748	10278.5
873.067	10377.03
873.386	10358.72
873.706	10332.51
874.025	10265.17
874.344	10227.43
874.663	10276.92
874.982	10209.35
875.301	10247.09
875.62	10187.2
875.939	10223.81
876.258	10242.34
876.577	10147.66
876.896	10096.81
877.214	10134.1
877.533	10105.17
877.852	10049.58
878.17	10050.26
878.489	10123.7
878.807	10022.01
879.125	10012.75
879.444	9962.35
879.762	9945.18
880.08	10010.71
880.398	9957.61
880.716	9993.76
881.034	9929.58
881.352	9896.14
881.67	9896.82
881.988	9913.31
882.306	9883.03
882.624	9776.82
882.941	9784.28
883.259	9794.45
883.577	9792.64
883.894	9669.48
884.212	9746.99
884.529	9669.48
884.846	9737.5
885.164	9670.16
885.481	9578.63
885.798	9665.41
886.115	9531.18
886.432	9557.84
886.75	9577.28
887.067	9521.46
887.383	9549.48
887.7	9537.28
888.017	9445.08
888.334	9427.22
888.651	9391.74
888.967	9363.95
889.284	9361.24
889.6	9276.04
889.917	9241.24
890.233	9272.2
890.55	9266.32
890.866	9255.93
891.182	9251.41
891.498	9156.27
891.815	9172.99
892.131	9157.4
892.447	9063.84
892.763	9040.12
893.079	9032.88
893.395	8987.91
893.71	8910.18
894.026	8935.71
894.342	8943.85
894.657	8830.4
894.973	8803.51
895.289	8832.66
895.604	8808.48
895.92	8720.12
896.235	8672.89
896.55	8687.36
896.865	8695.27
897.181	8703.18
897.496	8688.49
897.811	8608.94
898.126	8483.52
898.441	8517.64
898.756	8560.13
899.071	8489.4
899.386	8448.04
899.7	8398.55
900.015	8377.99
900.33	8295.05
900.644	8208.5
900.959	8336.18
901.273	8286.24
901.588	8228.84
901.902	8155.62
902.216	8178.9
902.531	8134.38
902.845	8108.61
903.159	8042.63
903.473	8079.01
903.787	8057.77
904.101	7997.66
904.415	7952.69
904.729	7894.61
905.042	7892.35
905.356	7844.89
905.67	7781.62
905.984	7850.32
906.297	7782.07
906.611	7726.7
906.924	7762.41
907.237	7698.68
907.551	7640.38
907.864	7663.43
908.177	7615.07
908.491	7537.1
908.804	7473.6
909.117	7462.3
909.43	7399.25
909.743	7409.2
910.056	7397.22
910.368	7357.45
910.681	7318.13
910.994	7299.6
911.307	7295.98
911.619	7244.68
911.932	7218.47
912.244	7153.16
912.557	7212.59
912.869	7129.88
913.181	7089.66
913.494	7069.09
913.806	6999.04
914.118	6999.49
914.43	6980.73
914.742	6919.72
915.054	6929.66
915.366	6946.16
915.678	6902.09
915.99	6873.17
916.302	6785.03
916.613	6797.01
916.925	6782.77
917.236	6783
917.548	6653.29
917.859	6735.77
918.171	6665.26
918.482	6643.79
918.794	6615.77
919.105	6666.17
919.416	6602.89
919.727	6554.08
920.038	6510.01
920.349	6481.99
920.66	6400.64
920.971	6456.68
921.282	6403.8
921.593	6380.75
921.903	6364.03
922.214	6267.31
922.525	6313.18
922.835	6286.52
923.146	6196.35
923.456	6179.63
923.767	6189.79
924.077	6203.13
924.387	6153.64
924.697	6183.92
925.008	6091.04
925.318	6102.57
925.628	6045.84
925.938	6075.45
926.248	5976.69
926.558	6005.62
926.867	5942.8
927.177	5875
927.487	5919.29
927.796	5858.5
928.106	5876.58
928.416	5806.98
928.725	5783.48
929.034	5806.08
929.344	5799.97
929.653	5745.29
929.962	5697.6
930.271	5622.8
930.581	5678.62
930.89	5613.09
931.199	5594.33
931.508	5588.23
931.817	5580.55
932.125	5566.53
932.434	5520.66
932.743	5479.98
933.051	5474.11
933.36	5436.37
933.669	5432.07
933.977	5379.87
934.286	5383.49
934.594	5402.7
934.902	5332.19
935.21	5352.98
935.519	5285.86
935.827	5273.66
936.135	5265.75
936.443	5189.82
936.751	5242.93
937.059	5189.6
937.367	5119.77
937.674	5154.34
937.982	5149.82
938.29	5093.33
938.597	5056.27
938.905	5011.29
939.213	5039.77
939.52	5012.2
939.827	5005.87
940.135	4972.43
940.442	4922.48
940.749	4961.13
941.056	4986.66
941.363	4887.68
941.67	4847.23
941.977	4813.33
942.284	4809.72
942.591	4808.36
942.898	4780.57
943.205	4761.36
943.511	4713.22
943.818	4773.11
944.125	4739.44
944.431	4670.29
944.738	4691.08
945.044	4670.06
945.35	4613.79
945.657	4569.72
945.963	4622.15
946.269	4527.69
946.575	4571.31
946.881	4526.11
947.187	4513.68
947.493	4448.82
947.799	4466.22
948.105	4484.53
948.41	4412.21
948.716	4416.51
949.022	4348.71
949.327	4374.7
949.633	4348.26
949.938	4343.97
950.244	4301.26
950.549	4300.8
950.854	4263.74
951.16	4254.48
951.465	4255.61
951.77	4237.53
952.075	4245.44
952.38	4148.49
952.685	4164.54
952.99	4147.14
953.294	4150.3
953.599	4111.88
953.904	4066.46
954.209	4062.85
954.513	4074.37
954.818	4043.18
955.122	4022.62
955.426	3968.38
955.731	3980.81
956.035	3969.29
956.339	3969.74
956.643	3932.45
956.948	3894.94
957.252	3934.03
957.556	3902.62
957.86	3902.62
958.163	3880.25
958.467	3854.49
958.771	3829.18
959.075	3844.09
959.378	3815.85
959.682	3824.89
959.985	3777.65
960.289	3776.98
960.592	3742.63
960.896	3719.58
961.199	3706.24
961.502	3691.1
961.805	3718.45
962.108	3654.95
962.411	3631.22
962.714	3622.63
963.017	3613.59
963.32	3595.96
963.623	3570.88
963.926	3592.35
964.228	3534.95
964.531	3572.91
964.833	3528.62
965.136	3485.91
965.438	3469.19
965.741	3483.88
966.043	3457.44
966.345	3450.66
966.648	3471.22
966.95	3412.47
967.252	3341.06
967.554	3414.95
967.856	3399.59
968.158	3336.08
968.46	3349.42
968.761	3360.26
969.063	3306.48
969.365	3332.02
969.666	3337.67
969.968	3276.88
970.269	3266.71
970.571	3212.7
970.872	3241.62
971.174	3212.02
971.475	3186.03
971.776	3192.59
972.077	3146.94
972.378	3145.36
972.679	3162.08
972.98	3149.87
973.281	3120.05
973.582	3072.81
973.883	3090.44
974.183	3057
974.484	3054.74
974.785	3073.49
975.085	3028.3
975.386	3045.47
975.686	2997.34
975.986	3007.73
976.287	2986.26
976.587	2958.02
976.887	2977.45
977.187	2903.78
977.487	2932.48
977.787	2909.43
978.087	2872.82
978.387	2909.66
978.687	2880.5
978.987	2912.59
979.286	2849.09
979.586	2822.43
979.885	2816.32
980.185	2775.42
980.484	2802.09
980.784	2785.36
981.083	2791.01
981.382	2786.72
981.682	2770
981.981	2751.47
982.28	2734.74
982.579	2695.88
982.878	2737.23
983.177	2740.85
983.475	2695.65
983.774	2681.41
984.073	2649.32
984.372	2624.46
984.67	2635.76
984.969	2645.71
985.267	2621.08
985.566	2621.08
985.864	2579.49
986.162	2573.84
986.461	2583.56
986.759	2563.22
987.057	2550.57
987.355	2529.55
987.653	2532.72
987.951	2503.11
988.249	2457.46
988.547	2502.89
988.844	2477.8
989.142	2467.86
989.44	2459.5
989.737	2459.95
990.035	2449.55
990.332	2425.15
990.63	2386.28
990.927	2376.79
991.224	2379.73
991.521	2381.53
991.819	2345.6
992.116	2376.34
992.413	2330.24
992.71	2327.52
993.006	2350.8
993.303	2309.67
993.6	2273.74
993.897	2288.2
994.193	2284.13
994.49	2273.97
994.787	2260.18
995.083	2274.42
995.379	2248.66
995.676	2198.94
995.972	2219.73
996.268	2205.04
996.565	2184.7
996.861	2169.11
997.157	2178.6
997.453	2179.05
997.749	2167.98
998.044	2141.31
998.34	2118.49
998.636	2142.67
998.932	2095.21
999.227	2091.82
999.523	2109.22
999.818	2080.3
1000.114	2048.89
1000.409	2044.59
1000.704	2061.32
1001	2022.45
1001.295	2033.07
1001.59	1986.29
1001.885	1990.58
1002.18	1969.57
1002.475	1966.18
1002.77	1955.1
1003.065	1969.11
1003.359	1961.66
1003.654	1921.21
1003.949	1916.69
1004.243	1918.49
1004.538	1903.13
1004.832	1878.95
1005.127	1888.89
1005.421	1903.35
1005.715	1851.83
1006.009	1855.45
1006.304	1841.89
1006.598	1852.28
1006.892	1827.88
1007.186	1799.85
1007.48	1792.85
1007.773	1782
1008.067	1771.38
1008.361	1794.66
1008.655	1769.8
1008.948	1786.07
1009.242	1723.7
1009.535	1729.8
1009.829	1727.54
1010.122	1683.25
1010.415	1695.45
1010.708	1676.24
1011.001	1671.04
1011.295	1674.43
1011.588	1660.42
1011.881	1646.41
1012.173	1643.47
1012.466	1653.87
1012.759	1612.74
1013.052	1646.19
1013.344	1597.37
1013.637	1608.67
1013.93	1570.48
1014.222	1583.14
1014.514	1563.93
1014.807	1568
1015.099	1570.71
1015.391	1526.64
1015.683	1559.86
1015.976	1519.41
1016.268	1501.78
1016.56	1486.42
1016.851	1502.01
1017.143	1461.56
1017.435	1458.62
1017.727	1482.35
1018.018	1450.03
1018.31	1424.5
1018.602	1450.26
1018.893	1439.86
1019.185	1406.87
1019.476	1425.17
1019.767	1401.22
1020.058	1398.96
1020.35	1377.49
1020.641	1378.85
1020.932	1357.83
1021.223	1359.87
1021.514	1360.32
1021.804	1341.79
1022.095	1319.41
1022.386	1328.23
1022.677	1324.84
1022.967	1303.37
1023.258	1294.78
1023.548	1275.57
1023.839	1269.47
1024.129	1278.06
1024.419	1272.64
1024.709	1248.23
1025	1252.52
1025.29	1222.92
1025.58	1245.74
1025.87	1223.37
1026.16	1220.21
1026.449	1220.66
1026.739	1219.76
1027.029	1197.61
1027.319	1180.66
1027.608	1191.96
1027.898	1172.07
1028.187	1167.78
1028.477	1133.43
1028.766	1164.84
1029.055	1134.79
1029.344	1127.56
1029.634	1134.11
1029.923	1109.25
1030.212	1118.29
1030.501	1111.96
1030.79	1099.53
1031.078	1101.12
1031.367	1084.62
1031.656	1071.74
1031.945	1073.77
1032.233	1063.38
1032.522	1035.13
1032.81	1071.96
1033.099	1033.77
1033.387	1040.1
1033.675	1054.34
1033.963	1033.55
1034.251	992.87
1034.54	1018.18
1034.828	999.2
1035.116	1012.08
1035.403	996.71
1035.691	970.5
1035.979	972.76
1036.267	961.68
1036.554	948.58
1036.842	939.76
1037.129	964.85
1037.417	947.45
1037.704	954.45
1037.992	949.48
1038.279	942.7
1038.566	965.53
1038.853	965.53
1039.14	965.53
