Data from hue_210_FLMS001491_00065.txt Node
Date: Tue Feb 07 16:41:32 GMT 2017
User: dcchb
Spectrometer: FLMS00149
Trigger mode: 0
Integration Time (sec): 2.000000E-2
Scans to average: 10
Electric dark correction enabled: true
Nonlinearity correction enabled: false
Boxcar width: 0
XAxis mode: Wavelengths
Number of Pixels in Spectrum: 2048
>>>>>Begin Spectral Data<<<<<
341.393	-12.66
341.776	-12.66
342.16	-12.66
342.543	-72.54
342.927	-67.34
343.31	-63.73
343.693	-70.28
344.077	-68.7
344.46	-58.76
344.843	-63.28
345.226	-46.78
345.61	-12.88
345.993	-15.59
346.376	-6.1
346.759	20.79
347.142	16.04
347.525	44.29
347.908	53.33
348.291	83.16
348.674	74.35
349.057	114.12
349.44	135.59
349.823	138.75
350.206	178.53
350.588	184.63
350.971	204.06
351.354	214.68
351.737	230.5
352.119	250.39
352.502	249.48
352.884	287.45
353.267	292.2
353.65	294.46
354.032	311.63
354.414	311.63
354.797	316.83
355.179	326.09
355.562	317.73
355.944	301.24
356.326	341.23
356.709	331.97
357.091	343.72
357.473	344.17
357.855	348.92
358.238	332.87
358.62	354.57
359.002	355.92
359.384	348.69
359.766	323.61
360.148	339.65
360.53	318.41
360.912	330.84
361.294	328.58
361.676	334.23
362.057	319.77
362.439	324.74
362.821	333.55
363.203	322.03
363.584	325.42
363.966	331.06
364.348	334.23
364.729	323.83
365.111	310.73
365.493	310.5
365.874	314.34
366.256	335.58
366.637	331.74
367.019	297.39
367.4	307.56
367.781	323.61
368.163	330.61
368.544	308.69
368.925	311.4
369.306	317.28
369.688	331.06
370.069	306.88
370.45	300.33
370.831	306.66
371.212	303.49
371.593	323.61
371.974	307.56
372.355	281.35
372.736	324.06
373.117	300.78
373.498	336.71
373.879	337.84
374.26	324.96
374.641	307.34
375.021	305.08
375.402	333.32
375.783	329.93
376.163	340.78
376.544	348.24
376.925	336.49
377.305	346.66
377.686	335.58
378.066	308.47
378.447	350.27
378.827	333.78
379.208	352.08
379.588	331.06
379.968	311.63
380.349	347.11
380.729	345.3
381.109	333.1
381.489	356.6
381.87	334.23
382.25	341.46
382.63	339.2
383.01	321.8
383.39	327.9
383.77	320.22
384.15	353.89
384.53	341.69
384.91	352.53
385.29	344.17
385.67	354.34
386.049	352.99
386.429	343.04
386.809	362.93
387.189	364.28
387.568	380.33
387.948	345.53
388.328	362.48
388.707	373.32
389.087	350.95
389.466	374
389.846	361.57
390.225	370.84
390.605	362.25
390.984	366.32
391.363	360.44
391.743	358.86
392.122	352.99
392.501	380.55
392.881	397.05
393.26	378.07
393.639	365.87
394.018	379.2
394.397	381.46
394.776	396.6
395.155	371.06
395.534	388.69
395.913	391.63
396.292	409.25
396.671	401.8
397.05	402.02
397.429	415.81
397.808	408.8
398.186	418.97
398.565	422.14
398.944	420.33
399.323	414.23
399.701	438.41
400.08	407.9
400.458	403.38
400.837	441.34
401.215	410.61
401.594	417.84
401.972	449.03
402.351	419.2
402.729	422.81
403.107	430.27
403.486	452.87
403.864	442.47
404.242	457.84
404.62	449.93
404.999	461
405.377	473.21
405.755	473.89
406.133	475.24
406.511	466.65
406.889	471.85
407.267	496.94
407.645	503.72
408.023	486.77
408.401	493.32
408.779	514.79
409.156	505.98
409.534	494
409.912	503.49
410.29	541
410.667	545.07
411.045	545.07
411.422	543.49
411.8	564.28
412.178	588.69
412.555	571.28
412.933	604.96
413.31	575.35
413.687	603.83
414.065	609.7
414.442	606.31
414.819	637.95
415.197	643.37
415.574	635.01
415.951	653.09
416.328	636.37
416.705	665.29
417.082	665.07
417.46	679.53
417.837	691.73
418.214	705.07
418.591	751.39
418.967	748.45
419.344	749.81
419.721	747.32
420.098	731.05
420.475	769.02
420.852	752.3
421.228	785.52
421.605	789.81
421.982	806.76
422.358	825.52
422.735	818.28
423.111	830.94
423.488	873.88
423.864	856.25
424.241	891.95
424.617	922.24
424.994	911.16
425.37	909.58
425.746	940.77
426.123	955.23
426.499	956.59
426.875	971.27
427.251	1005.4
427.627	1008.79
428.003	1030.48
428.379	1026.19
428.756	1050.14
429.132	1048.56
429.507	1070.93
429.883	1063.02
430.259	1093.98
430.635	1086.3
431.011	1125.39
431.387	1122.46
431.763	1167.88
432.138	1160.2
432.514	1174.66
432.89	1194.09
433.265	1258.05
433.641	1256.92
434.016	1274.09
434.392	1293.3
434.767	1324.71
435.143	1326.29
435.518	1360.87
435.894	1385.95
436.269	1388.89
436.644	1425.5
437.02	1451.94
437.395	1457.14
437.77	1500.98
438.145	1498.49
438.52	1540.98
438.895	1587.75
439.271	1584.59
439.646	1623.01
440.021	1622.33
440.395	1648.77
440.77	1669.79
441.145	1673.63
441.52	1691.48
441.895	1743.23
442.27	1754.98
442.645	1761.31
443.019	1797.01
443.394	1831.14
443.769	1842.44
444.143	1835.21
444.518	1854.64
444.892	1860.29
445.267	1898.71
445.641	1886.05
446.016	1895.54
446.39	1945.26
446.764	1933.73
447.139	1967.41
447.513	2009.21
447.887	1977.58
448.262	1973.06
448.636	2037.01
449.01	2041.75
449.384	2058.02
449.758	2069.32
450.132	2093.73
450.506	2092.15
450.88	2128.53
451.254	2141.41
451.628	2145.71
452.002	2190
452.376	2190.45
452.75	2238.13
453.123	2250.11
453.497	2270.9
453.871	2257.34
454.244	2321.75
454.618	2333.05
454.992	2354.06
455.365	2385.93
455.739	2474.29
456.112	2461.86
456.486	2450.33
456.859	2495.98
457.232	2521.97
457.606	2564.9
457.979	2583.66
458.352	2624.11
458.725	2635.64
459.099	2656.2
459.472	2725.13
459.845	2707.5
460.218	2785.01
460.591	2760.83
460.964	2787.5
461.337	2836.99
461.71	2875.86
462.083	2930.77
462.456	2933.93
462.829	2939.36
463.201	2985.23
463.574	2985.68
463.947	3075.85
464.32	3079.92
464.692	3147.26
465.065	3169.63
465.438	3201.27
465.81	3225.45
466.183	3287.6
466.555	3326.47
466.928	3331.66
467.3	3371.44
467.672	3404.43
468.045	3510.87
468.417	3501.38
468.789	3490.08
469.161	3580.92
469.534	3631.99
469.906	3702.73
470.278	3641.03
470.65	3711.31
471.022	3763.74
471.394	3889.39
471.766	3910.63
472.138	3913.57
472.51	4034.02
472.882	4046.67
473.253	4087.8
473.625	4165.99
473.997	4224.07
474.369	4246.67
474.74	4318.53
475.112	4382.71
475.484	4436.72
475.855	4517.62
476.227	4525.76
476.598	4622.03
476.97	4643.27
477.341	4751.06
477.713	4812.08
478.084	4837.16
478.455	5019.98
478.827	4981.79
479.198	5103.59
479.569	5187.89
479.94	5257.71
480.311	5284.61
480.682	5386.53
481.053	5461.55
481.424	5582.45
481.795	5601.21
482.166	5722.11
482.537	5772.73
482.908	5844.14
483.279	5895.44
483.65	5985.15
484.021	6139.73
484.391	6151.93
484.762	6246.62
485.133	6280.96
485.503	6354.86
485.874	6415.88
486.244	6517.34
486.615	6634.4
486.985	6700.16
487.356	6788.75
487.726	6807.73
488.097	6962.3
488.467	6933.83
488.837	7034.17
489.207	7157.78
489.578	7269.41
489.948	7331.78
490.318	7390.31
490.688	7449.75
491.058	7501.95
491.428	7567.94
491.798	7610.2
492.168	7766.12
492.538	7806.12
492.908	7879.79
493.278	7956.17
493.648	7964.99
494.017	8061.03
494.387	8097.87
494.757	8103.97
495.126	8273.23
495.496	8193.46
495.866	8244.08
496.235	8365.88
496.605	8454.47
496.974	8384.86
497.344	8520.23
497.713	8545.54
498.082	8562.71
498.452	8666.21
498.821	8666.89
499.19	8674.35
499.559	8740.56
499.928	8774.46
500.298	8768.81
500.667	8893.78
501.036	8871.86
501.405	8863.27
501.774	8914.34
502.143	8970.61
502.512	9015.58
502.88	9048.12
503.249	9082.93
503.618	9068.01
503.987	9105.3
504.356	9174.45
504.724	9200.44
505.093	9207.22
505.462	9199.53
505.83	9248.8
506.199	9293.09
506.567	9437.94
506.936	9349.13
507.304	9460.09
507.672	9418.74
508.041	9501.67
508.409	9514.78
508.777	9546.87
509.145	9566.08
509.514	9503.48
509.882	9567.88
510.25	9595
510.618	9658.05
510.986	9667.54
511.354	9678.62
511.722	9695.11
512.09	9820.53
512.458	9708.45
512.826	9789.12
513.193	9748.22
513.561	9872.06
513.929	9875.45
514.297	9931.94
514.664	9956.12
515.032	9960.42
515.4	9934.88
515.767	9958.38
516.135	9970.13
516.502	9897.59
516.869	9991.38
517.237	10022.56
517.604	9968.55
517.972	10035.67
518.339	10081.54
518.706	10019.17
519.073	10015.33
519.44	10079.28
519.808	10103.24
520.175	10110.69
520.542	10158.83
520.909	10183.24
521.276	10088.32
521.643	10191.82
522.009	10207.64
522.376	10216
522.743	10226.17
523.11	10302.55
523.477	10371.03
523.843	10358.6
524.21	10336.23
524.577	10410.35
524.943	10417.35
525.31	10372.61
525.676	10443.12
526.043	10408.31
526.409	10415.77
526.776	10434.53
527.142	10467.07
527.508	10460.29
527.874	10480.18
528.241	10500.51
528.607	10485.15
528.973	10465.71
529.339	10464.58
529.705	10478.37
530.071	10575.09
530.437	10532.38
530.803	10556.11
531.169	10591.81
531.535	10471.59
531.901	10466.17
532.267	10472.27
532.632	10470.69
532.998	10529.89
533.364	10498.03
533.73	10411.25
534.095	10503.68
534.461	10421.65
534.826	10382.55
535.192	10447.18
535.557	10437.92
535.923	10398.82
536.288	10344.59
536.653	10394.3
537.019	10313.85
537.384	10253.97
537.749	10286.74
538.114	10252.39
538.479	10221.2
538.845	10211.26
539.21	10168.32
539.575	10184.82
539.94	10205.83
540.305	10177.59
540.67	10162.44
541.034	10066.18
541.399	10123.12
541.764	10040.19
542.129	10070.24
542.494	10027.31
542.858	10024.82
543.223	9991.6
543.587	9969.91
543.952	9914.32
544.316	9856.92
544.681	9918.61
545.045	9834.77
545.41	9851.27
545.774	9680.65
546.138	9781.44
546.503	9722.91
546.867	9770.59
547.231	9688.33
547.595	9676.36
547.959	9708.22
548.324	9598.62
548.688	9543.93
549.052	9613.31
549.416	9528.56
549.779	9595.45
550.143	9471.84
550.507	9545.06
550.871	9463.71
551.235	9440.2
551.599	9437.49
551.962	9398.85
552.326	9406.31
552.689	9396.14
553.053	9298.74
553.417	9256.48
553.78	9350.94
554.143	9275.69
554.507	9245.41
554.87	9221
555.234	9314.56
555.597	9131.51
555.96	9158.63
556.323	9203.6
556.686	9155.92
557.05	9200.21
557.413	9231.85
557.776	9197.95
558.139	9218.74
558.502	9165.63
558.865	9104.62
559.228	9179.42
559.59	9087.67
559.953	9120.44
560.316	9162.7
560.679	9176.48
561.041	9166.09
561.404	9207.67
561.767	9117.5
562.129	9121.57
562.492	9169.7
562.854	9105.07
563.217	9060.55
563.579	9158.18
563.941	9112.53
564.304	9176.03
564.666	9219.19
565.028	9194.79
565.39	9104.17
565.753	9170.38
566.115	9210.61
566.477	9247.44
566.839	9217.61
567.201	9297.38
567.563	9212.64
567.925	9283.82
568.287	9278.4
568.648	9305.74
569.01	9320.43
569.372	9328.34
569.734	9304.84
570.095	9397.04
570.457	9367.89
570.819	9296.7
571.18	9341.22
571.542	9324.27
571.903	9352.75
572.265	9416.93
572.626	9408.11
572.987	9390.49
573.349	9417.15
573.71	9471.84
574.071	9425.29
574.432	9468.68
574.794	9551.16
575.155	9554.1
575.516	9470.94
575.877	9521.78
576.238	9471.84
576.599	9539.18
576.96	9565.4
577.32	9608.56
577.681	9573.53
578.042	9620.76
578.403	9565.17
578.763	9589.35
579.124	9603.59
579.485	9646.53
579.845	9657.6
580.206	9669.58
580.566	9660.54
580.927	9644.72
581.287	9692.63
581.648	9688.33
582.008	9700.99
582.368	9640.88
582.728	9732.4
583.089	9703.25
583.449	9725.85
583.809	9738.5
584.169	9690.59
584.529	9756.58
584.889	9792.96
585.249	9718.39
585.609	9632.29
585.969	9771.27
586.329	9732.63
586.688	9777.82
587.048	9709.12
587.408	9773.75
587.768	9719.97
588.127	9781.89
588.487	9773.75
588.846	9770.82
589.206	9833.87
589.565	9789.8
589.925	9839.06
590.284	9792.51
590.643	9816.01
591.003	9783.25
591.362	9891.27
591.721	9774.43
592.08	9849.23
592.44	9864.15
592.799	9827.76
593.158	9820.53
593.517	9823.92
593.876	9880.42
594.235	9827.31
594.593	9889.01
594.952	9816.47
595.311	9808.1
595.67	9858.72
596.029	9894.43
596.387	9858.72
596.746	9902.79
597.104	9858.27
597.463	9753.19
597.822	9838.39
598.18	9814.66
598.538	9802.23
598.897	9821.89
599.255	9801.1
599.613	9923.81
599.972	9864.15
600.33	9804.49
600.688	9890.36
601.046	9946.18
601.404	9935.11
601.762	9867.54
602.12	9920.19
602.478	9932.85
602.836	9888.78
603.194	9872.06
603.552	9964.94
603.91	9955.22
604.268	9898.04
604.625	9897.37
604.983	9929.68
605.341	9867.09
605.698	9962
606.056	9910.47
606.413	9983.69
606.771	10007.65
607.128	9921.55
607.485	9974.43
607.843	9917.71
608.2	9926.29
608.557	9966.29
608.914	9988.66
609.272	9996.57
609.629	10060.98
609.986	10075.89
610.343	9972.17
610.7	10037.7
611.057	9997.25
611.414	10058.04
611.771	10092.39
612.127	10077.7
612.484	10115.67
612.841	10157.7
613.198	10113.41
613.554	10024.6
613.911	10116.57
614.267	10102.33
614.624	10090.13
614.98	10185.27
615.337	10166.74
615.693	10185.04
616.05	10122.9
616.406	10165.61
616.762	10085.16
617.118	10155.44
617.475	10104.82
617.831	10244.25
618.187	10211.71
618.543	10152.73
618.899	10313.85
619.255	10252.39
619.611	10133.52
619.967	10279.96
620.323	10281.99
620.678	10190.24
621.034	10197.25
621.39	10189.34
621.746	10126.29
622.101	10282.44
622.457	10260.07
622.812	10280.86
623.168	10267.07
623.523	10269.56
623.879	10277.7
624.234	10167.19
624.589	10228.43
624.945	10312.5
625.3	10230.47
625.655	10164.25
626.01	10258.94
626.365	10203.57
626.72	10242.44
627.075	10201.31
627.43	10136.91
627.785	10190.47
628.14	10206.96
628.495	10276.11
628.85	10218.94
629.205	10170.13
629.559	10247.19
629.914	10178.94
630.269	10178.04
630.623	10123.12
630.978	10157.93
631.332	10169.22
631.687	10145.72
632.041	10123.58
632.396	10176.91
632.75	10092.39
633.104	10035.44
633.459	10066.63
633.813	9995.9
634.167	10049.23
634.521	10070.24
634.875	10093.52
635.229	9976.46
635.583	9939.63
635.937	10050.13
636.291	9958.16
636.645	9956.8
636.999	9898.72
637.352	9909.8
637.706	9867.99
638.06	9845.84
638.413	9895.11
638.767	9873.41
639.121	9943.92
639.474	9872.28
639.828	9860.53
640.181	9862.34
640.534	9852.85
640.888	9805.84
641.241	9776.01
641.594	9807.43
641.947	9779.4
642.301	9806.3
642.654	9755.22
643.007	9771.04
643.36	9748.44
643.713	9717.71
644.066	9787.54
644.419	9701.44
644.771	9698.73
645.124	9632.74
645.477	9573.76
645.83	9528.34
646.182	9464.38
646.535	9469.13
646.888	9419.41
647.24	9395.69
647.593	9472.07
647.945	9474.33
648.298	9399.07
648.65	9390.04
649.002	9441.56
649.355	9431.84
649.707	9439.53
650.059	9480.43
650.411	9580.99
650.763	9588.22
651.115	9736.69
651.467	9629.13
651.819	9702.57
652.171	9704.15
652.523	9695.56
652.875	9637.03
653.227	9581.89
653.578	9674.32
653.93	9684.49
654.282	9632.06
654.633	9526.53
654.985	9638.16
655.337	9606.3
655.688	9626.64
656.039	9622.12
656.391	9588.22
656.742	9611.72
657.094	9567.43
657.445	9568.34
657.796	9659.41
658.147	9587.54
658.498	9586.64
658.849	9634.55
659.2	9601.78
659.551	9563.14
659.902	9706.41
660.253	9538.28
660.604	9694.66
660.955	9622.57
661.306	9658.05
661.656	9625.96
662.007	9661.67
662.358	9644.04
662.708	9656.92
663.059	9640.42
663.409	9660.54
663.76	9664.15
664.11	9665.73
664.461	9675.23
664.811	9691.04
665.161	9682.01
665.511	9629.8
665.862	9600.43
666.212	9686.3
666.562	9676.58
666.912	9653.31
667.262	9616.92
667.612	9647.2
667.962	9727.43
668.312	9671.61
668.662	9737.37
669.011	9637.26
669.361	9562.69
669.711	9627.09
670.06	9671.61
670.41	9607.66
670.76	9591.16
671.109	9599.97
671.459	9591.16
671.808	9638.16
672.157	9669.12
672.507	9576.02
672.856	9605.62
673.205	9599.07
673.554	9618.5
673.904	9591.39
674.253	9584.15
674.602	9553.2
674.951	9491.05
675.3	9340.77
675.649	9537.83
675.998	9594.32
676.346	9521.78
676.695	9488.34
677.044	9419.41
677.393	9423.93
677.741	9451.5
678.09	9416.93
678.438	9435.46
678.787	9435.91
679.135	9406.98
679.484	9352.97
679.832	9414.89
680.181	9350.94
680.529	9310.94
680.877	9335.8
681.225	9274.33
681.573	9310.26
681.922	9284.28
682.27	9299.42
682.618	9278.85
682.966	9190.04
683.314	9243.6
683.661	9222.58
684.009	9180.55
684.357	9183.71
684.705	9158.63
685.053	9178.29
685.4	9138.52
685.748	9099.2
686.095	9105.52
686.443	9046.77
686.79	9050.61
687.138	9079.31
687.485	9025.98
687.832	9024.4
688.18	8991.85
688.527	8950.27
688.874	8885.42
689.221	8875.92
689.568	8875.25
689.915	8833.44
690.262	8874.57
690.609	8804.51
690.956	8742.59
691.303	8695.14
691.65	8683.61
691.997	8666.21
692.344	8626.44
692.69	8655.59
693.037	8656.5
693.383	8550.51
693.73	8627.12
694.077	8554.8
694.423	8447.01
694.769	8491.08
695.116	8424.19
695.462	8440.46
695.808	8418.99
696.155	8409.5
696.501	8376.5
696.847	8343.96
697.193	8244.3
697.539	8325.2
697.885	8177.41
698.231	8212.89
698.577	8203.17
698.923	8152.1
699.269	8114.36
699.614	8035.95
699.96	8020.58
700.306	8022.84
700.651	7983.74
700.997	7978.55
701.342	7997.53
701.688	7926.57
702.033	7873.69
702.379	7815.84
702.724	7898.55
703.069	7851.77
703.415	7733.81
703.76	7774.03
704.105	7758.67
704.45	7714.15
704.795	7631.66
705.14	7622.62
705.485	7655.62
705.83	7614.94
706.175	7585.34
706.52	7528.39
706.865	7514.83
707.209	7483.65
707.554	7496.75
707.899	7540.37
708.243	7386.7
708.588	7380.6
708.932	7406.81
709.277	7390.31
709.621	7330.43
709.966	7314.61
710.31	7347.15
710.654	7249.75
710.998	7283.2
711.342	7275.97
711.687	7244.56
712.031	7234.39
712.375	7208.4
712.719	7165.46
713.063	7191
713.407	7148.74
713.75	7129.08
714.094	7103.32
714.438	7148.51
714.782	7121.62
715.125	7103.09
715.469	7099.25
715.812	7039.14
716.156	7049.76
716.499	7092.92
716.843	7050.21
717.186	6995.97
717.53	7061.51
717.873	7007.5
718.216	6988.52
718.559	6979.93
718.902	6971.79
719.246	6899.93
719.589	6963.88
719.932	6943.32
720.275	6944.9
720.617	6907.84
720.96	6894.73
721.303	6913.94
721.646	6902.87
721.989	6951
722.331	6880.05
722.674	6850.22
723.016	6802.98
723.359	6863.32
723.701	6802.08
724.044	6825.13
724.386	6800.95
724.729	6869.88
725.071	6838.92
725.413	6828.52
725.755	6786.94
726.097	6760.73
726.439	6765.92
726.782	6767.28
727.124	6813.15
727.465	6751.91
727.807	6815.87
728.149	6749.2
728.491	6715.98
728.833	6739.03
729.175	6744.68
729.516	6736.77
729.858	6664.68
730.199	6811.8
730.541	6716.89
730.882	6719.37
731.224	6720.95
731.565	6750.56
731.906	6764.57
732.248	6721.18
732.589	6725.47
732.93	6695.42
733.271	6685.7
733.612	6694.51
733.953	6727.73
734.294	6739.94
734.635	6724.34
734.976	6777.22
735.317	6758.47
735.658	6731.35
735.999	6715.08
736.339	6709.43
736.68	6807.96
737.021	6757.79
737.361	6699.26
737.702	6709.2
738.042	6736.55
738.383	6705.36
738.723	6797.11
739.063	6755.75
739.404	6791.69
739.744	6849.76
740.084	6780.61
740.424	6812.48
740.764	6830.33
741.104	6854.74
741.444	6803.66
741.784	6806.6
742.124	6921.85
742.464	6910.33
742.804	6834.62
743.143	6920.27
743.483	6840.27
743.823	6927.05
744.162	6911.23
744.502	6979.93
744.841	6964.11
745.181	7065.8
745.52	7014.05
745.86	7072.58
746.199	7132.69
746.538	7156.2
746.877	7205.69
747.216	7215.86
747.556	7234.61
747.895	7257.66
748.234	7309.19
748.573	7339.02
748.911	7386.25
749.25	7492.91
749.589	7423.76
749.928	7623.75
750.267	7657.65
750.605	7735.16
750.944	7764.77
751.283	7778.55
751.621	7937.42
751.96	7998.89
752.298	8068.49
752.636	8204.98
752.975	8269.84
753.313	8310.74
753.651	8469.83
753.989	8494.92
754.327	8616.04
754.666	8700.79
755.004	8817.62
755.342	8946.21
755.679	9066.65
756.017	9164.5
756.355	9404.72
756.693	9406.08
757.031	9593.19
757.368	9659.18
757.706	9839.52
758.044	10094.2
758.381	10146.63
758.719	10251.26
759.056	10442.44
759.394	10551.59
759.731	10796.33
760.068	10819.6
760.405	11019.6
760.743	11144.11
761.08	11357.89
761.417	11519.7
761.754	11729.18
762.091	11921.95
762.428	11962.62
762.765	12129.17
763.102	12437.87
763.438	12515.15
763.775	12653.45
764.112	12881.92
764.449	13086.44
764.785	13203.72
765.122	13309.48
765.458	13430.38
765.795	13568.23
766.131	13842.8
766.467	13911.72
766.804	14080.53
767.14	14230.13
767.476	14346.06
767.812	14425.61
768.148	14652.5
768.485	14714.64
768.821	14851.81
769.157	15023.11
769.492	15116.44
769.828	15347.39
770.164	15339.26
770.5	15448.41
770.836	15590.32
771.171	15659.25
771.507	15816.31
771.842	15855.85
772.178	16044.55
772.513	16168.16
772.849	16219.23
773.184	16224.43
773.519	16426.69
773.855	16413.13
774.19	16478.89
774.525	16531.99
774.86	16749.84
775.195	16748.71
775.53	16736.51
775.865	16787.58
776.2	16872.32
776.535	16842.95
776.87	16897.63
777.205	16947.13
777.539	17061.92
777.874	17124.3
778.209	17046.56
778.543	17209.49
778.878	17173.33
779.212	17277.96
779.547	17256.27
779.881	17384.18
780.215	17272.77
780.55	17383.05
780.884	17344.18
781.218	17343.72
781.552	17500.1
781.886	17390.73
782.22	17348.7
782.554	17353.22
782.888	17216.04
783.222	17300.11
783.556	17381.92
783.889	17346.21
784.223	17350.28
784.557	17249.94
784.89	17331.3
785.224	17237.29
785.557	17283.61
785.891	17269.83
786.224	17254.01
786.558	17405.64
786.891	17223.28
787.224	17212.88
787.557	17172.2
787.891	17226.89
788.224	17291.97
788.557	17270.05
788.89	17263.73
789.223	17186.44
789.556	17151.64
789.888	17076.16
790.221	17057.4
790.554	17011.3
790.887	17018.08
791.219	17003.39
791.552	17027.8
791.884	16918.88
792.217	16932.44
792.549	16979.44
792.882	16795.26
793.214	16833.46
793.546	16816.73
793.879	16800.01
794.211	16632.78
794.543	16883.17
794.875	16801.14
795.207	16805.43
795.539	16704.19
795.871	16727.92
796.203	16546.68
796.535	16528.15
796.867	16411.77
797.198	16497.65
797.53	16449.06
797.862	16397.08
798.193	16453.13
798.525	16350.98
798.856	16397.08
799.188	16270.53
799.519	16249.52
799.85	16093.59
800.182	16103.31
800.513	16151.44
800.844	15993.7
801.175	16142.63
801.506	16071.44
801.837	16050.2
802.168	15941.95
802.499	15925.01
802.83	15933.59
803.161	15854.05
803.491	15880.49
803.822	15854.27
804.153	15797.78
804.483	15641.85
804.814	15623.54
805.145	15679.81
805.475	15672.13
805.805	15491.57
806.136	15601.85
806.466	15557.11
806.796	15491.34
807.126	15452.48
807.457	15386.71
807.787	15431.01
808.117	15267.4
808.447	15235.31
808.777	15333.38
809.107	15257
809.436	15270.11
809.766	15204.12
810.096	15126.38
810.426	15095.42
810.755	15199.83
811.085	15094.52
811.414	15125.25
811.744	14876.9
812.073	14976.1
812.403	14958.7
812.732	14898.59
813.061	14922.55
813.39	14871.25
813.719	14751.93
814.049	14840.51
814.378	14819.72
814.707	14772.94
815.036	14812.49
815.365	14661.08
815.693	14599.84
816.022	14582.67
816.351	14551.03
816.68	14486.85
817.008	14585.83
817.337	14434.42
817.665	14422.9
817.994	14404.37
818.322	14416.57
818.651	14327.31
818.979	14295.9
819.307	14398.72
819.636	14345.16
819.964	14236.91
820.292	14281.43
820.62	14199.63
820.948	14268.78
821.276	14309
821.604	14287.08
821.932	14267.87
822.259	14297.48
822.587	14303.8
822.915	14269.46
823.243	14289.12
823.57	14206.41
823.898	14265.84
824.225	14193.98
824.553	14178.16
824.88	14244.82
825.207	14196.91
825.535	14247.99
825.862	14271.49
826.189	14249.12
826.516	14318.95
826.843	14356.91
827.17	14287.76
827.497	14305.39
827.824	14263.58
828.151	14304.03
828.478	14228.78
828.805	14332.05
829.131	14234.65
829.458	14271.94
829.785	14212.51
830.111	14245.73
830.438	14327.98
830.764	14195.56
831.09	14298.38
831.417	14207.76
831.743	14192.85
832.069	14200.98
832.395	14232.17
832.722	14275.56
833.048	14165.05
833.374	14232.62
833.7	14088.22
834.026	14210.25
834.351	14142.68
834.677	14176.35
835.003	14157.14
835.329	14154.2
835.654	14070.36
835.98	14140.42
836.306	14106.97
836.631	13918.96
836.956	14111.04
837.282	14050.48
837.607	14024.04
837.932	13979.97
838.258	14010.71
838.583	14000.54
838.908	13919.18
839.233	13982.68
839.558	13877.6
839.883	13800.32
840.208	13847.09
840.533	13764.16
840.858	13819.07
841.182	13860.88
841.507	13757.38
841.832	13732.07
842.156	13686.19
842.481	13652.3
842.805	13714.22
843.13	13626.31
843.454	13592.18
843.778	13531.85
844.103	13563.03
844.427	13552.19
844.751	13505.41
845.075	13514.22
845.399	13391.74
845.723	13362.36
846.047	13326.43
846.371	13272.87
846.695	13237.17
847.019	13175.7
847.343	13092.99
847.666	13039.66
847.99	13007.79
848.313	12960.34
848.637	12896.38
848.96	12874.46
849.284	12870.85
849.607	12728.93
849.931	12681.47
850.254	12717.18
850.577	12569.16
850.9	12512.44
851.223	12502.27
851.546	12487.58
851.869	12368.26
852.192	12401.48
852.515	12246.91
852.838	12257.98
853.161	12177.98
853.483	12146.57
853.806	12059.34
854.129	12081.72
854.451	12095.5
854.774	11974.83
855.096	11992.23
855.419	11944.77
855.741	11803.08
856.063	11899.8
856.385	11836.98
856.708	11796.98
857.03	11737.09
857.352	11693.7
857.674	11708.84
857.996	11656.64
858.318	11540.71
858.64	11610.32
858.961	11492.58
859.283	11502.52
859.605	11370.77
859.926	11478.12
860.248	11417.33
860.57	11379.59
860.891	11461.17
861.212	11339.36
861.534	11243.55
861.855	11237.67
862.176	11302.75
862.498	11260.95
862.819	11328.97
863.14	11163.32
863.461	11072.93
863.782	11175.07
864.103	11173.94
864.424	11070.9
864.745	11124.68
865.065	11060.95
865.386	11025.02
865.707	10926.27
866.027	10968.75
866.348	11033.61
866.668	10981.86
866.989	10924.91
867.309	10919.26
867.63	10931.92
867.95	10837.91
868.27	10832.03
868.59	10873.39
868.91	10799.49
869.23	10855.76
869.55	10771.47
869.87	10831.35
870.19	10718.14
870.51	10813.28
870.83	10794.07
871.15	10630.91
871.469	10648.53
871.789	10720.4
872.109	10731.02
872.428	10672.49
872.748	10638.82
873.067	10640.17
873.386	10578.7
873.706	10632.94
874.025	10562.89
874.344	10528.99
874.663	10490.8
874.982	10532.83
875.301	10541.19
875.62	10506.62
875.939	10500.51
876.258	10525.15
876.577	10441.08
876.896	10396.34
877.214	10367.86
877.533	10436.11
877.852	10398.6
878.17	10361.31
878.489	10390.91
878.807	10292.16
879.125	10290.12
879.444	10371.7
879.762	10238.6
880.08	10238.83
880.398	10173.52
880.716	10230.69
881.034	10151.15
881.352	10202.22
881.67	10163.57
881.988	10106.63
882.306	10114.08
882.624	10066.63
882.941	10077.25
883.259	10018.49
883.577	9923.35
883.894	9912.73
884.212	9928.33
884.529	9980.75
884.846	9903.47
885.164	9844.49
885.481	9833.87
885.798	9813.75
886.115	9793.41
886.432	9779.4
886.75	9784.38
887.067	9778.95
887.383	9733.76
887.7	9700.76
888.017	9631.39
888.334	9659.63
888.651	9664.6
888.967	9590.03
889.284	9554.1
889.6	9619.86
889.917	9504.38
890.233	9523.14
890.55	9454.67
890.866	9483.59
891.182	9431.39
891.498	9468.23
891.815	9374.44
892.131	9385.29
892.447	9315.91
892.763	9345.52
893.079	9221
893.395	9202.7
893.71	9249.93
894.026	9197.05
894.342	9186.2
894.657	9075.47
894.973	9112.3
895.289	9025.75
895.604	9035.24
895.92	8937.84
896.235	8945.98
896.55	8943.49
896.865	8904.4
897.181	8889.94
897.496	8838.41
897.811	8817.85
898.126	8814.23
898.441	8751.41
898.756	8727.68
899.071	8676.38
899.386	8676.38
899.7	8589.6
900.015	8585.31
900.33	8502.6
900.644	8518.42
900.959	8464.41
901.273	8418.54
901.588	8416.95
901.902	8436.61
902.216	8360.01
902.531	8346.45
902.845	8359.55
903.159	8208.82
903.473	8258.77
903.787	8199.11
904.101	8170.63
904.415	8122.5
904.729	8095.83
905.042	8089.5
905.356	8103.97
905.67	8034.37
905.984	8023.29
906.297	8000.69
906.611	7953.92
906.924	7953.46
907.237	7919.11
907.551	7897.42
907.864	7839.57
908.177	7809.06
908.491	7765.9
908.804	7695.39
909.117	7647.93
909.43	7660.36
909.743	7614.04
910.056	7588.28
910.368	7559.58
910.681	7472.35
910.994	7509.18
911.307	7480.26
911.619	7390.77
911.932	7368.62
912.244	7375.17
912.557	7339.47
912.869	7287.27
913.181	7253.37
913.494	7292.46
913.806	7222.63
914.118	7204.1
914.43	7194.84
914.742	7203.43
915.054	7107.38
915.366	7077.33
915.678	7057.44
915.99	7042.3
916.302	6984.45
916.613	6937.22
916.925	6919.14
917.236	6919.14
917.548	6913.49
917.859	6874.4
918.171	6874.62
918.482	6847.05
918.794	6712.59
919.105	6741.29
919.416	6706.94
919.727	6619.49
920.038	6710.11
920.349	6643.89
920.66	6610.9
920.971	6623.1
921.282	6580.62
921.593	6559.15
921.903	6506.5
922.214	6531.81
922.525	6474.41
922.835	6462.65
923.146	6400.96
923.456	6370.91
923.767	6347.18
924.077	6345.37
924.387	6299.72
924.697	6319.38
925.008	6253.62
925.318	6233.51
925.628	6233.51
925.938	6174.75
926.248	6116
926.558	6097.92
926.867	6071.7
927.177	6073.29
927.487	6050.46
927.796	5999.62
928.106	6019.73
928.416	5963.91
928.725	5953.29
929.034	5954.65
929.344	5928.21
929.653	5886.85
929.962	5844.14
930.271	5777.02
930.581	5743.35
930.89	5776.57
931.199	5693.64
931.508	5756.46
931.817	5692.05
932.125	5675.56
932.434	5664.03
932.743	5631.72
933.051	5644.15
933.36	5607.99
933.669	5602.56
933.977	5587.42
934.286	5514.88
934.594	5531.83
934.902	5465.39
935.21	5467.2
935.519	5423.81
935.827	5396.92
936.135	5354.44
936.443	5386.53
936.751	5302.23
937.059	5314.89
937.367	5307.66
937.674	5315.34
937.982	5295.91
938.29	5217.94
938.597	5253.2
938.905	5178.17
939.213	5169.36
939.52	5159.86
939.827	5181.56
940.135	5068.79
940.442	5090.26
940.749	5050.94
941.056	5082.35
941.363	5017.95
941.67	4993.77
941.977	4983.15
942.284	4933.66
942.591	4929.81
942.898	4919.87
943.205	4909.48
943.511	4854.79
943.818	4831.74
944.125	4837.16
944.431	4798.07
944.738	4820.21
945.044	4749.48
945.35	4745.41
945.657	4740.89
945.963	4734.11
946.269	4640.56
946.575	4675.81
946.881	4648.24
947.187	4596.94
947.493	4663.38
947.799	4579.77
948.105	4600.11
948.41	4535.25
948.716	4528.02
949.022	4549.71
949.327	4462.48
949.633	4472.2
949.938	4450.28
950.244	4455.48
950.549	4434.69
950.854	4398.53
951.16	4389.72
951.465	4379.77
951.77	4328.02
952.075	4305.65
952.38	4305.2
952.685	4296.38
952.99	4228.59
953.294	4233.56
953.599	4243.96
953.904	4223.39
954.209	4155.6
954.513	4177.74
954.818	4158.53
955.122	4162.83
955.426	4142.94
955.731	4086.9
956.035	4072.66
956.339	4051.64
956.643	4055.94
956.948	4065.2
957.252	4000.8
957.556	3988.37
957.86	4011.87
958.163	3975.71
958.467	3925.77
958.771	3941.59
959.075	3923.96
959.378	3888.71
959.682	3913.34
959.985	3883.51
960.289	3820.01
960.592	3857.3
960.896	3813.46
961.199	3842.84
961.502	3768.26
961.805	3757.19
962.108	3739.11
962.411	3764.19
962.714	3693.24
963.017	3718.32
963.32	3715.83
963.623	3689.17
963.926	3648.04
964.228	3669.73
964.531	3615.72
964.833	3626.8
965.136	3580.7
965.438	3583.86
965.741	3556.29
966.043	3539.79
966.345	3523.75
966.648	3540.92
966.95	3507.7
967.252	3474.26
967.554	3471.1
967.856	3447.37
968.158	3435.39
968.46	3411.66
968.761	3421.15
969.063	3415.96
969.365	3465.9
969.666	3411.89
969.968	3372.57
970.269	3347.26
970.571	3364.66
970.872	3316.07
971.174	3280.59
971.475	3280.37
971.776	3258.22
972.077	3227.71
972.378	3236.98
972.679	3209.18
972.98	3217.09
973.281	3213.47
973.582	3183.19
973.883	3149.97
974.183	3169.86
974.484	3135.06
974.785	3122.18
975.085	3099.81
975.386	3122.18
975.686	3116.3
975.986	3052.58
976.287	3094.38
976.587	3086.02
976.887	3002.18
977.187	3042.86
977.487	3010.09
977.787	2972.8
978.087	2994.05
978.387	2959.47
978.687	2973.93
978.987	2929.64
979.286	2919.02
979.586	2935.74
979.885	2894.39
980.185	2862.07
980.484	2873.37
980.784	2889.64
981.083	2862.07
981.382	2809.19
981.682	2849.64
981.981	2819.13
982.28	2794.5
982.579	2783.43
982.878	2735.52
983.177	2729.42
983.475	2756.31
983.774	2725.35
984.073	2687.84
984.372	2705.47
984.67	2711.34
984.969	2683.32
985.267	2731.45
985.566	2648.29
985.864	2627.05
986.162	2640.16
986.461	2644.9
986.759	2588.41
987.057	2578.92
987.355	2608.97
987.653	2567.62
987.951	2559.48
988.249	2535.75
988.547	2566.26
988.844	2517.67
989.142	2479.71
989.44	2504.79
989.737	2498.01
990.035	2477.22
990.332	2474.74
990.63	2467.28
990.927	2440.84
991.224	2435.19
991.521	2428.41
991.819	2412.82
992.116	2386.6
992.413	2411.01
992.71	2385.02
993.006	2405.13
993.303	2367.17
993.6	2370.33
993.897	2336.44
994.193	2356.1
994.49	2347.96
994.787	2331.24
995.083	2317.23
995.379	2307.06
995.676	2272.48
995.972	2278.81
996.268	2257.34
996.565	2213.5
996.861	2227.51
997.157	2203.78
997.453	2214.86
997.749	2210.79
998.044	2176.67
998.34	2173.5
998.636	2180.51
998.932	2163.78
999.227	2143.45
999.523	2154.52
999.818	2139.6
1000.114	2086.95
1000.409	2090.34
1000.704	2053.51
1001	2052.6
1001.295	2081.98
1001.59	2046.5
1001.885	2076.1
1002.18	2031.13
1002.475	2010.34
1002.77	2007.63
1003.065	1996.11
1003.359	1987.97
1003.654	1968.08
1003.949	1988.65
1004.243	1934.41
1004.538	1912.72
1004.832	1958.59
1005.127	1919.05
1005.421	1925.15
1005.715	1911.59
1006.009	1892.15
1006.304	1876.33
1006.598	1853.51
1006.892	1867.52
1007.186	1851.02
1007.48	1832.27
1007.773	1843.79
1008.067	1808.99
1008.361	1794.76
1008.655	1795.88
1008.948	1781.65
1009.242	1773.29
1009.535	1752.5
1009.829	1780.97
1010.122	1766.06
1010.415	1714.53
1010.708	1725.38
1011.001	1719.95
1011.295	1724.47
1011.588	1717.02
1011.881	1674.31
1012.173	1695.77
1012.466	1684.25
1012.759	1664.59
1013.052	1662.1
1013.344	1650.8
1013.637	1618.94
1013.93	1633.86
1014.222	1625.95
1014.514	1599.96
1014.807	1604.93
1015.099	1605.83
1015.391	1582.11
1015.683	1591.14
1015.976	1549.79
1016.268	1550.92
1016.56	1538.49
1016.851	1517.25
1017.143	1550.24
1017.435	1524.93
1017.727	1486.06
1018.018	1521.54
1018.31	1483.35
1018.602	1495.78
1018.893	1494.42
1019.185	1447.87
1019.476	1469.11
1019.767	1438.15
1020.058	1417.36
1020.35	1442.9
1020.641	1424.14
1020.932	1440.41
1021.223	1413.75
1021.514	1374.65
1021.804	1354.31
1022.095	1348.44
1022.386	1354.99
1022.677	1346.86
1022.967	1357.48
1023.258	1317.93
1023.548	1299.63
1023.839	1321.1
1024.129	1309.34
1024.419	1283.81
1024.709	1289.46
1025	1272.06
1025.29	1280.87
1025.58	1264.83
1025.87	1250.59
1026.16	1237.26
1026.449	1244.49
1026.739	1217.6
1027.029	1220.31
1027.319	1213.53
1027.608	1208.33
1027.898	1212.4
1028.187	1222.79
1028.477	1191.16
1028.766	1187.54
1029.055	1183.92
1029.344	1157.03
1029.634	1176.92
1029.923	1149.12
1030.212	1153.64
1030.501	1152.96
1030.79	1116.81
1031.078	1098.73
1031.367	1116.13
1031.656	1103.93
1031.945	1096.69
1032.233	1082.68
1032.522	1065.96
1032.81	1060.76
1033.099	1070.25
1033.387	1064.6
1033.675	1056.92
1033.963	1077.71
1034.251	1046.53
1034.54	1039.75
1034.828	1046.3
1035.116	1000.65
1035.403	1031.39
1035.691	1003.59
1035.979	1015.34
1036.267	1011.95
1036.554	993.19
1036.842	966.75
1037.129	1007.66
1037.417	972.86
1037.704	999.52
1037.992	966.08
1038.279	960.65
1038.566	931.5
1038.853	931.5
1039.14	931.5
