Data from hue_38_FLMS001491_00081.txt Node
Date: Tue Feb 07 17:32:05 GMT 2017
User: dcchb
Spectrometer: FLMS00149
Trigger mode: 0
Integration Time (sec): 2.000000E-2
Scans to average: 10
Electric dark correction enabled: true
Nonlinearity correction enabled: false
Boxcar width: 0
XAxis mode: Wavelengths
Number of Pixels in Spectrum: 2048
>>>>>Begin Spectral Data<<<<<
341.393	-17.34
341.776	-17.34
342.16	-17.34
342.543	-57.12
342.927	-58.25
343.31	-63.44
343.693	-67.06
344.077	-69.32
344.46	-61.64
344.843	-68.19
345.226	-51.02
345.61	-27.97
345.993	-24.35
346.376	-0.62
346.759	31.92
347.142	5.93
347.525	43.9
347.908	66.04
348.291	76.21
348.674	88.42
349.057	121.18
349.44	131.13
349.823	134.52
350.206	174.52
350.588	219.03
350.971	202.54
351.354	227.62
351.737	242.76
352.119	258.58
352.502	252.03
352.884	287.05
353.267	274.17
353.65	275.08
354.032	317.56
354.414	311.46
354.797	323.89
355.179	319.82
355.562	315.98
355.944	323.44
356.326	318.47
356.709	332.93
357.091	339.71
357.473	350.33
357.855	340.16
358.238	354.85
358.62	338.13
359.002	347.39
359.384	334.28
359.766	343.78
360.148	346.94
360.53	354.4
360.912	332.25
361.294	334.51
361.676	336.54
362.057	330.44
362.439	340.61
362.821	329.31
363.203	328.18
363.584	323.66
363.966	340.39
364.348	307.85
364.729	352.14
365.111	328.41
365.493	339.03
365.874	330.22
366.256	335.87
366.637	322.99
367.019	311.91
367.4	311.91
367.781	291.8
368.163	322.99
368.544	315.08
368.925	300.39
369.306	313.49
369.688	332.48
370.069	317.11
370.45	317.79
370.831	322.53
371.212	320.05
371.593	306.49
371.974	308.07
372.355	326.15
372.736	322.76
373.117	326.83
373.498	306.72
373.879	336.32
374.26	325.7
374.641	309.88
375.021	327.51
375.402	323.44
375.783	322.76
376.163	337.22
376.544	336.54
376.925	331.8
377.305	318.24
377.686	330.9
378.066	338.35
378.447	339.03
378.827	341.06
379.208	340.84
379.588	338.8
379.968	327.73
380.349	323.21
380.729	346.04
381.109	343.55
381.489	331.57
381.87	335.87
382.25	341.29
382.63	342.87
383.01	342.65
383.39	348.3
383.77	343.1
384.15	365.47
384.53	362.31
384.91	361.63
385.29	362.98
385.67	359.37
386.049	363.21
386.429	344.23
386.809	375.19
387.189	351.01
387.568	357.34
387.948	354.17
388.328	373.61
388.707	368.86
389.087	364.79
389.466	358.92
389.846	383.55
390.225	368.63
390.605	362.53
390.984	380.61
391.363	368.86
391.743	366.83
392.122	369.54
392.501	409.76
392.881	387.39
393.26	371.12
393.639	386.26
394.018	397.56
394.397	384
394.776	372.7
395.155	393.72
395.534	379.71
395.913	371.57
396.292	378.13
396.671	377.9
397.05	392.59
397.429	381.29
397.808	421.51
398.186	393.49
398.565	387.16
398.944	403.21
399.323	364.11
399.701	383.55
400.08	412.93
400.458	401.63
400.837	391.68
401.215	407.5
401.594	390.33
401.972	393.72
402.351	397.56
402.729	408.41
403.107	407.28
403.486	416.99
403.864	426.03
404.242	418.8
404.62	407.96
404.999	428.97
405.377	404.79
405.755	446.6
406.133	431.46
406.511	424.45
406.889	459.71
407.267	443.21
407.645	426.26
408.023	454.28
408.401	432.36
408.779	425.36
409.156	442.53
409.534	456.54
409.912	447.5
410.29	447.28
410.667	461.06
411.045	453.83
411.422	467.84
411.8	479.14
412.178	473.26
412.555	449.99
412.933	455.64
413.31	476.65
413.687	461.06
414.065	469.42
414.442	482.53
414.819	490.67
415.197	479.14
415.574	514.39
415.951	511.23
416.328	515.3
416.705	478.69
417.082	495.86
417.46	509.42
417.837	519.59
418.214	518.91
418.591	522.3
418.967	516.65
419.344	513.04
419.721	529.08
420.098	504
420.475	514.39
420.852	540.38
421.228	533.83
421.605	530.44
421.982	544.9
422.358	538.12
422.735	560.95
423.111	545.8
423.488	561.62
423.864	552.58
424.241	561.17
424.617	560.95
424.994	552.81
425.37	550.55
425.746	584.9
426.123	567.5
426.499	582.19
426.875	601.4
427.251	596.42
427.627	590.78
428.003	580.38
428.379	613.83
428.756	622.41
429.132	619.25
429.507	607.5
429.883	634.84
430.259	631.9
430.635	619.02
431.011	617.67
431.387	654.5
431.763	659.47
432.138	666.93
432.514	658.57
432.89	647.05
433.265	660.6
433.641	701.73
434.016	668.51
434.392	696.76
434.767	682.98
435.143	679.59
435.518	682.52
435.894	721.39
436.269	711.22
436.644	713.94
437.02	723.65
437.395	736.76
437.77	740.83
438.145	729.3
438.52	726.37
438.895	745.57
439.271	747.16
439.646	755.29
440.021	774.05
440.395	776.08
440.77	765.23
441.145	768.17
441.52	794.61
441.895	769.08
442.27	790.32
442.645	771.11
443.019	788.96
443.394	822.86
443.769	803.43
444.143	805.46
444.518	819.47
444.892	803.88
445.267	816.31
445.641	842.75
446.016	802.52
446.39	831
446.764	836.19
447.139	830.09
447.513	847.27
447.887	853.37
448.262	862.86
448.636	841.16
449.01	852.92
449.384	862.41
449.758	856.98
450.132	875.74
450.506	887.26
450.88	882.29
451.254	899.02
451.628	912.12
452.002	895.17
452.376	896.98
452.75	919.13
453.123	917.09
453.497	927.49
453.871	947.6
454.244	950.09
454.618	954.38
454.992	969.75
455.365	978.11
455.739	980.37
456.112	1017.88
456.486	996.41
456.859	1007.26
457.232	1026.02
457.606	1042.74
457.979	1070.31
458.352	1053.81
458.725	1059.46
459.099	1084.32
459.472	1118.45
459.845	1103.3
460.218	1106.24
460.591	1123.87
460.964	1141.5
461.337	1165.9
461.71	1183.98
462.083	1178.78
462.456	1181.04
462.829	1197.09
463.201	1217.2
463.574	1211.32
463.947	1230.08
464.32	1242.74
464.692	1281.15
465.065	1277.09
465.438	1324.32
465.81	1312.79
466.183	1359.79
466.555	1395.95
466.928	1358.21
467.3	1395.27
467.672	1412.9
468.045	1432.79
468.417	1450.19
468.789	1487.02
469.161	1522.5
469.534	1510.07
469.906	1562.05
470.278	1548.72
470.65	1570.41
471.022	1631.2
471.394	1663.74
471.766	1647.02
472.138	1676.4
472.51	1727.24
472.882	1746.23
473.253	1783.51
473.625	1822.61
473.997	1845.43
474.369	1901.93
474.74	1924.75
475.112	1978.99
475.484	1993.45
475.855	2063.05
476.227	2118.42
476.598	2159.77
476.97	2195.25
477.341	2251.07
477.713	2360.45
478.084	2325.42
478.455	2394.12
478.827	2450.84
479.198	2562.25
479.569	2543.49
479.94	2665.07
480.311	2719.98
480.682	2798.4
481.053	2874.33
481.424	2973.54
481.795	3000.2
482.166	3048.79
482.537	3115.45
482.908	3235.23
483.279	3295.56
483.65	3390.93
484.021	3455.78
484.391	3547.31
484.762	3609
485.133	3684.25
485.503	3813.97
485.874	3899.61
486.244	3958.82
486.615	4094.64
486.985	4153.62
487.356	4333.95
487.726	4357.23
488.097	4498.92
488.467	4579.37
488.837	4716.32
489.207	4775.52
489.578	4920.15
489.948	5009.42
490.318	5092.35
490.688	5181.84
491.058	5276.75
491.428	5409.63
491.798	5497.09
492.168	5639.23
492.538	5729.17
492.908	5873.57
493.278	5983.4
493.648	5997.64
494.017	6177.97
494.387	6266.33
494.757	6353.79
495.126	6474.01
495.496	6554.46
495.866	6633.55
496.235	6777.28
496.605	6867.22
496.974	6945.64
497.344	7039.87
497.713	7137.95
498.082	7254.78
498.452	7323.25
498.821	7378.85
499.19	7478.05
499.559	7600.31
499.928	7723.92
500.298	7815.9
500.667	7885.5
501.036	7925.72
501.405	8044.36
501.774	8089.34
502.143	8174.53
502.512	8252.49
502.88	8341.53
503.249	8393.51
503.618	8498.59
503.987	8607.74
504.356	8664.69
504.724	8732.48
505.093	8823.55
505.462	8877.11
505.83	8972.02
506.199	9085.02
506.567	9094.05
506.936	9144.67
507.304	9340.38
507.672	9370.66
508.041	9449.07
508.409	9515.96
508.777	9614.27
509.145	9709.41
509.514	9723.42
509.882	9835.73
510.25	9849.97
510.618	9928.16
510.986	10029.62
511.354	10063.75
511.722	10152.33
512.09	10256.96
512.458	10236.17
512.826	10434.36
513.193	10478.2
513.561	10479.78
513.929	10624.41
514.297	10668.02
514.664	10720.23
515.032	10799.32
515.4	10848.13
515.767	10988.69
516.135	10993.44
516.502	11005.64
516.869	11161.34
517.237	11227.33
517.604	11175.81
517.972	11329.02
518.339	11434.33
518.706	11388.23
519.073	11489.02
519.44	11542.35
519.808	11729.47
520.175	11762.46
520.542	11838.62
520.909	11923.36
521.276	11914.09
521.643	12008.33
522.009	12102.56
522.376	12173.3
522.743	12307.08
523.11	12371.26
523.477	12468.2
523.843	12580.06
524.21	12726.28
524.577	12680.63
524.943	12776.67
525.31	12855.09
525.676	12986.16
526.043	13007.17
526.409	13132.82
526.776	13229.09
527.142	13215.98
527.508	13258.92
527.874	13398.12
528.241	13412.13
528.607	13570.55
528.973	13665.23
529.339	13654.16
529.705	13779.81
530.071	13909.97
530.437	14014.83
530.803	14008.73
531.169	14139.57
531.535	14101.15
531.901	14203.07
532.267	14322.62
532.632	14353.13
532.998	14420.02
533.364	14470.18
533.73	14553.8
534.095	14714.25
534.461	14761.93
534.826	14791.31
535.192	14839.44
535.557	14960.57
535.923	14943.39
536.288	14935.26
536.653	15075.14
537.019	14998.53
537.384	15083.73
537.749	15125.08
538.114	15256.83
538.479	15261.58
538.845	15414.57
539.21	15428.8
539.575	15481.23
539.94	15624.05
540.305	15694.11
540.67	15628.8
541.034	15711.73
541.399	15809.58
541.764	15788.12
542.129	15927.32
542.494	15962.8
542.858	16106.98
543.223	16010.48
543.587	16153.53
543.952	16170.7
544.316	16247.76
544.681	16243.92
545.045	16312.4
545.41	16403.02
545.774	16448.21
546.138	16526.4
546.503	16569.34
546.867	16579.73
547.231	16735.66
547.595	16788.32
547.959	16884.36
548.324	16869.22
548.688	16987.41
549.052	16972.27
549.416	17077.35
549.779	17086.84
550.143	17130
550.507	17205.93
550.871	17297
551.235	17304.91
551.599	17392.59
551.962	17445.93
552.326	17444.57
552.689	17683.21
553.053	17564.11
553.417	17628.75
553.78	17824.22
554.143	17773.83
554.507	17912.81
554.87	17940.83
555.234	18122.07
555.597	17930.66
555.96	17999.13
556.323	18232.12
556.686	18166.58
557.05	18285.45
557.413	18454.94
557.776	18347.14
558.139	18534.71
558.502	18625.78
558.865	18575.84
559.228	18713.24
559.59	18845.21
559.953	18821.48
560.316	18894.93
560.679	18946.45
561.041	19115.71
561.404	19191.64
561.767	19229.83
562.129	19202.72
562.492	19419.88
562.854	19480.67
563.217	19397.74
563.579	19541.92
563.941	19604.96
564.304	19651.29
564.666	19853.55
565.028	19857.84
565.39	19936.71
565.753	19979.42
566.115	20077.49
566.477	20136.02
566.839	20210.6
567.201	20374.66
567.563	20235.68
567.925	20369.92
568.287	20495.79
568.648	20608.33
569.01	20716.8
569.372	20825.5
569.734	20654.43
570.095	20975.1
570.457	21029.11
570.819	21055.77
571.18	21127.86
571.542	21203.57
571.903	21383
572.265	21390.68
572.626	21493.05
572.987	21552.26
573.349	21658.02
573.71	21760.61
574.071	21774.85
574.432	21897.33
574.794	22268.62
575.155	22220.26
575.516	22105.01
575.877	22415.51
576.238	22398.11
576.599	22564.66
576.96	22662.74
577.32	22864.77
577.681	22848.72
578.042	22930.75
578.403	23113.8
578.763	23290.29
579.124	23349.05
579.485	23637.85
579.845	23843.5
580.206	23903.83
580.566	23989.71
580.927	24127.56
581.287	24281.68
581.648	24305.86
582.008	24595.79
582.368	24806.41
582.728	24945.84
583.089	25054.99
583.449	25158.49
583.809	25405.94
584.169	25604.13
584.529	25803.67
584.889	26199.14
585.249	25991.92
585.609	26082.76
585.969	26555.29
586.329	26674.16
586.688	26850.88
587.048	27097.42
587.408	27190.08
587.768	27311.88
588.127	27718.88
588.487	27768.14
588.846	28221.01
589.206	28108.7
589.565	28436.14
589.925	28768.11
590.284	28936.7
590.643	29154.54
591.003	29403.13
591.362	29692.84
591.721	29793.62
592.08	29997.91
592.44	30293.27
592.799	30334.17
593.158	30586.82
593.517	30743.88
593.876	31004.89
594.235	31133.93
594.593	31265.45
594.952	31564.2
595.311	31647.81
595.67	31997.86
596.029	32305.2
596.387	32448.92
596.746	32717.16
597.104	32667.9
597.463	32942.47
597.822	33244.15
598.18	33276.47
598.538	33457.93
598.897	33862.22
599.255	33741.09
599.613	34374.75
599.972	34177.24
600.33	34630.33
600.688	34588.07
601.046	34704.68
601.404	35125.46
601.762	35092.02
602.12	35541.95
602.478	35475.28
602.836	35925.67
603.194	35792.11
603.552	35930.19
603.91	35941.48
604.268	36422.38
604.625	36321.14
604.983	36653.33
605.341	36612.88
605.698	36932.42
606.056	37031.63
606.413	37205.63
606.771	37309.13
607.128	37580.99
607.485	37373.31
607.843	37567.88
608.2	37886.29
608.557	38100.75
608.914	38064.14
609.272	38262.33
609.629	38436.56
609.986	38648.76
610.343	38605.14
610.7	38881.52
611.057	38940.28
611.414	39173.49
611.771	39178.24
612.127	39406.25
612.484	39420.49
612.841	39749.07
613.198	39640.37
613.554	39820.7
613.911	39947.93
614.267	39960.81
614.624	40026.35
614.98	40116.29
615.337	40531.87
615.693	40422.27
616.05	40372.1
616.406	40825.42
616.762	40741.13
617.118	40813.9
617.475	40846.89
617.831	40970.96
618.187	41218.63
618.543	41301.8
618.899	41565.52
619.255	41364.62
619.611	41468.12
619.967	41613.88
620.323	41601
620.678	41642.8
621.034	41633.76
621.39	41708.11
621.746	41645.97
622.101	42266.97
622.457	42005.28
622.812	41986.98
623.168	42103.13
623.523	42130.47
623.879	42392.61
624.234	42132.51
624.589	42392.39
624.945	42387.42
625.3	42455.21
625.655	42481.88
626.01	42619.73
626.365	42524.81
626.72	42668.09
627.075	42562.55
627.43	42639.39
627.785	42489.33
628.14	42731.59
628.495	42773.85
628.85	42709.89
629.205	42611.37
629.559	42934.97
629.914	42703.57
630.269	42814.52
630.623	42720.52
630.978	42831.25
631.332	42808.87
631.687	42866.95
632.041	42703.11
632.396	42885.03
632.75	42812.72
633.104	42787.18
633.459	42686.39
633.813	42693.62
634.167	42788.08
634.521	42739.27
634.875	42825.37
635.229	42725.94
635.583	42695.66
635.937	42689.56
636.291	42609.78
636.645	42723
636.999	42529.11
637.352	42757.12
637.706	42528.2
638.06	42776.56
638.413	42522.55
638.767	42566.85
639.121	42572.27
639.474	42361.43
639.828	42318.27
640.181	42611.59
640.534	42510.13
640.888	42387.19
641.241	42200.75
641.594	42251.83
641.947	42498.37
642.301	42252.96
642.654	42344.48
643.007	42440.75
643.36	42306.51
643.713	42229.23
644.066	42443.69
644.419	42036.24
644.771	41863.36
645.124	41398.74
645.477	41529.81
645.83	41286.43
646.182	41142.48
646.535	40992.65
646.888	41076.94
647.24	40863.84
647.593	41124.85
647.945	41135.25
648.298	40970.28
648.65	40829.49
649.002	40795.82
649.355	41019.77
649.707	40875.37
650.059	41082.14
650.411	41483.71
650.763	41560.32
651.115	42105.39
651.467	41750.82
651.819	41807.54
652.171	41770.26
652.523	41688.23
652.875	41548.34
653.227	41558.06
653.578	41756.47
653.93	41633.31
654.282	41512.86
654.633	41541.79
654.985	41492.07
655.337	41619.53
655.688	41583.14
656.039	41742.01
656.391	41361
656.742	41415.46
657.094	41581.56
657.445	41572.97
657.796	41493.88
658.147	41426.54
658.498	41492.98
658.849	41487.33
659.2	41465.18
659.551	41369.36
659.902	41393.54
660.253	41379.08
660.604	41440.1
660.955	41215.02
661.306	41343.15
661.656	41197.17
662.007	41322.36
662.358	41262.7
662.708	41236.26
663.059	41325.07
663.409	41117.39
663.76	41339.99
664.11	41280.78
664.461	41301.12
664.811	41261.8
665.161	41217.96
665.511	41211.4
665.862	41173.66
666.212	41261.34
666.562	41282.36
666.912	41168.01
667.262	41105.19
667.612	41071.74
667.962	41186.54
668.312	41114.68
668.662	41264.96
669.011	41236.26
669.361	41111.97
669.711	41090.28
670.06	41119.88
670.41	41045.08
670.76	40975.7
671.109	41173.44
671.459	40951.07
671.808	40864.97
672.157	41128.24
672.507	40736.61
672.856	40881.69
673.205	40892.31
673.554	41096.83
673.904	40855.93
674.253	41027.23
674.602	40985.87
674.951	40434.02
675.3	40313.57
675.649	40820.68
675.998	40888.02
676.346	40988.58
676.695	40909.72
677.044	40675.15
677.393	40872.43
677.741	40825.88
678.09	40730.74
678.438	40636.05
678.787	40738.19
679.135	40813.45
679.484	40384.53
679.832	40714.01
680.181	40339.56
680.529	40403.06
680.877	40326.68
681.225	40388.15
681.573	40580.68
681.922	40151.54
682.27	40081.94
682.618	40191.77
682.966	40024.77
683.314	40157.42
683.661	39994.26
684.009	39855.51
684.357	39777.99
684.705	39831.78
685.053	39703.87
685.4	39658.45
685.748	39462.52
686.095	39509.98
686.443	39448.51
686.79	39433.14
687.138	39356.08
687.485	39531.9
687.832	39177.11
688.18	39384.78
688.527	39018.69
688.874	39075.41
689.221	38954.51
689.568	38960.61
689.915	38961.52
690.262	38831.8
690.609	38709.32
690.956	38596.1
691.303	38475.88
691.65	38354.98
691.997	38360.4
692.344	38256
692.69	38190.01
693.037	38176
693.383	37893.3
693.73	38031.15
694.077	37582.57
694.423	37754.54
694.769	37709.12
695.116	37602.01
695.462	37497.6
695.808	37480.43
696.155	37380.09
696.501	37219.42
696.847	37199.53
697.193	36817.39
697.539	37053.55
697.885	36700.79
698.231	36716.38
698.577	36734.68
698.923	36613.11
699.269	36478.65
699.614	36368.14
699.96	36285.43
700.306	36353.9
700.651	36218.77
700.997	36007.02
701.342	36014.7
701.688	35968.38
702.033	35901.49
702.379	35814.48
702.724	35653.36
703.069	35797.31
703.415	35298.11
703.76	35302.18
704.105	35371.1
704.45	35337.21
704.795	35056.76
705.14	34993.49
705.485	35004.11
705.83	34766.83
706.175	34861.74
706.52	34751.69
706.865	34720.05
707.209	34755.75
707.554	34525.7
707.899	34576.77
708.243	34316.22
708.588	34202.1
708.932	34111.02
709.277	34005.94
709.621	34078.48
709.966	33861.31
710.31	33972.95
710.654	33620.19
710.998	33765.27
711.342	33741.54
711.687	33616.8
712.031	33489.57
712.375	33399.86
712.719	33515.33
713.063	33292.74
713.407	33578.61
713.75	33281.22
714.094	33256.36
714.438	33049.36
714.782	33234.21
715.125	32904.05
715.469	33051.39
715.812	33001.45
716.156	32724.62
716.499	32836.93
716.843	32778.18
717.186	32536.83
717.53	32776.37
717.873	32590.39
718.216	32511.74
718.559	32327.12
718.902	32180.45
719.246	32321.69
719.589	32138.42
719.932	32098.65
720.275	32140.45
720.617	31900.46
720.96	32048.25
721.303	31938.2
721.646	31989.05
721.989	31735.27
722.331	31659.34
722.674	31722.84
723.016	31723.29
723.359	31690.97
723.701	31703.18
724.044	31452.56
724.386	31389.06
724.729	31444.43
725.071	31293.24
725.413	31458.89
725.755	31225.22
726.097	31198.78
726.439	31234.49
726.782	31079.69
727.124	31274.94
727.465	30999.47
727.807	30966.47
728.149	31002.86
728.491	30934.61
728.833	31029.98
729.175	30855.29
729.516	30829.3
729.858	30705.69
730.199	30699.81
730.541	30616.88
730.882	30566.94
731.224	30596.99
731.565	30340.05
731.906	30451.69
732.248	30536.43
732.589	30319.03
732.93	30269.77
733.271	30267.74
733.612	30368.07
733.953	30399.48
734.294	30202.2
734.635	29953.39
734.976	30141.64
735.317	29999.95
735.658	29959.95
735.999	29953.39
736.339	29823.68
736.68	29956.1
737.021	29893.51
737.361	29806.5
737.702	29975.77
738.042	29745.72
738.383	29776.9
738.723	29779.84
739.063	29646.51
739.404	29597.92
739.744	29571.26
740.084	29518.6
740.424	29682.67
740.764	29505.04
741.104	29592.72
741.444	29341.66
741.784	29294.2
742.124	29338.27
742.464	29356.8
742.804	29195.9
743.143	29186.41
743.483	29153.41
743.823	28976.92
744.162	29049.46
744.502	29061.67
744.841	28783.93
745.181	29091.49
745.52	28896.92
745.86	28920.2
746.199	28880.43
746.538	28735.8
746.877	28883.82
747.216	28715.91
747.556	28663.26
747.895	28676.14
748.234	28482.25
748.573	28532.64
748.911	28425.75
749.25	28439.31
749.589	28341.91
749.928	28310.05
750.267	28407.67
750.605	28221.69
750.944	28266.43
751.283	28183.04
751.621	28185.98
751.96	28016.49
752.298	27983.5
752.636	27981.69
752.975	27852.21
753.313	27774.47
753.651	27968.59
753.989	27703.06
754.327	27655.15
754.666	27543.29
755.004	27657.41
755.342	27486.57
755.679	27563.17
756.017	27465.1
756.355	27472.33
756.693	27326.34
757.031	27287.93
757.368	27126.57
757.706	27224.2
758.044	27101.72
758.381	27178.78
758.719	26955.28
759.056	26889.29
759.394	27014.04
759.731	26730.43
760.068	26740.6
760.405	26641.39
760.743	26680.26
761.08	26703.08
761.417	26486.59
761.754	26377.67
762.091	26397.55
762.428	26175.19
762.765	26148.52
763.102	26259.25
763.438	26075.53
763.775	25920.5
764.112	25943.78
764.449	26001.18
764.785	25838.02
765.122	25558.25
765.458	25473.74
765.795	25519.16
766.131	25422.21
766.467	25347.19
766.804	25258.83
767.14	25077.59
767.476	25141.99
767.812	25088.44
768.148	24977.48
768.485	24879.85
768.821	24685.74
769.157	24697.03
769.492	24733.87
769.828	24611.39
770.164	24453.2
770.5	24445.06
770.836	24346.76
771.171	24233.77
771.507	24181.57
771.842	23926.88
772.178	23966.21
772.513	23840.33
772.849	23865.64
773.184	23728.92
773.519	23688.93
773.855	23610.74
774.19	23515.82
774.525	23354.24
774.86	23336.84
775.195	23413.68
775.53	23335.26
775.865	23054.37
776.2	22837.87
776.535	22758.1
776.87	22830.64
777.205	22805.56
777.539	22763.53
777.874	22649.4
778.209	22484.21
778.543	22416.42
778.878	22295.06
779.212	22266.59
779.547	22150.89
779.881	22153.6
780.215	21946.37
780.55	22104.33
780.884	21790.22
781.218	21749.09
781.552	21888.07
781.886	21780.95
782.22	21560.62
782.554	21512.71
782.888	21258.71
783.222	21354.07
783.556	21191.82
783.889	21148.88
784.223	20970.35
784.557	20892.39
784.89	21021.42
785.224	20838.83
785.557	20801.77
785.891	20591.61
786.224	20735.33
786.558	20554.77
786.891	20482
787.224	20402.23
787.557	20352.74
787.891	20265.29
788.224	20186.19
788.557	20292.63
788.89	20180.54
789.223	20183.25
789.556	20068.23
789.888	19866.88
790.221	19875.47
790.554	19722.93
790.887	19762.7
791.219	19635.25
791.552	19573.33
791.884	19489.04
792.217	19481.58
792.549	19397.96
792.882	19263.5
793.214	19226.22
793.546	19153.45
793.879	19018.99
794.211	18925.89
794.543	19001.59
794.875	18846.11
795.207	18929.95
795.539	18789.62
795.871	18783.29
796.203	18686.34
796.535	18566.12
796.867	18457.2
797.198	18451.55
797.53	18440.7
797.862	18240.48
798.193	18299.91
798.525	18211.78
798.856	18218.33
799.188	18073.93
799.519	17961.62
799.85	17874.39
800.182	17919.13
800.513	17933.6
800.844	17738.8
801.175	17820.15
801.506	17808.63
801.837	17609.99
802.168	17607.96
802.499	17646.15
802.83	17430.56
803.161	17500.16
803.491	17433.72
803.822	17351.24
804.153	17291.13
804.483	17207.51
804.814	17155.99
805.145	17134.75
805.475	17072.83
805.805	16996.45
806.136	17005.26
806.466	16918.48
806.796	16952.61
807.126	16871.93
807.457	16811.14
807.787	16738.15
808.117	16691.14
808.447	16662.22
808.777	16657.47
809.107	16566.4
809.436	16520.53
809.766	16568.43
810.096	16386.52
810.426	16363.24
810.755	16355.33
811.085	16264.26
811.414	16351.49
811.744	16124.15
812.073	16174.55
812.403	16207.09
812.732	16071.5
813.061	16018.17
813.39	16008.45
813.719	15962.35
814.049	16033.08
814.378	15914.21
814.707	15816.36
815.036	15764.84
815.365	15708.12
815.693	15564.17
816.022	15651.4
816.351	15560.78
816.68	15570.49
817.008	15561.23
817.337	15361.46
817.665	15385.41
817.994	15410.5
818.322	15317.39
818.651	15254.8
818.979	15160.56
819.307	15292.99
819.636	15282.59
819.964	15099.55
820.292	15175.25
820.62	15185.87
820.948	15112.65
821.276	15119.21
821.604	15191.75
821.932	15160.79
822.259	15121.24
822.587	15100.22
822.915	15093.9
823.243	15104.74
823.57	15066.33
823.898	15047.8
824.225	15012.77
824.553	14965.54
824.88	15057.51
825.207	15022.26
825.535	15062.94
825.862	15008.02
826.189	14978.19
826.516	15043.73
826.843	15077.4
827.17	15074.46
827.497	15102.26
827.824	15023.39
828.151	15044.18
828.478	15014.8
828.805	15031.07
829.131	15100.45
829.458	15035.37
829.785	14966.67
830.111	14977.29
830.438	15021.36
830.764	15001.24
831.09	15022.94
831.417	14991.98
831.743	14992.66
832.069	14959.89
832.395	14857.52
832.722	15013.67
833.048	14906.56
833.374	14942.71
833.7	14880.8
834.026	14827.01
834.351	14881.93
834.677	14855.03
835.003	14830.63
835.329	14866.11
835.654	14906.56
835.98	14789.27
836.306	14759.67
836.631	14679.22
836.956	14712.66
837.282	14642.61
837.607	14679.44
837.932	14558.54
838.258	14635.15
838.583	14528.04
838.908	14549.28
839.233	14507.92
839.558	14533.23
839.883	14459.11
840.208	14377.08
840.533	14375.5
840.858	14425.89
841.182	14364.88
841.507	14375.05
841.832	14278.55
842.156	14324.2
842.481	14278.1
842.805	14239.23
843.13	14177.54
843.454	14193.81
843.778	14112.68
844.103	14089.4
844.427	14001.5
844.751	14108.84
845.075	13996.52
845.399	13977.32
845.723	13889.41
846.047	13939.8
846.371	13770.77
846.695	13753.59
847.019	13691.67
847.343	13551.56
847.666	13586.14
847.99	13570.1
848.313	13477.67
848.637	13399.48
848.96	13408.97
849.284	13365.13
849.607	13305.24
849.931	13183.44
850.254	13091.46
850.577	13105.93
850.9	13059.15
851.223	12968.76
851.546	12912.03
851.869	12832.49
852.192	12896.21
852.515	12721.76
852.838	12775.54
853.161	12691.47
853.483	12745.94
853.806	12601.53
854.129	12582.32
854.451	12560.63
854.774	12435.66
855.096	12516.34
855.419	12370.13
855.741	12403.35
856.063	12353.4
856.385	12215.78
856.708	12223.24
857.03	12171.04
857.352	12143.69
857.674	12087.87
857.996	12074.77
858.318	12019.4
858.64	12001.1
858.961	11925.39
859.283	11966.97
859.605	11878.61
859.926	11884.04
860.248	11834.77
860.57	11758.17
860.891	11744.38
861.212	11716.58
861.534	11732.63
861.855	11645.4
862.176	11690.6
862.498	11748.67
862.819	11626.64
863.14	11673.65
863.461	11567.44
863.782	11510.04
864.103	11590.03
864.424	11533.09
864.745	11512.3
865.065	11502.58
865.386	11459.19
865.707	11368.8
866.027	11390.27
866.348	11385.97
866.668	11430.26
866.989	11322.92
867.309	11234.34
867.63	11303.49
867.95	11319.08
868.27	11231.63
868.59	11237.05
868.91	11188.01
869.23	11186.43
869.55	11155.7
869.87	11202.25
870.19	11154.79
870.51	11189.82
870.83	11122.48
871.15	11120.67
871.469	11146.88
871.789	11117.05
872.109	11018.75
872.428	11026.43
872.748	11037.73
873.067	10996.15
873.386	11061.46
873.706	10969.26
874.025	10909.6
874.344	10934.23
874.663	10957.28
874.982	10897.62
875.301	10864.4
875.62	10859.88
875.939	10784.41
876.258	10807
876.577	10779.89
876.896	10773.78
877.214	10729.72
877.533	10767.46
877.852	10730.85
878.17	10673
878.489	10735.14
878.807	10672.77
879.125	10626.44
879.444	10620.57
879.762	10582.15
880.08	10629.38
880.398	10528.82
880.716	10612.43
881.034	10511.19
881.352	10524.75
881.67	10510.29
881.988	10453.79
882.306	10385.55
882.624	10387.81
882.941	10367.92
883.259	10323.4
883.577	10389.84
883.894	10284.76
884.212	10247.47
884.529	10273.01
884.846	10223.52
885.164	10239.56
885.481	10103.52
885.798	10144.65
886.115	10144.42
886.432	10092.67
886.75	10092.22
887.067	10089.06
887.383	10103.75
887.7	9987.14
888.017	10026.69
888.334	9997.53
888.651	9983.07
888.967	9958.21
889.284	9903.07
889.6	9894.94
889.917	9852
890.233	9824.66
890.55	9761.38
890.866	9815.84
891.182	9740.37
891.498	9747.37
891.815	9765
892.131	9647.49
892.447	9657.2
892.763	9590.54
893.079	9555.29
893.395	9532.91
893.71	9498.56
894.026	9528.62
894.342	9492.01
894.657	9449.98
894.973	9423.54
895.289	9401.84
895.604	9355.29
895.92	9303.09
896.235	9308.29
896.55	9265.8
896.865	9236.88
897.181	9260.15
897.496	9181.96
897.811	9122.53
898.126	9103.77
898.441	9007.28
898.756	9060.84
899.071	8938.8
899.386	9033.27
899.7	8927.28
900.015	8901.97
900.33	8880.73
900.644	8854.74
900.959	8852.25
901.273	8803.67
901.588	8722.76
901.902	8814.97
902.216	8676.21
902.531	8642.77
902.845	8588.08
903.159	8571.58
903.473	8605.93
903.787	8508.08
904.101	8435.31
904.415	8464.69
904.729	8429.21
905.042	8345.6
905.356	8345.37
905.67	8328.2
905.984	8381.31
906.297	8292.95
906.611	8247.3
906.924	8185.38
907.237	8188.09
907.551	8155.1
907.864	8100.18
908.177	8147.86
908.491	8114.19
908.804	8020.41
909.117	8054.99
909.43	7900.87
909.743	7966.4
910.056	7905.61
910.368	7836.01
910.681	7832.17
910.994	7823.81
911.307	7791.72
911.619	7672.4
911.932	7774.09
912.244	7631.95
912.557	7676.46
912.869	7596.24
913.181	7642.79
913.494	7539.75
913.806	7475.34
914.118	7489.58
914.43	7384.27
914.742	7453.19
915.054	7388.79
915.366	7365.96
915.678	7341.56
915.99	7315.8
916.302	7288.9
916.613	7208.68
916.925	7220.88
917.236	7168
917.548	7177.27
917.859	7139.3
918.171	7094.56
918.482	7086.65
918.794	7023.15
919.105	7020.66
919.416	6972.08
919.727	6989.03
920.038	6936.37
920.349	6889.14
920.66	6883.27
920.971	6870.84
921.282	6848.24
921.593	6808.47
921.903	6797.62
922.214	6664.06
922.525	6673.33
922.835	6650.96
923.146	6591.3
923.456	6620.9
923.767	6544.97
924.077	6544.29
924.387	6558.3
924.697	6478.3
925.008	6410.06
925.318	6446.21
925.628	6428.81
925.938	6376.61
926.248	6376.61
926.558	6312.43
926.867	6300.23
927.177	6272.21
927.487	6228.14
927.796	6187.46
928.106	6174.58
928.416	6167.8
928.725	6160.35
929.034	6132.1
929.344	6132.78
929.653	6091.87
929.962	6027.02
930.271	6058.2
930.581	6013.23
930.89	5991.31
931.199	5963.06
931.508	5893.91
931.817	5933.01
932.125	5862.05
932.434	5846.46
932.743	5765.78
933.051	5768.94
933.36	5747.93
933.669	5688.04
933.977	5693.92
934.286	5685.1
934.594	5681.94
934.902	5630.64
935.21	5629.06
935.519	5581.38
935.827	5577.31
936.135	5504.32
936.443	5451.44
936.751	5469.97
937.059	5475.17
937.367	5396.52
937.674	5436.3
937.982	5381.38
938.29	5354.94
938.597	5355.85
938.905	5347.49
939.213	5307.04
939.52	5247.83
939.827	5316.07
940.135	5196.3
940.442	5190.43
940.749	5196.76
941.056	5187.26
941.363	5105.68
941.67	5091
941.977	5079.24
942.284	5073.14
942.591	5057.1
942.898	5053.93
943.205	4955.63
943.511	5018.91
943.818	5026.14
944.125	4910.89
944.431	4929.87
944.738	4924.9
945.044	4896.2
945.35	4901.62
945.657	4851.45
945.963	4841.51
946.269	4810.78
946.575	4779.82
946.881	4746.6
947.187	4758.35
947.493	4697.79
947.799	4700.95
948.105	4701.63
948.41	4634.96
948.716	4658.92
949.022	4630.44
949.327	4603.33
949.633	4570.78
949.938	4579.37
950.244	4519.94
950.549	4508.64
950.854	4502.09
951.16	4452.37
951.465	4495.31
951.77	4456.21
952.075	4458.47
952.38	4417.79
952.685	4418.02
952.99	4391.81
953.294	4362.2
953.599	4324.01
953.904	4300.96
954.209	4271.81
954.513	4340.28
954.818	4287.18
955.122	4245.82
955.426	4223.22
955.731	4208.53
956.035	4156.33
956.339	4156.78
956.643	4140.06
956.948	4118.14
957.252	4101.87
957.556	4046.05
957.86	4077.92
958.163	4045.37
958.467	4034.53
958.771	4023.23
959.075	3988.43
959.378	3992.49
959.682	3967.64
959.985	3954.3
960.289	3924.47
960.592	3923.57
960.896	3909.11
961.199	3848.09
961.502	3891.71
961.805	3858.71
962.108	3774.42
962.411	3790.24
962.714	3791.14
963.017	3773.06
963.32	3787.75
963.623	3751.6
963.926	3784.59
964.228	3720.18
964.531	3664.14
964.833	3691.26
965.136	3713.63
965.438	3650.13
965.741	3615.78
966.043	3614.88
966.345	3606.74
966.648	3584.37
966.95	3600.19
967.252	3567.19
967.554	3542.56
967.856	3518.16
968.158	3489.46
968.46	3508.89
968.761	3454.43
969.063	3448.33
969.365	3440.19
969.666	3421.44
969.968	3376.01
970.269	3391.38
970.571	3399.06
970.872	3379.63
971.174	3338.5
971.475	3386.41
971.776	3343.02
972.077	3353.19
972.378	3303.02
972.679	3256.69
972.98	3263.7
973.281	3282.46
973.582	3275.68
973.883	3265.73
974.183	3211.5
974.484	3208.33
974.785	3187.77
975.085	3189.8
975.386	3198.62
975.686	3138.05
975.986	3112.74
976.287	3135.34
976.587	3090.6
976.887	3111.84
977.187	3071.39
977.487	3062.12
977.787	3052.63
978.087	2995.68
978.387	3045.85
978.687	3011.73
978.987	2982.8
979.286	2987.1
979.586	2966.31
979.885	2929.02
980.185	2954.1
980.484	2914.1
980.784	2931.05
981.083	2880.43
981.382	2870.26
981.682	2891.28
981.981	2843.15
982.28	2818.06
982.579	2821.9
982.878	2850.6
983.177	2794.56
983.475	2795.01
983.774	2755.01
984.073	2759.76
984.372	2705.07
984.67	2789.81
984.969	2764.28
985.267	2730.15
985.566	2746.88
985.864	2729.48
986.162	2692.19
986.461	2655.35
986.759	2682.92
987.057	2649.7
987.355	2633.89
987.653	2628.69
987.951	2634.56
988.249	2605.19
988.547	2607.22
988.844	2585.98
989.142	2599.08
989.44	2579.2
989.737	2533.32
990.035	2557.05
990.332	2516.37
990.63	2531.97
990.927	2520.22
991.224	2505.75
991.521	2490.84
991.819	2466.66
992.116	2461.46
992.413	2457.39
992.71	2442.48
993.006	2435.02
993.303	2402.71
993.6	2416.26
993.897	2377.17
994.193	2379.2
994.49	2388.02
994.787	2381.24
995.083	2339.66
995.379	2346.44
995.676	2341.92
995.972	2299.66
996.268	2323.39
996.565	2295.14
996.861	2270.28
997.157	2246.33
997.453	2272.77
997.749	2240.22
998.044	2249.94
998.34	2244.74
998.636	2228.7
998.932	2185.76
999.227	2192.32
999.523	2207.23
999.818	2149.15
1000.114	2132.88
1000.409	2135.14
1000.704	2127.91
1001	2128.14
1001.295	2108.48
1001.59	2139.44
1001.885	2108.02
1002.18	2090.4
1002.475	2032.77
1002.77	2044.3
1003.065	2027.8
1003.359	2018.99
1003.654	1983.51
1003.949	2030.06
1004.243	2003.39
1004.538	1986.44
1004.832	1938.08
1005.127	1966.33
1005.421	1949.84
1005.715	1962.49
1006.009	1981.25
1006.304	1950.29
1006.598	1931.08
1006.892	1919.78
1007.186	1887.92
1007.48	1851.53
1007.773	1886.56
1008.067	1891.31
1008.361	1843.4
1008.655	1856.28
1008.948	1826.9
1009.242	1821.03
1009.535	1811.31
1009.829	1767.02
1010.122	1767.02
1010.415	1757.3
1010.708	1760.69
1011.001	1749.39
1011.295	1722.27
1011.588	1734.7
1011.881	1746
1012.173	1723.85
1012.466	1708.03
1012.759	1691.76
1013.052	1678.43
1013.344	1698.99
1013.637	1672.78
1013.93	1655.61
1014.222	1642.27
1014.514	1642.27
1014.807	1647.92
1015.099	1603.63
1015.391	1642.27
1015.683	1600.69
1015.976	1585.78
1016.268	1588.04
1016.56	1582.16
1016.851	1567.25
1017.143	1546.23
1017.435	1578.77
1017.727	1530.64
1018.018	1528.38
1018.31	1503.97
1018.602	1514.37
1018.893	1517.3
1019.185	1494.71
1019.476	1511.2
1019.767	1481.6
1020.058	1441.83
1020.35	1464.65
1020.641	1455.61
1020.932	1431.66
1021.223	1429.62
1021.514	1428.95
1021.804	1403.41
1022.095	1390.98
1022.386	1397.76
1022.677	1382.62
1022.967	1399.34
1023.258	1338.78
1023.548	1364.31
1023.839	1333.58
1024.129	1355.05
1024.419	1356.63
1024.709	1332.68
1025	1306.24
1025.29	1353.02
1025.58	1310.53
1025.87	1294.94
1026.16	1261.04
1026.449	1298.55
1026.739	1249.74
1027.029	1242.74
1027.319	1239.57
1027.608	1227.37
1027.898	1228.05
1028.187	1206.58
1028.477	1204.32
1028.766	1224.43
1029.055	1200.48
1029.344	1220.59
1029.634	1174.49
1029.923	1171.78
1030.212	1174.49
1030.501	1141.27
1030.79	1155.73
1031.078	1155.73
1031.367	1124.09
1031.656	1114.15
1031.945	1090.65
1032.233	1122.29
1032.522	1140.59
1032.81	1095.39
1033.099	1104.66
1033.387	1072.34
1033.675	1064.66
1033.963	1084.55
1034.251	1040.71
1034.54	1063.08
1034.828	1049.97
1035.116	1014.27
1035.403	1033.93
1035.691	1036.41
1035.979	1045.68
1036.267	1015.4
1036.554	1028.28
1036.842	993.7
1037.129	986.02
1037.417	961.16
1037.704	978.56
1037.992	982.18
1038.279	975.85
1038.566	956.42
1038.853	956.42
1039.14	956.42
