Data from hue_300_FLMS001491_00092.txt Node
Date: Tue Feb 07 15:51:27 GMT 2017
User: dcchb
Spectrometer: FLMS00149
Trigger mode: 0
Integration Time (sec): 2.000000E-2
Scans to average: 10
Electric dark correction enabled: true
Nonlinearity correction enabled: false
Boxcar width: 0
XAxis mode: Wavelengths
Number of Pixels in Spectrum: 2048
>>>>>Begin Spectral Data<<<<<
341.393	-16.58
341.776	-16.58
342.16	-16.58
342.543	-53.42
342.927	-52.29
343.31	-73.76
343.693	-52.96
344.077	-79.18
344.46	-81.21
344.843	-42.12
345.226	-41.67
345.61	-27.2
345.993	-27.43
346.376	20.25
346.759	8.5
347.142	10.99
347.525	39.01
347.908	62.29
348.291	85.56
348.674	91.44
349.057	107.48
349.44	119.69
349.823	135.96
350.206	188.38
350.588	189.74
350.971	197.2
351.354	225.45
351.737	227.48
352.119	246.69
352.502	267.7
352.884	287.59
353.267	284.2
353.65	275.16
354.032	283.07
354.414	306.12
354.797	294.14
355.179	321.71
355.562	296.86
355.944	323.3
356.326	321.71
356.709	332.11
357.091	324.43
357.473	318.55
357.855	350.41
358.238	328.27
358.62	353.8
359.002	338.89
359.384	323.75
359.766	350.64
360.148	315.61
360.53	328.27
360.912	324.2
361.294	309.96
361.676	334.82
362.057	324.2
362.439	318.55
362.821	322.39
363.203	308.16
363.584	321.94
363.966	314.71
364.348	320.58
364.729	319
365.111	328.49
365.493	346.35
365.874	335.27
366.256	329.17
366.637	302.51
367.019	313.13
367.4	328.27
367.781	328.04
368.163	296.4
368.544	311.55
368.925	317.65
369.306	309.74
369.688	287.14
370.069	295.27
370.45	303.64
370.831	291.88
371.212	302.51
371.593	288.5
371.974	308.38
372.355	299.57
372.736	308.38
373.117	322.84
373.498	309.29
373.879	308.16
374.26	293.24
374.641	313.35
375.021	315.84
375.402	312.68
375.783	300.92
376.163	329.17
376.544	323.52
376.925	291.43
377.305	328.04
377.686	326.01
378.066	328.49
378.447	323.3
378.827	336.4
379.208	335.5
379.588	335.73
379.968	316.07
380.349	340.02
380.729	332.34
381.109	331.21
381.489	321.26
381.87	319.23
382.25	312.45
382.63	338.21
383.01	328.04
383.39	338.89
383.77	348.38
384.15	326.91
384.53	329.62
384.91	343.86
385.29	342.96
385.67	327.82
386.049	368.95
386.429	343.86
386.809	357.65
387.189	327.59
387.568	339.57
387.948	349.96
388.328	344.31
388.707	368.27
389.087	334.6
389.466	352.22
389.846	351.77
390.225	363.75
390.605	355.84
390.984	377.53
391.363	359.45
391.743	362.62
392.122	351.32
392.501	377.98
392.881	375.27
393.26	379.11
393.639	370.3
394.018	367.36
394.397	360.36
394.776	374.59
395.155	362.84
395.534	385.67
395.913	385.22
396.292	390.41
396.671	368.27
397.05	393.8
397.429	399.9
397.808	370.3
398.186	411.43
398.565	373.92
398.944	397.64
399.323	381.37
399.701	381.15
400.08	403.52
400.458	399.45
400.837	384.99
401.215	389.51
401.594	404.65
401.972	437.42
402.351	420.92
402.729	402.84
403.107	398.77
403.486	423.86
403.864	423.86
404.242	429.96
404.62	427.02
404.999	424.54
405.377	431.99
405.755	454.59
406.133	450.75
406.511	448.27
406.889	441.71
407.267	467.93
407.645	456.17
408.023	464.54
408.401	448.27
408.779	482.16
409.156	477.87
409.534	483.97
409.912	486
410.29	500.24
410.667	497.76
411.045	521.94
411.422	522.61
411.8	516.74
412.178	537.98
412.555	523.29
412.933	561.26
413.31	556.96
413.687	562.84
414.065	559
414.442	590.18
414.819	591.99
415.197	566
415.574	580.69
415.951	613.91
416.328	630.18
416.705	615.72
417.082	612.1
417.46	640.12
417.837	665.21
418.214	649.16
418.591	678.54
418.967	683.51
419.344	678.09
419.721	666.79
420.098	703.17
420.475	730.07
420.852	697.52
421.228	695.26
421.605	707.69
421.982	716.96
422.358	722.16
422.735	743.17
423.111	754.47
423.488	776.17
423.864	776.84
424.241	783.85
424.617	777.3
424.994	783.85
425.37	798.54
425.746	803.96
426.123	832.66
426.499	825.2
426.875	830.18
427.251	845.32
427.627	860.91
428.003	860.01
428.379	890.51
428.756	893.9
429.132	889.38
429.507	909.5
429.883	917.63
430.259	923.73
430.635	938.42
431.011	938.42
431.387	939.1
431.763	983.17
432.138	983.17
432.514	973.45
432.89	990.85
433.265	1023.39
433.641	1036.05
434.016	1028.59
434.392	1069.72
434.767	1077.85
435.143	1045.31
435.518	1109.94
435.894	1098.64
436.269	1087.34
436.644	1125.31
437.02	1116.27
437.395	1135.7
437.77	1132.54
438.145	1170.73
438.52	1160.56
438.895	1180.9
439.271	1172.31
439.646	1193.1
440.021	1188.13
440.395	1223.84
440.77	1211.63
441.145	1201.24
441.52	1223.84
441.895	1222.71
442.27	1223.16
442.645	1254.8
443.019	1256.15
443.394	1251.86
443.769	1291.63
444.143	1273.55
444.518	1263.61
444.892	1263.16
445.267	1282.14
445.641	1305.19
446.016	1297.06
446.39	1280.56
446.764	1316.04
447.139	1310.16
447.513	1304.51
447.887	1325.98
448.262	1329.15
448.636	1293.44
449.01	1302.93
449.384	1326.43
449.758	1334.12
450.132	1369.14
450.506	1315.81
450.88	1377.73
451.254	1340.9
451.628	1376.83
452.002	1362.82
452.376	1374.12
452.75	1390.61
453.123	1409.14
453.497	1436.71
453.871	1409.14
454.244	1421.35
454.618	1412.99
454.992	1435.81
455.365	1461.12
455.739	1478.75
456.112	1470.61
456.486	1481.91
456.859	1501.57
457.232	1537.05
457.606	1471.51
457.979	1529.82
458.352	1526.88
458.725	1568.46
459.099	1568.01
459.472	1602.81
459.845	1576.82
460.218	1601.68
460.591	1605.97
460.964	1582.92
461.337	1644.84
461.71	1653.88
462.083	1651.85
462.456	1645.97
462.829	1647.1
463.201	1706.54
463.574	1675.8
463.947	1726.65
464.32	1697.5
464.692	1721.9
465.065	1765.52
465.438	1742.24
465.81	1764.39
466.183	1791.28
466.555	1812.52
466.928	1808.91
467.3	1820.21
467.672	1808.23
468.045	1855.46
468.417	1867.21
468.789	1865.18
469.161	1884.39
469.534	1908.79
469.906	1932.52
470.278	1925.97
470.65	1951.28
471.022	1968.23
471.394	2015.23
471.766	2003.03
472.138	2023.82
472.51	2008.9
472.882	2036.47
473.253	2090.71
473.625	2081.22
473.997	2125.96
474.369	2152.63
474.74	2172.74
475.112	2179.52
475.484	2198.73
475.855	2208.44
476.227	2197.82
476.598	2239.86
476.97	2283.25
477.341	2306.75
477.713	2309.91
478.084	2332.96
478.455	2397.14
478.827	2381.77
479.198	2431.49
479.569	2438.04
479.94	2493.63
480.311	2464.48
480.682	2504.26
481.053	2567.53
481.424	2553.97
481.795	2580.64
482.166	2614.54
482.537	2653.86
482.908	2696.57
483.279	2701.09
483.65	2682.78
484.021	2758.71
484.391	2748.09
484.762	2769.11
485.133	2818.6
485.503	2846.85
485.874	2884.36
486.244	2857.69
486.615	2889.78
486.985	2931.36
487.356	3013.62
487.726	2961.42
488.097	3030.57
488.467	3019.04
488.837	3104.69
489.207	3092.04
489.578	3118.03
489.948	3144.69
490.318	3151.92
490.688	3175.88
491.058	3235.76
491.428	3253.39
491.798	3279.38
492.168	3299.04
492.538	3310.11
492.908	3281.64
493.278	3397.11
493.648	3330.68
494.017	3405.93
494.387	3401.18
494.757	3423.55
495.126	3451.58
495.496	3467.39
495.866	3481.63
496.235	3506.04
496.605	3520.73
496.974	3511.24
497.344	3518.92
497.713	3535.64
498.082	3564.79
498.452	3642.98
498.821	3608.41
499.19	3638.46
499.559	3626.26
499.928	3661.29
500.298	3640.05
500.667	3713.94
501.036	3672.59
501.405	3690.21
501.774	3704.9
502.143	3711.91
502.512	3728.18
502.88	3748.29
503.249	3759.36
503.618	3772.7
503.987	3800.72
504.356	3803.88
504.724	3837.1
505.093	3781.74
505.462	3839.59
505.83	3829.42
506.199	3844.11
506.567	3910.09
506.936	3916.65
507.304	3912.58
507.672	3923.88
508.041	3924.33
508.409	3950.32
508.777	3970.43
509.145	3989.41
509.514	3994.39
509.882	3998.45
510.25	3986.25
510.618	3993.03
510.986	3999.81
511.354	4011.56
511.722	4023.99
512.09	4054.95
512.458	4028.51
512.826	4082.29
513.193	4061.28
513.561	4068.96
513.929	4088.85
514.297	4148.96
514.664	4167.49
515.032	4173.36
515.4	4155.51
515.767	4173.14
516.135	4190.54
516.502	4127.04
516.869	4221.73
517.237	4192.8
517.604	4186.25
517.972	4213.14
518.339	4237.09
518.706	4212.69
519.073	4213.59
519.44	4252.91
519.808	4235.51
520.175	4282.74
520.542	4314.6
520.909	4311.21
521.276	4255.62
521.643	4335.85
522.009	4346.69
522.376	4340.14
522.743	4348.73
523.11	4369.97
523.477	4386.92
523.843	4452
524.21	4461.72
524.577	4505.11
524.943	4465.56
525.31	4479.8
525.676	4523.64
526.043	4552.11
526.409	4565.22
526.776	4628.27
527.142	4572.9
527.508	4617.19
527.874	4655.84
528.241	4639.34
528.607	4664.88
528.973	4716.85
529.339	4730.19
529.705	4761.37
530.071	4759.79
530.437	4807.02
530.803	4794.14
531.169	4817.19
531.535	4815.83
531.901	4883.63
532.267	4876.62
532.632	4904.87
532.998	4914.14
533.364	4988.26
533.73	4932.67
534.095	4964.98
534.461	4984.19
534.826	5000.69
535.192	5003.63
535.557	5057.41
535.923	5089.5
536.288	5099.89
536.653	5060.8
537.019	5066.9
537.384	5110.29
537.749	5153.45
538.114	5177.18
538.479	5188.93
538.845	5248.82
539.21	5141.47
539.575	5237.52
539.94	5241.81
540.305	5307.57
540.67	5303.28
541.034	5298.08
541.399	5329.49
541.764	5371.3
542.129	5397.06
542.494	5399.1
542.858	5424.18
543.223	5452.2
543.587	5502.14
543.952	5506.89
544.316	5506.21
544.681	5497.85
545.045	5541.01
545.41	5544.63
545.774	5572.2
546.138	5556.38
546.503	5599.32
546.867	5669.37
547.231	5623.27
547.595	5712.53
547.959	5727.9
548.324	5705.3
548.688	5712.08
549.052	5748.69
549.416	5744.62
549.779	5771.74
550.143	5756.6
550.507	5799.08
550.871	5832.98
551.235	5780.1
551.599	5925.64
551.962	5842.93
552.326	5898.74
552.689	5934.9
553.053	5956.59
553.417	5928.35
553.78	5970.15
554.143	6025.07
554.507	6033.65
554.87	6030.04
555.234	6058.06
555.597	6051.51
555.96	6091.28
556.323	6074.11
556.686	6142.58
557.05	6129.47
557.413	6134.44
557.776	6141.22
558.139	6200.66
558.502	6164.05
558.865	6150.94
559.228	6212.63
559.59	6261.9
559.953	6260.09
560.316	6330.82
560.679	6294.66
561.041	6309.13
561.404	6379.63
561.767	6386.19
562.129	6414.44
562.492	6410.14
562.854	6419.41
563.217	6415.11
563.579	6423.93
563.941	6474.55
564.304	6547.77
564.666	6576.69
565.028	6511.61
565.39	6543.7
565.753	6530.82
566.115	6640.42
566.477	6644.94
566.839	6614.2
567.201	6681.55
567.563	6667.99
567.925	6665.73
568.287	6728.55
568.648	6746.63
569.01	6754.31
569.372	6819.62
569.734	6799.06
570.095	6868.89
570.457	6891.71
570.819	6853.75
571.18	6969.9
571.542	7012.39
571.903	7016.68
572.265	7045.38
572.626	7198.82
572.987	7163.12
573.349	7172.61
573.71	7184.59
574.071	7258.93
574.432	7277.46
574.794	7406.95
575.155	7413.05
575.516	7414.41
575.877	7523.33
576.238	7606.49
576.599	7687.4
576.96	7757
577.32	7842.19
577.681	7868.63
578.042	7950.21
578.403	8024.79
578.763	8062.08
579.124	8232.24
579.485	8320.6
579.845	8432.91
580.206	8560.59
580.566	8670.2
580.927	8718.78
581.287	8941.38
581.648	8997.87
582.008	9174.36
582.368	9285.09
582.728	9474.92
583.089	9601.02
583.449	9747.91
583.809	9957.85
584.169	10069.71
584.529	10255.92
584.889	10481.45
585.249	10667.88
585.609	10788.78
585.969	11081.43
586.329	11284.59
586.688	11483.91
587.048	11784.01
587.408	11867.85
587.768	12132.25
588.127	12374.05
588.487	12633.48
588.846	12979.23
589.206	13090.87
589.565	13412.9
589.925	13685.43
590.284	13927.46
590.643	14241.12
591.003	14485.41
591.362	14739.87
591.721	15009.46
592.08	15302.11
592.44	15633.4
592.799	15881.76
593.158	16195.42
593.517	16514.74
593.876	16815.52
594.235	17015.74
594.593	17279.91
594.952	17721.71
595.311	17955.83
595.67	18227.01
596.029	18646.43
596.387	18912.86
596.746	19217.94
597.104	19475.11
597.463	19760.98
597.822	20113.06
598.18	20386.27
598.538	20703.78
598.897	21135.63
599.255	21130.43
599.613	21823.07
599.972	21762.96
600.33	22185.09
600.688	22346.45
601.046	22870.95
601.404	23112.98
601.762	23273.43
602.12	23632.29
602.478	23890.36
602.836	24152.05
603.194	24308.88
603.552	24684.24
603.91	24839.49
604.268	25221.17
604.625	25290.32
604.983	25752.23
605.341	25876.97
605.698	26268.38
606.056	26583.17
606.413	26688.93
606.771	26990.17
607.128	27175.47
607.485	27447.1
607.843	27425.18
608.2	27918.5
608.557	28090.48
608.914	28355.1
609.272	28558.26
609.629	28771.14
609.986	29137.91
610.343	29056.78
610.7	29561.17
611.057	29655.18
611.414	29880.03
611.771	30074.15
612.127	30438.21
612.484	30408.16
612.841	30755.94
613.198	30762.95
613.554	30927.46
613.911	31256.27
614.267	31457.39
614.624	31431.86
614.98	31824.39
615.337	32062.58
615.693	31926.53
616.05	32209.24
616.406	32531.26
616.762	32552.51
617.118	32620.75
617.475	32736.23
617.831	32887.64
618.187	33067.97
618.543	33258.25
618.899	33477.23
619.255	33486.27
619.611	33634.74
619.967	33844.68
620.323	34095.52
620.678	34053.94
621.034	33957.67
621.39	34267.04
621.746	34267.49
622.101	34677.65
622.457	34479.91
622.812	34690.08
623.168	34841.03
623.523	34803.29
623.879	35056.85
624.234	34908.38
624.589	35143.85
624.945	35253.9
625.3	35277.86
625.655	35416.16
626.01	35432.88
626.365	35507.23
626.72	35511.52
627.075	35642.59
627.43	35538.42
627.785	35729.15
628.14	35791.06
628.495	35783.61
628.85	35742.25
629.205	35803.04
629.559	36094.56
629.914	36063.15
630.269	36076.71
630.623	35900.44
630.978	35959.42
631.332	36126.2
631.687	36083.71
632.041	36096.59
632.396	36159.19
632.75	35985.86
633.104	36048.91
633.459	36085.52
633.813	36089.36
634.167	36071.51
634.521	36209.13
634.875	36137.72
635.229	36134.56
635.583	35971.17
635.937	36183.6
636.291	36090.94
636.645	36187.89
636.999	36173.2
637.352	36278.28
637.706	36025.18
638.06	36222.47
638.413	36155.12
638.767	36135.69
639.121	36282.58
639.474	36006.43
639.828	36102.24
640.181	36221.34
640.534	36224.73
640.888	36177.27
641.241	35848.46
641.594	36115.58
641.947	36090.72
642.301	36083.71
642.654	36041.45
643.007	36132.98
643.36	35958.97
643.713	35985.64
644.066	36242.35
644.419	35956.26
644.771	35802.82
645.124	35473.11
645.477	35512.2
645.83	35223.4
646.182	35137.3
646.535	35141.36
646.888	35231.08
647.24	34965.78
647.593	35178.65
647.945	35215.49
648.298	34972.1
648.65	34909.28
649.002	34922.39
649.355	35094.81
649.707	34932.56
650.059	35223.62
650.411	35648.24
650.763	35544.97
651.115	35906.32
651.467	35931.4
651.819	35780.67
652.171	35639.2
652.523	35677.4
652.875	35618.41
653.227	35507.91
653.578	35798.75
653.93	35702.48
654.282	35634.91
654.633	35547.91
654.985	35667
655.337	35529.15
655.688	35678.3
656.039	35794.23
656.391	35305.2
656.742	35424.29
657.094	35427.91
657.445	35661.12
657.796	35621.35
658.147	35512.88
658.498	35502.26
658.849	35592.43
659.2	35460
659.551	35391.3
659.902	35485.08
660.253	35452.54
660.604	35520.34
660.955	35370.51
661.306	35523.73
661.656	35511.75
662.007	35375.26
662.358	35513.56
662.708	35430.62
663.059	35495.48
663.409	35240.8
663.76	35522.37
664.11	35476.27
664.461	35514.91
664.811	35441.47
665.161	35406.22
665.511	35302.04
665.862	35430.4
666.212	35483.05
666.562	35536.61
666.912	35457.51
667.262	35484.86
667.612	35435.59
667.962	35472.2
668.312	35365.09
668.662	35599.21
669.011	35549.49
669.361	35234.24
669.711	35444.63
670.06	35181.14
670.41	35243.51
670.76	35245.09
671.109	35287.8
671.459	35255.03
671.808	35282.83
672.157	35154.47
672.507	35070.63
672.856	35059.78
673.205	35113.12
673.554	35364.18
673.904	35130.29
674.253	35248.71
674.602	35205.77
674.951	34766.46
675.3	34600.81
675.649	35111.08
675.998	35108.14
676.346	35074.25
676.695	35194.47
677.044	34824.54
677.393	34936.85
677.741	34896.62
678.09	34901.37
678.438	34732.79
678.787	34920.13
679.135	34868.38
679.484	34714.71
679.832	34669.74
680.181	34567.59
680.529	34738.21
680.877	34506.8
681.225	34742.73
681.573	34844.2
681.922	34530.08
682.27	34412.34
682.618	34460.93
682.966	34332.8
683.314	34426.81
683.661	34286.02
684.009	34196.76
684.357	34191.33
684.705	34043.09
685.053	34053.26
685.4	34063.65
685.748	33918.12
686.095	33898.46
686.443	33839.48
686.79	33801.96
687.138	33779.82
687.485	33789.76
687.832	33723.55
688.18	33730.1
688.527	33542.31
688.874	33350.68
689.221	33568.07
689.568	33271.13
689.915	33215.31
690.262	33274.52
690.609	33142.32
690.956	32976.22
691.303	33038.14
691.65	32943.68
691.997	32814.87
692.344	32627.08
692.69	32626.63
693.037	32630.7
693.383	32508.21
693.73	32603.13
694.077	32284.72
694.423	32293.76
694.769	32248.78
695.116	32141.44
695.462	32096.02
695.808	31923.6
696.155	32036.81
696.501	31840.89
696.847	31809.02
697.193	31522.7
697.539	31741.23
697.885	31559.09
698.231	31392.08
698.577	31407.9
698.923	31298.08
699.269	31166.33
699.614	31112.32
699.96	31014.02
700.306	31024.41
700.651	30973.34
700.997	30793.68
701.342	30714.14
701.688	30614.03
702.033	30660.58
702.379	30626.91
702.724	30458.32
703.069	30484.76
703.415	30275.05
703.76	30185.56
704.105	30139.01
704.45	30071.67
704.795	29965.91
705.14	29903.99
705.485	29944.89
705.83	29678.68
706.175	29806.82
706.52	29685.69
706.865	29609.31
707.209	29559.36
707.554	29513.04
707.899	29465.36
708.243	29241.86
708.588	29260.39
708.932	29138.81
709.277	29196.44
709.621	29104.01
709.966	29036.89
710.31	29071.92
710.654	28719.61
710.998	28770.91
711.342	28644.81
711.687	28697.47
712.031	28487.3
712.375	28436.68
712.719	28588.09
713.063	28438.72
713.407	28619.5
713.75	28327.31
714.094	28215.44
714.438	28178.38
714.782	28179.74
715.125	28099.52
715.469	28116.46
715.812	28044.15
716.156	27884.38
716.499	27901.78
716.843	27843.93
717.186	27768.68
717.53	27911.27
717.873	27789.69
718.216	27766.19
718.559	27623.37
718.902	27374.56
719.246	27507.44
719.589	27446.65
719.932	27395.13
720.275	27404.39
720.617	27295.24
720.96	27191.29
721.303	27266.09
721.646	27317.62
721.989	27016.15
722.331	27216.6
722.674	27020.45
723.016	27034.23
723.359	27036.49
723.701	27123.72
724.044	26761.7
724.386	26728.7
724.729	26807.8
725.071	26731.87
725.413	26798.76
725.755	26662.94
726.097	26539.78
726.439	26525.09
726.782	26561.25
727.124	26654.58
727.465	26553.57
727.807	26428.6
728.149	26376.17
728.491	26393.8
728.833	26406
729.175	26283.74
729.516	26321.26
729.858	26300.01
730.199	26234.03
730.541	26110.42
730.882	26196.06
731.224	26180.24
731.565	25995.62
731.906	26018.67
732.248	26071.55
732.589	25873.59
732.93	25912
733.271	25862.51
733.612	25922.4
733.953	25984.54
734.294	25803.08
734.635	25730.31
734.976	25808.95
735.317	25617.55
735.658	25668.39
735.999	25656.42
736.339	25667.94
736.68	25645.12
737.021	25580.94
737.361	25321.51
737.702	25579.36
738.042	25483.31
738.383	25433.82
738.723	25427.04
739.063	25404.45
739.404	25443.99
739.744	25262.75
740.084	25272.92
740.424	25136.88
740.764	25188.63
741.104	25186.6
741.444	25069.76
741.784	25076.09
742.124	25095.75
742.464	25077
742.804	25000.16
743.143	24992.7
743.483	24936.89
743.823	24758.36
744.162	24782.77
744.502	24910.45
744.841	24884.91
745.181	24872.26
745.52	24717.91
745.86	24854.18
746.199	24676.33
746.538	24677.91
746.877	24699.15
747.216	24696.89
747.556	24660.51
747.895	24732.6
748.234	24553.85
748.573	24525.37
748.911	24613.73
749.25	24442.66
749.589	24318.37
749.928	24402.44
750.267	24507.75
750.605	24373.96
750.944	24486.05
751.283	24271.37
751.621	24322.67
751.96	24287.86
752.298	24196.34
752.636	24340.07
752.975	24158.83
753.313	23992.5
753.651	24166.29
753.989	23985.05
754.327	23918.38
754.666	23948.44
755.004	23973.75
755.342	23941.43
755.679	23879.29
756.017	23816.24
756.355	23850.59
756.693	23719.52
757.031	23833.86
757.368	23572.85
757.706	23601.1
758.044	23596.13
758.381	23617.83
758.719	23395.01
759.056	23494.66
759.394	23424.16
759.731	23205.63
760.068	23239.76
760.405	23155.24
760.743	23188.01
761.08	23106.88
761.417	22977.62
761.754	23080.89
762.091	23006.32
762.428	22945.75
762.765	22796.6
763.102	22945.3
763.438	22730.39
763.775	22582.37
764.112	22717.28
764.449	22614.91
764.785	22502.15
765.122	22405.65
765.458	22331.98
765.795	22343.51
766.131	22326.11
766.467	22231.42
766.804	22211.53
767.14	21977.64
767.476	22041.37
767.812	22029.62
768.148	21975.83
768.485	21820.81
768.821	21740.81
769.157	21674.83
769.492	21746.91
769.828	21645.22
770.164	21466.92
770.5	21362.52
770.836	21436.87
771.171	21167.72
771.507	21230.32
771.842	21061.28
772.178	21117.78
772.513	21092.47
772.849	20970.66
773.184	20798.46
773.519	20795.75
773.855	20693.83
774.19	20662.42
774.525	20615.87
774.86	20607.51
775.195	20550.56
775.53	20437.8
775.865	20316.67
776.2	20153.51
776.535	20077.13
776.87	20037.13
777.205	20081.42
777.539	19940.18
777.874	20010.46
778.209	19787.42
778.543	19722.33
778.878	19636.69
779.212	19613.86
779.547	19444.6
779.881	19536.58
780.215	19441.44
780.55	19523.24
780.884	19275.11
781.218	19239.86
781.552	19067.89
781.886	19113.99
782.22	19021.34
782.554	19004.84
782.888	18851.85
783.222	18787.44
783.556	18640.56
783.889	18631.29
784.223	18556.94
784.557	18487.34
784.89	18551.29
785.224	18407.11
785.557	18369.83
785.891	18257.51
786.224	18194.24
786.558	18156.27
786.891	18024.07
787.224	17877.64
787.557	17857.75
787.891	17850.29
788.224	17833.8
788.557	17781.14
788.89	17722.61
789.223	17782.27
789.556	17611.88
789.888	17620.47
790.221	17461.6
790.554	17332.57
790.887	17318.78
791.219	17269.52
791.552	17201.27
791.884	17135.28
792.217	17067.49
792.549	17119.69
792.882	16962.18
793.214	16888.96
793.546	16887.15
793.879	16735.07
794.211	16650.55
794.543	16699.36
794.875	16660.95
795.207	16625.24
795.539	16622.3
795.871	16629.31
796.203	16426.83
796.535	16310.45
796.867	16283.55
797.198	16271.13
797.53	16235.65
797.862	16130.11
798.193	16128.08
798.525	16019.83
798.856	16056.22
799.188	15905.49
799.519	15893.73
799.85	15846.05
800.182	15779.84
800.513	15681.76
800.844	15639.96
801.175	15671.59
801.506	15551.82
801.837	15540.52
802.168	15514.08
802.499	15461.66
802.83	15319.06
803.161	15270.47
803.491	15342.79
803.822	15311.15
804.153	15217.59
804.483	15045.62
804.814	15053.3
805.145	15112.96
805.475	15047.43
805.805	15003.59
806.136	14927.66
806.466	14937.6
806.796	14976.7
807.126	14740.32
807.457	14703.71
807.787	14704.16
808.117	14632.3
808.447	14614.45
808.777	14684.5
809.107	14618.29
809.436	14532.19
809.766	14503.26
810.096	14506.65
810.426	14482.25
810.755	14380.55
811.085	14350.05
811.414	14310.05
811.744	14246.55
812.073	14272.76
812.403	14222.14
812.732	14134.68
813.061	14167.23
813.39	14056.04
813.719	14005.42
814.049	14097.85
814.378	14061.24
814.707	13936.05
815.036	13954.35
815.365	13822.83
815.693	13709.16
816.022	13748.48
816.351	13695.37
816.68	13697.63
817.008	13675.04
817.337	13550.75
817.665	13521.14
817.994	13580.35
818.322	13551.88
818.651	13474.82
818.979	13383.74
819.307	13481.59
819.636	13428.94
819.964	13409.05
820.292	13360.24
820.62	13402.73
820.948	13341.94
821.276	13324.99
821.604	13334.48
821.932	13366.57
822.259	13409.51
822.587	13305.1
822.915	13270.98
823.243	13309.62
823.57	13229.85
823.898	13311.43
824.225	13262.62
824.553	13262.39
824.88	13277.08
825.207	13240.02
825.535	13254.03
825.862	13299.23
826.189	13217.19
826.516	13261.71
826.843	13295.16
827.17	13358.66
827.497	13315.5
827.824	13204.54
828.151	13277.98
828.478	13277.76
828.805	13294.93
829.131	13208.38
829.458	13223.97
829.785	13169.29
830.111	13176.74
830.438	13284.99
830.764	13146.46
831.09	13305.1
831.417	13162.96
831.743	13227.14
832.069	13133.13
832.395	13047.71
832.722	13128.84
833.048	13123.64
833.374	13158.21
833.7	13040.93
834.026	13133.13
834.351	13100.59
834.677	13050.42
835.003	13104.43
835.329	13001.83
835.654	12981.49
835.98	13000.7
836.306	13119.12
836.631	12986.24
836.956	13019.23
837.282	12928.39
837.607	12891.78
837.932	12835.51
838.258	12866.02
838.583	12880.93
838.908	12817.43
839.233	12873.48
839.558	12855.62
839.883	12702.18
840.208	12689.75
840.533	12689.53
840.858	12725.23
841.182	12789.18
841.507	12682.29
841.832	12615.63
842.156	12675.06
842.481	12571.56
842.805	12541.73
843.13	12506.48
843.454	12503.77
843.778	12417.89
844.103	12328.18
844.427	12312.81
844.751	12373.38
845.075	12313.04
845.399	12261.74
845.723	12217.9
846.047	12207.96
846.371	12169.76
846.695	12122.53
847.019	12032.14
847.343	12028.3
847.666	11913.05
847.99	11920.51
848.313	11899.26
848.637	11757.35
848.96	11818.14
849.284	11725.03
849.607	11687.29
849.931	11639.61
850.254	11476.22
850.577	11550.8
850.9	11519.61
851.223	11414.53
851.546	11326.4
851.869	11358.94
852.192	11290.24
852.515	11158.49
852.838	11118.72
853.161	11241.43
853.483	11114.88
853.806	11089.34
854.129	11087.08
854.451	11052.73
854.774	10948.1
855.096	10929.8
855.419	10977.03
855.741	10903.81
856.063	10834.21
856.385	10823.81
856.708	10756.69
857.03	10741.33
857.352	10776.36
857.674	10627.43
857.996	10615
858.318	10633.99
858.64	10595.12
858.961	10485.74
859.283	10599.86
859.605	10447.32
859.926	10516.47
860.248	10503.59
860.57	10442.35
860.891	10490.03
861.212	10395.8
861.534	10342.92
861.855	10313.99
862.176	10316.93
862.498	10353.32
862.819	10295.24
863.14	10289.59
863.461	10181.34
863.782	10222.7
864.103	10230.83
864.424	10130.27
864.745	10216.6
865.065	10093.89
865.386	10117.16
865.707	10083.94
866.027	10116.26
866.348	10011.63
866.668	10044.4
866.989	9981.57
867.309	9984.74
867.63	10023.15
867.95	9925.3
868.27	9857.51
868.59	9938.19
868.91	9895.93
869.23	9849.83
869.55	9846.44
869.87	9931.18
870.19	9865.19
870.51	9882.37
870.83	9838.53
871.15	9793.56
871.469	9754.24
871.789	9808.7
872.109	9788.13
872.428	9734.8
872.748	9681.24
873.067	9744.07
873.386	9768.47
873.706	9712.88
874.025	9623.62
874.344	9670.4
874.663	9645.31
874.982	9548.82
875.301	9677.17
875.62	9575.26
875.939	9577.52
876.258	9540
876.577	9513.79
876.896	9497.52
877.214	9475.82
877.533	9426.33
877.852	9435.6
878.17	9472.89
878.489	9436.28
878.807	9493.45
879.125	9459.55
879.444	9377.3
879.762	9353.79
880.08	9415.49
880.398	9322.38
880.716	9343.4
881.034	9239.22
881.352	9274.25
881.67	9253.68
881.988	9244.19
882.306	9239.9
882.624	9165.78
882.941	9160.58
883.259	9138.43
883.577	9139.56
883.894	9124.2
884.212	9105.66
884.529	9109.96
884.846	9123.29
885.164	9033.58
885.481	9020.7
885.798	8968.27
886.115	8978.89
886.432	9014.59
886.75	8915.39
887.067	8888.04
887.383	8867.25
887.7	8877.87
888.017	8853.02
888.334	8857.31
888.651	8831.55
888.967	8773.47
889.284	8763.98
889.6	8751.1
889.917	8674.04
890.233	8729.86
890.55	8613.47
890.866	8645.79
891.182	8626.81
891.498	8579.35
891.815	8582.74
892.131	8501.61
892.447	8499.8
892.763	8432.24
893.079	8465.23
893.395	8468.17
893.71	8404.67
894.026	8317.44
894.342	8388.4
894.657	8302.52
894.973	8319.92
895.289	8317.44
895.604	8281.05
895.92	8214.39
896.235	8194.73
896.55	8161.06
896.865	8138.46
897.181	8118.8
897.496	8084.9
897.811	8063.21
898.126	8017.33
898.441	7964.23
898.756	7933.04
899.071	7980.27
899.386	7960.38
899.7	7898.46
900.015	7881.97
900.33	7813.5
900.644	7790.44
900.959	7767.85
901.273	7752.71
901.588	7730.33
901.902	7720.62
902.216	7636.32
902.531	7630.68
902.845	7594.07
903.159	7598.59
903.473	7537.12
903.787	7517.01
904.101	7507.97
904.415	7439.49
904.729	7460.74
905.042	7387.07
905.356	7355.2
905.67	7364.69
905.984	7388.65
906.297	7260.97
906.611	7258.26
906.924	7301.64
907.237	7217.35
907.551	7211.48
907.864	7187.3
908.177	7148.88
908.491	7135.55
908.804	7096
909.117	7057.58
909.43	7007.41
909.743	7017.13
910.056	6961.31
910.368	6994.53
910.681	6890.36
910.994	6929.22
911.307	6861.2
911.619	6868.21
911.932	6798.15
912.244	6739.85
912.557	6709.57
912.869	6679.74
913.181	6713.64
913.494	6697.37
913.806	6652.62
914.118	6608.33
914.43	6545.05
914.742	6599.97
915.054	6536.92
915.366	6487.43
915.678	6495.56
915.99	6494.21
916.302	6427.54
916.613	6329.01
916.925	6340.99
917.236	6346.64
917.548	6352.52
917.859	6317.49
918.171	6242.01
918.482	6198.62
918.794	6221.22
919.105	6181.67
919.416	6120.88
919.727	6126.31
920.038	6145.29
920.349	6058.06
920.66	6045.41
920.971	6039.53
921.282	6031.4
921.593	5965.63
921.903	5891.74
922.214	5902.81
922.525	5894.45
922.835	5852.64
923.146	5810.16
923.456	5823.26
923.767	5835.24
924.077	5796.82
924.387	5783.27
924.697	5705.08
925.008	5731.97
925.318	5672.76
925.628	5657.62
925.938	5665.08
926.248	5607.9
926.558	5550.96
926.867	5551.18
927.177	5525.19
927.487	5479.09
927.796	5473.67
928.106	5468.7
928.416	5434.12
928.725	5376.05
929.034	5352.32
929.344	5381.24
929.653	5407
929.962	5330.4
930.271	5328.36
930.581	5317.06
930.89	5255.14
931.199	5208.14
931.508	5230.96
931.817	5230.74
932.125	5216.28
932.434	5168.14
932.743	5146.45
933.051	5094.24
933.36	5060.57
933.669	5051.08
933.977	5040.69
934.286	5027.13
934.594	4991.2
934.902	4991.87
935.21	4933.8
935.519	4948.03
935.827	4936.06
936.135	4896.51
936.443	4874.14
936.751	4835.27
937.059	4874.82
937.367	4804.76
937.674	4806.79
937.982	4789.39
938.29	4797.76
938.597	4777.19
938.905	4698.55
939.213	4672.79
939.52	4682.96
939.827	4661.49
940.135	4637.08
940.442	4612.22
940.749	4582.17
941.056	4592.34
941.363	4517.54
941.67	4510.08
941.977	4475.5
942.284	4501.72
942.591	4398.67
942.898	4455.62
943.205	4434.37
943.511	4393.02
943.818	4433.25
944.125	4366.13
944.431	4354.6
944.738	4343.76
945.044	4319.58
945.35	4278.45
945.657	4264.21
945.963	4290.2
946.269	4270.31
946.575	4219.01
946.881	4165.23
947.187	4188.05
947.493	4162.29
947.799	4147.6
948.105	4130.2
948.41	4154.16
948.716	4122.97
949.022	4051.33
949.327	4132.91
949.633	4032.8
949.938	4038.23
950.244	4045.23
950.549	4000.49
950.854	3928.4
951.16	3930.66
951.465	3892.69
951.77	3927.95
952.075	3882.07
952.38	3881.85
952.685	3880.94
952.99	3859.7
953.294	3831.68
953.599	3807.95
953.904	3847.5
954.209	3798.91
954.513	3743.55
954.818	3761.17
955.122	3760.72
955.426	3742.87
955.731	3719.82
956.035	3661.29
956.339	3661.06
956.643	3694.28
956.948	3649.08
957.252	3629.42
957.556	3595.75
957.86	3589.2
958.163	3606.83
958.467	3565.02
958.771	3563.44
959.075	3546.49
959.378	3522.08
959.682	3520.95
959.985	3452.48
960.289	3472.14
960.592	3436.21
960.896	3459.94
961.199	3440.5
961.502	3417.23
961.805	3398.92
962.108	3392.14
962.411	3397.57
962.714	3342.65
963.017	3334.06
963.32	3340.17
963.623	3346.27
963.926	3287.06
964.228	3310.11
964.531	3305.37
964.833	3259.94
965.136	3215.2
965.438	3240.96
965.741	3170.23
966.043	3202.09
966.345	3187.63
966.648	3190.79
966.95	3150.79
967.252	3167.52
967.554	3172.49
967.856	3126.16
968.158	3088.65
968.46	3090.91
968.761	3047.97
969.063	3041.87
969.365	3050.91
969.666	3040.06
969.968	3041.19
970.269	3014.07
970.571	2995.54
970.872	2996.22
971.174	2974.07
971.475	2965.26
971.776	2943.11
972.077	2953.74
972.378	2971.36
972.679	2861.76
972.98	2889.78
973.281	2885.49
973.582	2876
973.883	2826.28
974.183	2830.35
974.484	2849.33
974.785	2813.17
975.085	2792.38
975.386	2816.56
975.686	2797.36
975.986	2763.01
976.287	2782.44
976.587	2747.64
976.887	2706.96
977.187	2720.97
977.487	2711.03
977.787	2700.64
978.087	2691.82
978.387	2690.69
978.687	2650.69
978.987	2678.94
979.286	2625.38
979.586	2584.93
979.885	2623.58
980.185	2565.95
980.484	2611.15
980.784	2648.43
981.083	2596.46
981.382	2577.93
981.682	2575.67
981.981	2564.59
982.28	2549.45
982.579	2489.79
982.878	2502.67
983.177	2517.36
983.475	2546.29
983.774	2506.97
984.073	2462.68
984.372	2445.05
984.67	2457.48
984.969	2472.17
985.267	2447.53
985.566	2418.16
985.864	2427.65
986.162	2383.36
986.461	2402.34
986.759	2341.77
987.057	2362.34
987.355	2313.07
987.653	2312.85
987.951	2332.74
988.249	2329.8
988.547	2308.78
988.844	2288.22
989.142	2258.84
989.44	2298.16
989.737	2257.93
990.035	2260.19
990.332	2232.85
990.63	2249.8
990.927	2218.61
991.224	2213.42
991.521	2211.83
991.819	2207.99
992.116	2172.51
992.413	2201.21
992.71	2162.57
993.006	2146.75
993.303	2134.1
993.6	2157.37
993.897	2118.05
994.193	2134.1
994.49	2116.7
994.787	2088.9
995.083	2101.1
995.379	2075.57
995.676	2085.28
995.972	2065.62
996.268	2035.57
996.565	2029.69
996.861	2041.67
997.157	2007.09
997.453	2015.23
997.749	2006.19
998.044	1951.95
998.34	1955.34
998.636	1928.23
998.932	1982.01
999.227	1937.27
999.523	1948.79
999.818	1926.42
1000.114	1892.97
1000.409	1904.27
1000.704	1882.8
1001	1866.08
1001.295	1883.48
1001.59	1869.7
1001.885	1827.66
1002.18	1830.38
1002.475	1812.07
1002.77	1815.69
1003.065	1828.12
1003.359	1792.86
1003.654	1808.23
1003.949	1791.96
1004.243	1779.08
1004.538	1751.28
1004.832	1768.68
1005.127	1771.85
1005.421	1730.27
1005.715	1717.84
1006.009	1735.24
1006.304	1719.19
1006.598	1717.84
1006.892	1724.84
1007.186	1679.19
1007.48	1658.4
1007.773	1649.14
1008.067	1645.97
1008.361	1642.36
1008.655	1611.4
1008.948	1610.04
1009.242	1615.01
1009.535	1585.41
1009.829	1582.02
1010.122	1596.48
1010.415	1594.45
1010.708	1554
1011.001	1578.63
1011.295	1563.04
1011.588	1575.92
1011.881	1530.5
1012.173	1568.91
1012.466	1552.87
1012.759	1525.52
1013.052	1506.32
1013.344	1516.26
1013.637	1489.82
1013.93	1485.3
1014.222	1450.05
1014.514	1466.32
1014.807	1474
1015.099	1452.31
1015.391	1434.23
1015.683	1433.78
1015.976	1412.08
1016.268	1447.56
1016.56	1393.78
1016.851	1365.3
1017.143	1377.05
1017.435	1379.09
1017.727	1366.43
1018.018	1357.39
1018.31	1351.52
1018.602	1344.06
1018.893	1351.74
1019.185	1325.98
1019.476	1271.52
1019.767	1311.97
1020.058	1307.45
1020.35	1289.6
1020.641	1281.01
1020.932	1290.28
1021.223	1255.48
1021.514	1267.23
1021.804	1250.05
1022.095	1253.67
1022.386	1248.24
1022.677	1231.75
1022.967	1187
1023.258	1203.73
1023.548	1188.13
1023.839	1203.27
1024.129	1183.39
1024.419	1170.73
1024.709	1163.27
1025	1166.66
1025.29	1160.79
1025.58	1165.76
1025.87	1154.46
1026.16	1115.37
1026.449	1146.1
1026.739	1103.62
1027.029	1117.85
1027.319	1113.56
1027.608	1082.6
1027.898	1092.54
1028.187	1098.64
1028.477	1087.34
1028.766	1066.55
1029.055	1064.52
1029.344	1062.26
1029.634	1049.15
1029.923	1019.78
1030.212	1047.12
1030.501	1043.96
1030.79	1044.18
1031.078	1032.88
1031.367	1010.06
1031.656	1012.32
1031.945	995.37
1032.233	990.17
1032.522	983.17
1032.81	976.39
1033.099	978.19
1033.387	970.51
1033.675	938.2
1033.963	967.35
1034.251	957.63
1034.54	953.11
1034.828	959.21
1035.116	922.15
1035.403	944.75
1035.691	937.07
1035.979	921.7
1036.267	916.95
1036.554	925.77
1036.842	918.08
1037.129	896.16
1037.417	909.95
1037.704	897.97
1037.992	865.66
1038.279	877.18
1038.566	862.72
1038.853	862.72
1039.14	862.72
