Data from hue_24_FLMS001491_00026.txt Node
Date: Tue Feb 07 17:12:02 GMT 2017
User: dcchb
Spectrometer: FLMS00149
Trigger mode: 0
Integration Time (sec): 2.000000E-2
Scans to average: 10
Electric dark correction enabled: true
Nonlinearity correction enabled: false
Boxcar width: 0
XAxis mode: Wavelengths
Number of Pixels in Spectrum: 2048
>>>>>Begin Spectral Data<<<<<
341.393	-27.12
341.776	-27.12
342.16	-27.12
342.543	-57.63
342.927	-81.13
343.31	-49.94
343.693	-63.73
344.077	-60.56
344.46	-57.17
344.843	-49.94
345.226	-16.72
345.61	-57.85
345.993	-16.5
346.376	3.84
346.759	9.27
347.142	15.59
347.525	33.22
347.908	49.49
348.291	59.89
348.674	87.68
349.057	113.44
349.44	143.95
349.823	150.96
350.206	151.63
350.588	191.86
350.971	204.74
351.354	232.76
351.737	231.86
352.119	247.23
352.502	258.52
352.884	279.99
353.267	306.88
353.65	299.43
354.032	287
354.414	301.24
354.797	311.86
355.179	344.85
355.562	319.31
355.944	339.65
356.326	334.23
356.709	348.69
357.091	341.69
357.473	345.3
357.855	347.79
358.238	351.86
358.62	353.89
359.002	337.39
359.384	363.61
359.766	346.66
360.148	349.37
360.53	332.87
360.912	334.23
361.294	340.33
361.676	345.08
362.057	315.02
362.439	355.24
362.821	330.84
363.203	339.43
363.584	332.42
363.966	350.05
364.348	305.98
364.729	329.93
365.111	326.55
365.493	317.28
365.874	331.29
366.256	331.97
366.637	346.66
367.019	341.46
367.4	341.91
367.781	310.73
368.163	318.41
368.544	303.72
368.925	297.62
369.306	343.95
369.688	310.73
370.069	301.69
370.45	296.49
370.831	303.95
371.212	323.61
371.593	329.26
371.974	318.64
372.355	323.16
372.736	317.96
373.117	326.32
373.498	322.93
373.879	336.49
374.26	310.73
374.641	322.48
375.021	309.37
375.402	317.73
375.783	332.87
376.163	338.52
376.544	334.68
376.925	334
377.305	329.26
377.686	343.49
378.066	321.8
378.447	326.55
378.827	336.94
379.208	335.13
379.588	330.39
379.968	334.91
380.349	351.18
380.729	337.84
381.109	345.08
381.489	329.26
381.87	340.33
382.25	343.72
382.63	362.48
383.01	354.11
383.39	357.28
383.77	345.75
384.15	356.83
384.53	349.82
384.91	357.5
385.29	346.66
385.67	351.63
386.049	348.92
386.429	375.36
386.809	359.54
387.189	367
387.568	366.09
387.948	369.26
388.328	363.83
388.707	364.74
389.087	390.05
389.466	365.64
389.846	378.75
390.225	379.65
390.605	369.03
390.984	365.19
391.363	400.44
391.743	382.59
392.122	384.85
392.501	386.66
392.881	362.02
393.26	395.7
393.639	382.36
394.018	413.32
394.397	388.01
394.776	366.54
395.155	394.57
395.534	394.34
395.913	386.43
396.292	399.09
396.671	394.79
397.05	386.2
397.429	397.05
397.808	408.8
398.186	413.77
398.565	406.54
398.944	416.26
399.323	396.15
399.701	423.72
400.08	414.68
400.458	406.32
400.837	438.41
401.215	407.67
401.594	393.44
401.972	426.66
402.351	412.19
402.729	416.49
403.107	434.56
403.486	420.33
403.864	413.32
404.242	435.02
404.62	432.76
404.999	429.59
405.377	432.98
405.755	432.98
406.133	442.25
406.511	444.51
406.889	439.54
407.267	445.64
407.645	470.72
408.023	461.68
408.401	468.69
408.779	442.47
409.156	436.15
409.534	449.25
409.912	472.76
410.29	437.73
410.667	465.75
411.045	468.46
411.422	475.47
411.8	467.11
412.178	448.12
412.555	468.91
412.933	493.55
413.31	486.54
413.687	477.28
414.065	500.78
414.442	476.15
414.819	477.73
415.197	495.81
415.574	511.17
415.951	528.57
416.328	521.34
416.705	519.53
417.082	510.27
417.46	513.43
417.837	523.6
418.214	505.98
418.591	501.68
418.967	511.17
419.344	511.17
419.721	524.28
420.098	515.47
420.475	529.48
420.852	557.73
421.228	552.75
421.605	558.4
421.982	522.92
422.358	538.52
422.735	571.06
423.111	575.13
423.488	548.01
423.864	556.82
424.241	582.13
424.617	578.97
424.994	555.92
425.37	582.58
425.746	584.39
426.123	600.89
426.499	585.75
426.875	586.88
427.251	595.24
427.627	615.13
428.003	599.53
428.379	634.56
428.756	616.93
429.132	604.05
429.507	621
429.883	632.53
430.259	651.51
430.635	632.75
431.011	637.5
431.387	646.31
431.763	657.38
432.138	649.93
432.514	668.46
432.89	658.06
433.265	684.5
433.641	687.21
434.016	703.03
434.392	697.83
434.767	719.76
435.143	744.39
435.518	698.74
435.894	716.14
436.269	728.79
436.644	717.95
437.02	744.16
437.395	707.55
437.77	743.26
438.145	762.47
438.52	760.88
438.895	767.66
439.271	769.47
439.646	754.33
440.021	783.26
440.395	804.95
440.77	788.45
441.145	808.57
441.52	808.11
441.895	780.54
442.27	799.98
442.645	794.1
443.019	817.38
443.394	833.42
443.769	818.28
444.143	816.02
444.518	828
444.892	827.55
445.267	839.07
445.641	830.03
446.016	846.76
446.39	820.32
446.764	851.73
447.139	843.14
447.513	869.58
447.887	846.08
448.262	873.65
448.636	867.32
449.01	872.75
449.384	901.45
449.758	865.29
450.132	892.63
450.506	905.96
450.88	936.25
451.254	923.37
451.628	936.7
452.002	936.02
452.376	915.91
452.75	933.99
453.123	947.32
453.497	938.51
453.871	971.73
454.244	984.83
454.618	961.78
454.992	999.07
455.365	1032.97
455.739	1018.05
456.112	1011.05
456.486	1028.67
456.859	1034.78
457.232	1055.11
457.606	1076.58
457.979	1053.53
458.352	1079.97
458.725	1074.1
459.099	1116.13
459.472	1119.74
459.845	1142.34
460.218	1118.61
460.591	1143.92
460.964	1161.33
461.337	1163.13
461.71	1188.44
462.083	1185.51
462.456	1211.49
462.829	1224.37
463.201	1237.03
463.574	1207.2
463.947	1245.16
464.32	1245.62
464.692	1276.8
465.065	1279.74
465.438	1323.36
465.81	1302.79
466.183	1325.16
466.555	1333.07
466.928	1355.9
467.3	1383.47
467.672	1385.5
468.045	1419.4
468.417	1423.24
468.789	1438.15
469.161	1466.4
469.534	1465.27
469.906	1510.47
470.278	1520.41
470.65	1535.1
471.022	1594.08
471.394	1598.83
471.766	1617.13
472.138	1630.92
472.51	1649.9
472.882	1684.7
473.253	1691.71
473.625	1716.79
473.997	1765.83
474.369	1783
474.74	1809.22
475.112	1846.28
475.484	1892.15
475.855	1921.08
476.227	1924.02
476.598	1976.22
476.97	1973.73
477.341	2021.42
477.713	2053.51
478.084	2100.96
478.455	2165.82
478.827	2160.4
479.198	2205.82
479.569	2227.29
479.94	2312.71
480.311	2371.46
480.682	2397
481.053	2392.71
481.424	2465.02
481.795	2525.36
482.166	2541.4
482.537	2590.44
482.908	2615.07
483.279	2705.24
483.65	2709.08
484.021	2787.72
484.391	2845.8
484.762	2875.18
485.133	2893.48
485.503	2958.11
485.874	3015.74
486.244	3062.52
486.615	3105
486.985	3172.35
487.356	3244.89
487.726	3259.8
488.097	3345.22
488.467	3382.96
488.837	3466.12
489.207	3475.84
489.578	3553.58
489.948	3546.35
490.318	3628.15
490.688	3676.74
491.058	3747.25
491.428	3792.44
491.798	3829.5
492.168	3925.09
492.538	3924.64
492.908	3952.44
493.278	4042.61
493.648	4059.55
494.017	4104.07
494.387	4153.79
494.757	4227.46
495.126	4291.86
495.496	4268.36
495.866	4283.28
496.235	4381.81
496.605	4437.4
496.974	4440.11
497.344	4459.32
497.713	4499.77
498.082	4507.9
498.452	4601.23
498.821	4626.77
499.19	4660.67
499.559	4657.96
499.928	4714.68
500.298	4739.76
500.667	4788.12
501.036	4812.3
501.405	4871.96
501.774	4856.82
502.143	4876.26
502.512	4959.19
502.88	4957.16
503.249	4999.19
503.618	5001.9
503.987	5034.9
504.356	5110.15
504.724	5124.16
505.093	5205.06
505.462	5159.19
505.83	5193.76
506.199	5256.58
506.567	5275.57
506.936	5282.35
507.304	5331.16
507.672	5391.04
508.041	5443.47
508.409	5412.97
508.777	5461.33
509.145	5494.32
509.514	5464.72
509.882	5513.3
510.25	5574.09
510.618	5592.4
510.986	5564.37
511.354	5679.17
511.722	5706.06
512.09	5753.75
512.458	5733.63
512.826	5779.28
513.193	5805.95
513.561	5799.62
513.929	5858.15
514.297	5871.71
514.664	5930.24
515.032	5895.21
515.4	5983.8
515.767	5989.9
516.135	6011.59
516.502	5968.43
516.869	6096.11
517.237	6058.15
517.604	6111.93
517.972	6118.48
518.339	6172.49
518.706	6175.66
519.073	6185.37
519.44	6214.98
519.808	6263.34
520.175	6273.96
520.542	6383.56
520.909	6348.99
521.276	6353.28
521.643	6442.09
522.009	6417.46
522.376	6492.94
522.743	6522.99
523.11	6579.49
523.477	6616.55
523.843	6630.56
524.21	6732.48
524.577	6694.29
524.943	6762.08
525.31	6784.23
525.676	6912.36
526.043	6931.34
526.409	6889.99
526.776	6966.82
527.142	6980.83
527.508	7055.86
527.874	7118.68
528.241	7106.03
528.607	7177.89
528.973	7160.49
529.339	7210.21
529.705	7234.16
530.071	7276.64
530.437	7335.17
530.803	7332.91
531.169	7409.97
531.535	7431.22
531.901	7450.43
532.267	7436.64
532.632	7500.59
532.998	7575.17
533.364	7583.08
533.73	7547.37
534.095	7686.58
534.461	7719.8
534.826	7761.15
535.192	7810.42
535.557	7868.95
535.923	7870.3
536.288	7870.75
536.653	7958.43
537.019	7913.92
537.384	7982.61
537.749	7987.13
538.114	7995.95
538.479	8007.93
538.845	8055.38
539.21	8084.53
539.575	8105.55
539.94	8102.16
540.305	8183.06
540.67	8179.67
541.034	8251.76
541.399	8309.61
541.764	8346
542.129	8330.18
542.494	8383.96
542.858	8410.4
543.223	8390.51
543.587	8503.96
543.952	8464.86
544.316	8426.9
544.681	8571.75
545.045	8599.1
545.41	8635.25
545.774	8627.12
546.138	8641.58
546.503	8707.79
546.867	8732.65
547.231	8835.25
547.595	8766.1
547.959	8861.24
548.324	8855.59
548.688	8884.06
549.052	8968.13
549.416	8947.34
549.779	8977.17
550.143	9049.71
550.507	8992.31
550.871	9035.24
551.235	9103.94
551.599	9216.03
551.962	9185.75
552.326	9164.5
552.689	9292.19
553.053	9222.13
553.417	9249.25
553.78	9354.33
554.143	9313.88
554.507	9400.88
554.87	9402.69
555.234	9478.17
555.597	9469.36
555.96	9460.99
556.323	9565.62
556.686	9523.14
557.05	9638.62
557.413	9560.2
557.776	9639.29
558.139	9676.13
558.502	9760.2
558.865	9738.5
559.228	9843.58
559.59	9809.69
559.953	9874.32
560.316	9945.73
560.679	9979.85
561.041	10008.32
561.404	10049.45
561.767	10096.91
562.129	10117.02
562.492	10169.68
562.854	10127.42
563.217	10191.82
563.579	10183.69
563.941	10226.85
564.304	10283.12
564.666	10346.62
565.028	10329.45
565.39	10428.43
565.753	10431.59
566.115	10482.66
566.477	10549.78
566.839	10606.27
567.201	10661.41
567.563	10594.98
567.925	10793.39
568.287	10676.1
568.648	10731.02
569.01	10812.37
569.372	10928.98
569.734	10827.51
570.095	10952.93
570.457	10915.65
570.819	11012.59
571.18	11023.44
571.542	11109.09
571.903	11153.38
572.265	11167.39
572.626	11234.51
572.987	11322.87
573.349	11347.05
573.71	11397.44
574.071	11489.64
574.432	11529.64
574.794	11579.36
575.155	11649.86
575.516	11638.34
575.877	11815.06
576.238	11836.07
576.599	11978.67
576.96	11942.51
577.32	12086.01
577.681	12136.18
578.042	12225.89
578.403	12319.68
578.763	12426.79
579.124	12469.95
579.485	12639.89
579.845	12771.19
580.206	12786.56
580.566	12951.52
580.927	13089.6
581.287	13209.14
581.648	13307.22
582.008	13477.84
582.368	13594.9
582.728	13716.7
583.089	13919.63
583.449	14005.06
583.809	14125.28
584.169	14358.27
584.529	14526.85
584.889	14813.85
585.249	14941.75
585.609	15006.16
585.969	15388.3
586.329	15467.84
586.688	15650.44
587.048	15981.73
587.408	16073.7
587.768	16421.04
588.127	16541.03
588.487	16733.57
588.846	17135.37
589.206	17258.53
589.565	17521.57
589.925	17899.42
590.284	18015.8
590.643	18423.24
591.003	18689.23
591.362	18981.2
591.721	19241.3
592.08	19473.39
592.44	19749.54
592.799	20081.28
593.158	20263.65
593.517	20605.56
593.876	20922.61
594.235	21206.45
594.593	21542.48
594.952	21808.47
595.311	22085.3
595.67	22565.96
596.029	22826.07
596.387	23209.11
596.746	23478.25
597.104	23667.63
597.463	23975.87
597.822	24443.65
598.18	24541.73
598.538	24863.3
598.897	25230.07
599.255	25457.64
599.613	26104.4
599.972	26197.5
600.33	26591.62
600.688	26867.99
601.046	27292.39
601.404	27488.77
601.762	27731.25
602.12	28187.51
602.478	28476.77
602.836	28697.78
603.194	28858.9
603.552	29133.7
603.91	29297.76
604.268	29723.06
604.625	29843.28
604.983	30282.82
605.341	30417.28
605.698	30793.99
606.056	31231.04
606.413	31316.24
606.771	31787.86
607.128	31951.25
607.485	31993.51
607.843	32333.61
608.2	32713.04
608.557	33025.12
608.914	33130.88
609.272	33639.57
609.629	33884.08
609.986	34136.96
610.343	34042.27
610.7	34561.8
611.057	34660.78
611.414	35024.62
611.771	35275
612.127	35585.73
612.484	35699.17
612.841	35983.69
613.198	35977.59
613.554	36228.2
613.911	36525.82
614.267	36734.63
614.624	36785.25
614.98	37010.55
615.337	37453.03
615.693	37414.16
616.05	37493.25
616.406	37910.42
616.762	37817.54
617.118	37954.03
617.475	38134.14
617.831	38408.26
618.187	38610.74
618.543	38652.99
618.899	39057.28
619.255	39061.57
619.611	39191.96
619.967	39370.26
620.323	39679.86
620.678	39738.84
621.034	39689.58
621.39	39739.07
621.746	39850.25
622.101	40349.45
622.457	40173.41
622.812	40346.96
623.168	40525.94
623.523	40676.44
623.879	40758.48
624.234	40568.65
624.589	40926.38
624.945	40988.3
625.3	41059.03
625.655	41099.71
626.01	41200.95
626.365	41263.77
626.72	41346.94
627.075	41508.51
627.43	41477.78
627.785	41513.94
628.14	41614.5
628.495	41727.94
628.85	41752.57
629.205	41542.64
629.559	41960.03
629.914	41807.04
630.269	41795.74
630.623	41783.08
630.978	41889.52
631.332	41973.36
631.687	42157.08
632.041	42006.58
632.396	42215.16
632.75	42071.66
633.104	42091.32
633.459	41969.97
633.813	42078.44
634.167	42169.96
634.521	42186.69
634.875	42303.52
635.229	42316.63
635.583	42059.46
635.937	42191.43
636.291	42179.68
636.645	42205.67
636.999	42169.96
637.352	42247.93
637.706	41899.46
638.06	42235.95
638.413	42122.73
638.767	41997.54
639.121	42102.17
639.474	41935.17
639.828	41927.26
640.181	42139.23
640.534	42095.39
640.888	41902.63
641.241	41796.87
641.594	41916.41
641.947	42130.19
642.301	41869.18
642.654	41920.03
643.007	41963.19
643.36	41940.59
643.713	41923.19
644.066	42192.11
644.419	41878.22
644.771	41721.39
645.124	41251.12
645.477	41281.63
645.83	41096.09
646.182	40971.8
646.535	40796.44
646.888	40889.55
647.24	40631.02
647.593	40921.41
647.945	40762.09
648.298	40767.29
648.65	40719.83
649.002	40505.15
649.355	40856.55
649.707	40690.46
650.059	40920.73
650.411	41360.49
650.763	41310.55
651.115	41723.42
651.467	41633.03
651.819	41558.68
652.171	41485.69
652.523	41440.27
652.875	41515.07
653.227	41296.77
653.578	41654.95
653.93	41540.83
654.282	41440.27
654.633	41219.93
654.985	41406.59
655.337	41354.39
655.688	41357.78
656.039	41432.58
656.391	41237.56
656.742	41343.55
657.094	41210.22
657.445	41350.55
657.796	41351.23
658.147	41143.55
658.498	41340.61
658.849	41296.77
659.2	41314.39
659.551	41056.32
659.902	41402.08
660.253	41205.7
660.604	41169.99
660.955	41164.34
661.306	41361.85
661.656	41160.27
662.007	41331.34
662.358	41004.57
662.708	41215.87
663.059	41166.6
663.409	40939.26
663.76	41327.73
664.11	41281.63
664.461	41271.68
664.811	41195.08
665.161	41232.14
665.511	41192.36
665.862	41132.03
666.212	41400.72
666.562	41188.07
666.912	41199.59
667.262	41106.94
667.612	41160.73
667.962	41144.23
668.312	40974.29
668.662	41217.67
669.011	41155.98
669.361	41087.28
669.711	40943.56
670.06	41146.94
670.41	40961.86
670.76	40909.66
671.109	41177.22
671.459	40953.95
671.808	40901.52
672.157	40865.82
672.507	40765.93
672.856	40845.93
673.205	40962.09
673.554	40894.29
673.904	40867.85
674.253	40913.73
674.602	40764.58
674.951	40156.91
675.3	40055.9
675.649	40695.43
675.998	40708.99
676.346	40883.22
676.695	40913.5
677.044	40597.12
677.393	40624.02
677.741	40752.15
678.09	40588.31
678.438	40546.96
678.787	40706.5
679.135	40610.46
679.484	40408.2
679.832	40535.21
680.181	40205.27
680.529	40405.94
680.877	40341.76
681.225	40330.92
681.573	40450.91
681.922	40207.53
682.27	40177.7
682.618	40192.16
682.966	39977.93
683.314	40077.36
683.661	40059.51
684.009	39725.51
684.357	39725.96
684.705	39714.21
685.053	39574.55
685.4	39747.43
685.748	39593.99
686.095	39385.63
686.443	39183.38
686.79	39346.99
687.138	39384.95
687.485	39336.14
687.832	39156.03
688.18	39183.83
688.527	38998.07
688.874	39104.28
689.221	39043.49
689.568	38920.78
689.915	38715.14
690.262	38811.63
690.609	38626.55
690.956	38491.87
691.303	38390.4
691.65	38290.97
691.997	38311.76
692.344	38026.34
692.69	38105.44
693.037	38253.01
693.383	37915.16
693.73	37919.23
694.077	37812.57
694.423	37683.08
694.769	37462.97
695.116	37410.32
695.462	37524.89
695.808	37288.29
696.155	37455.96
696.501	37177.78
696.847	37199.47
697.193	36791.57
697.539	37201.51
697.885	36806.49
698.231	36711.13
698.577	36743.21
698.923	36598.59
699.269	36426.61
699.614	36317.69
699.96	36290.57
700.306	36322.21
700.651	36122.21
700.997	36044.02
701.342	36017.36
701.688	35759.96
702.033	35740.08
702.379	35730.59
702.724	35597.48
703.069	35716.8
703.415	35344.16
703.76	35393.65
704.105	35377.83
704.45	35359.97
704.795	35125.63
705.14	34856.03
705.485	34894
705.83	34898.74
706.175	34922.25
706.52	34738.3
706.865	34837.5
707.209	34566.77
707.554	34439.77
707.899	34571.97
708.243	34401.81
708.588	34237.74
708.932	34057.86
709.277	33989.16
709.621	34209.72
709.966	33865.32
710.31	33971.54
710.654	33585.11
710.998	33762.5
711.342	33614.26
711.687	33634.14
712.031	33525.67
712.375	33357.99
712.719	33514.6
713.063	33382.4
713.407	33452.91
713.75	33285.9
714.094	33081.16
714.438	32918.46
714.782	33084.78
715.125	32982.64
715.469	33108.28
715.812	32847.27
716.156	32604.57
716.499	32626.94
716.843	32722.98
717.186	32475.76
717.53	32699.48
717.873	32662.42
718.216	32637.11
718.559	32281.19
718.902	32263.11
719.246	32304.24
719.589	32144.01
719.932	31977.24
720.275	31954.87
720.617	31967.75
720.96	31960.97
721.303	31946.96
721.646	31916.45
721.989	31805.72
722.331	32027.41
722.674	31744.48
723.016	31770.24
723.359	31745.61
723.701	31727.98
724.044	31542
724.386	31446.63
724.729	31510.36
725.071	31414.77
725.413	31342.23
725.755	31326.41
726.097	31233.98
726.439	30971.39
726.782	31023.37
727.124	31153.08
727.465	30993.54
727.807	30993.31
728.149	30840.09
728.491	30839.19
728.833	30836.25
729.175	30875.12
729.516	30811.39
729.858	30756.93
730.199	30795.12
730.541	30626.54
730.882	30549.71
731.224	30709.25
731.565	30396.71
731.906	30377.51
732.248	30408.24
732.589	30332.31
732.93	30180.68
733.271	30229.04
733.612	30264.29
733.953	30284.85
734.294	30157.85
734.635	30084.41
734.976	30146.33
735.317	29954.47
735.658	30047.12
735.999	30034.92
736.339	30008.25
736.68	30030.4
737.021	29706.79
737.361	29736.17
737.702	30009.83
738.042	29738.2
738.383	29629.96
738.723	29811.87
739.063	29580.69
739.404	29693.46
739.744	29554.25
740.084	29392.22
740.424	29489.85
740.764	29450.53
741.104	29418.89
741.444	29267.93
741.784	29236.29
742.124	29369.4
742.464	29243.98
742.804	29274.03
743.143	29206.92
743.483	29216.41
743.823	29044.89
744.162	29046.69
744.502	29064.77
744.841	28924.21
745.181	29129.18
745.52	28888.73
745.86	29017.32
746.199	28823.42
746.538	28898.22
746.877	28804.21
747.216	28854.61
747.556	28786.81
747.895	28702.97
748.234	28554.28
748.573	28549.53
748.911	28550.89
749.25	28550.89
749.589	28371.68
749.928	28456.43
750.267	28504.56
750.605	28345.02
750.944	28310.44
751.283	28123.78
751.621	28194.51
751.96	28073.84
752.298	28262.99
752.636	28067.51
752.975	28064.35
753.313	27833.17
753.651	28030.9
753.989	27886.05
754.327	27838.36
754.666	27714.3
755.004	27716.79
755.342	27786.61
755.679	27629.1
756.017	27603.57
756.355	27552.72
756.693	27532.84
757.031	27479.5
757.368	27342.78
757.706	27460.52
758.044	27285.38
758.381	27206.74
758.719	27233.18
759.056	27126.74
759.394	26975.56
759.731	26953.19
760.068	26853.76
760.405	26795
760.743	26689.24
761.08	26739.86
761.417	26607.66
761.754	26566.53
762.091	26523.6
762.428	26533.99
762.765	26310.27
763.102	26497.38
763.438	26263.72
763.775	26182.81
764.112	26117.51
764.449	26232.08
764.785	26018.3
765.122	25763.62
765.458	25740.34
765.795	25653.34
766.131	25670.96
766.467	25600.91
766.804	25383.29
767.14	25367.92
767.476	25242.95
767.812	25138.32
768.148	25202.73
768.485	25022.84
768.821	24902.85
769.157	24888.84
769.492	24915.96
769.828	24818.1
770.164	24593.93
770.5	24511.67
770.836	24537.43
771.171	24420.83
771.507	24376.31
771.842	24166.37
772.178	24261.73
772.513	24118.91
772.849	24020.84
773.184	23962.31
773.519	23960.73
773.855	23768.41
774.19	23737.23
774.525	23651.81
774.86	23638.93
775.195	23500.17
775.53	23458.37
775.865	23304.47
776.2	23241.65
776.535	23005.04
776.87	23060.18
777.205	22914.2
777.539	22950.81
777.874	22971.6
778.209	22685.28
778.543	22696.58
778.878	22463.14
779.212	22509.46
779.547	22349.92
779.881	22363.25
780.215	22198.96
780.55	22229.92
780.884	22046.2
781.218	22086.65
781.552	22030.83
781.886	21774.79
782.22	21710.16
782.554	21744.06
782.888	21485.76
783.222	21488.93
783.556	21442.83
783.889	21368.25
784.223	21208.03
784.557	21171.42
784.89	21156.28
785.224	21012.1
785.557	20950.41
785.891	20943.63
786.224	20873.8
786.558	20787.93
786.891	20674.03
787.224	20571.44
787.557	20544.32
787.891	20631.32
788.224	20399.92
788.557	20398.56
788.89	20301.39
789.223	20326.7
789.556	20203.08
789.888	20127.38
790.221	20018.91
790.554	19897.78
790.887	19900.49
791.219	19835.18
791.552	19829.54
791.884	19746.37
792.217	19584.34
792.549	19582.31
792.882	19397.23
793.214	19383.45
793.546	19452.82
793.879	19196.78
794.211	19184.58
794.543	19163.56
794.875	19139.16
795.207	19232.04
795.539	19033.62
795.871	19060.74
796.203	18868.88
796.535	18757.7
796.867	18802.22
797.198	18704.82
797.53	18625.27
797.862	18537.82
798.193	18561.55
798.525	18346.64
798.856	18379.4
799.188	18219.41
799.519	18191.84
799.85	18122.69
800.182	18131.5
800.513	18056.47
800.844	17904.61
801.175	17954.78
801.506	18011.96
801.837	17939.64
802.168	17831.85
802.499	17742.13
802.83	17689.48
803.161	17696.26
803.491	17598.18
803.822	17526.77
804.153	17424.4
804.483	17333.1
804.814	17370.16
805.145	17325.87
805.475	17317.28
805.805	17251.98
806.136	17220.79
806.466	17253.11
806.796	17072.55
807.126	16965.2
807.457	16969.05
807.787	16976.73
808.117	16913.91
808.447	16814.7
808.777	16847.47
809.107	16859.67
809.436	16643.86
809.766	16722.5
810.096	16548.27
810.426	16543.97
810.755	16592.56
811.085	16449.06
811.414	16455.16
811.744	16338.1
812.073	16242.74
812.403	16270.98
812.732	16174.26
813.061	16266.24
813.39	16142.4
813.719	16103.31
814.049	16175.17
814.378	16000.03
814.707	15946.25
815.036	15961.39
815.365	15950.77
815.693	15702.64
816.022	15823.99
816.351	15723.2
816.68	15654.05
817.008	15762.75
817.337	15646.82
817.665	15485.92
817.994	15576.09
818.322	15428.75
818.651	15509.2
818.979	15375.19
819.307	15521.4
819.636	15415.64
819.964	15285.93
820.292	15392.82
820.62	15369.54
820.948	15281.63
821.276	15362.31
821.604	15217.9
821.932	15303.1
822.259	15268.98
822.587	15221.07
822.915	15179.04
823.243	15237.79
823.57	15174.74
823.898	15241.18
824.225	15139.94
824.553	15200.73
824.88	15175.87
825.207	15221.97
825.535	15257
825.862	15303.1
826.189	15203.67
826.516	15191.24
826.843	15248.64
827.17	15222.65
827.497	15281.41
827.824	15283.44
828.151	15297.22
828.478	15218.13
828.805	15264.68
829.131	15140.84
829.458	15219.03
829.785	15085.03
830.111	15142.2
830.438	15174.06
830.764	15133.16
831.09	15152.14
831.417	15066.27
831.743	15176.55
832.069	15098.36
832.395	15087.06
832.722	15032.37
833.048	15037.8
833.374	15069.89
833.7	14928.42
834.026	15035.99
834.351	14940.85
834.677	14960.51
835.003	15027.63
835.329	14930.45
835.654	14973.84
835.98	14932.49
836.306	14956.22
836.631	14833.73
836.956	14796
837.282	14882.09
837.607	14862.89
837.932	14688.43
838.258	14747.86
838.583	14725.94
838.908	14603.68
839.233	14736.56
839.558	14687.3
839.883	14548.09
840.208	14568.43
840.533	14625.38
840.858	14553.52
841.182	14607.3
841.507	14513.52
841.832	14448.66
842.156	14490.92
842.481	14471.26
842.805	14325.95
843.13	14316.91
843.454	14313.07
843.778	14243.47
844.103	14205.05
844.427	14216.8
844.751	14236.01
845.075	14139.06
845.399	14145.84
845.723	13977.71
846.047	14064.26
846.371	13939.75
846.695	13901.56
847.019	13843.48
847.343	13800.99
847.666	13700.2
847.99	13669.02
848.313	13690.71
848.637	13564.84
848.96	13547.44
849.284	13478.97
849.607	13403.04
849.931	13316.71
850.254	13315.58
850.577	13240.56
850.9	13137.28
851.223	13142.71
851.546	13090.5
851.869	12954.24
852.192	13029.94
852.515	12868.14
852.838	12776.16
853.161	12813.67
853.483	12733.45
853.806	12712.43
854.129	12597.18
854.451	12604.19
854.774	12548.37
855.096	12501.59
855.419	12549.5
855.741	12549.73
856.063	12380.92
856.385	12386.57
856.708	12363.29
857.03	12294.37
857.352	12379.79
857.674	12186.35
857.996	12201.49
858.318	12142.05
858.64	12133.24
858.961	12112.45
859.283	12069.74
859.605	12046.91
859.926	11992.68
860.248	12001.94
860.57	11943.87
860.891	12003.98
861.212	11914.49
861.534	11845.79
861.855	11778.9
862.176	11876.75
862.498	11865.22
862.819	11801.5
863.14	11708.84
863.461	11736.19
863.782	11674.27
864.103	11728.96
864.424	11643.76
864.745	11649.86
865.065	11609.64
865.386	11588.62
865.707	11594.27
866.027	11589.07
866.348	11497.32
866.668	11575.06
866.989	11417.78
867.309	11458.46
867.63	11427.27
867.95	11444.9
868.27	11344.79
868.59	11331.91
868.91	11297.56
869.23	11298.23
869.55	11274.51
869.87	11301.17
870.19	11279.7
870.51	11196.99
870.83	11218.24
871.15	11203.77
871.469	11209.2
871.789	11163.32
872.109	11133.49
872.428	11152.48
872.748	11173.72
873.067	11064.57
873.386	11055.75
873.706	10988.19
874.025	10974.4
874.344	10981.18
874.663	11035.87
874.982	10886.72
875.301	11021.63
875.62	10987.06
875.939	10916.55
876.258	10964.91
876.577	10833.84
876.896	10865.03
877.214	10866.83
877.533	10821.41
877.852	10806.5
878.17	10808.53
878.489	10759.72
878.807	10786.16
879.125	10765.37
879.444	10766.27
879.762	10698.25
880.08	10729.66
880.398	10653.51
880.716	10675.88
881.034	10660.96
881.352	10653.96
881.67	10641.08
881.988	10558.59
882.306	10552.49
882.624	10457.8
882.941	10435.66
883.259	10404.25
883.577	10526.95
883.894	10376
884.212	10377.81
884.529	10432.27
884.846	10357.24
885.164	10425.26
885.481	10333.29
885.798	10272.95
886.115	10214.87
886.432	10225.72
886.75	10219.84
887.067	10212.84
887.383	10112.73
887.7	10201.77
888.017	10170.35
888.334	10150.02
888.651	10025.73
888.967	10054.42
889.284	10024.6
889.6	9951.38
889.917	9989.57
890.233	9984.14
890.55	9901.89
890.866	9899.17
891.182	9863.24
891.498	9804.49
891.815	9753.42
892.131	9783.02
892.447	9677.26
892.763	9675.68
893.079	9706.86
893.395	9581.89
893.71	9616.92
894.026	9598.39
894.342	9576.92
894.657	9436.81
894.973	9505.96
895.289	9509.81
895.604	9484.5
895.92	9347.1
896.235	9313.65
896.55	9313.65
896.865	9329.92
897.181	9324.95
897.496	9308.23
897.811	9282.69
898.126	9183.04
898.441	9190.72
898.756	9114.79
899.071	9086.77
899.386	9052.42
899.7	9012.87
900.015	8910.5
900.33	8919.31
900.644	8892.2
900.959	8924.29
901.273	8880.9
901.588	8793.44
901.902	8788.92
902.216	8745.53
902.531	8766.78
902.845	8729.71
903.159	8635.48
903.473	8668.47
903.787	8609.72
904.101	8620.56
904.415	8542.37
904.729	8581.02
905.042	8451.98
905.356	8460.12
905.67	8412.43
905.984	8390.06
906.297	8402.26
906.611	8288.14
906.924	8363.4
907.237	8279.1
907.551	8213.8
907.864	8194.13
908.177	8208.82
908.491	8126.34
908.804	8099.67
909.117	8049.96
909.43	8031.65
909.743	8011.77
910.056	7994.37
910.368	7943.75
910.681	7946.01
910.994	7898.78
911.307	7868.49
911.619	7775.16
911.932	7832.34
912.244	7808.38
912.557	7719.35
912.869	7675.5
913.181	7680.93
913.494	7694.03
913.806	7619.46
914.118	7566.81
914.43	7523.42
914.742	7492.68
915.054	7473.7
915.366	7444.78
915.678	7410.2
915.99	7382.86
916.302	7324.55
916.613	7293.37
916.925	7259.24
917.236	7266.25
917.548	7222.41
917.859	7243.65
918.171	7152.35
918.482	7191
918.794	7064
919.105	7083.43
919.416	7027.16
919.727	7052.7
920.038	7051.34
920.349	6952.36
920.66	6914.85
920.971	6939.48
921.282	6854.06
921.593	6805.7
921.903	6854.28
922.214	6835.3
922.525	6810.22
922.835	6759.37
923.146	6694.74
923.456	6641.63
923.767	6651.12
924.077	6626.94
924.387	6601.63
924.697	6509.66
925.008	6523.9
925.318	6466.72
925.628	6420.62
925.938	6421.07
926.248	6473.05
926.558	6352.6
926.867	6384.69
927.177	6347.86
927.487	6327.29
927.796	6271.47
928.106	6279.61
928.416	6230.8
928.725	6201.87
929.034	6160.29
929.344	6188.99
929.653	6166.39
929.962	6122.1
930.271	6090.91
930.581	6004.81
930.89	6031.71
931.199	5980.41
931.508	5917.36
931.817	5923.23
932.125	5937.47
932.434	5920.07
932.743	5851.15
933.051	5848.21
933.36	5814.54
933.669	5715.1
933.977	5831.49
934.286	5747.87
934.594	5744.03
934.902	5675.11
935.21	5664.94
935.519	5652.96
935.827	5675.11
936.135	5636.46
936.443	5532.06
936.751	5504.04
937.059	5589.68
937.367	5503.13
937.674	5454.55
937.982	5451.61
938.29	5425.39
938.597	5408.9
938.905	5352.85
939.213	5342.46
939.52	5297.49
939.827	5335
940.135	5276.25
940.442	5283.25
940.749	5271.05
941.056	5283.48
941.363	5216.81
941.67	5144.5
941.977	5168.23
942.284	5115.8
942.591	5048.23
942.898	5127.32
943.205	5083.26
943.511	5015.01
943.818	5009.59
944.125	5059.98
944.431	4986.99
944.738	4960.32
945.044	4924.84
945.35	4926.2
945.657	4861.34
945.963	4888.46
946.269	4861.79
946.575	4849.14
946.881	4780.44
947.187	4772.3
947.493	4761.91
947.799	4767.56
948.105	4752.19
948.41	4673.55
948.716	4742.7
949.022	4646.21
949.327	4641.46
949.633	4607.79
949.938	4645.53
950.244	4604.62
950.549	4556.72
950.854	4521.91
951.16	4515.81
951.465	4536.15
951.77	4516.27
952.075	4502.93
952.38	4425.42
952.685	4429.71
952.99	4389.04
953.294	4355.37
953.599	4373.44
953.904	4360.79
954.209	4299.32
954.513	4290.51
954.818	4313.11
955.122	4256.16
955.426	4208.48
955.731	4232.21
956.035	4220.68
956.339	4185.65
956.643	4210.51
956.948	4171.64
957.252	4147.46
957.556	4134.58
957.86	4146.78
958.163	4109.27
958.467	4020.69
958.771	4094.36
959.075	4039.89
959.378	4028.37
959.682	4038.09
959.985	4024.98
960.289	3982.27
960.592	3988.14
960.896	3921.48
961.199	3933
961.502	3940.69
961.805	3891.88
962.108	3865.21
962.411	3873.57
962.714	3845.32
963.017	3843.51
963.32	3833.8
963.623	3819.56
963.926	3777.53
964.228	3766
964.531	3794.02
964.833	3746.34
965.136	3718.09
965.438	3732.11
965.741	3688.94
966.043	3632.22
966.345	3650.53
966.648	3606.01
966.95	3600.13
967.252	3563.3
967.554	3582.05
967.856	3547.25
968.158	3565.78
968.46	3523.52
968.761	3502.05
969.063	3485.56
969.365	3519.68
969.666	3483.07
969.968	3468.61
970.269	3485.78
970.571	3428.38
970.872	3427.03
971.174	3368.95
971.475	3419.8
971.776	3390.42
972.077	3383.64
972.378	3334.83
972.679	3338.9
972.98	3327.82
973.281	3270.87
973.582	3287.82
973.883	3254.83
974.183	3275.62
974.484	3228.16
974.785	3224.32
975.085	3214.38
975.386	3237.2
975.686	3170.09
975.986	3200.37
976.287	3207.83
976.587	3156.08
976.887	3121.95
977.187	3140.03
977.487	3088.51
977.787	3064.78
978.087	3064.1
978.387	3077.66
978.687	3026.36
978.987	3022.07
979.286	3027.04
979.586	2997.89
979.885	3005.57
980.185	2980.94
980.484	2989.75
980.784	2938.23
981.083	2909.98
981.382	2902.52
981.682	2907.49
981.981	2928.06
982.28	2909.08
982.579	2853.48
982.878	2875.63
983.177	2837.21
983.475	2841.96
983.774	2834.5
984.073	2793.15
984.372	2794.5
984.67	2804.67
984.969	2810.55
985.267	2769.42
985.566	2764
985.864	2749.98
986.162	2699.82
986.461	2756.99
986.759	2741.4
987.057	2694.84
987.355	2702.08
987.653	2664.11
987.951	2678.57
988.249	2621.63
988.547	2633.38
988.844	2590.21
989.142	2605.13
989.44	2598.12
989.737	2558.35
990.035	2574.85
990.332	2553.38
990.63	2544.57
990.927	2529.43
991.224	2495.53
991.521	2493.04
991.819	2501.18
992.116	2468.41
992.413	2483.32
992.71	2444.46
993.006	2433.83
993.303	2452.59
993.6	2404.68
993.897	2408.98
994.193	2373.5
994.49	2394.74
994.787	2392.03
995.083	2372.59
995.379	2371.01
995.676	2350.67
995.972	2364.01
996.268	2341.18
996.565	2321.07
996.861	2343.22
997.157	2290.11
997.453	2277
997.749	2264.57
998.044	2265.03
998.34	2235.87
998.636	2236.55
998.932	2234.97
999.227	2227.74
999.523	2196.55
999.818	2208.53
1000.114	2195.42
1000.409	2187.74
1000.704	2171.47
1001	2145.71
1001.295	2142.32
1001.59	2113.16
1001.885	2124.69
1002.18	2081.3
1002.475	2112.71
1002.77	2122.66
1003.065	2055.99
1003.359	2088.76
1003.654	2005.6
1003.949	2027.07
1004.243	2033.62
1004.538	1996.33
1004.832	1990.68
1005.127	1985.71
1005.421	1992.26
1005.715	1964.92
1006.009	1978.71
1006.304	1948.42
1006.598	1937.58
1006.892	1926.73
1007.186	1917.01
1007.48	1928.76
1007.773	1889.67
1008.067	1895.77
1008.361	1874.75
1008.655	1854.64
1008.948	1881.31
1009.242	1831.82
1009.535	1807.18
1009.829	1836.11
1010.122	1792.72
1010.415	1794.98
1010.708	1793.63
1011.001	1789.78
1011.295	1758.6
1011.588	1770.57
1011.881	1774.19
1012.173	1728.54
1012.466	1758.15
1012.759	1713.63
1013.052	1707.98
1013.344	1696.45
1013.637	1687.64
1013.93	1682.67
1014.222	1675.21
1014.514	1672.5
1014.807	1636.12
1015.099	1638.38
1015.391	1650.8
1015.683	1611.48
1015.976	1615.55
1016.268	1590.24
1016.56	1588.66
1016.851	1585.72
1017.143	1596.57
1017.435	1578.26
1017.727	1573.74
1018.018	1556.34
1018.31	1543.91
1018.602	1541.65
1018.893	1560.64
1019.185	1519.73
1019.476	1491.03
1019.767	1500.98
1020.058	1486.51
1020.35	1470.47
1020.641	1469.11
1020.932	1450.81
1021.223	1432.96
1021.514	1415.56
1021.804	1410.36
1022.095	1402.45
1022.386	1404.71
1022.677	1391.83
1022.967	1373.07
1023.258	1378.72
1023.548	1389.57
1023.839	1369.23
1024.129	1358.61
1024.419	1332.62
1024.709	1369.23
1025	1343.47
1025.29	1331.04
1025.58	1326.07
1025.87	1274.77
1026.16	1309.12
1026.449	1266.41
1026.739	1279.51
1027.029	1260.08
1027.319	1229.57
1027.608	1246.75
1027.898	1279.51
1028.187	1251.04
1028.477	1195
1028.766	1211.95
1029.055	1207.88
1029.344	1210.59
1029.634	1201.78
1029.923	1169.91
1030.212	1180.08
1030.501	1167.43
1030.79	1173.98
1031.078	1151.38
1031.367	1145.28
1031.656	1145.73
1031.945	1119.07
1032.233	1150.48
1032.522	1116.35
1032.81	1103.47
1033.099	1085.62
1033.387	1112.29
1033.675	1088.33
1033.963	1098.73
1034.251	1064.15
1034.54	1063.93
1034.828	1046.3
1035.116	1073.87
1035.403	1043.59
1035.691	1034.55
1035.979	1030.03
1036.267	1024.83
1036.554	1039.07
1036.842	1032.52
1037.129	992.29
1037.417	995.68
1037.704	1000.43
1037.992	1005.17
1038.279	979.86
1038.566	982.57
1038.853	982.57
1039.14	982.57
