Data from hue_330_FLMS001491_2.txt Node
Date: Mon Feb 06 15:44:47 GMT 2017
User: dcchb
Spectrometer: FLMS00149
Trigger mode: 0
Integration Time (sec): 2.000000E-2
Scans to average: 10
Electric dark correction enabled: true
Nonlinearity correction enabled: false
Boxcar width: 0
XAxis mode: Wavelengths
Number of Pixels in Spectrum: 2048
>>>>>Begin Spectral Data<<<<<
341.393	-10.2
341.776	-10.2
342.16	-10.2
342.543	-59.01
342.927	-81.61
343.31	-71.89
343.693	-84.32
344.077	-63.08
344.46	-54.49
344.843	-55.62
345.226	-56.07
345.61	-17.88
345.993	-14.04
346.376	-1.61
346.759	13.98
347.142	17.37
347.525	32.29
347.908	57.15
348.291	80.2
348.674	112.29
349.057	105.73
349.44	122.23
349.823	139.4
350.206	175.79
350.588	193.19
350.971	190.25
351.354	218.05
351.737	242.68
352.119	235.9
352.502	269.8
352.884	270.47
353.267	289
353.65	315.67
354.032	304.6
354.414	302.34
354.797	303.01
355.179	311.15
355.562	329.68
355.944	313.64
356.326	312.96
356.709	331.26
357.091	337.14
357.473	342.34
357.855	322.68
358.238	319.51
358.62	329
359.002	335.78
359.384	335.1
359.766	336.01
360.148	343.69
360.53	329.91
360.912	344.14
361.294	310.7
361.676	343.24
362.057	335.1
362.439	326.97
362.821	336.46
363.203	335.78
363.584	333.75
363.966	331.94
364.348	319.29
364.729	322.68
365.111	326.97
365.493	313.18
365.874	303.69
366.256	319.06
366.637	321.77
367.019	313.86
367.4	322.68
367.781	310.25
368.163	309.79
368.544	309.34
368.925	313.41
369.306	301.43
369.688	303.69
370.069	313.86
370.45	309.57
370.831	308.21
371.212	299.62
371.593	292.17
371.974	316.8
372.355	311.38
372.736	308.44
373.117	324.26
373.498	327.19
373.879	310.7
374.26	321.32
374.641	301.66
375.021	320.42
375.402	307.53
375.783	315.44
376.163	317.03
376.544	322.22
376.925	333.3
377.305	312.73
377.686	324.71
378.066	331.94
378.447	334.88
378.827	338.49
379.208	331.71
379.588	355.44
379.968	314.77
380.349	341.66
380.729	324.48
381.109	345.27
381.489	356.8
381.87	316.8
382.25	341.21
382.63	340.53
383.01	353.18
383.39	346.4
383.77	322
384.15	329.23
384.53	354.09
384.91	363.13
385.29	340.08
385.67	344.14
386.049	338.72
386.429	358.38
386.809	352.05
387.189	364.48
387.568	350.02
387.948	352.28
388.328	347.76
388.707	346.63
389.087	359.51
389.466	362.67
389.846	353.63
390.225	364.71
390.605	380.53
390.984	368.32
391.363	357.25
391.743	373.97
392.122	351.6
392.501	383.24
392.881	366.97
393.26	370.13
393.639	385.5
394.018	365.61
394.397	384.14
394.776	359.51
395.155	372.17
395.534	365.16
395.913	375.33
396.292	382.56
396.671	398.61
397.05	392.96
397.429	394.09
397.808	385.05
398.186	380.3
398.565	394.31
398.944	388.89
399.323	396.57
399.701	408.32
400.08	405.16
400.458	402.67
400.837	414.65
401.215	414.2
401.594	423.92
401.972	411.26
402.351	407.19
402.729	420.3
403.107	407.87
403.486	417.81
403.864	426.18
404.242	406.29
404.62	435.21
404.999	423.46
405.377	415.78
405.755	433.18
406.133	426.63
406.511	429.79
406.889	447.64
407.267	467.08
407.645	440.19
408.023	441.99
408.401	434.31
408.779	462.56
409.156	453.75
409.534	474.99
409.912	489
410.29	474.31
410.667	467.53
411.045	487.64
411.422	469.34
411.8	470.24
412.178	510.24
412.555	501.43
412.933	517.25
413.31	536.45
413.687	511.14
414.065	493.29
414.442	510.69
414.819	525.16
415.197	536.91
415.574	562.89
415.951	555.44
416.328	576
416.705	568.77
417.082	552.95
417.46	565.38
417.837	585.72
418.214	591.82
418.591	575.1
418.967	592.27
419.344	627.75
419.721	596.11
420.098	602.44
420.475	592.95
420.852	601.99
421.228	627.75
421.605	623.23
421.982	624.81
422.358	638.15
422.735	639.95
423.111	653.06
423.488	649.22
423.864	671.37
424.241	658.94
424.617	688.99
424.994	672.95
425.37	665.94
425.746	693.96
426.123	709.33
426.499	691.93
426.875	704.81
427.251	729.22
427.627	730.57
428.003	728.31
428.379	750.91
428.756	760.63
429.132	780.06
429.507	775.54
429.883	761.53
430.259	799.72
430.635	785.94
431.011	768.77
431.387	806.5
431.763	806.05
432.138	823.68
432.514	832.04
432.89	845.15
433.265	876.11
433.641	848.09
434.016	854.64
434.392	870.68
434.767	886.5
435.143	870.46
435.518	894.41
435.894	898.71
436.269	935.54
436.644	893.06
437.02	913.17
437.395	907.74
437.77	942.55
438.145	935.09
438.52	977.8
438.895	952.26
439.271	967.63
439.646	979.83
440.021	996.33
440.395	990.91
440.77	990.45
441.145	982.77
441.52	1046.27
441.895	1019.83
442.27	1021.41
442.645	1029.1
443.019	1036.33
443.394	1017.35
443.769	1056.44
444.143	1052.6
444.518	1059.83
444.892	1050.79
445.267	1106.84
445.641	1082.66
446.016	1075.88
446.39	1078.59
446.764	1081.53
447.139	1080.85
447.513	1068.42
447.887	1070
448.262	1109.32
448.636	1097.12
449.01	1098.93
449.384	1104.58
449.758	1118.81
450.132	1146.16
450.506	1127.85
450.88	1146.16
451.254	1119.26
451.628	1132.6
452.002	1139.15
452.376	1154.74
452.75	1157
453.123	1197.91
453.497	1181.86
453.871	1174.86
454.244	1197
454.618	1204.69
454.992	1230.45
455.365	1230.67
455.739	1241.3
456.112	1258.47
456.486	1276.32
456.859	1265.7
457.232	1286.27
457.606	1271.12
457.979	1278.13
458.352	1333.95
458.725	1316.77
459.099	1291.92
459.472	1345.25
459.845	1344.34
460.218	1384.57
460.591	1352.48
460.964	1361.74
461.337	1407.84
461.71	1411.46
462.083	1431.57
462.456	1424.12
462.829	1425.7
463.201	1474.74
463.574	1423.44
463.947	1477.45
464.32	1484.23
464.692	1498.69
465.065	1509.08
465.438	1498.01
465.81	1554.96
466.183	1557.67
466.555	1566.26
466.928	1546.15
467.3	1597.44
467.672	1579.14
468.045	1617.56
468.417	1662.3
468.789	1626.14
469.161	1645.35
469.534	1678.35
469.906	1687.84
470.278	1710.44
470.65	1761.28
471.022	1742.07
471.394	1765.12
471.766	1802.18
472.138	1789.53
472.51	1834.05
472.882	1855.97
473.253	1860.26
473.625	1892.13
473.997	1930.09
474.369	1888.51
474.74	1944.33
475.112	1973.03
475.484	1983.2
475.855	2038.56
476.227	2038.79
476.598	2062.52
476.97	2070.88
477.341	2137.09
477.713	2136.64
478.084	2145.23
478.455	2159.91
478.827	2207.6
479.198	2288.27
479.569	2275.17
479.94	2333.24
480.311	2350.19
480.682	2374.82
481.053	2421.6
481.424	2430.42
481.795	2435.39
482.166	2502.05
482.537	2563.29
482.908	2572.33
483.279	2602.84
483.65	2669.05
484.021	2658.21
484.391	2711.54
484.762	2706.12
485.133	2720.13
485.503	2773.01
485.874	2819.33
486.244	2792.89
486.615	2866.56
486.985	2915.15
487.356	2941.14
487.726	2946.79
488.097	3002.83
488.467	3009.16
488.837	3088.03
489.207	3068.14
489.578	3149.95
489.948	3165.54
490.318	3181.36
490.688	3199.44
491.058	3253.22
491.428	3267.68
491.798	3331.41
492.168	3381.13
492.538	3349.71
492.908	3406.44
493.278	3424.06
493.648	3487.79
494.017	3497.51
494.387	3530.73
494.757	3535.25
495.126	3568.69
495.496	3542.48
495.866	3581.12
496.235	3598.52
496.605	3624.96
496.974	3686.43
497.344	3677.84
497.713	3698.63
498.082	3734.34
498.452	3767.33
498.821	3755.13
499.19	3795.58
499.559	3831.28
499.928	3861.57
500.298	3849.36
500.667	3904.28
501.036	3875.12
501.405	3901.34
501.774	3911.51
502.143	3949.02
502.512	3944.73
502.88	4013.43
503.249	3952.64
503.618	3966.87
503.987	4065.63
504.356	4102.01
504.724	4037.61
505.093	4092.07
505.462	4069.7
505.83	4122.35
506.199	4130.48
506.567	4113.76
506.936	4152.63
507.304	4171.84
507.672	4206.19
508.041	4243.7
508.409	4181.1
508.777	4243.25
509.145	4278.28
509.514	4299.07
509.882	4343.81
510.25	4279.86
510.618	4327.99
510.986	4291.61
511.354	4374.09
511.722	4352.85
512.09	4425.84
512.458	4371.16
512.826	4466.97
513.193	4421.78
513.561	4442.57
513.929	4430.36
514.297	4528.21
514.664	4508.55
515.032	4523.24
515.4	4548.78
515.767	4539.74
516.135	4524.82
516.502	4507.2
516.869	4623.58
517.237	4628.32
517.604	4601.43
517.972	4640.98
518.339	4655.89
518.706	4635.33
519.073	4683.01
519.44	4704.71
519.808	4706.74
520.175	4717.14
520.542	4694.76
520.909	4759.85
521.276	4804.37
521.643	4768.21
522.009	4856.79
522.376	4814.08
522.743	4874.87
523.11	4875.1
523.477	4891.82
523.843	4906.51
524.21	4980.41
524.577	4984.7
524.943	5000.74
525.31	4972.95
525.676	5084.36
526.043	5119.61
526.409	5082.78
526.776	5157.35
527.142	5117.13
527.508	5203.45
527.874	5200.74
528.241	5201.42
528.607	5234.18
528.973	5300.4
529.339	5260.85
529.705	5306.27
530.071	5410.68
530.437	5426.5
530.803	5405.48
531.169	5418.81
531.535	5428.53
531.901	5504.46
532.267	5482.31
532.632	5489.32
532.998	5529.54
533.364	5534.97
533.73	5528.19
534.095	5657.68
534.461	5604.34
534.826	5624
535.192	5663.33
535.557	5672.14
535.923	5680.73
536.288	5686.83
536.653	5749.43
537.019	5726.15
537.384	5820.61
537.749	5814.28
538.114	5774.74
538.479	5820.16
538.845	5915.52
539.21	5878.69
539.575	5944.45
539.94	5952.36
540.305	6023.99
540.67	5977.44
541.034	6037.1
541.399	6046.59
541.764	6033.26
542.129	6052.02
542.494	6082.3
542.858	6124.56
543.223	6135.18
543.587	6190.54
543.952	6197.55
544.316	6206.36
544.681	6213.14
545.045	6247.27
545.41	6266.47
545.774	6356.19
546.138	6331.33
546.503	6357.32
546.867	6371.78
547.231	6477.99
547.595	6493.81
547.959	6444.32
548.324	6482.29
548.688	6509.63
549.052	6503.98
549.416	6553.47
549.779	6568.16
550.143	6597.31
550.507	6611.32
550.871	6679.12
551.235	6623.07
551.599	6648.16
551.962	6731.77
552.326	6698.78
552.689	6752.34
553.053	6769.51
553.417	6772.68
553.78	6826.68
554.143	6756.86
554.507	6837.76
554.87	6840.24
555.234	6938.32
555.597	6806.57
555.96	6902.16
556.323	6897.19
556.686	6950.3
557.05	6987.36
557.413	7018.77
557.776	7002.95
558.139	7019.67
558.502	7082.72
558.865	7032.33
559.228	7094.93
559.59	7138.09
559.953	7148.94
560.316	7198.65
560.679	7195.49
561.041	7195.04
561.404	7266
561.767	7264.64
562.129	7310.06
562.492	7319.55
562.854	7381.02
563.217	7359.55
563.579	7376.5
563.941	7447.01
564.304	7500.34
564.666	7486.33
565.028	7548.47
565.39	7527.01
565.753	7590.96
566.115	7647.45
566.477	7659.66
566.839	7622.37
567.201	7685.42
567.563	7624.86
567.925	7725.42
568.287	7698.07
568.648	7727.68
569.01	7827.56
569.372	7827.11
569.734	7842.93
570.095	7948.01
570.457	7930.38
570.819	7984.62
571.18	7977.39
571.542	8063.04
571.903	8138.51
572.265	8186.65
572.626	8152.53
572.987	8149.14
573.349	8223.48
573.71	8288.34
574.071	8358.17
574.432	8381.9
574.794	8539.18
575.155	8464.38
575.516	8546.19
575.877	8589.58
576.238	8669.12
576.599	8766.07
576.96	8745.05
577.32	8820.76
577.681	8880.64
578.042	9030.47
578.403	9174.65
578.763	9198.6
579.124	9247.19
579.485	9367.64
579.845	9451.25
580.206	9507.07
580.566	9659.38
580.927	9728.3
581.287	9896.43
581.648	9997.22
582.008	10205.13
582.368	10251.68
582.728	10408.74
583.089	10555.17
583.449	10703.19
583.809	10835.62
584.169	11009.85
584.529	11184.54
584.889	11376.4
585.249	11547.46
585.609	11703.84
585.969	11936.16
586.329	12179.99
586.688	12345.64
587.048	12583.37
587.408	12792.4
587.768	13067.65
588.127	13214.09
588.487	13440.75
588.846	13709.44
589.206	13875.99
589.565	14092.93
589.925	14450.67
590.284	14648.63
590.643	14981.5
591.003	15200.25
591.362	15460.81
591.721	15782.38
592.08	16029.83
592.44	16335.81
592.799	16649.7
593.158	16812.41
593.517	17203.14
593.876	17465.95
594.235	17625.05
594.593	18052.38
594.952	18319.49
595.311	18545.47
595.67	18916.31
596.029	19258.45
596.387	19629.96
596.746	19795.16
597.104	20090.97
597.463	20433.78
597.822	20728.92
598.18	20936.14
598.538	21214.33
598.897	21600.08
599.255	21751.72
599.613	22271.48
599.972	22400.51
600.33	22718.92
600.688	22893.38
601.046	23327.95
601.404	23768.39
601.762	23847.93
602.12	24191.88
602.478	24501.02
602.836	24821.24
603.194	24874.12
603.552	25194.56
603.91	25440.43
604.268	25713.87
604.625	25921.32
604.983	26340.97
605.341	26448.32
605.698	26886.5
606.056	27117.45
606.413	27288.29
606.771	27601.73
607.128	27851.22
607.485	28014.15
607.843	28267.7
608.2	28446.23
608.557	28825.88
608.914	28903.17
609.272	29386.77
609.629	29481.23
609.986	29939.3
610.343	29893.87
610.7	30297.71
611.057	30479.4
611.414	30591.03
611.771	30739.05
612.127	31044.58
612.484	31190.11
612.841	31478.24
613.198	31538.13
613.554	31632.36
613.911	32027.15
614.267	32186.92
614.624	32235.73
614.98	32492
615.337	32790.07
615.693	32782.61
616.05	32866.68
616.406	33138.99
616.762	33284.52
617.118	33468.02
617.475	33537.17
617.831	33761.12
618.187	33899.19
618.543	34183.71
618.899	34334.44
619.255	34446.3
619.611	34480.65
619.967	34653.3
620.323	34951.14
620.678	34913.63
621.034	35022.33
621.39	35166.73
621.746	35088.54
622.101	35688.75
622.457	35462.09
622.812	35531.47
623.168	35901.17
623.523	35832.25
623.879	36016.2
624.234	35891.01
624.589	36020.95
624.945	36210.32
625.3	36274.27
625.655	36285.8
626.01	36424.78
626.365	36497.32
626.72	36608.95
627.075	36561.95
627.43	36561.27
627.785	36530.76
628.14	36762.39
628.495	36840.13
628.85	36910.87
629.205	36719.91
629.559	37080.13
629.914	36939.79
630.269	37042.39
630.623	37152.89
630.978	37079.22
631.332	37315.15
631.687	37352.89
632.041	37296.39
632.396	37351.98
632.75	37321.7
633.104	37407.35
633.459	37235.15
633.813	37366.9
634.167	37333.45
634.521	37368.48
634.875	37450.96
635.229	37405.77
635.583	37278.09
635.937	37404.41
636.291	37295.26
636.645	37413.23
636.999	37342.27
637.352	37530.74
637.706	37211.65
638.06	37462.26
638.413	37275.83
638.767	37244.42
639.121	37402.15
639.474	37153.12
639.828	37263.4
640.181	37250.29
640.534	37322.38
640.888	37335.71
641.241	37120.13
641.594	37173.68
641.947	37359.22
642.301	37194.02
642.654	37240.57
643.007	37292.1
643.36	37227.92
643.713	37160.12
644.066	37354.7
644.419	37209.84
644.771	37000.81
645.124	36521.05
645.477	36503.42
645.83	36396.08
646.182	36333.03
646.535	36099.14
646.888	36177.1
647.24	36115.41
647.593	36257.55
647.945	36211
648.298	36128.51
648.65	35961.06
649.002	35980.49
649.355	36154.5
649.707	36073.6
650.059	36269.53
650.411	36609.63
650.763	36632.45
651.115	37019.11
651.467	36987.02
651.819	36888.27
652.171	36864.09
652.523	36933.01
652.875	36789.29
653.227	36661.61
653.578	36874.93
653.93	36800.36
654.282	36558.78
654.633	36446.7
654.985	36707.48
655.337	36706.58
655.688	36616.41
656.039	36742.96
656.391	36428.39
656.742	36448.28
657.094	36620.7
657.445	36615.05
657.796	36751.32
658.147	36535.96
658.498	36650.08
658.849	36626.13
659.2	36650.76
659.551	36472.69
659.902	36673.36
660.253	36589.97
660.604	36636.3
660.955	36539.58
661.306	36511.33
661.656	36557.88
662.007	36617.09
662.358	36609.4
662.708	36547.94
663.059	36520.59
663.409	36314.72
663.76	36550.2
664.11	36569.63
664.461	36520.14
664.811	36563.76
665.161	36412.12
665.511	36383.87
665.862	36448.5
666.212	36599.46
666.562	36608.73
666.912	36481.27
667.262	36393.82
667.612	36377.09
667.962	36349.52
668.312	36416.19
668.662	36641.72
669.011	36451.89
669.361	36472.46
669.711	36238.34
670.06	36211.9
670.41	36322.18
670.76	36258.23
671.109	36433.36
671.459	36272.46
671.808	36206.25
672.157	36271.79
672.507	36037.89
672.856	36166.48
673.205	36119.02
673.554	36192.47
673.904	36184.56
674.253	36423.19
674.602	36341.84
674.951	35638.36
675.3	35470
675.649	36227.04
675.998	36170.55
676.346	36064.79
676.695	36106.82
677.044	35860.5
677.393	36048.06
677.741	36082.64
678.09	36017.33
678.438	35922.19
678.787	35905.92
679.135	35965.58
679.484	35721.52
679.832	35920.61
680.181	35614.4
680.529	35816.88
680.877	35585.02
681.225	35613.95
681.573	35895.53
681.922	35603.56
682.27	35491.69
682.618	35596.1
682.966	35378.02
683.314	35540.28
683.661	35423.45
684.009	35231.59
684.357	35194.53
684.705	35110.46
685.053	35225.26
685.4	35106.62
685.748	34841.09
686.095	34907.3
686.443	34894.42
686.79	34784.37
687.138	34842.9
687.485	34854.87
687.832	34705.95
688.18	34721.77
688.527	34599.06
688.874	34584.37
689.221	34555
689.568	34513.87
689.915	34426.86
690.262	34363.14
690.609	34121.56
690.956	34124.5
691.303	34049.25
691.65	33935.8
691.997	33913.2
692.344	33713.21
692.69	33622.14
693.037	33752.08
693.383	33382.6
693.73	33546.43
694.077	33480.9
694.423	33411.75
694.769	33239.55
695.116	33253.11
695.462	33131.08
695.808	33062.15
696.155	33085.2
696.501	32787.81
696.847	32807.7
697.193	32732.44
697.539	32671.88
697.885	32505.56
698.231	32359.8
698.577	32447.93
698.923	32341.49
699.269	32241.38
699.614	32125.91
699.96	32099.24
700.306	32163.19
700.651	31917.55
700.997	31796.88
701.342	31696.09
701.688	31850.89
702.033	31612.93
702.379	31695.41
702.724	31490.67
703.069	31562.53
703.415	31317.79
703.76	31193.5
704.105	31207.96
704.45	31072.15
704.795	30944.47
705.14	30925.03
705.485	30890.23
705.83	30810.69
706.175	30835.09
706.52	30799.61
706.865	30544.25
707.209	30630.35
707.554	30466.06
707.899	30564.59
708.243	30270.36
708.588	30370.7
708.932	30140.87
709.277	30096.58
709.621	30158.27
709.966	29868.34
710.31	29978.84
710.654	29722.35
710.998	29810.94
711.342	29843.48
711.687	29716.03
712.031	29693.43
712.375	29576.14
712.719	29622.7
713.063	29518.07
713.407	29611.85
713.75	29455.92
714.094	29395.58
714.438	29126.66
714.782	29258.41
715.125	29066.78
715.469	29138.19
715.812	29068.36
716.156	28821.36
716.499	28803.96
716.843	28793.56
717.186	28636.51
717.53	28768.93
717.873	28700.01
718.216	28705.43
718.559	28535.27
718.902	28404.87
719.246	28591.31
719.589	28549.73
719.932	28317.65
720.275	28252.56
720.617	28236.52
720.96	28316.52
721.303	28288.49
721.646	28168.27
721.989	28013.47
722.331	28168.72
722.674	27950.65
723.016	27995.39
723.359	27945.23
723.701	28015.51
724.044	27900.93
724.386	27686.48
724.729	27773.7
725.071	27744.55
725.413	27770.09
725.755	27669.53
726.097	27622.3
726.439	27335.75
726.782	27359.03
727.124	27564.9
727.465	27362.87
727.807	27345.02
728.149	27225.92
728.491	27264.57
728.833	27284.9
729.175	27298.24
729.516	27016.44
729.858	26956.1
730.199	27119.03
730.541	27065.93
730.882	26954.97
731.224	27023.67
731.565	26828.64
731.906	26989.77
732.248	26914.07
732.589	26797.01
732.93	26644.69
733.271	26648.99
733.612	26747.52
733.953	26710.68
734.294	26507.75
734.635	26539.84
734.976	26490.12
735.317	26406.51
735.658	26312.5
735.999	26424.36
736.339	26411.93
736.68	26396.57
737.021	26410.12
737.361	26046.97
737.702	26368.32
738.042	26163.58
738.383	26175.78
738.723	26167.42
739.063	26022.34
739.404	26187.31
739.744	25984.6
740.084	25964.94
740.424	26051.49
740.764	25893.75
741.104	26058.72
741.444	25787.77
741.784	25655.12
742.124	25734.21
742.464	25751.16
742.804	25718.17
743.143	25640.88
743.483	25680.43
743.823	25540.09
744.162	25655.79
744.502	25540.32
744.841	25447.66
745.181	25502.35
745.52	25276.82
745.86	25355.69
746.199	25216.26
746.538	25293.54
746.877	25407.89
747.216	25256.93
747.556	25141.91
747.895	25234.34
748.234	24976.49
748.573	25075.24
748.911	24991.63
749.25	25007.22
749.589	24854.01
749.928	24884.74
750.267	24921.12
750.605	24892.65
750.944	24709.6
751.283	24590.51
751.621	24768.59
751.96	24651.07
752.298	24563.62
752.636	24615.14
752.975	24483.85
753.313	24369.27
753.651	24461.25
753.989	24319.78
754.327	24287.02
754.666	24193.69
755.004	24137.87
755.342	24237.53
755.679	24047.02
756.017	24028.04
756.355	23983.52
756.693	23952.79
757.031	23951.21
757.368	23802.51
757.706	23790.31
758.044	23732.46
758.381	23760.02
758.719	23647.94
759.056	23663.76
759.394	23582.4
759.731	23321.17
760.068	23402.52
760.405	23298.34
760.743	23234.16
761.08	23324.78
761.417	23063.77
761.754	23072.81
762.091	23055.18
762.428	23008.86
762.765	22810.9
763.102	22777.45
763.438	22832.37
763.775	22677.79
764.112	22640.96
764.449	22558.47
764.785	22519.83
765.122	22280.29
765.458	22249.78
765.795	22324.36
766.131	22228.54
766.467	22147.64
766.804	22052.73
767.14	21972.73
767.476	21896.35
767.812	21829.23
768.148	21886.63
768.485	21766.18
768.821	21684.83
769.157	21520.76
769.492	21550.82
769.828	21509.24
770.164	21342.01
770.5	21354.66
770.836	21220.88
771.171	21215.91
771.507	21021.34
771.842	21005.97
772.178	20946.09
772.513	20862.7
772.849	20769.6
773.184	20705.19
773.519	20701.12
773.855	20642.59
774.19	20418.42
774.525	20401.7
774.86	20411.64
775.195	20443.05
775.53	20349.95
775.865	20166.22
776.2	20037.64
776.535	19986.56
776.87	19898.88
777.205	19792.67
777.539	19671.09
777.874	19799.23
778.209	19564.66
778.543	19478.33
778.878	19422.96
779.212	19469.52
779.547	19343.64
779.881	19295.28
780.215	19188.62
780.55	19207.6
780.884	19096.19
781.218	19117.21
781.552	19080.83
781.886	18918.57
782.22	18798.57
782.554	18799.7
782.888	18580.95
783.222	18587.51
783.556	18501.63
783.889	18444.68
784.223	18246.05
784.557	18233.62
784.89	18191.13
785.224	18160.62
785.557	18091.93
785.891	18024.13
786.224	18001.53
786.558	17934.64
786.891	17860.29
787.224	17735.32
787.557	17758.37
787.891	17703.01
788.224	17687.42
788.557	17687.19
788.89	17504.37
789.223	17571.49
789.556	17411.49
789.888	17303.47
790.221	17312.51
790.554	17148
790.887	17229.58
791.219	17131.5
791.552	17078.62
791.884	16983.48
792.217	16904.84
792.549	16824.39
792.882	16765.41
793.214	16698.97
793.546	16649.48
793.879	16550.95
794.211	16548.01
794.543	16570.84
794.875	16473.21
795.207	16456.49
795.539	16456.04
795.871	16333.33
796.203	16210.84
796.535	16139.43
796.867	16056.95
797.198	16140.34
797.53	16013.56
797.862	16017.18
798.193	15943.28
798.525	15887.69
798.856	15975.37
799.188	15712.33
799.519	15743.96
799.85	15630.97
800.182	15620.58
800.513	15618.32
800.844	15388.04
801.175	15550.98
801.506	15450.86
801.837	15445.44
802.168	15420.58
802.499	15330.87
802.83	15247.48
803.161	15160.03
803.491	15186.24
803.822	15103.53
804.153	15058.78
804.483	15012.01
804.814	14944.89
805.145	14913.48
805.475	14852.91
805.805	14884.78
806.136	14784.89
806.466	14751.67
806.796	14741.73
807.126	14650.43
807.457	14603.43
807.787	14527.5
808.117	14539.48
808.447	14447.05
808.777	14586.03
809.107	14488.18
809.436	14407.95
809.766	14390.78
810.096	14346.26
810.426	14233.5
810.755	14217.9
811.085	14297.67
811.414	14189.88
811.744	14077.12
812.073	14067.4
812.403	14103.78
812.732	13981.07
813.061	13943.11
813.39	13894.52
813.719	13924.58
814.049	13833.96
814.378	13818.14
814.707	13865.37
815.036	13796.67
815.365	13722.32
815.693	13603.68
816.022	13676.67
816.351	13515.77
816.68	13531.59
817.008	13564.81
817.337	13492.5
817.665	13398.94
817.994	13429.45
818.322	13412.27
818.651	13342.22
818.979	13295.22
819.307	13388.77
819.636	13237.82
819.964	13252.28
820.292	13248.44
820.62	13226.29
820.948	13211.83
821.276	13271.71
821.604	13195.11
821.932	13219.51
822.259	13146.52
822.587	13192.85
822.915	13132.28
823.243	13269
823.57	13156.69
823.898	13158.72
824.225	13049.8
824.553	13110.36
824.88	13097.25
825.207	13188.1
825.535	13143.81
825.862	13165.05
826.189	13097.93
826.516	13079.4
826.843	13218.16
827.17	13120.98
827.497	13175.44
827.824	13193.52
828.151	13184.48
828.478	13132.51
828.805	13122.79
829.131	13109.23
829.458	13057.26
829.785	13036.01
830.111	13084.37
830.438	13133.64
830.764	13123.69
831.09	13036.69
831.417	12969.57
831.743	13046.63
832.069	13055.9
832.395	12968.67
832.722	13060.42
833.048	12948.78
833.374	12961.66
833.7	12981.55
834.026	12937.26
834.351	12917.15
834.677	12937.26
835.003	12981.1
835.329	12897.03
835.654	12959.18
835.98	12802.57
836.306	12871.27
836.631	12761.9
836.956	12778.39
837.282	12815
837.607	12701.11
837.932	12736.36
838.258	12698.17
838.583	12699.75
838.908	12666.98
839.233	12630.83
839.558	12581.79
839.883	12602.35
840.208	12489.59
840.533	12578.85
840.858	12516.48
841.182	12536.82
841.507	12488.91
841.832	12445.75
842.156	12441.68
842.481	12434.22
842.805	12385.41
843.13	12369.36
843.454	12346.77
843.778	12282.36
844.103	12294.56
844.427	12238.07
844.751	12243.94
845.075	12175.92
845.399	12187
845.723	12065.19
846.047	12097.96
846.371	12013.22
846.695	12055.7
847.019	11944.06
847.343	11843.05
847.666	11780.68
847.99	11830.62
848.313	11709.72
848.637	11686.9
848.96	11657.74
849.284	11623.85
849.607	11565.77
849.931	11509.05
850.254	11434.25
850.577	11451.2
850.9	11255.72
851.223	11333.23
851.546	11319.22
851.869	11173.46
852.192	11269.05
852.515	11060.47
852.838	11067.48
853.161	11101.37
853.483	11053.47
853.806	10974.6
854.129	10937.31
854.451	10840.59
854.774	10826.58
855.096	10743.19
855.419	10791.1
855.741	10722.18
856.063	10708.62
856.385	10635.62
856.708	10641.95
857.03	10604.89
857.352	10637.21
857.674	10538.68
857.996	10491.67
858.318	10405.35
858.64	10458
858.961	10420.04
859.283	10437.21
859.605	10340.72
859.926	10338.91
860.248	10265.01
860.57	10269.31
860.891	10299.14
861.212	10255.97
861.534	10224.79
861.855	10204.68
862.176	10200.61
862.498	10167.16
862.819	10135.3
863.14	10052.36
863.461	10058.01
863.782	10048.3
864.103	10052.81
864.424	9994.51
864.745	10019.37
865.065	10024.79
865.386	9994.74
865.707	9919.03
866.027	9954.74
866.348	9871.12
866.668	9884.68
866.989	9908.64
867.309	9869.54
867.63	9832.03
867.95	9858.7
868.27	9741.18
868.59	9832.71
868.91	9807.17
869.23	9778.02
869.55	9634.75
869.87	9806.95
870.19	9766.04
870.51	9797.45
870.83	9688.08
871.15	9666.16
871.469	9628.87
871.789	9655.76
872.109	9612.37
872.428	9632.94
872.748	9716.33
873.067	9578.93
873.386	9627.97
873.706	9556.78
874.025	9508.42
874.344	9492.38
874.663	9532.6
874.982	9486.05
875.301	9458.25
875.62	9453.51
875.939	9423.45
876.258	9423.23
876.577	9363.34
876.896	9410.57
877.214	9321.08
877.533	9305.49
877.852	9315.88
878.17	9322.21
878.489	9335.32
878.807	9292.61
879.125	9268.43
879.444	9289.67
879.762	9191.14
880.08	9286.96
880.398	9192.5
880.716	9239.95
881.034	9168.09
881.352	9189.33
881.67	9192.72
881.988	9074.31
882.306	9180.07
882.624	9091.71
882.941	9055.78
883.259	9039.96
883.577	9033.18
883.894	8982.56
884.212	9041.54
884.529	8875.67
884.846	8874.09
885.164	8950.92
885.481	8901.43
885.798	8890.81
886.115	8853.52
886.432	8868.44
886.75	8772.85
887.067	8811.94
887.383	8787.99
887.7	8740.98
888.017	8692.17
888.334	8704.83
888.651	8645.85
888.967	8758.39
889.284	8648.11
889.6	8546.41
889.917	8571.05
890.233	8582.34
890.55	8555.9
890.866	8521.78
891.182	8499.86
891.498	8472.74
891.815	8435.46
892.131	8432.07
892.447	8347.32
892.763	8383.93
893.079	8334.44
893.395	8354.1
893.71	8286.76
894.026	8347.77
894.342	8260.55
894.657	8263.94
894.973	8212.19
895.289	8216.7
895.604	8194.78
895.92	8061
896.235	8131.96
896.55	8065.75
896.865	8097.61
897.181	8054.68
897.496	8051.29
897.811	7997.95
898.126	7924.06
898.441	7904.85
898.756	7841.12
899.071	7857.39
899.386	7900.1
899.7	7752.99
900.015	7735.81
900.33	7691.97
900.644	7725.87
900.959	7727
901.273	7654.46
901.588	7617.17
901.902	7640
902.216	7532.88
902.531	7549.15
902.845	7472.09
903.159	7491.53
903.473	7436.39
903.787	7440.23
904.101	7383.73
904.415	7387.35
904.729	7355.48
905.042	7306.9
905.356	7270.29
905.67	7274.81
905.984	7248.37
906.297	7236.17
906.611	7152.78
906.924	7167.24
907.237	7109.62
907.551	7121.59
907.864	7098.77
908.177	7116.62
908.491	7045.44
908.804	6960.92
909.117	7005.89
909.43	6907.13
909.743	6840.24
910.056	6930.64
910.368	6884.54
910.681	6845.67
910.994	6790.53
911.307	6764.77
911.619	6763.86
911.932	6767.25
912.244	6670.98
912.557	6651.77
912.869	6683.86
913.181	6640.93
913.494	6598.22
913.806	6562.74
914.118	6556.18
914.43	6510.99
914.742	6466.02
915.054	6460.14
915.366	6400.03
915.678	6429.63
915.99	6341.05
916.302	6339.24
916.613	6324.78
916.925	6300.15
917.236	6290.88
917.548	6239.36
917.859	6229.41
918.171	6216.76
918.482	6111.45
918.794	6153.71
919.105	6140.6
919.416	6098.34
919.727	6001.4
920.038	6103.99
920.349	6009.53
920.66	5937.89
920.971	5979.7
921.282	5956.88
921.593	5882.75
921.903	5893.83
922.214	5844.56
922.525	5838.69
922.835	5840.04
923.146	5807.95
923.456	5801.4
923.767	5755.53
924.077	5711.91
924.387	5712.82
924.697	5641.63
925.008	5648.64
925.318	5576.32
925.628	5593.27
925.938	5588.3
926.248	5534.29
926.558	5544.23
926.867	5512.14
927.177	5518.24
927.487	5505.59
927.796	5409.55
928.106	5394.41
928.416	5423.11
928.725	5357.12
929.034	5368.19
929.344	5363.22
929.653	5319.61
929.962	5256.33
930.271	5247.52
930.581	5226.5
930.89	5153.51
931.199	5225.6
931.508	5140.18
931.817	5140.63
932.125	5153.73
932.434	5173.62
932.743	5110.57
933.051	5059.27
933.36	5046.84
933.669	5036.45
933.977	4995.32
934.286	4951.03
934.594	4977.02
934.902	4924.14
935.21	4899.05
935.519	4942.21
935.827	4909.22
936.135	4844.82
936.443	4855.89
936.751	4821.31
937.059	4774.99
937.367	4731.15
937.674	4741.32
937.982	4733.18
938.29	4735.21
938.597	4722.33
938.905	4633.07
939.213	4690.92
939.52	4619.74
939.827	4630.81
940.135	4590.36
940.442	4585.61
940.749	4566.86
941.056	4599.62
941.363	4552.85
941.67	4531.6
941.977	4502.9
942.284	4438.73
942.591	4476.24
942.898	4390.82
943.205	4408.44
943.511	4373.87
943.818	4370.25
944.125	4321.21
944.431	4308.56
944.738	4331.84
945.044	4321.21
945.35	4252.97
945.657	4246.41
945.963	4215
946.269	4227.21
946.575	4236.24
946.881	4185.85
947.187	4201.67
947.493	4202.57
947.799	4184.04
948.105	4113.99
948.41	4065.4
948.716	4087.1
949.022	4071.96
949.327	4045.29
949.633	4023.82
949.938	3980.88
950.244	4037.61
950.549	3963.03
950.854	3940.66
951.16	3926.87
951.465	3923.94
951.77	3914.9
952.075	3886.88
952.38	3875.12
952.685	3849.36
952.99	3839.42
953.294	3819.31
953.599	3762.81
953.904	3792.64
954.209	3780.44
954.513	3777.05
954.818	3766.65
955.122	3726.65
955.426	3706.31
955.731	3659.99
956.035	3690.04
956.339	3699.31
956.643	3676.94
956.948	3633.32
957.252	3599.2
957.556	3587.67
957.86	3568.69
958.163	3589.26
958.467	3545.64
958.771	3544.96
959.075	3559.2
959.378	3523.04
959.682	3507.68
959.985	3453.67
960.289	3430.62
960.592	3459.09
960.896	3421.8
961.199	3443.72
961.502	3460.45
961.805	3419.54
962.108	3378.64
962.411	3377.51
962.714	3323.27
963.017	3378.19
963.32	3319.88
963.623	3305.87
963.926	3301.35
964.228	3277.4
964.531	3234.69
964.833	3241.47
965.136	3217.51
965.438	3221.81
965.741	3178.42
966.043	3152.88
966.345	3185.2
966.648	3213.22
966.95	3154.47
967.252	3111.08
967.554	3112.88
967.856	3115.37
968.158	3088.7
968.46	3082.38
968.761	3100.91
969.063	3056.39
969.365	3045.32
969.666	3048.48
969.968	2990.4
970.269	2996.73
970.571	2996.5
970.872	2977.52
971.174	2974.13
971.475	2964.19
971.776	2952.44
972.077	2935.71
972.378	2908.14
972.679	2902.04
972.98	2903.4
973.281	2911.99
973.582	2836.73
973.883	2860.91
974.183	2870.86
974.484	2823.17
974.785	2829.95
975.085	2810.52
975.386	2758.77
975.686	2792.44
975.986	2786.79
976.287	2760.13
976.587	2749.28
976.887	2720.58
977.187	2742.95
977.487	2681.26
977.787	2673.8
978.087	2669.05
978.387	2685.78
978.687	2691.43
978.987	2677.42
979.286	2681.26
979.586	2641.94
979.885	2606.23
980.185	2595.84
980.484	2585.21
980.784	2617.76
981.083	2587.93
981.382	2594.93
981.682	2551.54
981.981	2537.08
982.28	2528.72
982.579	2550.19
982.878	2553.58
983.177	2489.62
983.475	2486.91
983.774	2458.66
984.073	2469.29
984.372	2441.72
984.67	2476.06
984.969	2411.66
985.267	2441.94
985.566	2415.05
985.864	2409.4
986.162	2382.96
986.461	2399.23
986.759	2374.15
987.057	2354.03
987.355	2361.27
987.653	2288.05
987.951	2319.68
988.249	2339.57
988.547	2316.07
988.844	2311.1
989.142	2291.89
989.44	2251.44
989.737	2295.73
990.035	2236.3
990.332	2207.82
990.63	2264.32
990.927	2239.46
991.224	2223.42
991.521	2196.3
991.819	2168.28
992.116	2217.77
992.413	2186.13
992.71	2195.39
993.006	2156.3
993.303	2164.43
993.6	2152.23
993.897	2154.49
994.193	2134.83
994.49	2129.63
994.787	2091.67
995.083	2082.63
995.379	2046.02
995.676	2072.91
995.972	2057.32
996.268	2037.43
996.565	2021.61
996.861	2016.87
997.157	2024.1
997.453	2023.42
997.749	1998.34
998.044	1990.2
998.34	1988.39
998.636	1954.95
998.932	1971.22
999.227	1951.56
999.523	1978.22
999.818	1924.89
1000.114	1927.38
1000.409	1912.24
1000.704	1888.96
1001	1900.94
1001.295	1886.48
1001.59	1870.88
1001.885	1881.5
1002.18	1851.45
1002.475	1832.24
1002.77	1838.12
1003.065	1794.05
1003.359	1796.76
1003.654	1779.59
1003.949	1782.07
1004.243	1768.51
1004.538	1775.29
1004.832	1779.13
1005.127	1787.04
1005.421	1721.06
1005.715	1747.95
1006.009	1750.66
1006.304	1690.55
1006.598	1721.73
1006.892	1692.58
1007.186	1679.25
1007.48	1675.63
1007.773	1657.33
1008.067	1688.51
1008.361	1653.26
1008.655	1679.25
1008.948	1623.66
1009.242	1617.56
1009.535	1618.46
1009.829	1629.99
1010.122	1612.36
1010.415	1582.53
1010.708	1588.86
1011.001	1558.12
1011.295	1552.25
1011.588	1550.21
1011.881	1527.16
1012.173	1550.21
1012.466	1547.28
1012.759	1521.97
1013.052	1510.89
1013.344	1531.91
1013.637	1503.66
1013.93	1487.39
1014.222	1495.07
1014.514	1491.68
1014.807	1460.95
1015.099	1468.63
1015.391	1476.32
1015.683	1440.84
1015.976	1461.85
1016.268	1427.28
1016.56	1404
1016.851	1416.21
1017.143	1411.91
1017.435	1411.46
1017.727	1377.11
1018.018	1361.52
1018.31	1370.56
1018.602	1380.5
1018.893	1360.16
1019.185	1362.87
1019.476	1329.2
1019.767	1306.6
1020.058	1310.9
1020.35	1340.05
1020.641	1301.41
1020.932	1313.16
1021.223	1290.56
1021.514	1268.86
1021.804	1269.99
1022.095	1277.45
1022.386	1271.35
1022.677	1260.73
1022.967	1229.54
1023.258	1213.5
1023.548	1217.57
1023.839	1200.62
1024.129	1200.17
1024.419	1200.62
1024.709	1184.8
1025	1167.17
1025.29	1162.88
1025.58	1158.81
1025.87	1176.66
1026.16	1120.62
1026.449	1138.02
1026.739	1129.89
1027.029	1102.99
1027.319	1121.3
1027.608	1126.5
1027.898	1096.44
1028.187	1093.05
1028.477	1077.01
1028.766	1081.3
1029.055	1078.14
1029.344	1092.82
1029.634	1059.38
1029.923	1060.51
1030.212	1035.42
1030.501	1042.88
1030.79	1041.98
1031.078	1033.16
1031.367	1020.51
1031.656	1024.8
1031.945	1028.87
1032.233	1022.77
1032.522	1007.18
1032.81	1009.21
1033.099	1013.96
1033.387	1015.54
1033.675	966.27
1033.963	993.62
1034.251	988.65
1034.54	977.8
1034.828	959.27
1035.116	990.91
1035.403	960.4
1035.691	931.92
1035.979	924.02
1036.267	908.42
1036.554	936.9
1036.842	900.97
1037.129	915.65
1037.417	907.52
1037.704	908.2
1037.992	887.63
1038.279	891.47
1038.566	907.52
1038.853	907.52
1039.14	907.52
