Data from hue_100_FLMS001491_00024.txt Node
Date: Tue Feb 07 17:02:55 GMT 2017
User: dcchb
Spectrometer: FLMS00149
Trigger mode: 0
Integration Time (sec): 2.000000E-2
Scans to average: 10
Electric dark correction enabled: true
Nonlinearity correction enabled: false
Boxcar width: 0
XAxis mode: Wavelengths
Number of Pixels in Spectrum: 2048
>>>>>Begin Spectral Data<<<<<
341.393	1.1
341.776	1.1
342.16	1.1
342.543	-91.55
342.927	-97.65
343.31	-56.52
343.693	-82.74
344.077	-84.55
344.46	-40.25
344.843	-40.71
345.226	-35.96
345.61	-43.87
345.993	-28.73
346.376	16.02
346.759	-9.52
347.142	35.45
347.525	50.59
347.908	36.13
348.291	79.74
348.674	90.82
349.057	114.09
349.44	144.15
349.823	149.8
350.206	173.07
350.588	193.64
350.971	199.29
351.354	213.07
351.737	238.84
352.119	252.39
352.502	258.5
352.884	262.11
353.267	280.19
353.65	294.43
354.032	286.52
354.414	281.32
354.797	305.95
355.179	324.48
355.562	330.81
355.944	321.55
356.326	324.03
356.709	350.7
357.091	342.11
357.473	331.49
357.855	323.81
358.238	334.65
358.62	313.86
359.002	329.68
359.384	324.71
359.766	344.6
360.148	367.87
360.53	335.56
360.912	336.91
361.294	322
361.676	330.58
362.057	331.94
362.439	332.17
362.821	344.6
363.203	320.64
363.584	315.44
363.966	299.4
364.348	333.75
364.729	322.22
365.111	310.47
365.493	342.79
365.874	338.27
366.256	301.66
366.637	318.83
367.019	333.52
367.4	320.42
367.781	327.19
368.163	312.28
368.544	298.04
368.925	304.6
369.306	332.62
369.688	327.42
370.069	324.93
370.45	301.43
370.831	312.05
371.212	312.28
371.593	330.36
371.974	297.82
372.355	304.14
372.736	328.1
373.117	325.39
373.498	315.67
373.879	315.44
374.26	303.47
374.641	306.63
375.021	328.55
375.402	319.74
375.783	300.3
376.163	330.13
376.544	346.18
376.925	332.84
377.305	328.55
377.686	336.23
378.066	342.11
378.447	331.71
378.827	320.87
379.208	329.45
379.588	360.19
379.968	326.29
380.349	339.62
380.729	347.99
381.109	354.76
381.489	334.43
381.87	338.72
382.25	337.59
382.63	338.27
383.01	347.99
383.39	356.12
383.77	357.93
384.15	329
384.53	345.5
384.91	364.03
385.29	357.02
385.67	344.14
386.049	379.62
386.429	371.26
386.809	363.8
387.189	354.76
387.568	349.34
387.948	352.05
388.328	327.19
388.707	371.71
389.087	343.01
389.466	371.04
389.846	374.43
390.225	383.92
390.605	386.85
390.984	365.39
391.363	366.74
391.743	399.96
392.122	386.18
392.501	371.94
392.881	402
393.26	363.58
393.639	370.58
394.018	367.87
394.397	391.15
394.776	382.11
395.155	393.41
395.534	376.46
395.913	421.43
396.292	383.24
396.671	406.29
397.05	392.96
397.429	401.32
397.808	403.12
398.186	417.59
398.565	405.16
398.944	410.36
399.323	408.1
399.701	418.94
400.08	412.16
400.458	414.42
400.837	413.29
401.215	406.97
401.594	421.66
401.972	436.12
402.351	418.27
402.729	432.5
403.107	425.5
403.486	451.71
403.864	436.8
404.242	427.98
404.62	426.85
404.999	413.97
405.377	463.24
405.755	474.99
406.133	468.66
406.511	434.54
406.889	455.78
407.267	461.43
407.645	471.37
408.023	470.24
408.401	469.11
408.779	470.47
409.156	461.65
409.534	479.73
409.912	474.54
410.29	491.03
410.667	474.99
411.045	506.17
411.422	514.53
411.8	477.25
412.178	500.98
412.555	514.99
412.933	513.4
413.31	518.15
413.687	518.83
414.065	541.65
414.442	545.49
414.819	538.94
415.197	529.9
415.574	538.26
415.951	542.56
416.328	543.69
416.705	545.04
417.082	546.4
417.46	561.76
417.837	580.97
418.214	546.85
418.591	559.96
418.967	559.28
419.344	562.22
419.721	556.79
420.098	581.2
420.475	576.45
420.852	578.94
421.228	573.97
421.605	583.01
421.982	599.05
422.358	594.08
422.735	616.23
423.111	613.06
423.488	614.19
423.864	611.93
424.241	665.72
424.617	638.37
424.994	637.24
425.37	618.49
425.746	624.14
426.123	654.19
426.499	664.36
426.875	658.49
427.251	633.18
427.627	668.88
428.003	656.68
428.379	670.91
428.756	665.04
429.132	694.19
429.507	692.38
429.883	712.04
430.259	704.36
430.635	720.18
431.011	715.66
431.387	724.02
431.763	721.08
432.138	721.08
432.514	751.82
432.89	759.05
433.265	777.35
433.641	758.14
434.016	765.83
434.392	784.81
434.767	814.64
435.143	804.47
435.518	792.95
435.894	783.23
436.269	814.87
436.644	834.07
437.02	834.98
437.395	837.46
437.77	852.15
438.145	863.23
438.52	866.62
438.895	845.83
439.271	874.98
439.646	884.69
440.021	896.22
440.395	900.29
440.77	906.39
441.145	900.29
441.52	914.52
441.895	900.29
442.27	950
442.645	902.77
443.019	951.36
443.394	944.35
443.769	943.22
444.143	953.84
444.518	934.64
444.892	971.7
445.267	975.09
445.641	981.64
446.016	989.78
446.39	969.66
446.764	1002.21
447.139	1004.69
447.513	1006.5
447.887	1044.46
448.262	1021.64
448.636	1024.58
449.01	1020.06
449.384	1030.91
449.758	1041.07
450.132	1064.58
450.506	1072.03
450.88	1087.4
451.254	1089.66
451.628	1089.43
452.002	1097.12
452.376	1128.3
452.75	1113.84
453.123	1119.94
453.497	1156.1
453.871	1147.51
454.244	1166.04
454.618	1169.21
454.992	1215.53
455.365	1211.69
455.739	1242.65
456.112	1245.81
456.486	1263.89
456.859	1260.05
457.232	1270.45
457.606	1275.64
457.979	1293.72
458.352	1324.91
458.725	1320.16
459.099	1366.49
459.472	1398.13
459.845	1380.05
460.218	1408.97
460.591	1432.93
460.964	1421.4
461.337	1448.3
461.71	1479.93
462.083	1460.05
462.456	1479.25
462.829	1522.19
463.201	1531
463.574	1543.89
463.947	1578.91
464.32	1616.65
464.692	1626.37
465.065	1642.64
465.438	1676.99
465.81	1700.27
466.183	1705.46
466.555	1743.88
466.928	1779.13
467.3	1766.7
467.672	1820.49
468.045	1857.78
468.417	1850.32
468.789	1909.53
469.161	1921.5
469.534	1976.87
469.906	2043.31
470.278	2034.95
470.65	2061.61
471.022	2109.97
471.394	2119.24
471.766	2181.16
472.138	2233.36
472.51	2276.75
472.882	2327.37
473.253	2322.17
473.625	2400.13
473.997	2455.73
474.369	2502.05
474.74	2563.97
475.112	2622.95
475.484	2693.46
475.855	2763.06
476.227	2789.5
476.598	2878.09
476.97	2925.54
477.341	2985.2
477.713	3096.39
478.084	3145.2
478.455	3244.18
478.827	3291.41
479.198	3447.34
479.569	3463.16
479.94	3557.17
480.311	3645.98
480.682	3802.13
481.053	3883.03
481.424	3974.33
481.795	4095.23
482.166	4196.92
482.537	4258.39
482.908	4421.78
483.279	4504.71
483.65	4673.07
484.021	4822.67
484.391	4872.84
484.762	4992.61
485.133	5117.35
485.503	5210.23
485.874	5406.38
486.244	5480.05
486.615	5645.47
486.985	5807.95
487.356	5959.36
487.726	6031.68
488.097	6285
488.467	6310.54
488.837	6525.9
489.207	6748.27
489.578	6847.02
489.948	7001.14
490.318	7144.42
490.688	7217.18
491.058	7433.22
491.428	7597.06
491.798	7764.06
492.168	7964.51
492.538	8132.87
492.908	8268.23
493.278	8427.32
493.648	8511.16
494.017	8678.39
494.387	8815.79
494.757	9028.89
495.126	9179.62
495.496	9233.4
495.866	9381.19
496.235	9492.38
496.605	9714.97
496.974	9876.55
497.344	10072.02
497.713	10151.12
498.082	10223.66
498.452	10406.25
498.821	10494.16
499.19	10598.11
499.559	10755.62
499.928	10848.5
500.298	10958.55
500.667	11214.82
501.036	11192.22
501.405	11364.64
501.774	11499.78
502.143	11622.94
502.512	11655.03
502.88	11860.22
503.249	11890.73
503.618	12005.08
503.987	12074.91
504.356	12207.11
504.724	12352.87
505.093	12364.84
505.462	12478.06
505.83	12499.53
506.199	12790.14
506.567	12962.57
506.936	12917.6
507.304	13016.8
507.672	13177.48
508.041	13181.09
508.409	13253.18
508.777	13444.59
509.145	13532.5
509.514	13555.1
509.882	13594.42
510.25	13661.53
510.618	13739.5
510.986	13778.37
511.354	13941.53
511.722	14112.37
512.09	14128.87
512.458	14099.49
512.826	14201.41
513.193	14374.51
513.561	14286.83
513.929	14404.79
514.297	14495.41
514.664	14686.14
515.032	14665.8
515.4	14760.94
515.767	14798
516.135	14814.95
516.502	14820.82
516.869	15038.67
517.237	14948.05
517.604	14910.77
517.972	15134.72
518.339	15169.97
518.706	15184.66
519.073	15205
519.44	15308.72
519.808	15391.66
520.175	15357.08
520.542	15542.39
520.909	15668.71
521.276	15532.44
521.643	15659
522.009	15772.21
522.376	15772.89
522.743	15831.65
523.11	15948.7
523.477	16033.22
523.843	16050.85
524.21	16227.34
524.577	16152.54
524.943	16226.66
525.31	16244.29
525.676	16306.44
526.043	16358.64
526.409	16395.92
526.776	16504.4
527.142	16483.83
527.508	16550.5
527.874	16602.93
528.241	16675.92
528.607	16642.7
528.973	16750.72
529.339	16731.74
529.705	16726.31
530.071	16798.17
530.437	16815.35
530.803	16880.43
531.169	16921.79
531.535	16766.08
531.901	16817.16
532.267	16858.51
532.632	16924.72
532.998	16843.37
533.364	16989.13
533.73	17011.28
534.095	16966.31
534.461	17037.49
534.826	16948.23
535.192	16964.05
535.557	16999.75
535.923	17006.53
536.288	16970.37
536.653	16985.74
537.019	16811.28
537.384	16979.64
537.749	16836.14
538.114	16893.99
538.479	16803.6
538.845	16755.24
539.21	16673.21
539.575	16770.15
539.94	16739.42
540.305	16889.92
540.67	16730.38
541.034	16690.61
541.399	16706.43
541.764	16730.61
542.129	16675.69
542.494	16676.14
542.858	16587.78
543.223	16650.83
543.587	16592.3
543.952	16561.8
544.316	16509.37
544.681	16387.79
545.045	16543.27
545.41	16548.46
545.774	16487.22
546.138	16409.94
546.503	16370.84
546.867	16254.46
547.231	16377.62
547.595	16326.77
547.959	16350.73
548.324	16208.59
548.688	16288.81
549.052	16267.57
549.416	16141.47
549.779	16097.4
550.143	16108.93
550.507	16167.23
550.871	16162.71
551.235	16064.18
551.599	16117.74
551.962	16021.47
552.326	16055.14
552.689	16035.48
553.053	16005.88
553.417	16015.6
553.78	16089.94
554.143	15938.99
554.507	16003.17
554.87	15916.84
555.234	16016.05
555.597	15892.21
555.96	15937.63
556.323	15885.66
556.686	15902.38
557.05	15970.17
557.413	15838.43
557.776	15883.17
558.139	16032.09
558.502	15973.34
558.865	15842.95
559.228	15935.82
559.59	15847.92
559.953	15972.66
560.316	16025.77
560.679	16005.88
561.041	16017.86
561.404	16068.48
561.767	16046.33
562.129	15979.66
562.492	16051.75
562.854	16092.66
563.217	16052.21
563.579	16069.38
563.941	16060.11
564.304	16045.88
564.666	16131.3
565.028	16101.24
565.39	16049.49
565.753	16228.47
566.115	16103.05
566.477	16184.63
566.839	16276.15
567.201	16246.78
567.563	16229.83
567.925	16334.01
568.287	16264.85
568.648	16444.51
569.01	16337.62
569.372	16460.78
569.734	16360.45
570.095	16392.08
570.457	16443.83
570.819	16479.76
571.18	16392.99
571.542	16555.02
571.903	16533.32
572.265	16538.75
572.626	16424.4
572.987	16553.66
573.349	16660.78
573.71	16618.29
574.071	16649.03
574.432	16605.64
574.794	16681.79
575.155	16689.25
575.516	16639.53
575.877	16751.17
576.238	16691.51
576.599	16767.89
576.96	16728.12
577.32	16698.06
577.681	16709.59
578.042	16871.17
578.403	16719.31
578.763	16773.77
579.124	16791.85
579.485	16818.96
579.845	16866.65
580.206	16762.24
580.566	16879.08
580.927	16785.97
581.287	16894.89
581.648	16757.5
582.008	16875.01
582.368	16783.26
582.728	16804.73
583.089	16756.59
583.449	16758.4
583.809	16774.9
584.169	16759.31
584.529	16784.62
584.889	16865.07
585.249	16713.88
585.609	16626.88
585.969	16755.46
586.329	16673.43
586.688	16696.48
587.048	16649.25
587.408	16661.45
587.768	16671.85
588.127	16628.46
588.487	16577.61
588.846	16690.38
589.206	16589.14
589.565	16509.37
589.925	16649.03
590.284	16577.16
590.643	16543.94
591.003	16596.6
591.362	16615.13
591.721	16557.73
592.08	16464.62
592.44	16612.42
592.799	16538.97
593.158	16533.55
593.517	16548.69
593.876	16460.33
594.235	16457.17
594.593	16432.53
594.952	16443.38
595.311	16514.11
595.67	16510.05
596.029	16514.34
596.387	16477.5
596.746	16553.21
597.104	16453.78
597.463	16448.35
597.822	16457.62
598.18	16406.55
598.538	16392.08
598.897	16504.85
599.255	16351.63
599.613	16480.67
599.972	16558.18
600.33	16442.48
600.688	16394.79
601.046	16512.31
601.404	16553.66
601.762	16475.02
602.12	16591.63
602.478	16550.95
602.836	16457.17
603.194	16467.34
603.552	16490.61
603.91	16357.96
604.268	16462.36
604.625	16477.96
604.983	16517.05
605.341	16453.1
605.698	16407.9
606.056	16515.47
606.413	16513.21
606.771	16546.2
607.128	16486.54
607.485	16449.71
607.843	16511.18
608.2	16483.15
608.557	16644.96
608.914	16510.5
609.272	16682.92
609.629	16660.55
609.986	16709.81
610.343	16508.01
610.7	16674.56
611.057	16628.69
611.414	16624.85
611.771	16558.86
612.127	16675.69
612.484	16660.32
612.841	16791.39
613.198	16655.13
613.554	16778.74
613.911	16765.41
614.267	16738.51
614.624	16816.7
614.98	16778.74
615.337	16899.19
615.693	16814.67
616.05	16865.74
616.406	16826.65
616.762	16855.8
617.118	16785.52
617.475	16821
617.831	16942.35
618.187	16929.7
618.543	16792.75
618.899	16993.65
619.255	16938.06
619.611	16988.45
619.967	16970.37
620.323	16949.81
620.678	16980.09
621.034	16948
621.39	17005.63
621.746	16951.62
622.101	17162.68
622.457	16952.29
622.812	17022.12
623.168	17051.5
623.523	17020.32
623.879	16992.75
624.234	16925.4
624.589	17085.62
624.945	16929.47
625.3	17025.29
625.655	16975.57
626.01	16963.59
626.365	17004.95
626.72	16948.45
627.075	16954.78
627.43	16933.31
627.785	16905.97
628.14	17018.28
628.495	17051.5
628.85	16952.97
629.205	16948.45
629.559	16998.85
629.914	16945.97
630.269	16933.31
630.623	16869.13
630.978	16773.77
631.332	16876.59
631.687	16928.34
632.041	16715.01
632.396	16852.64
632.75	16722.24
633.104	16779.19
633.459	16752.3
633.813	16764.05
634.167	16656.26
634.521	16754.33
634.875	16582.81
635.229	16618.52
635.583	16551.85
635.937	16576.94
636.291	16603.6
636.645	16557.28
636.999	16558.41
637.352	16568.35
637.706	16556.6
638.06	16548.46
638.413	16405.42
638.767	16378.3
639.121	16398.41
639.474	16367.9
639.828	16375.13
640.181	16385.98
640.534	16366.55
640.888	16329.94
641.241	16203.84
641.594	16240.22
641.947	16267.11
642.301	16264.18
642.654	16331.29
643.007	16291.75
643.36	16289.26
643.713	16172.2
644.066	16223.27
644.419	16245.87
644.771	16115.25
645.124	15982.83
645.477	15917.52
645.83	15863.51
646.182	15680.24
646.535	15724.98
646.888	15805.21
647.24	15676.85
647.593	15680.46
647.945	15713.68
648.298	15540.35
648.65	15657.87
649.002	15611.31
649.355	15666.68
649.707	15721.14
650.059	15837.97
650.411	15941.02
650.763	15927.91
651.115	16141.69
651.467	16076.84
651.819	16051.75
652.171	16067.8
652.523	16021.7
652.875	16082.71
653.227	15923.85
653.578	15946.22
653.93	16081.13
654.282	16021.25
654.633	15931.3
654.985	16013.34
655.337	15957.29
655.688	16016.05
656.039	16111.64
656.391	15960.68
656.742	15976.73
657.094	15965.43
657.445	16041.13
657.796	16058.98
658.147	16016.73
658.498	15972.66
658.849	16051.53
659.2	15984.86
659.551	16094.92
659.902	16100.11
660.253	16025.31
660.604	16152.09
660.955	16016.5
661.306	16063.28
661.656	15997.97
662.007	16091.98
662.358	16103.5
662.708	16033.45
663.059	15981.7
663.409	15983.96
663.76	16040.45
664.11	16006.1
664.461	16065.54
664.811	16056.72
665.161	16007.23
665.511	15983.28
665.862	16009.27
666.212	16136.27
666.562	16160.22
666.912	16110.96
667.262	16035.93
667.612	16069.83
667.962	16122.26
668.312	16115.93
668.662	16136.5
669.011	16025.31
669.361	16016.73
669.711	16126.55
670.06	16034.8
670.41	15980.79
670.76	15862.61
671.109	16007.46
671.459	15999.78
671.808	15891.53
672.157	15975.82
672.507	15830.52
672.856	15892.66
673.205	15895.6
673.554	15949.83
673.904	15906.67
674.253	16020.12
674.602	15942.6
674.951	15713.46
675.3	15572.44
675.649	15820.57
675.998	15860.35
676.346	15884.53
676.695	15834.36
677.044	15658.09
677.393	15841.36
677.741	15793.45
678.09	15700.12
678.438	15671.88
678.787	15716.85
679.135	15720.24
679.484	15601.82
679.832	15644.31
680.181	15570.86
680.529	15538.32
680.877	15515.72
681.225	15505.1
681.573	15526.34
681.922	15474.59
682.27	15418.78
682.618	15475.5
682.966	15338.55
683.314	15407.93
683.661	15312.11
684.009	15285.22
684.357	15188.05
684.705	15207.93
685.053	15268.04
685.4	15133.81
685.748	15057.2
686.095	15153.92
686.443	15078.22
686.79	15034.38
687.138	15049.97
687.485	15020.82
687.832	14988.28
688.18	14913.7
688.527	14834.16
688.874	14861.28
689.221	14812.92
689.568	14750.77
689.915	14782.86
690.262	14744.67
690.609	14656.76
690.956	14619.25
691.303	14567.5
691.65	14575.86
691.997	14478.01
692.344	14395.75
692.69	14278.01
693.037	14293.83
693.383	14226.72
693.73	14302.19
694.077	14228.75
694.423	14145.81
694.769	14138.36
695.116	14206.6
695.462	14047.06
695.808	13954.63
696.155	13902.88
696.501	13890.68
696.847	13851.36
697.193	13760.74
697.539	13775.65
697.885	13696.79
698.231	13641.19
698.577	13615.88
698.923	13566.62
699.269	13507.87
699.614	13484.14
699.96	13354.65
700.306	13390.81
700.651	13297.02
700.997	13257.02
701.342	13189.46
701.688	13201.43
702.033	13181.09
702.379	13090.93
702.724	13120.08
703.069	13141.55
703.415	12940.87
703.76	12984.94
704.105	12863.36
704.45	12835.57
704.795	12753.76
705.14	12749.69
705.485	12779.75
705.83	12605.06
706.175	12667.89
706.52	12609.81
706.865	12658.17
707.209	12630.37
707.554	12469.7
707.899	12517.61
708.243	12497.27
708.588	12413.2
708.932	12318.97
709.277	12252.53
709.621	12275.81
709.966	12188.58
710.31	12239.65
710.654	12106.09
710.998	12140.22
711.342	12075.13
711.687	12099.77
712.031	12036.72
712.375	12039.66
712.719	12033.78
713.063	11998.53
713.407	11993.78
713.75	11866.33
714.094	11875.37
714.438	11794.69
714.782	11820.68
715.125	11796.72
715.469	11833.33
715.812	11704.75
716.156	11723.51
716.499	11712.43
716.843	11707.01
717.186	11652.09
717.53	11697.97
717.873	11748.59
718.216	11678.99
718.559	11590.18
718.902	11563.96
719.246	11526.9
719.589	11497.52
719.932	11507.24
720.275	11534.58
720.617	11489.61
720.96	11501.36
721.303	11506.79
721.646	11421.82
721.989	11453.91
722.331	11422.5
722.674	11411.65
723.016	11356.74
723.359	11327.81
723.701	11348.37
724.044	11330.07
724.386	11259.34
724.729	11337.98
725.071	11266.12
725.413	11251.2
725.755	11293.46
726.097	11214.37
726.439	11148.83
726.782	11151.09
727.124	11284.65
727.465	11147.93
727.807	11207.81
728.149	11227.93
728.491	11232.22
728.833	11193.58
729.175	11228.6
729.516	11159
729.858	11191.77
730.199	11135.72
730.541	11084.43
730.882	11132.56
731.224	11126.91
731.565	11145.89
731.906	11115.39
732.248	11109.28
732.589	11103.63
732.93	11076.74
733.271	11079.23
733.612	11095.05
733.953	11133.01
734.294	11115.16
734.635	11073.8
734.976	11143.18
735.317	11114.48
735.658	11132.11
735.999	11106.8
736.339	11081.94
736.68	11086.91
737.021	11113.35
737.361	11037.87
737.702	11183.63
738.042	11171.66
738.383	11163.52
738.723	11177.76
739.063	11078.1
739.404	11086.69
739.744	11153.12
740.084	11122.62
740.424	11117.65
740.764	11120.81
741.104	11192.45
741.444	11155.61
741.784	11155.16
742.124	11236.29
742.464	11261.37
742.804	11210.3
743.143	11228.6
743.483	11328.71
743.823	11286.45
744.162	11314.02
744.502	11390.18
744.841	11376.62
745.181	11415.26
745.52	11409.39
745.86	11478.99
746.199	11478.54
746.538	11582.49
746.877	11660.23
747.216	11668.59
747.556	11644.64
747.895	11757.18
748.234	11820.9
748.573	11765.76
748.911	11981.13
749.25	12028.13
749.589	12032.2
749.928	12096.83
750.267	12230.16
750.605	12280.78
750.944	12448.01
751.283	12388.12
751.621	12564.61
751.96	12551.96
752.298	12666.08
752.636	12824.04
752.975	12885.73
753.313	12963.47
753.651	13071.27
753.989	13262.9
754.327	13263.35
754.666	13412.73
755.004	13567.3
755.342	13676.67
755.679	13843.22
756.017	13890.23
756.355	14079.38
756.693	14176.55
757.031	14454.51
757.368	14513.94
757.706	14668.06
758.044	14778.79
758.381	14970.88
758.719	15119.35
759.056	15323.41
759.394	15480.24
759.731	15596.85
760.068	15659.22
760.405	15847.46
760.743	16022.6
761.08	16198.42
761.417	16256.04
761.754	16549.37
762.091	16702.58
762.428	16739.64
762.765	16948.9
763.102	17237.71
763.438	17323.58
763.775	17387.09
764.112	17624.14
764.449	17908.88
764.785	17878.6
765.122	17953.62
765.458	18129.44
765.795	18295.99
766.131	18434.97
766.467	18586.6
766.804	18758.8
767.14	18825.47
767.476	19002.41
767.812	19036.08
768.148	19300.71
768.485	19351.33
768.821	19349.52
769.157	19506.13
769.492	19645.33
769.828	19773.92
770.164	19759.9
770.5	19852.56
770.836	19910.86
771.171	20022.27
771.507	20179.33
771.842	20157.63
772.178	20316.5
772.513	20356.05
772.849	20417.97
773.184	20548.81
773.519	20628.13
773.855	20648.69
774.19	20558.53
774.525	20648.02
774.86	20775.02
775.195	20778.86
775.53	20853.89
775.865	20833.32
776.2	20788.8
776.535	20747.22
776.87	20899.08
777.205	20836.49
777.539	20874.23
777.874	21006.65
778.209	20878.07
778.543	20881.46
778.878	20884.85
779.212	20997.84
779.547	20995.13
779.881	21056.14
780.215	21031.74
780.55	20927.78
780.884	21017.72
781.218	20997.16
781.552	21033.32
781.886	20954.45
782.22	20947.9
782.554	20958.74
782.888	20825.41
783.222	20798.52
783.556	20756.49
783.889	20818.86
784.223	20663.16
784.557	20691.18
784.89	20665.64
785.224	20740.67
785.557	20533.67
785.891	20663.84
786.224	20557.85
786.558	20616.83
786.891	20396.05
787.224	20394.01
787.557	20499.32
787.891	20437.4
788.224	20374.13
788.557	20429.04
788.89	20343.62
789.223	20345.2
789.556	20293.68
789.888	20187.01
790.221	20167.35
790.554	19958.99
790.887	20094.58
791.219	20043.51
791.552	20106.79
791.884	20005.1
792.217	19923.06
792.549	19917.41
792.882	19860.01
793.214	19770.75
793.546	19761.03
793.879	19567.82
794.211	19579.8
794.543	19713.58
794.875	19536.18
795.207	19709.51
795.539	19518.1
795.871	19593.35
796.203	19368.73
796.535	19368.5
796.867	19301.84
797.198	19269.3
797.53	19261.16
797.862	19099.81
798.193	19265.68
798.525	19061.62
798.856	19031.79
799.188	18885.8
799.519	18907.72
799.85	18799.03
800.182	18750.67
800.513	18823.88
800.844	18670.22
801.175	18725.13
801.506	18726.94
801.837	18675.64
802.168	18634.96
802.499	18524.68
802.83	18433.16
803.161	18407.4
803.491	18474.51
803.822	18385.03
804.153	18374.63
804.483	18244.01
804.814	18117.69
805.145	18087.18
805.475	18121.98
805.805	18083.79
806.136	17935.55
806.466	18059.84
806.796	17981.65
807.126	17865.72
807.457	17880.18
807.787	17866.39
808.117	17817.81
808.447	17651.26
808.777	17749.79
809.107	17620.75
809.436	17666.63
809.766	17655.78
810.096	17590.7
810.426	17386.41
810.755	17448.55
811.085	17432.06
811.414	17406.75
811.744	17341.89
812.073	17315.9
812.403	17300.31
812.732	17136.24
813.061	17230.25
813.39	17136.92
813.719	17126.98
814.049	17100.09
814.378	17032.07
814.707	17025.29
815.036	17029.58
815.365	16889.02
815.693	16837.27
816.022	16678.86
816.351	16797.27
816.68	16715.46
817.008	16742.13
817.337	16588.24
817.665	16555.92
817.994	16557.05
818.322	16568.58
818.651	16446.54
818.979	16462.82
819.307	16583.04
819.636	16447.22
819.964	16360.22
820.292	16313.44
820.62	16417.39
820.948	16370.39
821.276	16390.5
821.604	16364.29
821.932	16384.17
822.259	16394.57
822.587	16336.94
822.915	16375.13
823.243	16386.89
823.57	16339.43
823.898	16290.84
824.225	16291.97
824.553	16323.84
824.88	16291.07
825.207	16359.54
825.535	16374.91
825.862	16310.5
826.189	16260.11
826.516	16347.56
826.843	16446.32
827.17	16441.57
827.497	16392.99
827.824	16372.87
828.151	16344.63
828.478	16352.76
828.805	16402.48
829.131	16325.64
829.458	16323.16
829.785	16301.24
830.111	16339.43
830.438	16455.58
830.764	16290.39
831.09	16370.84
831.417	16220.56
831.743	16380.78
832.069	16317.51
832.395	16279.54
832.722	16363.84
833.048	16211.97
833.374	16306.44
833.7	16169.72
834.026	16164.74
834.351	16223.5
834.677	16144.86
835.003	16148.02
835.329	16185.53
835.654	16209.26
835.98	16164.74
836.306	16173.56
836.631	15997.52
836.956	16145.08
837.282	16137.63
837.607	16020.34
837.932	15957.07
838.258	15987.12
838.583	16045.2
838.908	15902.83
839.233	15937.63
839.558	15809.5
839.883	15840.69
840.208	15686.11
840.533	15764.75
840.858	15764.75
841.182	15804.08
841.507	15669.84
841.832	15631.2
842.156	15551.2
842.481	15549.85
842.805	15589.84
843.13	15605.89
843.454	15578.09
843.778	15498.1
844.103	15457.42
844.427	15368.83
844.751	15303.3
845.075	15313.92
845.399	15310.3
845.723	15156.18
846.047	15208.61
846.371	15041.16
846.695	15149.18
847.019	14998.22
847.343	14948.96
847.666	14711
847.99	14818.11
848.313	14741.28
848.637	14596.2
848.96	14714.39
849.284	14621.73
849.607	14485.24
849.931	14421.97
850.254	14352.14
850.577	14271.91
850.9	14207.06
851.223	14261.52
851.546	14094.52
851.869	14014.07
852.192	14046.38
852.515	13984.46
852.838	13887.74
853.161	13987.4
853.483	13775.65
853.806	13738.14
854.129	13815.88
854.451	13708.99
854.774	13598.48
855.096	13546.51
855.419	13638.26
855.741	13613.63
856.063	13465.15
856.385	13420.86
856.708	13404.59
857.03	13423.8
857.352	13368.89
857.674	13377.7
857.996	13248.66
858.318	13184.03
858.64	13249.57
858.961	13172.51
859.283	13069.46
859.605	13007.31
859.926	13064.71
860.248	13029.01
860.57	12941.55
860.891	13003.02
861.212	12915.56
861.534	12900.2
861.855	12772.52
862.176	12912.17
862.498	12849.58
862.819	12836.02
863.14	12707.43
863.461	12751.27
863.782	12699.07
864.103	12656.59
864.424	12601.22
864.745	12698.17
865.065	12614.56
865.386	12589.47
865.707	12591.51
866.027	12542.24
866.348	12482.13
866.668	12465.18
866.989	12436.03
867.309	12396.71
867.63	12429.7
867.95	12460.89
868.27	12344.96
868.59	12314.9
868.91	12370.72
869.23	12306.77
869.55	12283.49
869.87	12330.72
870.19	12276.71
870.51	12248.46
870.83	12232.42
871.15	12162.14
871.469	12198.97
871.789	12175.02
872.109	12136.15
872.428	12097.28
872.748	12067.9
873.067	12002.82
873.386	12015.25
873.706	12035.14
874.025	11961.24
874.344	11934.57
874.663	12027
874.982	11935.48
875.301	11975.02
875.62	11911.52
875.939	11895.03
876.258	11924.86
876.577	11851.64
876.896	11852.09
877.214	11725.54
877.533	11837.17
877.852	11754.01
878.17	11770.28
878.489	11782.94
878.807	11725.31
879.125	11743.62
879.444	11690.06
879.762	11631.3
880.08	11624.07
880.398	11580.91
880.716	11533
881.034	11585.66
881.352	11528.03
881.67	11500.23
881.988	11511.99
882.306	11463.85
882.624	11466.56
882.941	11418.65
883.259	11401.25
883.577	11361.25
883.894	11256.17
884.212	11384.08
884.529	11345.66
884.846	11268.38
885.164	11183.86
885.481	11234.93
885.798	11234.7
886.115	11102.96
886.432	11114.93
886.75	11004.43
887.067	11145.22
887.383	11026.35
887.7	11075.61
888.017	10956.52
888.334	11011.66
888.651	10908.84
888.967	10927.59
889.284	10906.35
889.6	10883.98
889.917	10769.18
890.233	10784.55
890.55	10768.5
890.866	10681.05
891.182	10688.05
891.498	10631.33
891.815	10662.74
892.131	10583.65
892.447	10606.7
892.763	10537.77
893.079	10490.54
893.395	10533.25
893.71	10418.45
894.026	10433.37
894.342	10426.36
894.657	10311.34
894.973	10251.23
895.289	10300.04
895.604	10293.94
895.92	10136.65
896.235	10128.52
896.55	10143.43
896.865	10032.02
897.181	10090.33
897.496	10042.87
897.811	10006.04
898.126	9980.5
898.441	9928.52
898.756	9913.16
899.071	9852.82
899.386	9838.58
899.7	9786.61
900.015	9715.87
900.33	9674.07
900.644	9628.19
900.959	9635.2
901.273	9603.56
901.588	9650.34
901.902	9482.21
902.216	9544.35
902.531	9504.13
902.845	9419.16
903.159	9322.44
903.473	9334.87
903.787	9304.36
904.101	9271.37
904.415	9240.63
904.729	9229.79
905.042	9161.76
905.356	9167.64
905.67	9098.26
905.984	9133.97
906.297	9055.1
906.611	8959.28
906.924	8919.06
907.237	9034.76
907.551	8913.41
907.864	8875.9
908.177	8800.19
908.491	8803.36
908.804	8744.37
909.117	8690.82
909.43	8683.81
909.743	8639.97
910.056	8618.05
910.368	8562.68
910.681	8518.62
910.994	8511.84
911.307	8440.65
911.619	8457.6
911.932	8453.31
912.244	8388.68
912.557	8380.77
912.869	8367.89
913.181	8265.07
913.494	8226.87
913.806	8208.34
914.118	8164.28
914.43	8185.29
914.742	8143.71
915.054	8112.75
915.366	8010.83
915.678	8051.74
915.99	7971.74
916.302	8015.81
916.613	7893.1
916.925	7820.33
917.236	7852.87
917.548	7829.14
917.859	7761.12
918.171	7729.03
918.482	7729.94
918.794	7637.96
919.105	7671.63
919.416	7607
919.727	7583.05
920.038	7560.68
920.349	7552.09
920.66	7486.33
920.971	7478.65
921.282	7441.13
921.593	7338.99
921.903	7361.13
922.214	7351.64
922.525	7277.75
922.835	7237.75
923.146	7216.05
923.456	7213.34
923.767	7213.34
924.077	7210.4
924.387	7124.98
924.697	7081.82
925.008	7076.85
925.318	6965.89
925.628	7013.35
925.938	7026.23
926.248	6899.23
926.558	6884.08
926.867	6912.56
927.177	6861.03
927.487	6736.52
927.796	6709.63
928.106	6786.46
928.416	6756.86
928.725	6743.3
929.034	6664.66
929.344	6645.9
929.653	6647.03
929.962	6548.5
930.271	6576.3
930.581	6539.46
930.89	6490.42
931.199	6508.95
931.508	6438.22
931.817	6442.51
932.125	6425.11
932.434	6389.18
932.743	6307.15
933.051	6280.26
933.36	6329.75
933.669	6264.44
933.977	6179.47
934.286	6238.23
934.594	6158.45
934.902	6141.28
935.21	6156.65
935.519	6091.34
935.827	6086.37
936.135	6038.91
936.443	6065.8
936.751	5988.97
937.059	6000.72
937.367	5968.63
937.674	5982.41
937.982	5949.19
938.29	5927.5
938.597	5910.78
938.905	5829.2
939.213	5800.72
939.52	5758.24
939.827	5794.4
940.135	5762.31
940.442	5693.16
940.749	5711.91
941.056	5690.44
941.363	5621.74
941.67	5644.34
941.977	5624
942.284	5569.32
942.591	5536.32
942.898	5491.58
943.205	5522.31
943.511	5502.43
943.818	5485.7
944.125	5457
944.431	5438.25
944.738	5363.9
945.044	5365.71
945.35	5326.16
945.657	5317.12
945.963	5301.3
946.269	5270.57
946.575	5250
946.881	5213.39
947.187	5200.29
947.493	5185.15
947.799	5133.4
948.105	5126.16
948.41	5105.6
948.716	5083.23
949.022	5069.22
949.327	5088.2
949.633	5009.56
949.938	5019.05
950.244	4952.61
950.549	4987.41
950.854	4932.5
951.16	4913.74
951.465	4853.4
951.77	4861.31
952.075	4857.25
952.38	4827.64
952.685	4843.01
952.99	4744.71
953.294	4722.79
953.599	4766.63
953.904	4670.81
954.209	4677.14
954.513	4657.02
954.818	4682.33
955.122	4597.82
955.426	4621.32
955.731	4598.27
956.035	4567.76
956.339	4609.12
956.643	4552.17
956.948	4545.39
957.252	4511.94
957.556	4506.75
957.86	4445.05
958.163	4423.13
958.467	4440.76
958.771	4417.48
959.075	4365.51
959.378	4324.15
959.682	4374.55
959.985	4322.57
960.289	4301.78
960.592	4330.03
960.896	4320.76
961.199	4289.35
961.502	4258.16
961.805	4220.65
962.108	4186.98
962.411	4177.04
962.714	4169.13
963.017	4171.61
963.32	4139.52
963.623	4094.55
963.926	4151.73
964.228	4045.74
964.531	4071.28
964.833	4084.61
965.136	3978.62
965.438	3951.51
965.741	3935.01
966.043	3991.73
966.345	3965.52
966.648	3893.2
966.95	3943.14
967.252	3854.11
967.554	3871.96
967.856	3860.89
968.158	3826.76
968.46	3828.8
968.761	3822.02
969.063	3777.73
969.365	3811.85
969.666	3777.95
969.968	3779.31
970.269	3716.94
970.571	3711.06
970.872	3702.25
971.174	3673.32
971.475	3669.25
971.776	3638.97
972.077	3620.22
972.378	3622.48
972.679	3605.75
972.98	3584.06
973.281	3591.06
973.582	3566.21
973.883	3520.56
974.183	3525.75
974.484	3489.15
974.785	3512.42
975.085	3488.02
975.386	3480.56
975.686	3432.42
975.986	3450.05
976.287	3450.5
976.587	3394.46
976.887	3410.5
977.187	3373.44
977.487	3373.22
977.787	3338.42
978.087	3328.02
978.387	3271.3
978.687	3291.41
978.987	3274.69
979.286	3244.41
979.586	3252.77
979.885	3253.45
980.185	3235.82
980.484	3216.84
980.784	3181.13
981.083	3220.45
981.382	3157.85
981.682	3156.72
981.981	3122.6
982.28	3145.65
982.579	3085.99
982.878	3088.48
983.177	3109.95
983.475	3081.25
983.774	3037.41
984.073	3014.58
984.372	3010.74
984.67	3018.88
984.969	3001.25
985.267	3020.91
985.566	3008.71
985.864	2951.98
986.162	2943.4
986.461	2910.63
986.759	2892.55
987.057	2893.23
987.355	2869.95
987.653	2843.74
987.951	2846.22
988.249	2869.95
988.547	2848.94
988.844	2809.84
989.142	2812.33
989.44	2820.46
989.737	2767.81
990.035	2747.24
990.332	2739.33
990.63	2737.98
990.927	2757.87
991.224	2706.34
991.521	2685.78
991.819	2730.52
992.116	2679.45
992.413	2661.14
992.71	2656.85
993.006	2623.18
993.303	2621.15
993.6	2641.26
993.897	2570.3
994.193	2640.81
994.49	2623.63
994.787	2576.18
995.083	2557.87
995.379	2530.3
995.676	2538.89
995.972	2515.16
996.268	2516.52
996.565	2501.15
996.861	2445.33
997.157	2477.65
997.453	2469.74
997.749	2474.48
998.044	2432.22
998.34	2442.17
998.636	2429.51
998.932	2386.12
999.227	2377.76
999.523	2401.49
999.818	2364.88
1000.114	2321.94
1000.409	2365.11
1000.704	2314.26
1001	2285.56
1001.295	2309.06
1001.59	2263.64
1001.885	2287.14
1002.18	2228.39
1002.475	2233.36
1002.77	2245.56
1003.065	2199.01
1003.359	2190.42
1003.654	2235.39
1003.949	2181.84
1004.243	2176.86
1004.538	2162.4
1004.832	2139.12
1005.127	2126.7
1005.421	2104.78
1005.715	2104.1
1006.009	2078.11
1006.304	2062.74
1006.598	2048.96
1006.892	2063.87
1007.186	2052.8
1007.48	2029.97
1007.773	2027.94
1008.067	2032.46
1008.361	2020.03
1008.655	2002.86
1008.948	1955.63
1009.242	1973.71
1009.535	1956.98
1009.829	1970.99
1010.122	1919.7
1010.415	1950.65
1010.708	1934.38
1011.001	1906.14
1011.295	1906.14
1011.588	1881.5
1011.881	1880.83
1012.173	1839.7
1012.466	1803.99
1012.759	1839.02
1013.052	1815.07
1013.344	1821.62
1013.637	1797.44
1013.93	1772.13
1014.222	1768.74
1014.514	1736.42
1014.807	1804.67
1015.099	1760.6
1015.391	1751.79
1015.683	1724.9
1015.976	1694.16
1016.268	1684.45
1016.56	1684.22
1016.851	1660.95
1017.143	1658.69
1017.435	1663.66
1017.727	1638.57
1018.018	1634.73
1018.31	1622.08
1018.602	1627.05
1018.893	1618.23
1019.185	1596.09
1019.476	1595.18
1019.767	1593.6
1020.058	1569.2
1020.35	1551.12
1020.641	1538.01
1020.932	1540.27
1021.223	1512.7
1021.514	1507.73
1021.804	1514.06
1022.095	1526.03
1022.386	1490.1
1022.677	1466.15
1022.967	1477.9
1023.258	1487.16
1023.548	1449.88
1023.839	1445.58
1024.129	1418.01
1024.419	1430.89
1024.709	1412.36
1025	1372.82
1025.29	1404
1025.58	1359.71
1025.87	1380.5
1026.16	1347.51
1026.449	1377.79
1026.739	1347.05
1027.029	1349.99
1027.319	1334.17
1027.608	1328.3
1027.898	1325.59
1028.187	1291.69
1028.477	1297.34
1028.766	1328.75
1029.055	1279.49
1029.344	1310.9
1029.634	1257.11
1029.923	1237.91
1030.212	1253.5
1030.501	1242.88
1030.79	1230.67
1031.078	1215.08
1031.367	1216.21
1031.656	1202.43
1031.945	1201.07
1032.233	1218.92
1032.522	1196.78
1032.81	1165.59
1033.099	1166.04
1033.387	1157.68
1033.675	1144.57
1033.963	1155.42
1034.251	1135.76
1034.54	1135.31
1034.828	1112.94
1035.116	1083.33
1035.403	1101.41
1035.691	1110.9
1035.979	1096.21
1036.267	1085.59
1036.554	1072.49
1036.842	1064.58
1037.129	1036.78
1037.417	1034.52
1037.704	1064.35
1037.992	1040.62
1038.279	1025.48
1038.566	1016.44
1038.853	1016.44
1039.14	1016.44
