Data from hue_36_FLMS001491_00041.txt Node
Date: Tue Feb 07 17:29:50 GMT 2017
User: dcchb
Spectrometer: FLMS00149
Trigger mode: 0
Integration Time (sec): 2.000000E-2
Scans to average: 10
Electric dark correction enabled: true
Nonlinearity correction enabled: false
Boxcar width: 0
XAxis mode: Wavelengths
Number of Pixels in Spectrum: 2048
>>>>>Begin Spectral Data<<<<<
341.393	-4.49
341.776	-4.49
342.16	-4.49
342.543	-42.23
342.927	-60.76
343.31	-71.61
343.693	-82.46
344.077	-57.15
344.46	-54.43
344.843	-48.56
345.226	-40.42
345.61	-34.1
345.993	-12.17
346.376	-8.33
346.759	31.21
347.142	15.85
347.525	40.48
347.908	46.35
348.291	78.9
348.674	89.52
349.057	106.92
349.44	127.26
349.823	152.11
350.206	181.27
350.588	189.85
350.971	203.19
351.354	242.06
351.737	235.73
352.119	245.9
352.502	273.02
352.884	266.69
353.267	281.15
353.65	301.49
354.032	291.09
354.414	313.92
354.797	305.56
355.179	331.54
355.562	329.96
355.944	323.64
356.326	339.23
356.709	344.2
357.091	335.61
357.473	342.17
357.855	350.3
358.238	356.4
358.62	333.8
359.002	350.08
359.384	330.42
359.766	332.45
360.148	341.94
360.53	350.53
360.912	355.95
361.294	342.84
361.676	320.92
362.057	333.13
362.439	325.44
362.821	344.65
363.203	322.28
363.584	332.9
363.966	333.8
364.348	327.25
364.729	337.19
365.111	339.23
365.493	308.95
365.874	342.84
366.256	315.27
366.637	304.2
367.019	324.31
367.4	329.29
367.781	322.96
368.163	342.17
368.544	312.79
368.925	327.03
369.306	331.32
369.688	297.42
370.069	313.92
370.45	315.73
370.831	322.96
371.212	323.41
371.593	296.52
371.974	310.75
372.355	326.8
372.736	330.87
373.117	321.6
373.498	317.31
373.879	305.78
374.26	331.54
374.641	316.4
375.021	302.17
375.402	324.54
375.783	324.99
376.163	326.12
376.544	323.86
376.925	353.69
377.305	315.05
377.686	343.07
378.066	310.98
378.447	327.7
378.827	332.45
379.208	329.29
379.588	338.55
379.968	317.53
380.349	336.29
380.729	347.36
381.109	337.19
381.489	364.76
381.87	320.02
382.25	343.3
382.63	323.18
383.01	364.31
383.39	353.92
383.77	345.1
384.15	357.08
384.53	329.51
384.91	338.78
385.29	352.34
385.67	350.53
386.049	357.31
386.429	344.2
386.809	327.7
387.189	335.16
387.568	363.18
387.948	374.26
388.328	371.09
388.707	361.83
389.087	369.96
389.466	362.28
389.846	376.52
390.225	355.95
390.605	362.73
390.984	383.75
391.363	355.73
391.743	374.93
392.122	371.32
392.501	386.46
392.881	368.83
393.26	381.94
393.639	368.61
394.018	368.15
394.397	368.83
394.776	377.87
395.155	393.92
395.534	359.79
395.913	377.42
396.292	387.81
396.671	392.56
397.05	379.23
397.429	386.68
397.808	390.75
398.186	374.03
398.565	404.99
398.944	396.85
399.323	391.43
399.701	399.79
400.08	404.54
400.458	393.92
400.837	403.63
401.215	409.73
401.594	426.01
401.972	402.96
402.351	399.34
402.729	417.19
403.107	412.9
403.486	381.04
403.864	406.35
404.242	413.12
404.62	406.12
404.999	407.02
405.377	404.09
405.755	425.1
406.133	417.64
406.511	417.87
406.889	414.71
407.267	425.55
407.645	430.98
408.023	419.23
408.401	436.17
408.779	451.77
409.156	443.18
409.534	445.89
409.912	458.32
410.29	450.41
410.667	436.17
411.045	451.32
411.422	439.79
411.8	468.49
412.178	472.78
412.555	469.85
412.933	450.41
413.31	461.26
413.687	478.21
414.065	480.47
414.442	478.89
414.819	485.21
415.197	485.89
415.574	482.5
415.951	483.63
416.328	496.29
416.705	478.43
417.082	485.44
417.46	522.05
417.837	507.36
418.214	519.11
418.591	504.42
418.967	504.65
419.344	504.65
419.721	497.42
420.098	503.74
420.475	507.81
420.852	511.88
421.228	522.95
421.605	519.11
421.982	525.44
422.358	551.2
422.735	553.23
423.111	534.03
423.488	548.71
423.864	554.59
424.241	543.97
424.617	554.59
424.994	549.17
425.37	579.45
425.746	576.28
426.123	546.45
426.499	539.45
426.875	583.52
427.251	576.74
427.627	574.93
428.003	570.18
428.379	578.54
428.756	599.33
429.132	588.49
429.507	574.25
429.883	597.53
430.259	594.81
430.635	609.96
431.011	613.57
431.387	625.55
431.763	628.94
432.138	619.67
432.514	619.67
432.89	637.3
433.265	636.85
433.641	655.15
434.016	674.36
434.392	661.25
434.767	633.46
435.143	653.12
435.518	654.02
435.894	663.29
436.269	674.13
436.644	694.7
437.02	690.63
437.395	712.1
437.77	695.83
438.145	691.08
438.52	688.37
438.895	707.35
439.271	716.62
439.646	733.12
440.021	738.54
440.395	720.69
440.77	715.94
441.145	731.53
441.52	756.17
441.895	741.03
442.27	765.21
442.645	774.25
443.019	747.13
443.394	754.36
443.769	792.32
444.143	776.05
444.518	781.7
444.892	769.27
445.267	782.15
445.641	765.21
446.016	797.52
446.39	785.09
446.764	786.22
447.139	797.07
447.513	822.83
447.887	801.36
448.262	787.8
448.636	815.83
449.01	818.99
449.384	840.91
449.758	821.02
450.132	843.17
450.506	842.27
450.88	856.05
451.254	849.05
451.628	865.99
452.002	871.42
452.376	863.73
452.75	868.03
453.123	896.28
453.497	912.32
453.871	887.46
454.244	915.94
454.618	917.29
454.992	925.43
455.365	928.82
455.739	945.77
456.112	950.74
456.486	957.07
456.859	961.58
457.232	975.37
457.606	985.09
457.979	992.77
458.352	1020.34
458.725	1042.26
459.099	1018.53
459.472	1045.42
459.845	1062.83
460.218	1057.18
460.591	1077.29
460.964	1054.69
461.337	1083.39
461.71	1121.13
462.083	1113.22
462.456	1103.5
462.829	1135.37
463.201	1128.59
463.574	1151.41
463.947	1162.48
464.32	1193.67
464.692	1187.57
465.065	1195.03
465.438	1218.75
465.81	1251.52
466.183	1256.49
466.555	1293.78
466.928	1237.74
467.3	1272.31
467.672	1338.52
468.045	1339.88
468.417	1326.77
468.789	1381.46
469.161	1372.65
469.534	1399.31
469.906	1423.72
470.278	1470.05
470.65	1488.58
471.022	1495.36
471.394	1497.84
471.766	1531.29
472.138	1596.82
472.51	1617.16
472.882	1638.86
473.253	1671.4
473.625	1716.82
473.997	1752.52
474.369	1747.78
474.74	1772.19
475.112	1771.96
475.484	1849.47
475.855	1868.45
476.227	1929.02
476.598	1994.78
476.97	2012.63
477.341	2065.28
477.713	2138.96
478.084	2134.44
478.455	2193.19
478.827	2240.2
479.198	2312.51
479.569	2360.87
479.94	2433.18
480.311	2459.85
480.682	2506.18
481.053	2636.8
481.424	2681.99
481.795	2733.74
482.166	2790.24
482.537	2872.27
482.908	2932.15
483.279	2963.57
483.65	3084.69
484.021	3182.32
484.391	3199.27
484.762	3307.29
485.133	3382.99
485.503	3417.11
485.874	3571.46
486.244	3608.29
486.615	3735.07
486.985	3796.99
487.356	3911.79
487.726	3956.99
488.097	4083.08
488.467	4189.3
488.837	4302.06
489.207	4354.94
489.578	4455.73
489.948	4542.51
490.318	4636.52
490.688	4719.45
491.058	4878.54
491.428	4926.23
491.798	5016.39
492.168	5132.77
492.538	5253
492.908	5281.92
493.278	5480.11
493.648	5517.17
494.017	5640.33
494.387	5772.31
494.757	5810.27
495.126	5885.52
495.496	6021.79
495.866	6074.9
496.235	6231.28
496.605	6248
496.974	6343.59
497.344	6468.33
497.713	6517.6
498.082	6602.79
498.452	6710.81
498.821	6825.84
499.19	6828.1
499.559	6918.72
499.928	7035.78
500.298	7118.26
500.667	7226.5
501.036	7258.37
501.405	7305.82
501.774	7342.89
502.143	7495.42
502.512	7573.39
502.88	7649.32
503.249	7713.95
503.618	7786.49
503.987	7833.27
504.356	7976.77
504.724	8008.63
505.093	8081.4
505.462	8100.83
505.83	8216.54
506.199	8316.87
506.567	8358
506.936	8435.96
507.304	8470.09
507.672	8547.15
508.041	8630.54
508.409	8723.41
508.777	8807.93
509.145	8881.83
509.514	8865.33
509.882	8982.16
510.25	8976.29
510.618	9080.47
510.986	9132.44
511.354	9218.09
511.722	9344.64
512.09	9323.62
512.458	9356.39
512.826	9529.95
513.193	9593.45
513.561	9594.58
513.929	9693.78
514.297	9712.32
514.664	9829.37
515.032	9879.77
515.4	9900.78
515.767	10021.23
516.135	10008.58
516.502	10004.51
516.869	10157.05
517.237	10214
517.604	10171.51
517.972	10299.64
518.339	10426.42
518.706	10402.47
519.073	10498.51
519.44	10523.14
519.808	10675.68
520.175	10652.86
520.542	10753.19
520.909	10890.14
521.276	10845.84
521.643	10966.97
522.009	11066.18
522.376	11043.35
522.743	11070.7
523.11	11193.63
523.477	11326.74
523.843	11341.88
524.21	11455.55
524.577	11538.03
524.943	11588.2
525.31	11713.84
525.676	11756.78
526.043	11844.01
526.409	11844.69
526.776	12065.7
527.142	12015.08
527.508	12093.27
527.874	12091.24
528.241	12280.16
528.607	12340.04
528.973	12348.4
529.339	12387.05
529.705	12533.03
530.071	12547.72
530.437	12742.29
530.803	12705
531.169	12799.69
531.535	12793.82
531.901	12885.11
532.267	12919.24
532.632	13041.27
532.998	13103.86
533.364	13148.38
533.73	13205.1
534.095	13264.76
534.461	13365.78
534.826	13415.04
535.192	13408.26
535.557	13441.48
535.923	13552.44
536.288	13577.3
536.653	13708.14
537.019	13540.92
537.384	13715.6
537.749	13787.69
538.114	13898.87
538.479	13817.97
538.845	13933.9
539.21	13939.32
539.575	14095.48
539.94	14116.49
540.305	14125.53
540.67	14166.66
541.034	14263.61
541.399	14403.72
541.764	14394
542.129	14444.85
542.494	14431.29
542.858	14496.6
543.223	14550.83
543.587	14648
543.952	14622.02
544.316	14643.71
544.681	14749.47
545.045	14797.61
545.41	14890.48
545.774	14934.78
546.138	14976.81
546.503	14993.31
546.867	14995.57
547.231	15156.47
547.595	15170.25
547.959	15245.28
548.324	15243.02
548.688	15306.97
549.052	15457.93
549.416	15397.82
549.779	15435.55
550.143	15486.17
550.507	15589.22
550.871	15674.64
551.235	15651.82
551.599	15841.19
551.962	15800.52
552.326	15920.74
552.689	15983.56
553.053	15966.84
553.417	15930.91
553.78	16177.23
554.143	16113.73
554.507	16214.97
554.87	16230.79
555.234	16433.72
555.597	16385.81
555.96	16471.69
556.323	16529.09
556.686	16591
557.05	16553.04
557.413	16650.21
557.776	16666.93
558.139	16824.22
558.502	16855.86
558.865	16822.64
559.228	17042.97
559.59	17005
559.953	17095.85
560.316	17194.15
560.679	17169.29
561.041	17320.7
561.404	17416.29
561.767	17495.39
562.129	17374.94
562.492	17579.45
562.854	17612.9
563.217	17562.96
563.579	17631.2
563.941	17769.05
564.304	17866.23
564.666	17953.91
565.028	18024.87
565.39	18074.58
565.753	18111.19
566.115	18203.39
566.477	18308.25
566.839	18278.64
567.201	18448.36
567.563	18418.08
567.925	18556.15
568.287	18521.8
568.648	18758.18
569.01	18798.4
569.372	18953.88
569.734	18771.74
570.095	18999.3
570.457	19057.15
570.819	19072.07
571.18	19189.58
571.542	19245.85
571.903	19368.33
572.265	19380.31
572.626	19457.6
572.987	19485.62
573.349	19603.13
573.71	19578.72
574.071	19860.75
574.432	19843.57
574.794	20072.49
575.155	19991.37
575.516	20069.11
575.877	20220.51
576.238	20270.46
576.599	20524.01
576.96	20562.2
577.32	20710.9
577.681	20748.86
578.042	20939.36
578.403	21043.77
578.763	21178
579.124	21307.94
579.485	21549.52
579.845	21664.32
580.206	21702.51
580.566	21879.45
580.927	21960.81
581.287	22231.31
581.648	22275.6
582.008	22460.45
582.368	22675.59
582.728	22738.19
583.089	22920.56
583.449	23193.99
583.809	23229.47
584.169	23572.06
584.529	23593.76
584.889	24013.41
585.249	24004.14
585.609	24169.11
585.969	24547.41
586.329	24630.57
586.688	24943.78
587.048	25076.21
587.408	25202.98
587.768	25416.31
588.127	25504.44
588.487	25800.93
588.846	26281.82
589.206	26120.92
589.565	26481.37
589.925	26771.53
590.284	26947.57
590.643	27208.13
591.003	27476.82
591.362	27663.03
591.721	27783.7
592.08	28066.41
592.44	28343.92
592.799	28498.94
593.158	28729.67
593.517	28936.67
593.876	29282.65
594.235	29297.79
594.593	29683.77
594.952	29973.48
595.311	30006.7
595.67	30330.3
596.029	30669.73
596.387	30942.04
596.746	31066.33
597.104	31220.45
597.463	31325.08
597.822	31794.22
598.18	31767.33
598.538	31982.46
598.897	32299.07
599.255	32315.56
599.613	33040.29
599.972	32910.12
600.33	33174.07
600.688	33360.28
601.046	33531.58
601.404	33751.23
601.762	33953.49
602.12	34307.83
602.478	34422.63
602.836	34433.25
603.194	34577.42
603.552	34737.42
603.91	34852.22
604.268	35076.39
604.625	35145.54
604.983	35374.24
605.341	35512.54
605.698	35806.77
606.056	36037.05
606.413	36162.47
606.771	36397.26
607.128	36387.77
607.485	36515.45
607.843	36671.15
608.2	36943.92
608.557	37036.79
608.914	37049.45
609.272	37366.28
609.629	37508.87
609.986	37812.14
610.343	37683.33
610.7	38110.89
611.057	38150.66
611.414	38216.2
611.771	38368.74
612.127	38592.91
612.484	38718.11
612.841	38857.76
613.198	38808.5
613.554	38974.82
613.911	39222.27
614.267	39431.76
614.624	39390.4
614.98	39410.07
615.337	39834.01
615.693	39674.01
616.05	39779.55
616.406	40025.42
616.762	40030.16
617.118	40136.15
617.475	40175.92
617.831	40401.45
618.187	40406.88
618.543	40430.15
618.899	40724.83
619.255	40850.48
619.611	40784.27
619.967	41091.15
620.323	41139.96
620.678	41229.68
621.034	40878.5
621.39	41089.57
621.746	41058.61
622.101	41633.74
622.457	41354.65
622.812	41429.22
623.168	41655.43
623.523	41642.1
623.879	41882.99
624.234	41452.27
624.589	41844.8
624.945	41712.38
625.3	41977.23
625.655	41909.21
626.01	41935.65
626.365	42107.62
626.72	42071.01
627.075	42130.67
627.43	42182.2
627.785	42074.63
628.14	42207.05
628.495	42267.17
628.85	42188.07
629.205	42040.73
629.559	42391.91
629.914	42139.94
630.269	42340.84
630.623	42146.26
630.978	42165.25
631.332	42350.1
631.687	42496.99
632.041	42293.38
632.396	42256.32
632.75	42286.6
633.104	42259.93
633.459	42282.08
633.813	42136.32
634.167	42321.4
634.521	42278.24
634.875	42329.99
635.229	42303.55
635.583	42040.5
635.937	42224.45
636.291	42026.95
636.645	42177.45
636.999	42169.31
637.352	42253.83
637.706	42026.72
638.06	42160.28
638.413	42095.42
638.767	41813.17
639.121	42109.88
639.474	41824.92
639.828	41857.68
640.181	42087.74
640.534	42012.71
640.888	41938.81
641.241	41726.84
641.594	41825.14
641.947	42008.42
642.301	41705.37
642.654	41900.62
643.007	42010.9
643.36	41912.15
643.713	41733.39
644.066	42007.51
644.419	41674.41
644.771	41542.44
645.124	41148.32
645.477	41167.08
645.83	40907.43
646.182	40774.78
646.535	40541.56
646.888	40690.71
647.24	40566.42
647.593	40660.43
647.945	40639.41
648.298	40432.64
648.65	40370.27
649.002	40274.45
649.355	40483.94
649.707	40416.14
650.059	40616.59
650.411	41025.84
650.763	40903.13
651.115	41516
651.467	41283.01
651.819	41311.71
652.171	41205.27
652.523	41176.57
652.875	41086.41
653.227	40918.05
653.578	41293.86
653.93	41060.42
654.282	40968.89
654.633	40865.62
654.985	41072.85
655.337	41020.87
655.688	41044.15
656.039	41215.67
656.391	40914.66
656.742	41017.93
657.094	40938.39
657.445	41066.29
657.796	40950.36
658.147	40883.02
658.498	40927.54
658.849	40965.28
659.2	40930.48
659.551	40837.82
659.902	41036.92
660.253	40870.59
660.604	41106.52
660.955	40708.79
661.306	40900.42
661.656	40786.98
662.007	40877.82
662.358	40881.89
662.708	40898.61
663.059	40902.91
663.409	40690.03
663.76	40948.1
664.11	40932.29
664.461	40911.04
664.811	40825.4
665.161	40812.29
665.511	40734.1
665.862	40720.99
666.212	40775
666.562	40884.83
666.912	40742.91
667.262	40741.78
667.612	40824.94
667.962	40739.97
668.312	40746.3
668.662	40800.31
669.011	40678.73
669.361	40650.71
669.711	40720.31
670.06	40696.81
670.41	40665.17
670.76	40457.95
671.109	40605.74
671.459	40598.06
671.808	40426.08
672.157	40544.5
672.507	40365.75
672.856	40448.91
673.205	40453.43
673.554	40440.09
673.904	40460.21
674.253	40717.38
674.602	40485.52
674.951	40001.91
675.3	39770.06
675.649	40413.2
675.998	40361.45
676.346	40344.96
676.695	40531.17
677.044	40190.38
677.393	40330.27
677.741	40455.46
678.09	40133.21
678.438	40151.06
678.787	40252.3
679.135	40148.8
679.484	39900.67
679.832	40212.98
680.181	39766.67
680.529	40017.28
680.877	39914.23
681.225	39744.29
681.573	40039.65
681.922	39787
682.27	39613.22
682.618	39774.35
682.966	39594.02
683.314	39664.07
683.661	39514.7
684.009	39250.52
684.357	39319.22
684.705	39361.03
685.053	39334.36
685.4	39186.12
685.748	39024.31
686.095	39121.94
686.443	39086.68
686.79	38982.28
687.138	38936.86
687.485	38941.38
687.832	38792.45
688.18	38766.47
688.527	38617.32
688.874	38735.05
689.221	38571.44
689.568	38543.42
689.915	38461.39
690.262	38389.08
690.609	38366.93
690.956	38094.62
691.303	38053.94
691.65	37983.66
691.997	37959.26
692.344	37667.74
692.69	37776.89
693.037	37636.33
693.383	37374.41
693.73	37591.36
694.077	37278.14
694.423	37406.95
694.769	37021.65
695.116	37146.85
695.462	37176.45
695.808	37001.99
696.155	36924.71
696.501	36820.3
696.847	36685.39
697.193	36473.87
697.539	36667.31
697.885	36322.46
698.231	36455.34
698.577	36260.09
698.923	36370.82
699.269	36075.92
699.614	36004.73
699.96	35793.21
700.306	35834.79
700.651	35771.07
700.997	35655.59
701.342	35562.71
701.688	35468.25
702.033	35365.88
702.379	35536.04
702.724	35290.63
703.069	35320.23
703.415	34917.75
703.76	35133.79
704.105	35031.88
704.45	34880.24
704.795	34729.74
705.14	34571.1
705.485	34683.41
705.83	34381.5
706.175	34541.49
706.52	34475.05
706.865	34253.36
707.209	34283.87
707.554	34139.7
707.899	34083.43
708.243	34046.14
708.588	33849.31
708.932	33722.08
709.277	33837.78
709.621	33682.76
709.966	33510.11
710.31	33516.44
710.654	33258.36
710.998	33454.06
711.342	33478.92
711.687	33294.07
712.031	33201.87
712.375	33032.83
712.719	33061.98
713.063	33024.02
713.407	33118.48
713.75	32884.36
714.094	32856.11
714.438	32695.44
714.782	32786.96
715.125	32611.6
715.469	32681.65
715.812	32580.87
716.156	32270.14
716.499	32309.91
716.843	32411.38
717.186	32140.43
717.53	32457.48
717.873	32300.65
718.216	32234.66
718.559	32021.33
718.902	31849.13
719.246	31957.15
719.589	31796.71
719.932	31747.44
720.275	31650.5
720.617	31671.29
720.96	31581.8
721.303	31547.67
721.646	31626.09
721.989	31336.61
722.331	31562.36
722.674	31433.78
723.016	31446.21
723.359	31264.29
723.701	31350.84
724.044	31129.83
724.386	31152.2
724.729	31295.02
725.071	31063.84
725.413	31053.22
725.755	30936.39
726.097	30806.9
726.439	30834.92
726.782	30725.55
727.124	30991.76
727.465	30650.97
727.807	30763.29
728.149	30611.43
728.491	30474.93
728.833	30615.04
729.175	30502.73
729.516	30450.08
729.858	30370.98
730.199	30370.98
730.541	30235.84
730.882	30289.63
731.224	30310.42
731.565	30208.95
731.906	30215.28
732.248	30231.78
732.589	29897.1
732.93	29894.38
733.271	29865.23
733.612	30033.81
733.953	29989.3
734.294	29778.45
734.635	29865.01
734.976	29830.66
735.317	29618.91
735.658	29654.62
735.999	29672.69
736.339	29633.15
736.68	29644.67
737.021	29576.2
737.361	29385.02
737.702	29512.25
738.042	29399.93
738.383	29305.92
738.723	29354.74
739.063	29354.96
739.404	29396.09
739.744	29249.88
740.084	29099.83
740.424	29274.29
740.764	29077.23
741.104	29240.62
741.444	29029.32
741.784	29021.19
742.124	29049.43
742.464	28960.17
742.804	28830
743.143	28782.32
743.483	28826.16
743.823	28809.89
744.162	28742.78
744.502	28644.02
744.841	28602.21
745.181	28730.57
745.52	28542.1
745.86	28649.22
746.199	28610.58
746.538	28438.38
746.877	28566.73
747.216	28454.42
747.556	28319.51
747.895	28404.48
748.234	28190.47
748.573	28258.04
748.911	28204.48
749.25	28211.26
749.589	28079.29
749.928	28197.25
750.267	28088.78
750.605	28057.14
750.944	27945.73
751.283	27832.29
751.621	27860.31
751.96	27711.39
752.298	27656.02
752.636	27656.25
752.975	27490.6
753.313	27452.87
753.651	27600.43
753.989	27428.23
754.327	27415.13
754.666	27295.36
755.004	27381
755.342	27371.51
755.679	27305.52
756.017	27160.9
756.355	27109.6
756.693	27042.48
757.031	27137.17
757.368	26844.52
757.706	26961.58
758.044	26901.47
758.381	26911.19
758.719	26703.73
759.056	26800.91
759.394	26531.99
759.731	26497.41
760.068	26612.89
760.405	26341.26
760.743	26272.11
761.08	26458.77
761.417	26211.77
761.754	26140.58
762.091	26068.5
762.428	26056.52
762.765	25830.08
763.102	25861.27
763.438	25698.79
763.775	25642.07
764.112	25667.6
764.449	25700.37
764.785	25553.48
765.122	25308.74
765.458	25222.64
765.795	25285.47
766.131	25196.88
766.467	25005.25
766.804	24958.02
767.14	24826.27
767.476	24951.69
767.812	24754.18
768.148	24838.47
768.485	24732.94
768.821	24444.81
769.157	24486.16
769.492	24461.53
769.828	24454.75
770.164	24182.44
770.5	24128.89
770.836	24207.08
771.171	23932.05
771.507	23892.96
771.842	23852.73
772.178	23685.73
772.513	23697.03
772.849	23609.8
773.184	23474.21
773.519	23501.11
773.855	23415.01
774.19	23216.82
774.525	23094.11
774.86	23118.74
775.195	23144.73
775.53	23049.37
775.865	22834.23
776.2	22696.61
776.535	22585.42
776.87	22586.78
777.205	22467.69
777.539	22399.44
777.874	22391.3
778.209	22186.11
778.543	22187.47
778.878	22117.86
779.212	22078.54
779.547	21926.23
779.881	22004.65
780.215	21776.86
780.55	21791.55
780.884	21574.38
781.218	21604.88
781.552	21609.63
781.886	21561.27
782.22	21387.26
782.554	21415.74
782.888	21143.43
783.222	21082.64
783.556	21032.92
783.889	20942.08
784.223	20785.7
784.557	20746.83
784.89	20724.23
785.224	20610.79
785.557	20565.36
785.891	20498.02
786.224	20515.2
786.558	20361.98
786.891	20198.82
787.224	20188.65
787.557	20128.09
787.891	20047.41
788.224	20005.83
788.557	19903.01
788.89	20011.03
789.223	19935.32
789.556	19748.44
789.888	19688.55
790.221	19597.03
790.554	19559.29
790.887	19502.79
791.219	19325.85
791.552	19389.35
791.884	19311.16
792.217	19233.42
792.549	19093.76
792.882	19074.1
793.214	19014.44
793.546	18934.45
793.879	18819.42
794.211	18757.95
794.543	18917.27
794.875	18742.81
795.207	18776.48
795.539	18515.47
795.871	18553.21
796.203	18449.49
796.535	18307.8
796.867	18379.21
797.198	18294.46
797.53	18240.23
797.862	18189.61
798.193	18250.4
798.525	17950.74
798.856	18152.32
799.188	17840.92
799.519	17911.2
799.85	17591.43
800.182	17759.34
800.513	17705.1
800.844	17612.45
801.175	17607.47
801.506	17652.67
801.837	17525.9
802.168	17428.95
802.499	17438.21
802.83	17314.38
803.161	17232.8
803.491	17329.97
803.822	17244.55
804.153	17136.75
804.483	17016.98
804.814	17008.17
805.145	17020.82
805.475	16938.57
805.805	16854.95
806.136	16901.05
806.466	16880.04
806.796	16765.01
807.126	16676.65
807.457	16604.11
807.787	16556.88
808.117	16530.89
808.447	16498.13
808.777	16532.93
809.107	16381.74
809.436	16227.4
809.766	16290.45
810.096	16228.3
810.426	16190.79
810.755	16130.45
811.085	16197.79
811.414	16165.25
811.744	16013.84
812.073	15971.13
812.403	15967.74
812.732	15884.58
813.061	15836
813.39	15758.71
813.719	15757.58
814.049	15844.13
814.378	15804.58
814.707	15616.11
815.036	15618.37
815.365	15620.63
815.693	15386.06
816.022	15415.22
816.351	15354.65
816.68	15336.57
817.008	15397.82
817.337	15216.13
817.665	15266.07
817.994	15265.62
818.322	15172.28
818.651	15096.81
818.979	15069.01
819.307	15098.61
819.636	15082.57
819.964	14909.01
820.292	15086.64
820.62	15027.66
820.948	14960.99
821.276	15070.82
821.604	14926.87
821.932	14937.94
822.259	14989.24
822.587	14940.65
822.915	14900.88
823.243	15033.98
823.57	14954.44
823.898	14925.06
824.225	14869.92
824.553	14831.95
824.88	14853.87
825.207	14925.96
825.535	14851.16
825.862	14926.42
826.189	14895
826.516	14906.75
826.843	14949.01
827.17	14879.19
827.497	14931.39
827.824	14853.2
828.151	14912.18
828.478	14938.84
828.805	14960.54
829.131	14838.51
829.458	14856.81
829.785	14772.75
830.111	14739.08
830.438	14898.62
830.764	14876.7
831.09	14747.44
831.417	14737.72
831.743	14910.37
832.069	14789.92
832.395	14721
832.722	14856.81
833.048	14719.87
833.374	14707.66
833.7	14682.13
834.026	14726.87
834.351	14791.5
834.677	14724.84
835.003	14691.17
835.329	14678.96
835.654	14631.28
835.98	14619.98
836.306	14626.99
836.631	14505.18
836.956	14479.42
837.282	14528.91
837.607	14467.67
837.932	14469.25
838.258	14385.41
838.583	14494.56
838.908	14333.44
839.233	14287.11
839.558	14330.05
839.883	14298.64
840.208	14241.46
840.533	14246.66
840.858	14204.17
841.182	14256.6
841.507	14144.97
841.832	14133.67
842.156	14079.21
842.481	14147
842.805	14053.9
843.13	13988.59
843.454	14054.35
843.778	13888.02
844.103	13945.42
844.427	13854.58
844.751	13896.61
845.075	13865.65
845.399	13810.06
845.723	13732.77
846.047	13838.53
846.371	13654.58
846.695	13610.07
847.019	13633.57
847.343	13478.54
847.666	13431.31
847.99	13358.77
848.313	13355.84
848.637	13255.27
848.96	13243.52
849.284	13151.55
849.607	13246.91
849.931	13045.79
850.254	12970.76
850.577	12937.99
850.9	12875.17
851.223	12858.22
851.546	12788.39
851.869	12752.69
852.192	12711.78
852.515	12685.57
852.838	12526.93
853.161	12558.34
853.483	12541.62
853.806	12489.87
854.129	12441.06
854.451	12443.32
854.774	12338.46
855.096	12278.12
855.419	12173.04
855.741	12173.95
856.063	12160.16
856.385	12084.23
856.708	12059.15
857.03	12027.96
857.352	12088.3
857.674	12006.27
857.996	11989.09
858.318	11832.03
858.64	11875.42
858.961	11828.42
859.283	11842.43
859.605	11723.34
859.926	11710.68
860.248	11726.5
860.57	11693.05
860.891	11618.25
861.212	11530.35
861.534	11563.34
861.855	11559.5
862.176	11663.22
862.498	11496.22
862.819	11512.04
863.14	11464.59
863.461	11492.83
863.782	11486.28
864.103	11424.13
864.424	11427.07
864.745	11353.85
865.065	11366.96
865.386	11366.06
865.707	11310.69
866.027	11421.87
866.348	11296.45
866.668	11216.23
866.989	11248.32
867.309	11129.45
867.63	11153.18
867.95	11198.6
868.27	11136.46
868.59	11127.87
868.91	11117.48
869.23	11106.18
869.55	11047.2
869.87	11089.91
870.19	11038.16
870.51	11063.92
870.83	11044.26
871.15	10961.77
871.469	10992.96
871.789	11006.29
872.109	10983.47
872.428	10899.63
872.748	10960.87
873.067	10933.3
873.386	10902.79
873.706	10879.29
874.025	10777.6
874.344	10775.56
874.663	10820.76
874.982	10733.31
875.301	10847.88
875.62	10656.92
875.939	10666.19
876.258	10720.65
876.577	10609.69
876.896	10612.18
877.214	10637.71
877.533	10600.88
877.852	10585.06
878.17	10671.84
878.489	10569.69
878.807	10589.13
879.125	10560.65
879.444	10503.93
879.762	10507.1
880.08	10527.21
880.398	10487.44
880.716	10490.37
881.034	10413.99
881.352	10414.9
881.67	10464.16
881.988	10340.55
882.306	10378.96
882.624	10318.18
882.941	10248.57
883.259	10282.92
883.577	10209.7
883.894	10228.69
884.212	10194.79
884.529	10147.78
884.846	10139.42
885.164	10145.52
885.481	10019.65
885.798	10122.25
886.115	10016.94
886.432	10028.47
886.75	10020.33
887.067	9958.18
887.383	9922.25
887.7	9987.11
888.017	9889.71
888.334	9949.82
888.651	9814.46
888.967	9799.77
889.284	9796.61
889.6	9746.21
889.917	9710.73
890.233	9769.94
890.55	9742.6
890.866	9726.33
891.182	9608.82
891.498	9583.51
891.815	9631.64
892.131	9522.94
892.447	9514.58
892.763	9532.88
893.079	9496.95
893.395	9346.45
893.71	9396.62
894.026	9374.25
894.342	9379.67
894.657	9292.67
894.973	9314.36
895.289	9317.3
895.604	9316.39
895.92	9173.12
896.235	9172.67
896.55	9145.55
896.865	9102.16
897.181	9078.21
897.496	9093.12
897.811	9026.01
898.126	9017.42
898.441	8954.37
898.756	8938.78
899.071	8861.26
899.386	8935.61
899.7	8757.54
900.015	8781.94
900.33	8753.7
900.644	8715.96
900.959	8692.46
901.273	8707.82
901.588	8684.55
901.902	8605.23
902.216	8576.07
902.531	8591.21
902.845	8555.51
903.159	8509.18
903.473	8478.9
903.787	8390.32
904.101	8395.74
904.415	8393.93
904.729	8334.95
905.042	8342.63
905.356	8226.25
905.67	8294.5
905.984	8243.65
906.297	8188.51
906.611	8179.25
906.924	8094.96
907.237	8078.23
907.551	8100.61
907.864	8060.38
908.177	7981.97
908.491	8028.07
908.804	7947.39
909.117	7935.86
909.43	7891.57
909.743	7824.46
910.056	7870.1
910.368	7805.7
910.681	7758.24
910.994	7707.85
911.307	7643.67
911.619	7630.34
911.932	7672.82
912.244	7543.78
912.557	7529.55
912.869	7565.48
913.181	7499.72
913.494	7456.1
913.806	7466.95
914.118	7417.69
914.43	7314.64
914.742	7372.72
915.054	7402.32
915.366	7272.83
915.678	7226.5
915.99	7270.35
916.302	7190.35
916.613	7158.26
916.925	7159.84
917.236	7127.52
917.548	7072.61
917.859	7079.16
918.171	7009.34
918.482	6978.83
918.794	6968.66
919.105	6919.17
919.416	6926.85
919.727	6923.91
920.038	6864.71
920.349	6819.96
920.66	6782.22
920.971	6718.72
921.282	6730.7
921.593	6657.25
921.903	6649.34
922.214	6599.85
922.525	6639.63
922.835	6623.58
923.146	6452.06
923.456	6494.32
923.767	6460.2
924.077	6470.37
924.387	6463.81
924.697	6401.44
925.008	6399.18
925.318	6310.6
925.628	6352.18
925.938	6334.55
926.248	6278.28
926.558	6267.89
926.867	6267.66
927.177	6222.92
927.487	6171.84
927.796	6137.27
928.106	6158.74
928.416	6117.16
928.725	6120.32
929.034	6052.07
929.344	6056.82
929.653	6045.52
929.962	5946.54
930.271	5892.53
930.581	5941.79
930.89	5897.05
931.199	5874
931.508	5826.77
931.817	5841
932.125	5829.93
932.434	5809.59
932.743	5735.92
933.051	5682.82
933.36	5697.28
933.669	5664.96
933.977	5681.91
934.286	5621.35
934.594	5609.15
934.902	5550.16
935.21	5547
935.519	5579.32
935.827	5504.06
936.135	5490.28
936.443	5441.02
936.751	5408.02
937.059	5406.21
937.367	5392.2
937.674	5408.02
937.982	5407.34
938.29	5351.98
938.597	5334.58
938.905	5280.12
939.213	5240.57
939.52	5261.58
939.827	5199.67
940.135	5229.04
940.442	5130.74
940.749	5187.24
941.056	5167.35
941.363	5073.57
941.67	5083.06
941.977	5063.17
942.284	5027.69
942.591	4997.86
942.898	4976.39
943.205	4991.99
943.511	4973.23
943.818	4950.41
944.125	4923.29
944.431	4914.7
944.738	4852.1
945.044	4832.44
945.35	4811.43
945.657	4798.77
945.963	4848.49
946.269	4714.71
946.575	4749.28
946.881	4684.42
947.187	4707.48
947.493	4676.29
947.799	4712.9
948.105	4653.69
948.41	4601.72
948.716	4599
949.022	4551.55
949.327	4608.49
949.633	4523.3
949.938	4504.32
950.244	4494.6
950.549	4472.45
950.854	4495.28
951.16	4438.56
951.465	4392.46
951.77	4403.53
952.075	4419.12
952.38	4349.74
952.685	4356.75
952.99	4319.91
953.294	4277.66
953.599	4324.89
953.904	4286.47
954.209	4253.7
954.513	4254.83
954.818	4220.48
955.122	4234.95
955.426	4193.36
955.731	4127.83
956.035	4156.3
956.339	4134.83
956.643	4122.63
956.948	4120.15
957.252	4059.81
957.556	4042.41
957.86	4034.27
958.163	4046.48
958.467	4015.74
958.771	3979.58
959.075	3975.74
959.378	3935.97
959.682	3938.68
959.985	3913.37
960.289	3900.26
960.592	3872.02
960.896	3833.15
961.199	3844.9
961.502	3852.13
961.805	3827.5
962.108	3815.07
962.411	3759.93
962.714	3731
963.017	3752.02
963.32	3734.85
963.623	3694.39
963.926	3673.15
964.228	3661.63
964.531	3668.18
964.833	3641.29
965.136	3660.5
965.438	3606.71
965.741	3614.17
966.043	3582.53
966.345	3610.55
966.648	3564.68
966.95	3560.61
967.252	3535.08
967.554	3518.81
967.856	3468.19
968.158	3487.39
968.46	3441.52
968.761	3453.95
969.063	3406.04
969.365	3412.59
969.666	3433.84
969.968	3375.08
970.269	3378.92
970.571	3383.22
970.872	3356.32
971.174	3341.41
971.475	3344.35
971.776	3336.66
972.077	3267.29
972.378	3320.17
972.679	3309.55
972.98	3262.99
973.281	3223.22
973.582	3241.75
973.883	3199.04
974.183	3193.39
974.484	3155.43
974.785	3145.03
975.085	3147.06
975.386	3167.63
975.686	3142.54
975.986	3096.9
976.287	3138.25
976.587	3113.84
976.887	3071.36
977.187	3083.79
977.487	3029.78
977.787	2964.02
978.087	3011.93
978.387	2994.98
978.687	3025.03
978.987	2964.24
979.286	2939.16
979.586	2952.04
979.885	2933.51
980.185	2917.01
980.484	2921.76
980.784	2894.87
981.083	2884.92
981.382	2871.59
981.682	2849.9
981.981	2851.03
982.28	2839.95
982.579	2819.39
982.878	2804.47
983.177	2798.82
983.475	2796.56
983.774	2762.22
984.073	2760.63
984.372	2732.39
984.67	2741.2
984.969	2753.4
985.267	2727.19
985.566	2703.01
985.864	2719.73
986.162	2668.21
986.461	2684.25
986.759	2663.46
987.057	2622.33
987.355	2646.06
987.653	2607.87
987.951	2566.74
988.249	2567.42
988.547	2593.41
988.844	2567.19
989.142	2616.23
989.44	2554.99
989.737	2526.97
990.035	2512.28
990.332	2525.39
990.63	2511.83
990.927	2525.61
991.224	2499.17
991.521	2439.29
991.819	2432.28
992.116	2453.98
992.413	2456.69
992.71	2416.91
993.006	2384.82
993.303	2421.43
993.6	2405.16
993.897	2385.73
994.193	2355.67
994.49	2333.53
994.787	2323.58
995.083	2319.97
995.379	2334.88
995.676	2303.7
995.972	2310.02
996.268	2284.26
996.565	2290.59
996.861	2254.66
997.157	2273.19
997.453	2250.14
997.749	2238.16
998.044	2215.79
998.34	2215.79
998.636	2212.85
998.932	2193.64
999.227	2198.39
999.523	2184.38
999.818	2159.52
1000.114	2140.99
1000.409	2131.5
1000.704	2084.72
1001	2090.14
1001.295	2110.48
1001.59	2113.42
1001.885	2081.78
1002.18	2064.15
1002.475	2058.28
1002.77	2036.58
1003.065	2000.43
1003.359	1999.75
1003.654	1981.67
1003.949	1981.22
1004.243	1979.41
1004.538	1971.95
1004.832	1954.78
1005.127	1930.82
1005.421	1958.39
1005.715	1918.85
1006.009	1943.48
1006.304	1889.47
1006.598	1880.2
1006.892	1897.83
1007.186	1875.46
1007.48	1852.41
1007.773	1848.79
1008.067	1836.59
1008.361	1843.37
1008.655	1809.47
1008.948	1829.13
1009.242	1807.44
1009.535	1805.63
1009.829	1779.19
1010.122	1754.33
1010.415	1771.96
1010.708	1738.74
1011.001	1732.64
1011.295	1764.28
1011.588	1752.52
1011.881	1715.69
1012.173	1694.67
1012.466	1707.1
1012.759	1692.87
1013.052	1688.35
1013.344	1658.29
1013.637	1661.91
1013.93	1632.75
1014.222	1628.69
1014.514	1633.43
1014.807	1615.35
1015.099	1609.48
1015.391	1612.87
1015.683	1597.05
1015.976	1577.16
1016.268	1583.94
1016.56	1564.96
1016.851	1545.07
1017.143	1543.72
1017.435	1520.44
1017.727	1512.76
1018.018	1513.43
1018.31	1477.28
1018.602	1517.73
1018.893	1498.97
1019.185	1479.99
1019.476	1480.22
1019.767	1481.12
1020.058	1464.62
1020.35	1464.4
1020.641	1427.56
1020.932	1440.89
1021.223	1394.12
1021.514	1392.76
1021.804	1394.12
1022.095	1386.88
1022.386	1363.83
1022.677	1367.22
1022.967	1364.96
1023.258	1346.43
1023.548	1363.16
1023.839	1338.52
1024.129	1329.94
1024.419	1341.01
1024.709	1307.34
1025	1309.82
1025.29	1270.96
1025.58	1277.28
1025.87	1266.44
1026.16	1272.09
1026.449	1266.89
1026.739	1233.44
1027.029	1215.59
1027.319	1218.3
1027.608	1233.22
1027.898	1191.41
1028.187	1211.52
1028.477	1222.14
1028.766	1181.47
1029.055	1174.91
1029.344	1195.7
1029.634	1158.64
1029.923	1152.09
1030.212	1156.38
1030.501	1151.86
1030.79	1133.11
1031.078	1105.54
1031.367	1145.99
1031.656	1116.84
1031.945	1110.73
1032.233	1098.76
1032.522	1078.64
1032.81	1100.56
1033.099	1091.52
1033.387	1085.2
1033.675	1056.05
1033.963	1065.99
1034.251	1088.59
1034.54	1053.56
1034.828	1055.59
1035.116	1035.93
1035.403	1032.32
1035.691	1000.91
1035.979	1031.64
1036.267	992.77
1036.554	994.35
1036.842	968.59
1037.129	984.86
1037.417	983.28
1037.704	963.62
1037.992	941.02
1038.279	951.19
1038.566	955.26
1038.853	955.26
1039.14	955.26
