Data from hue_280_FLMS001491_00088.txt Node
Date: Tue Feb 07 15:55:55 GMT 2017
User: dcchb
Spectrometer: FLMS00149
Trigger mode: 0
Integration Time (sec): 2.000000E-2
Scans to average: 10
Electric dark correction enabled: true
Nonlinearity correction enabled: false
Boxcar width: 0
XAxis mode: Wavelengths
Number of Pixels in Spectrum: 2048
>>>>>Begin Spectral Data<<<<<
341.393	-4.63
341.776	-4.63
342.16	-4.63
342.543	-48.02
342.927	-63.84
343.31	-84.86
343.693	-54.12
344.077	-46.89
344.46	-52.99
344.843	-60.68
345.226	-54.12
345.61	-28.36
345.993	-21.13
346.376	-22.94
346.759	24.29
347.142	31.98
347.525	50.73
347.908	74.24
348.291	62.71
348.674	81.69
349.057	100.45
349.44	114.01
349.823	140.67
350.206	142.48
350.588	189.26
350.971	201.24
351.354	227.68
351.737	224.06
352.119	243.04
352.502	262.93
352.884	250.73
353.267	270.16
353.65	286.21
354.032	307.68
354.414	306.77
354.797	295.25
355.179	314
355.562	308.13
355.944	315.13
356.326	336.6
356.709	319.65
357.091	319.88
357.473	329.6
357.855	355.13
358.238	329.82
358.62	344.96
359.002	320.33
359.384	356.71
359.766	328.92
360.148	318.75
360.53	326.21
360.912	325.98
361.294	321.01
361.676	326.43
362.057	340.67
362.439	323.27
362.821	339.99
363.203	324.62
363.584	324.17
363.966	322.82
364.348	332.76
364.729	312.87
365.111	331.18
365.493	304.51
365.874	322.59
366.256	321.69
366.637	318.75
367.019	308.81
367.4	315.58
367.781	298.64
368.163	296.38
368.544	323.49
368.925	300.9
369.306	316.26
369.688	323.72
370.069	290.5
370.45	323.95
370.831	316.94
371.212	326.43
371.593	302.7
371.974	318.75
372.355	338.64
372.736	327.34
373.117	333.21
373.498	330.73
373.879	318.52
374.26	331.18
374.641	349.93
375.021	310.84
375.402	326.66
375.783	312.2
376.163	328.47
376.544	328.92
376.925	323.04
377.305	327.34
377.686	322.36
378.066	323.49
378.447	330.5
378.827	333.21
379.208	320.1
379.588	334.79
379.968	325.53
380.349	335.92
380.729	321.91
381.109	318.97
381.489	311.07
381.87	330.73
382.25	340.22
382.63	325.3
383.01	342.02
383.39	349.93
383.77	329.14
384.15	358.75
384.53	347.67
384.91	354
385.29	364.85
385.67	350.61
386.049	356.04
386.429	344.96
386.809	356.71
387.189	339.09
387.568	341.12
387.948	359.65
388.328	349.93
388.707	374.79
389.087	370.95
389.466	371.4
389.846	362.14
390.225	374.57
390.605	374.34
390.984	386.32
391.363	352.19
391.743	359.2
392.122	363.27
392.501	371.18
392.881	397.39
393.26	368.46
393.639	372.76
394.018	386.32
394.397	381.35
394.776	380.67
395.155	378.18
395.534	388.13
395.913	396.71
396.292	380.44
396.671	389.71
397.05	371.4
397.429	396.03
397.808	398.97
398.186	379.76
398.565	420.89
398.944	394
399.323	408.01
399.701	392.19
400.08	398.07
400.458	404.62
400.837	420.89
401.215	399.88
401.594	411.63
401.972	417.96
402.351	404.4
402.729	433.32
403.107	412.98
403.486	437.16
403.864	441.23
404.242	441.91
404.62	436.71
404.999	439.65
405.377	446.2
405.755	440.1
406.133	435.58
406.511	464.06
406.889	456.15
407.267	452.08
407.645	471.74
408.023	464.96
408.401	484.62
408.779	476.71
409.156	490.27
409.534	490.04
409.912	503.83
410.29	492.08
410.667	514.9
411.045	506.77
411.422	520.78
411.8	517.39
412.178	552.64
412.555	532.98
412.933	532.53
413.31	578.4
413.687	540.89
414.065	536.37
414.442	557.84
414.819	559.87
415.197	568.91
415.574	586.09
415.951	573.66
416.328	620.44
416.705	589.02
417.082	597.61
417.46	626.09
417.837	625.18
418.214	625.18
418.591	628.35
418.967	641
419.344	652.98
419.721	661.11
420.098	643.03
420.475	680.1
420.852	666.76
421.228	677.38
421.605	688.91
421.982	712.64
422.358	738.4
422.735	700.43
423.111	710.15
423.488	725.07
423.864	738.85
424.241	737.49
424.617	784.27
424.994	761.9
425.37	773.43
425.746	770.49
426.123	789.7
426.499	824.5
426.875	819.98
427.251	838.96
427.627	813.42
428.003	822.46
428.379	853.2
428.756	872.41
429.132	892.97
429.507	910.37
429.883	894.78
430.259	886.64
430.635	937.94
431.011	922.8
431.387	935
431.763	940.43
432.138	966.87
432.514	969.81
432.89	971.39
433.265	989.01
433.641	973.87
434.016	1011.84
434.392	1043.93
434.767	1024.27
435.143	1032.18
435.518	1038.73
435.894	1091.84
436.269	1090.93
436.644	1106.3
437.02	1119.86
437.395	1133.19
437.77	1159.18
438.145	1170.93
438.52	1145.85
438.895	1188.33
439.271	1177.03
439.646	1242.57
440.021	1213.87
440.395	1226.52
440.77	1243.47
441.145	1246.41
441.52	1304.49
441.895	1254.77
442.27	1264.94
442.645	1281.21
443.019	1286.63
443.394	1278.27
443.769	1282.57
444.143	1312.85
444.518	1318.5
444.892	1325.5
445.267	1327.08
445.641	1365.73
446.016	1357.82
446.39	1347.87
446.764	1381.77
447.139	1377.93
447.513	1397.82
447.887	1412.05
448.262	1398.72
448.636	1393.3
449.01	1441.88
449.384	1422.9
449.758	1442.56
450.132	1456.8
450.506	1432.84
450.88	1460.64
451.254	1425.39
451.628	1477.81
452.002	1486.18
452.376	1477.14
452.75	1526.4
453.123	1489.34
453.497	1521.2
453.871	1523.91
454.244	1589.45
454.618	1557.13
454.992	1570.47
455.365	1568.66
455.739	1634.19
456.112	1609.11
456.486	1632.61
456.859	1623.12
457.232	1642.1
457.606	1659.05
457.979	1687.3
458.352	1688.66
458.725	1696.34
459.099	1734.3
459.472	1738.6
459.845	1748.09
460.218	1768.43
460.591	1784.25
460.964	1776.11
461.337	1837.8
461.71	1831.25
462.083	1854.75
462.456	1855.66
462.829	1862.89
463.201	1898.82
463.574	1895.2
463.947	1928.42
464.32	1948.76
464.692	1960.06
465.065	1956.9
465.438	1989.67
465.81	1995.31
466.183	2019.49
466.555	2049.78
466.928	2052.26
467.3	2071.47
467.672	2109.21
468.045	2108.76
468.417	2126.84
468.789	2141.07
469.161	2155.99
469.534	2175.65
469.906	2204.35
470.278	2239.15
470.65	2260.17
471.022	2277.57
471.394	2307.62
471.766	2310.79
472.138	2332.26
472.51	2398.47
472.882	2414.74
473.253	2445.25
473.625	2436.89
473.997	2485.47
474.369	2485.25
474.74	2518.92
475.112	2532.48
475.484	2586.26
475.855	2635.3
476.227	2649.99
476.598	2685.01
476.97	2704.45
477.341	2740.15
477.713	2759.81
478.084	2761.17
478.455	2813.15
478.827	2852.92
479.198	2918.45
479.569	2865.8
479.94	2995.74
480.311	2993.48
480.682	3032.35
481.053	3059.47
481.424	3112.8
481.795	3122.29
482.166	3178.56
482.537	3197.54
482.908	3228.73
483.279	3280.03
483.65	3310.99
484.021	3334.49
484.391	3351.44
484.762	3406.8
485.133	3411.55
485.503	3472.34
485.874	3527.48
486.244	3547.36
486.615	3578.1
486.985	3645.67
487.356	3680.47
487.726	3716.85
488.097	3733.8
488.467	3719.79
488.837	3836.62
489.207	3841.37
489.578	3882.04
489.948	3897.86
490.318	3966.79
490.688	3987.13
491.058	3955.49
491.428	4058.09
491.798	4057.86
492.168	4174.01
492.538	4118.42
492.908	4182.6
493.278	4237.52
493.648	4229.38
494.017	4244.07
494.387	4264.63
494.757	4263.96
495.126	4352.31
495.496	4340.56
495.866	4404.06
496.235	4395.48
496.605	4460.56
496.974	4493.55
497.344	4507.57
497.713	4525.64
498.082	4544.85
498.452	4551.18
498.821	4594.57
499.19	4564.29
499.559	4573.1
499.928	4605.87
500.298	4681.8
500.667	4663.72
501.036	4667.11
501.405	4698.52
501.774	4746.88
502.143	4737.62
502.512	4754.34
502.88	4794.34
503.249	4808.8
503.618	4811.29
503.987	4826.2
504.356	4821.91
504.724	4827.78
505.093	4857.39
505.462	4896.71
505.83	4890.83
506.199	4937.61
506.567	4970.15
506.936	4890.61
507.304	5025.97
507.672	5041.56
508.041	5001.56
508.409	5058.06
508.777	5048.34
509.145	5051.05
509.514	5096.48
509.882	5086.08
510.25	5062.13
510.618	5112.52
510.986	5101.45
511.354	5145.97
511.722	5162.46
512.09	5211.5
512.458	5177.38
512.826	5216.92
513.193	5246.08
513.561	5242.69
513.929	5258.51
514.297	5295.12
514.664	5323.14
515.032	5314.1
515.4	5305.96
515.767	5313.87
516.135	5318.17
516.502	5324.72
516.869	5411.5
517.237	5376.47
517.604	5355.9
517.972	5396.81
518.339	5466.41
518.706	5436.13
519.073	5453.98
519.44	5456.47
519.808	5444.26
520.175	5457.82
520.542	5542.79
520.909	5520.65
521.276	5482.68
521.643	5572.62
522.009	5571.94
522.376	5612.85
522.743	5627.99
523.11	5665.05
523.477	5686.74
523.843	5679.74
524.21	5753.63
524.577	5772.84
524.943	5761.32
525.31	5775.33
525.676	5814.2
526.043	5832.95
526.409	5833.63
526.776	5914.31
527.142	5878.15
527.508	5929.9
527.874	5922.22
528.241	5962.22
528.607	6020.29
528.973	6036.56
529.339	5966.06
529.705	6002.22
530.071	6058.03
530.437	6117.92
530.803	6080.18
531.169	6129.67
531.535	6055.77
531.901	6116.34
532.267	6114.75
532.632	6162.44
532.998	6197.69
533.364	6211.02
533.73	6199.05
534.095	6284.47
534.461	6272.04
534.826	6296.67
535.192	6281.08
535.557	6316.78
535.923	6297.12
536.288	6325.82
536.653	6329.44
537.019	6344.35
537.384	6406.05
537.749	6380.96
538.114	6360.85
538.479	6383.22
538.845	6437.68
539.21	6406.5
539.575	6429.1
539.94	6453.73
540.305	6472.26
540.67	6461.41
541.034	6494.41
541.399	6501.64
541.764	6569.88
542.129	6517
542.494	6483.11
542.858	6521.07
543.223	6580.5
543.587	6593.84
543.952	6597
544.316	6595.19
544.681	6599.71
545.045	6639.71
545.41	6645.59
545.774	6716.32
546.138	6606.72
546.503	6666.83
546.867	6701.63
547.231	6734.4
547.595	6682.2
547.959	6695.3
548.324	6705.25
548.688	6745.02
549.052	6723.1
549.416	6788.64
549.779	6771.01
550.143	6787.73
550.507	6839.71
550.871	6793.15
551.235	6815.53
551.599	6794.06
551.962	6816.2
552.326	6834.51
552.689	6929.2
553.053	6827.28
553.417	6909.54
553.78	6916.54
554.143	6887.62
554.507	6964
554.87	6964.22
555.234	7021.17
555.597	6993.38
555.96	6992.47
556.323	7065.01
556.686	6974.39
557.05	7067.27
557.413	7093.03
557.776	7070.89
558.139	7139.81
558.502	7149.76
558.865	7095.07
559.228	7132.35
559.59	7198.12
559.953	7228.4
560.316	7191.34
560.679	7313.37
561.041	7257.1
561.404	7269.53
561.767	7290.77
562.129	7327.6
562.492	7351.11
562.854	7405.34
563.217	7360.15
563.579	7399.69
563.941	7441.5
564.304	7459.8
564.666	7564.66
565.028	7560.37
565.39	7453.93
565.753	7610.53
566.115	7587.94
566.477	7615.96
566.839	7683.3
567.201	7678.33
567.563	7751.32
567.925	7781.6
568.287	7749.29
568.648	7747.71
569.01	7813.92
569.372	7830.42
569.734	7853.01
570.095	7863.86
570.457	7961.26
570.819	7912.9
571.18	7962.39
571.542	8043.07
571.903	7990.41
572.265	8057.08
572.626	8089.84
572.987	8060.01
573.349	8055.04
573.71	8156.06
574.071	8125.55
574.432	8183.17
574.794	8299.56
575.155	8271.53
575.516	8246.9
575.877	8340.91
576.238	8393.56
576.599	8444.18
576.96	8440.8
577.32	8478.76
577.681	8501.13
578.042	8520.34
578.403	8589.94
578.763	8575.93
579.124	8664.74
579.485	8712.2
579.845	8697.51
580.206	8758.07
580.566	8820.45
580.927	8851.86
581.287	8895.02
581.648	8908.58
582.008	8988.35
582.368	8958.3
582.728	9034.68
583.089	9091.85
583.449	9113.55
583.809	9158.52
584.169	9231.96
584.529	9270.15
584.889	9412.29
585.249	9350.6
585.609	9427.66
585.969	9550.6
586.329	9625.17
586.688	9632.63
587.048	9723.93
587.408	9616.36
587.768	9772.06
588.127	9852.74
588.487	9905.62
588.846	9981.55
589.206	9994.43
589.565	10050.92
589.925	10186.96
590.284	10163.46
590.643	10356
591.003	10309.9
591.362	10398.26
591.721	10456.34
592.08	10561.19
592.44	10607.07
592.799	10701.07
593.158	10746.72
593.517	10741.75
593.876	10844.12
594.235	10857.91
594.593	10993.95
594.952	11007.96
595.311	11078.92
595.67	11234.39
596.029	11268.07
596.387	11296.99
596.746	11374.5
597.104	11439.13
597.463	11369.08
597.822	11542.63
598.18	11532.47
598.538	11607.94
598.897	11694.27
599.255	11743.31
599.613	11853.36
599.972	11847.94
600.33	11965
600.688	11897.43
601.046	11994.15
601.404	12107.37
601.762	12098.1
602.12	12119.12
602.478	12209.06
602.836	12274.82
603.194	12275.95
603.552	12348.26
603.91	12293.8
604.268	12401.37
604.625	12334.25
604.983	12480.46
605.341	12471.88
605.698	12592.32
606.056	12592.1
606.413	12639.55
606.771	12726.33
607.128	12746.67
607.485	12683.17
607.843	12696.73
608.2	12776.05
608.557	12854.69
608.914	12878.19
609.272	12909.6
609.629	12924.52
609.986	13002.93
610.343	13001.81
610.7	13117.51
611.057	13073.22
611.414	13192.08
611.771	13140.56
612.127	13232.08
612.484	13274.79
612.841	13325.86
613.198	13301.01
613.554	13204.74
613.911	13412.64
614.267	13347.11
614.624	13468.01
614.98	13386.88
615.337	13529.02
615.693	13423.26
616.05	13519.76
616.406	13528.57
616.762	13584.16
617.118	13611.28
617.475	13598.63
617.831	13671.17
618.187	13695.12
618.543	13772.41
618.899	13783.48
619.255	13678.85
619.611	13823.03
619.967	13882.01
620.323	13880.88
620.678	13839.3
621.034	13837.26
621.39	13882.23
621.746	13876.81
622.101	13968.56
622.457	13931.72
622.812	13951.38
623.168	13984.15
623.523	13976.24
623.879	14049.91
624.234	13887.21
624.589	13951.38
624.945	13978.28
625.3	13979.41
625.655	13999.97
626.01	13997.71
626.365	13949.8
626.72	13991.38
627.075	14035.9
627.43	14001.1
627.785	14047.2
628.14	14044.94
628.495	13969.92
628.85	13942.35
629.205	13978.5
629.559	14123.58
629.914	13962.91
630.269	13982.34
630.623	13970.82
630.978	13949.35
631.332	13971.95
631.687	13985.73
632.041	13941.67
632.396	13956.81
632.75	13873.87
633.104	13954.55
633.459	13889.24
633.813	13989.35
634.167	13892.4
634.521	13936.47
634.875	13851.73
635.229	13898.73
635.583	13828.22
635.937	13817.6
636.291	13790.03
636.645	13845.17
636.999	13840.65
637.352	13860.09
637.706	13745.06
638.06	13845.4
638.413	13763.82
638.767	13729.92
639.121	13724.05
639.474	13657.61
639.828	13668.45
640.181	13686.76
640.534	13681.79
640.888	13661.9
641.241	13617.16
641.594	13618.51
641.947	13679.53
642.301	13616.25
642.654	13688.57
643.007	13656.25
643.36	13691.73
643.713	13622.13
644.066	13660.09
644.419	13609.47
644.771	13410.83
645.124	13324.06
645.477	13381.23
645.83	13320.67
646.182	13253.55
646.535	13164.74
646.888	13164.74
647.24	13140.11
647.593	13166.32
647.945	13150.73
648.298	13132.2
648.65	13087.9
649.002	13162.7
649.355	13137.85
649.707	13148.69
650.059	13222.82
650.411	13383.26
650.763	13411.06
651.115	13504.39
651.467	13536.03
651.819	13526.76
652.171	13488.57
652.523	13499.65
652.875	13501.9
653.227	13395.02
653.578	13600.89
653.93	13529.25
654.282	13490.83
654.633	13446.99
654.985	13431.62
655.337	13470.27
655.688	13483.6
656.039	13519.08
656.391	13442.7
656.742	13419.65
657.094	13518.18
657.445	13494.67
657.796	13566.31
658.147	13494.45
658.498	13537.16
658.849	13523.83
659.2	13493.09
659.551	13485.86
659.902	13548.23
660.253	13552.53
660.604	13492.19
660.955	13479.98
661.306	13596.59
661.656	13471.17
662.007	13604.28
662.358	13544.84
662.708	13478.63
663.059	13626.65
663.409	13475.01
663.76	13585.52
664.11	13642.24
664.461	13604.5
664.811	13636.82
665.161	13528.34
665.511	13511.85
665.862	13639.3
666.212	13606.08
666.562	13742.58
666.912	13594.33
667.262	13569.25
667.612	13610.6
667.962	13618.06
668.312	13655.35
668.662	13651.73
669.011	13623.48
669.361	13598.63
669.711	13597.95
670.06	13572.41
670.41	13549.36
670.76	13496.48
671.109	13557.95
671.459	13533.54
671.808	13520.89
672.157	13592.3
672.507	13492.87
672.856	13508.91
673.205	13542.36
673.554	13514.56
673.904	13431.62
674.253	13568.34
674.602	13569.7
674.951	13291.29
675.3	13263.04
675.649	13472.53
675.998	13390.72
676.346	13457.84
676.695	13397.73
677.044	13375.35
677.393	13355.69
677.741	13391.4
678.09	13329.48
678.438	13277.73
678.787	13282.93
679.135	13350.72
679.484	13254.45
679.832	13356.6
680.181	13203.38
680.529	13219.88
680.877	13207.68
681.225	13189.37
681.573	13305.07
681.922	13218.97
682.27	13107.11
682.618	13093.78
682.966	13089.71
683.314	13126.55
683.661	13089.03
684.009	13003.61
684.357	12964.07
684.705	12923.61
685.053	13008.13
685.4	12944.86
685.748	12875.93
686.095	12908.93
686.443	12807.91
686.79	12760.46
687.138	12823.5
687.485	12747.8
687.832	12803.84
688.18	12770.17
688.527	12723.17
688.874	12651.08
689.221	12614.24
689.568	12627.58
689.915	12567.01
690.262	12526.56
690.609	12446.34
690.956	12472.55
691.303	12357.98
691.65	12345.78
691.997	12341.26
692.344	12180.13
692.69	12262.84
693.037	12236.85
693.383	12047.03
693.73	12101.72
694.077	12008.38
694.423	12023.53
694.769	11952.79
695.116	11955.05
695.462	11954.15
695.808	11871.89
696.155	11961.61
696.501	11841.16
696.847	11835.28
697.193	11735.62
697.539	11705.12
697.885	11682.07
698.231	11600.26
698.577	11620.15
698.923	11536.53
699.269	11548.51
699.614	11457.66
699.96	11429.64
700.306	11434.61
700.651	11345.8
700.997	11261.51
701.342	11294.96
701.688	11232.59
702.033	11251.79
702.379	11218.58
702.724	11162.76
703.069	11144.9
703.415	11008.64
703.76	10993.04
704.105	11024.46
704.45	10961.18
704.795	10913.27
705.14	10891.58
705.485	10912.37
705.83	10818.59
706.175	10805.7
706.52	10845.93
706.865	10734.97
707.209	10653.62
707.554	10678.02
707.899	10735.65
708.243	10599.83
708.588	10631.7
708.932	10504.7
709.277	10551.93
709.621	10527.52
709.966	10448.2
710.31	10521.64
710.654	10391.93
710.998	10336.34
711.342	10366.62
711.687	10312.84
712.031	10316.68
712.375	10301.09
712.719	10268.77
713.063	10294.53
713.407	10272.61
713.75	10243.91
714.094	10132.28
714.438	10155.33
714.782	10118.04
715.125	10111.71
715.469	10180.86
715.812	10064.48
716.156	10113.07
716.499	10123.69
716.843	10018.38
717.186	9987.87
717.53	10052.28
717.873	10007.08
718.216	9935.22
718.559	9917.82
718.902	9835.79
719.246	9958.27
719.589	9939.06
719.932	9795.56
720.275	9881.21
720.617	9859.74
720.96	9844.37
721.303	9823.58
721.646	9814.09
721.989	9801.66
722.331	9817.48
722.674	9763.25
723.016	9772.74
723.359	9779.97
723.701	9870.59
724.044	9718.05
724.386	9680.31
724.729	9720.54
725.071	9672.18
725.413	9694.77
725.755	9709.01
726.097	9616.81
726.439	9572.29
726.782	9605.28
727.124	9648.22
727.465	9563.25
727.807	9643.02
728.149	9598.28
728.491	9624.72
728.833	9624.04
729.175	9640.99
729.516	9543.14
729.858	9578.39
730.199	9593.31
730.541	9590.37
730.882	9607.54
731.224	9559.41
731.565	9555.12
731.906	9529.58
732.248	9532.07
732.589	9519.18
732.93	9509.47
733.271	9526.87
733.612	9554.44
733.953	9608.9
734.294	9482.58
734.635	9541.78
734.976	9569.58
735.317	9467.66
735.658	9520.54
735.999	9593.08
736.339	9521.22
736.68	9550.82
737.021	9525.06
737.361	9537.04
737.702	9595.57
738.042	9542.23
738.383	9543.14
738.723	9579.07
739.063	9562.8
739.404	9635.79
739.744	9595.11
740.084	9678.73
740.424	9651.61
740.764	9655.23
741.104	9676.69
741.444	9693.87
741.784	9626.53
742.124	9698.39
742.464	9679.41
742.804	9739.52
743.143	9702.46
743.483	9741.33
743.823	9683.7
744.162	9749.91
744.502	9864.49
744.841	9839.85
745.181	9918.95
745.52	9876.46
745.86	9920.53
746.199	9948.1
746.538	9989.23
746.877	10068.55
747.216	10090.02
747.556	10164.14
747.895	10248.88
748.234	10198.71
748.573	10286.17
748.911	10351.25
749.25	10414.08
749.589	10412.95
749.928	10572.04
750.267	10507.86
750.605	10635.77
750.944	10732.03
751.283	10758.47
751.621	10875.31
751.96	10980.39
752.298	11030.11
752.636	11177.22
752.975	11250.66
753.313	11367.27
753.651	11466.7
753.989	11545.35
754.327	11548.96
754.666	11699.69
755.004	11816.75
755.342	12009.74
755.679	12090.42
756.017	12113.69
756.355	12348.49
756.693	12415.38
757.031	12611.98
757.368	12640.91
757.706	12838.42
758.044	12995.93
758.381	13088.58
758.719	13242.48
759.056	13352.98
759.394	13466.65
759.731	13529.25
760.068	13671.62
760.405	13819.86
760.743	13896.7
761.08	14201.55
761.417	14260.98
761.754	14428.66
762.091	14556.79
762.428	14727.64
762.765	14765.6
763.102	14974.41
763.438	15131.01
763.775	15258.24
764.112	15313.16
764.449	15563.77
764.785	15600.61
765.122	15736.2
765.458	15893.71
765.795	15966.02
766.131	16192.23
766.467	16185.9
766.804	16288.27
767.14	16368.27
767.476	16556.51
767.812	16597.87
768.148	16758.99
768.485	16897.07
768.821	16819.56
769.157	17060
769.492	17125.99
769.828	17238.3
770.164	17167.8
770.5	17309.04
770.836	17372.54
771.171	17285.53
771.507	17521.69
771.842	17423.61
772.178	17603.94
772.513	17646.2
772.849	17723.04
773.184	17721
773.519	17804.39
773.855	17871.06
774.19	17878.51
774.525	17917.61
774.86	18020.43
775.195	18087.32
775.53	18018.85
775.865	18011.16
776.2	17954.22
776.535	17998.74
776.87	18150.82
777.205	18035.12
777.539	18069.92
777.874	18190.82
778.209	18104.04
778.543	18088
778.878	18002.13
779.212	18110.37
779.547	18154.44
779.881	18194.21
780.215	18113.76
780.55	18216.58
780.884	18020.88
781.218	18112.41
781.552	18151.27
781.886	18037.38
782.22	18066.3
782.554	17900.21
782.888	17965.74
783.222	17860.21
783.556	17816.82
783.889	17878.74
784.223	17765.97
784.557	17709.93
784.89	17874.22
785.224	17719.2
785.557	17813.2
785.891	17780.44
786.224	17671.74
786.558	17762.81
786.891	17636.26
787.224	17579.31
787.557	17573.66
787.891	17543.83
788.224	17530.27
788.557	17656.6
788.89	17613.89
789.223	17490.95
789.556	17463.61
789.888	17474.68
790.221	17368.02
790.554	17216.38
790.887	17262.26
791.219	17227
791.552	17135.26
791.884	17173.22
792.217	17171.64
792.549	17056.61
792.882	16909.27
793.214	16875.38
793.546	17052.77
793.879	16804.87
794.211	16791.08
794.543	16792.21
794.875	16815.26
795.207	16920.57
795.539	16744.31
795.871	16809.84
796.203	16618.89
796.535	16581.37
796.867	16547.47
797.198	16535.27
797.53	16448.95
797.862	16363.98
798.193	16515.84
798.525	16361.26
798.856	16340.25
799.188	16218.44
799.519	16195.17
799.85	16118.56
800.182	16105.9
800.513	16114.72
800.844	16046.92
801.175	16051.67
801.506	16056.87
801.837	15955.17
802.168	16006.47
802.499	15876.98
802.83	15822.52
803.161	15890.77
803.491	15860.26
803.822	15752.24
804.153	15660.94
804.483	15558.12
804.814	15555.41
805.145	15576.65
805.475	15623.21
805.805	15533.72
806.136	15472.93
806.466	15487.16
806.796	15475.64
807.126	15392.48
807.457	15253.05
807.787	15278.36
808.117	15249.66
808.447	15167.17
808.777	15245.36
809.107	15153.16
809.436	15079.49
809.766	15132.37
810.096	14985.26
810.426	14952.49
810.755	15085.37
811.085	14974.41
811.414	14943.67
811.744	14842.89
812.073	14772.38
812.403	14848.31
812.732	14704.36
813.061	14644.25
813.39	14726.73
813.719	14637.92
814.049	14728.09
814.378	14626.17
814.707	14543.01
815.036	14534.19
815.365	14422.78
815.693	14349.11
816.022	14372.62
816.351	14434.76
816.68	14310.25
817.008	14358.61
817.337	14299.62
817.665	14183.24
817.994	14264.14
818.322	14199.06
818.651	14195.67
818.979	14088.1
819.307	14113.19
819.636	14170.14
819.964	13985.96
820.292	14088.56
820.62	14152.96
820.948	14076.13
821.276	14124.71
821.604	14004.94
821.932	14071.16
822.259	14011.95
822.587	14025.96
822.915	14016.92
823.243	14070.93
823.57	13990.48
823.898	14053.08
824.225	13978.95
824.553	13991.16
824.88	14008.33
825.207	13909.8
825.535	14027.54
825.862	14037.48
826.189	13979.18
826.516	13992.97
826.843	14120.19
827.17	13977.6
827.497	14046.98
827.824	14067.54
828.151	14144.6
828.478	14045.39
828.805	14114.77
829.131	13950.93
829.458	14002.68
829.785	13977.37
830.111	13908.9
830.438	14008.56
830.764	14022.12
831.09	14052.17
831.417	13938.05
831.743	14009.01
832.069	14002.46
832.395	13948.67
832.722	13972.85
833.048	13909.13
833.374	13912.74
833.7	13846.3
834.026	13845.62
834.351	13978.73
834.677	13884.27
835.003	13940.31
835.329	13884.72
835.654	13819.18
835.98	13804.72
836.306	13823.7
836.631	13861.67
836.956	13751.16
837.282	13850.14
837.607	13727.66
837.932	13677.04
838.258	13749.36
838.583	13705.06
838.908	13675.23
839.233	13682.92
839.558	13628.91
839.883	13504.39
840.208	13449.93
840.533	13528.57
840.858	13526.09
841.182	13478.4
841.507	13455.13
841.832	13467.78
842.156	13371.29
842.481	13413.09
842.805	13315.02
843.13	13301.46
843.454	13279.31
843.778	13315.92
844.103	13227.56
844.427	13169.71
844.751	13146.66
845.075	13148.69
845.399	13103.05
845.723	13037.51
846.047	13032.09
846.371	12882.94
846.695	12986.21
847.019	12891.98
847.343	12790.06
847.666	12717.07
847.99	12610.85
848.313	12707.12
848.637	12630.06
848.96	12607.24
849.284	12555.26
849.607	12439.56
849.931	12421.48
850.254	12292.9
850.577	12254.25
850.9	12218.55
851.223	12232.79
851.546	12120.25
851.869	12112.56
852.192	12049.29
852.515	12010.87
852.838	11933.13
853.161	11943.3
853.483	11895.39
853.806	11869.41
854.129	11877.77
854.451	11756.87
854.774	11730.2
855.096	11680.71
855.419	11732.01
855.741	11643.42
856.063	11607.49
856.385	11593.03
856.708	11531.34
857.03	11506.7
857.352	11389.42
857.674	11473.26
857.996	11383.77
858.318	11240.5
858.64	11314.39
858.961	11270.1
859.283	11298.35
859.605	11193.94
859.926	11208.41
860.248	11108.3
860.57	11074.85
860.891	11177.22
861.212	11039.37
861.534	11064.45
861.855	10994.63
862.176	11087.73
862.498	11035.76
862.819	11090.44
863.14	10959.82
863.461	10951.92
863.782	10938.13
864.103	10931.35
864.424	10898.13
864.745	10871.92
865.065	10805.7
865.386	10805.48
865.707	10812.26
866.027	10803.22
866.348	10776.78
866.668	10715.09
866.989	10705.59
867.309	10679.83
867.63	10669.44
867.95	10601.42
868.27	10556.45
868.59	10584.69
868.91	10524.58
869.23	10527.29
869.55	10472.38
869.87	10568.87
870.19	10577.46
870.51	10517.58
870.83	10529.55
871.15	10448.2
871.469	10407.52
871.789	10481.87
872.109	10399.39
872.428	10394.87
872.748	10459.95
873.067	10334.98
873.386	10390.57
873.706	10365.94
874.025	10277.81
874.344	10296.11
874.663	10351.48
874.982	10345.38
875.301	10264.7
875.62	10285.72
875.939	10231.71
876.258	10250.01
876.577	10214.31
876.896	10143.58
877.214	10204.14
877.533	10228.09
877.852	10112.84
878.17	10108.32
878.489	10184.93
878.807	10108.1
879.125	10086.18
879.444	10077.14
879.762	9981.55
880.08	10009.57
880.398	10012.73
880.716	9971.38
881.034	9912.39
881.352	9933.41
881.67	9902.23
881.988	9919.63
882.306	9896.58
882.624	9871.72
882.941	9730.7
883.259	9779.97
883.577	9714.66
883.894	9749.01
884.212	9758.27
884.529	9719.41
884.846	9707.43
885.164	9630.59
885.481	9603.7
885.798	9611.39
886.115	9525.29
886.432	9557.6
886.75	9528.9
887.067	9492.52
887.383	9519.64
887.7	9447.77
888.017	9413.65
888.334	9473.08
888.651	9380.21
888.967	9363.93
889.284	9327.55
889.6	9339.75
889.917	9279.87
890.233	9297.04
890.55	9223.15
890.866	9239.42
891.182	9163.26
891.498	9184.28
891.815	9160.1
892.131	9161.68
892.447	9074.68
892.763	9103.38
893.079	9073.32
893.395	9055.69
893.71	9041.46
894.026	8946.54
894.342	8996.49
894.657	8801.46
894.973	8832.65
895.289	8861.35
895.604	8828.58
895.92	8772.31
896.235	8718.53
896.55	8704.74
896.865	8740.67
897.181	8674.91
897.496	8719.88
897.811	8557.85
898.126	8630.39
898.441	8512.43
898.756	8545.65
899.071	8542.94
899.386	8477.86
899.7	8465.2
900.015	8412.77
900.33	8363.28
900.644	8336.16
900.959	8302.95
901.273	8283.74
901.588	8230.41
901.902	8183.4
902.216	8184.76
902.531	8168.94
902.845	8114.93
903.159	8068.15
903.473	8051.43
903.787	7985.44
904.101	7934.14
904.415	7966.23
904.729	7950.86
905.042	7876.29
905.356	7892.79
905.67	7870.64
905.984	7821.6
906.297	7872.67
906.611	7691.21
906.924	7770.3
907.237	7745.67
907.551	7684.2
907.864	7676.3
908.177	7650.08
908.491	7538.9
908.804	7514.72
909.117	7456.64
909.43	7457.54
909.743	7428.84
910.056	7423.65
910.368	7354.5
910.681	7346.13
910.994	7310.88
911.307	7320.82
911.619	7199.25
911.932	7195.4
912.244	7184.33
912.557	7146.82
912.869	7117.67
913.181	7066.82
913.494	7105.91
913.806	7055.07
914.118	7005.58
914.43	6980.49
914.742	6976.65
915.054	6915.86
915.366	6941.17
915.678	6878.35
915.99	6862.76
916.302	6802.65
916.613	6813.04
916.925	6764.23
917.236	6802.19
917.548	6658.02
917.859	6702.08
918.171	6723.78
918.482	6621.86
918.794	6566.04
919.105	6573.5
919.416	6573.05
919.727	6550.45
920.038	6515.2
920.349	6491.92
920.66	6489.66
920.971	6471.13
921.282	6424.58
921.593	6380.74
921.903	6327.4
922.214	6313.62
922.525	6317.46
922.835	6282.66
923.146	6227.97
923.456	6219.38
923.767	6244.47
924.077	6197.01
924.387	6138.26
924.697	6130.35
925.008	6125.83
925.318	6052.84
925.628	6101.2
925.938	6044.02
926.248	5974.19
926.558	5987.07
926.867	5987.3
927.177	5921.54
927.487	5878.6
927.796	5883.12
928.106	5855.33
928.416	5813.75
928.725	5822.78
929.034	5749.79
929.344	5802.45
929.653	5708.89
929.962	5682.45
930.271	5678.61
930.581	5652.62
930.89	5629.57
931.199	5545.5
931.508	5531.04
931.817	5547.31
932.125	5575.11
932.434	5495.79
932.743	5449.46
933.051	5411.5
933.36	5413.98
933.669	5382.34
933.977	5376.02
934.286	5357.71
934.594	5347.99
934.902	5305.06
935.21	5306.87
935.519	5299.18
935.827	5308.67
936.135	5228.9
936.443	5158.85
936.751	5234.78
937.059	5149.36
937.367	5180.77
937.674	5154.78
937.982	5125.18
938.29	5089.24
938.597	5095.57
938.905	4993.2
939.213	5006.08
939.52	5006.31
939.827	5048.12
940.135	5020.55
940.442	4914.56
940.749	4940.32
941.056	4906.42
941.363	4889.93
941.67	4823.94
941.977	4839.99
942.284	4825.3
942.591	4785.98
942.898	4739.65
943.205	4755.92
943.511	4773.55
943.818	4737.62
944.125	4673.21
944.431	4703.27
944.738	4699.42
945.044	4669.14
945.35	4637.73
945.657	4607.45
945.963	4581.24
946.269	4581.91
946.575	4556.6
946.881	4504.4
947.187	4501.24
947.493	4493.33
947.799	4473.44
948.105	4418.3
948.41	4404.29
948.716	4466.89
949.022	4398.64
949.327	4355.25
949.633	4317.74
949.938	4363.16
950.244	4346.44
950.549	4277.29
950.854	4244.07
951.16	4247.46
951.465	4245.65
951.77	4225.54
952.075	4193
952.38	4188.25
952.685	4153.9
952.99	4110.06
953.294	4105.99
953.599	4098.08
953.904	4099.67
954.209	4044.75
954.513	4027.8
954.818	4048.14
955.122	4020.8
955.426	4015.15
955.731	4010.63
956.035	3988.93
956.339	3929.95
956.643	3951.42
956.948	3918.88
957.252	3905.77
957.556	3902.61
957.86	3867.13
958.163	3883.85
958.467	3851.31
958.771	3801.37
959.075	3866.68
959.378	3801.82
959.682	3795.95
959.985	3755.95
960.289	3764.31
960.592	3697.19
960.896	3720.92
961.199	3691.54
961.502	3738.32
961.805	3650.19
962.108	3673.24
962.411	3674.14
962.714	3626.01
963.017	3597.08
963.32	3620.81
963.623	3542.62
963.926	3574.03
964.228	3552.11
964.531	3535.16
964.833	3491.32
965.136	3451.55
965.438	3453.81
965.741	3463.52
966.043	3463.75
966.345	3387.14
966.648	3377.2
966.95	3375.39
967.252	3395.96
967.554	3340.82
967.856	3334.71
968.158	3331.55
968.46	3371.1
968.761	3338.1
969.063	3297.65
969.365	3275.28
969.666	3256.75
969.968	3245.68
970.269	3255.39
970.571	3249.75
970.872	3216.75
971.174	3220.14
971.475	3203.64
971.776	3139.69
972.077	3193.7
972.378	3140.6
972.679	3108.73
972.98	3101.27
973.281	3101.5
973.582	3121.16
973.883	3072.8
974.183	3057.89
974.484	3047.72
974.785	3031.22
975.085	3016.98
975.386	3003.2
975.686	3011.56
975.986	2983.99
976.287	2953.26
976.587	2960.49
976.887	2988.96
977.187	2925.01
977.487	2931.56
977.787	2882.3
978.087	2877.78
978.387	2860.83
978.687	2850.43
978.987	2847.27
979.286	2825.12
979.586	2792.13
979.885	2817.44
980.185	2765.01
980.484	2776.09
980.784	2804.33
981.083	2760.04
981.382	2746.71
981.682	2739.7
981.981	2732.47
982.28	2701.28
982.579	2699.7
982.878	2728.4
983.177	2671.68
983.475	2660.83
983.774	2669.2
984.073	2626.03
984.372	2633.26
984.67	2652.47
984.969	2597.33
985.267	2590.1
985.566	2565.7
985.864	2563.66
986.162	2597.11
986.461	2536.09
986.759	2531.12
987.057	2514.17
987.355	2502.19
987.653	2485.02
987.951	2528.41
988.249	2502.19
988.547	2501.74
988.844	2455.87
989.142	2455.87
989.44	2420.84
989.737	2423.78
990.035	2407.28
990.332	2401.86
990.63	2378.36
990.927	2350.33
991.224	2385.14
991.521	2375.42
991.819	2321.63
992.116	2344.46
992.413	2327.96
992.71	2307.17
993.006	2315.76
993.303	2277.57
993.6	2282.31
993.897	2286.61
994.193	2242.31
994.49	2244.35
994.787	2224.69
995.083	2217.91
995.379	2211.35
995.676	2160.73
995.972	2185.37
996.268	2212.03
996.565	2183.78
996.861	2140.17
997.157	2135.42
997.453	2133.39
997.749	2104.92
998.044	2094.3
998.34	2138.14
998.636	2091.36
998.932	2063.34
999.227	2068.76
999.523	2105.14
999.818	2041.42
1000.114	2080.51
1000.409	2050.91
1000.704	2022.21
1001	2000.51
1001.295	1965.71
1001.59	1997.35
1001.885	1993.73
1002.18	1946.95
1002.475	1974.3
1002.77	1932.49
1003.065	1946.28
1003.359	1924.13
1003.654	1918.48
1003.949	1878.26
1004.243	1914.19
1004.538	1859.05
1004.832	1871.93
1005.127	1867.63
1005.421	1850.69
1005.715	1833.06
1006.009	1832.61
1006.304	1838.93
1006.598	1817.47
1006.892	1806.62
1007.186	1793.29
1007.48	1765.94
1007.773	1791.48
1008.067	1764.59
1008.361	1745.15
1008.655	1788.31
1008.948	1736.56
1009.242	1703.8
1009.535	1720.97
1009.829	1702.67
1010.122	1698.6
1010.415	1661.31
1010.708	1687.75
1011.001	1666.74
1011.295	1668.77
1011.588	1657.47
1011.881	1633.29
1012.173	1623.12
1012.466	1607.98
1012.759	1584.25
1013.052	1611.6
1013.344	1589.9
1013.637	1590.58
1013.93	1588.77
1014.222	1579.51
1014.514	1551.03
1014.807	1537.7
1015.099	1539.51
1015.391	1540.41
1015.683	1511.71
1015.976	1480.75
1016.268	1506.06
1016.56	1484.59
1016.851	1483.92
1017.143	1474.88
1017.435	1471.49
1017.727	1450.7
1018.018	1448.66
1018.31	1475.78
1018.602	1420.64
1018.893	1447.08
1019.185	1407.76
1019.476	1413.18
1019.767	1398.04
1020.058	1385.39
1020.35	1362.11
1020.641	1356.46
1020.932	1333.64
1021.223	1349.68
1021.514	1356.24
1021.804	1327.31
1022.095	1351.26
1022.386	1324.82
1022.677	1326.18
1022.967	1287.31
1023.258	1322.56
1023.548	1285.5
1023.839	1289.57
1024.129	1276.24
1024.419	1272.85
1024.709	1246.41
1025	1252.28
1025.29	1236.92
1025.58	1198.5
1025.87	1213.87
1026.16	1208.89
1026.449	1191.27
1026.739	1188.33
1027.029	1182.91
1027.319	1204.83
1027.608	1156.47
1027.898	1171.38
1028.187	1159.4
1028.477	1141.1
1028.766	1139.74
1029.055	1123.02
1029.344	1140.65
1029.634	1121.44
1029.923	1122.34
1030.212	1117.37
1030.501	1104.04
1030.79	1078.95
1031.078	1081.89
1031.367	1098.39
1031.656	1091.84
1031.945	1071.72
1032.233	1050.48
1032.522	1032.85
1032.81	1036.47
1033.099	1029.46
1033.387	1045.74
1033.675	1029.24
1033.963	1026.75
1034.251	1007.77
1034.54	996.92
1034.828	1010.26
1035.116	984.04
1035.403	996.92
1035.691	973.19
1035.979	968.45
1036.267	958.05
1036.554	975.23
1036.842	943.59
1037.129	958.73
1037.417	949.47
1037.704	944.95
1037.992	950.82
1038.279	936.36
1038.566	931.61
1038.853	931.61
1039.14	931.61
