Data from hue_200_FLMS001491_00051.txt Node
Date: Tue Feb 07 16:43:37 GMT 2017
User: dcchb
Spectrometer: FLMS00149
Trigger mode: 0
Integration Time (sec): 2.000000E-2
Scans to average: 10
Electric dark correction enabled: true
Nonlinearity correction enabled: false
Boxcar width: 0
XAxis mode: Wavelengths
Number of Pixels in Spectrum: 2048
>>>>>Begin Spectral Data<<<<<
341.393	-11.21
341.776	-11.21
342.16	-11.21
342.543	-74.94
342.927	-50.54
343.31	-80.59
343.693	-91.44
344.077	-76.3
344.46	-67.26
344.843	-56.86
345.226	-38.56
345.61	-21.38
345.993	-33.36
346.376	-22.51
346.759	27.2
347.142	40.76
347.525	35.79
347.908	61.1
348.291	84.83
348.674	113.08
349.057	125.51
349.44	149.46
349.823	131.15
350.206	164.37
350.588	175.45
350.971	222
351.354	259.29
351.737	241.43
352.119	258.38
352.502	247.76
352.884	295.44
353.267	276.91
353.65	285.5
354.032	304.03
354.414	322.79
354.797	313.07
355.179	334.77
355.562	321.43
355.944	319.62
356.326	331.83
356.709	338.83
357.091	311.94
357.473	346.06
357.855	343.13
358.238	354.88
358.62	338.61
359.002	338.38
359.384	344.93
359.766	345.84
360.148	365.27
360.53	358.27
360.912	326.18
361.294	329.79
361.676	336.35
362.057	333.41
362.439	329.12
362.821	327.53
363.203	320.08
363.584	324.6
363.966	341.77
364.348	334.31
364.729	342.9
365.111	318.49
365.493	331.83
365.874	318.49
366.256	323.01
366.637	325.05
367.019	316.23
367.4	329.79
367.781	318.72
368.163	317.82
368.544	307.65
368.925	313.97
369.306	318.49
369.688	325.73
370.069	327.08
370.45	323.69
370.831	307.2
371.212	334.31
371.593	310.36
371.974	303.81
372.355	306.29
372.736	324.82
373.117	327.53
373.498	315.78
373.879	313.07
374.26	311.49
374.641	314.2
375.021	330.47
375.402	304.71
375.783	327.76
376.163	330.47
376.544	337.03
376.925	325.5
377.305	334.77
377.686	344.71
378.066	325.5
378.447	351.26
378.827	343.35
379.208	346.29
379.588	330.47
379.968	323.01
380.349	330.7
380.729	326.4
381.109	340.41
381.489	319.4
381.87	343.58
382.25	342.22
382.63	336.12
383.01	350.13
383.39	339.74
383.77	333.64
384.15	337.7
384.53	353.52
384.91	352.84
385.29	342.67
385.67	347.42
386.049	344.48
386.429	353.52
386.809	342.9
387.189	352.17
387.568	385.16
387.948	359.4
388.328	370.24
388.707	356.01
389.087	362.56
389.466	370.92
389.846	348.1
390.225	368.89
390.605	360.75
390.984	351.71
391.363	359.62
391.743	375.89
392.122	374.09
392.501	361.88
392.881	364.14
393.26	395.33
393.639	385.61
394.018	380.41
394.397	380.41
394.776	414.99
395.155	372.96
395.534	378.83
395.913	397.81
396.292	401.66
396.671	400.98
397.05	392.62
397.429	382.9
397.808	432.39
398.186	388.1
398.565	409.11
398.944	393.52
399.323	403.24
399.701	417.02
400.08	399.4
400.458	410.24
400.837	423.58
401.215	420.41
401.594	433.07
401.972	421.09
402.351	429
402.729	433.52
403.107	418.15
403.486	465.84
403.864	440.53
404.242	457.93
404.62	446.85
404.999	440.3
405.377	459.06
405.755	443.24
406.133	465.38
406.511	470.58
406.889	487.3
407.267	474.65
407.645	497.92
408.023	498.38
408.401	504.03
408.779	509.22
409.156	499.28
409.534	515.55
409.912	509.22
410.29	543.57
410.667	517.59
411.045	551.93
411.422	542.67
411.8	563.01
412.178	560.3
412.555	560.07
412.933	595.32
413.31	614.08
413.687	597.81
414.065	612.5
414.442	617.7
414.819	609.56
415.197	636.23
415.574	660.63
415.951	649.33
416.328	672.84
416.705	702.44
417.082	689.78
417.46	694.3
417.837	696.79
418.214	701.08
418.591	694.76
418.967	718.03
419.344	736.56
419.721	770.23
420.098	748.31
420.475	767.75
420.852	788.54
421.228	793.96
421.605	810.91
421.982	813.4
422.358	833.51
422.735	869.67
423.111	842.1
423.488	853.62
423.864	907.63
424.241	917.12
424.617	923
424.994	932.26
425.37	943.56
425.746	987.4
426.123	970.23
426.499	980.85
426.875	1004.35
427.251	1024.24
427.627	1052.49
428.003	1050
428.379	1080.28
428.756	1080.28
429.132	1094.52
429.507	1087.06
429.883	1121.64
430.259	1122.77
430.635	1149.66
431.011	1147.63
431.387	1154.63
431.763	1192.6
432.138	1179.26
432.514	1247.06
432.89	1210.22
433.265	1275.76
433.641	1302.42
434.016	1304.23
434.392	1342.42
434.767	1346.72
435.143	1362.99
435.518	1413.61
435.894	1450.67
436.269	1431.91
436.644	1483.89
437.02	1471.46
437.395	1529.31
437.77	1562.08
438.145	1581.74
438.52	1608.86
438.895	1637.33
439.271	1685.24
439.646	1668.06
440.021	1685.01
440.395	1723.43
440.77	1733.15
441.145	1797.55
441.52	1811.79
441.895	1852.01
442.27	1887.04
442.645	1856.08
443.019	1880.71
443.394	1900.15
443.769	1903.99
444.143	1960.71
444.518	1966.36
444.892	1961.84
445.267	2011.78
445.641	2002.07
446.016	2022.18
446.39	2045.68
446.764	2075.51
447.139	2073.48
447.513	2103.53
447.887	2107.6
448.262	2143.08
448.636	2163.87
449.01	2205.22
449.384	2183.08
449.758	2206.35
450.132	2227.37
450.506	2244.55
450.88	2237.31
451.254	2286.8
451.628	2311.44
452.002	2342.62
452.376	2341.72
452.75	2390.76
453.123	2392.34
453.497	2436.63
453.871	2451.09
454.244	2503.3
454.618	2530.19
454.992	2539
455.365	2546.23
455.739	2644.08
456.112	2630.07
456.486	2678.43
456.859	2666
457.232	2755.27
457.606	2727.92
457.979	2788.26
458.352	2831.2
458.725	2902.61
459.099	2873
459.472	2923.62
459.845	2946
460.218	3005.2
460.591	2989.16
460.964	3012.66
461.337	3077.52
461.71	3129.49
462.083	3176.27
462.456	3156.39
462.829	3232.54
463.201	3202.03
463.574	3285.87
463.947	3347.79
464.32	3394.12
464.692	3397.28
465.065	3378.75
465.438	3448.13
465.81	3539.2
466.183	3525.64
466.555	3672.76
466.928	3636.83
467.3	3668.01
467.672	3689.25
468.045	3795.24
468.417	3803.15
468.789	3820.1
469.161	3901.68
469.534	3990.04
469.906	4022.8
470.278	4062.8
470.65	4094.67
471.022	4156.81
471.394	4263.02
471.766	4285.4
472.138	4310.48
472.51	4403.58
472.882	4460.31
473.253	4493.75
473.625	4557.93
473.997	4636.35
474.369	4652.62
474.74	4738.04
475.112	4810.35
475.484	4876.79
475.855	4954.3
476.227	4969.67
476.598	5045.83
476.97	5158.59
477.341	5226.84
477.713	5304.13
478.084	5324.01
478.455	5474.97
478.827	5490.34
479.198	5669.31
479.569	5657.34
479.94	5762.65
480.311	5862.53
480.682	5971.45
481.053	6077.21
481.424	6142.52
481.795	6193.14
482.166	6340.93
482.537	6393.81
482.908	6514.04
483.279	6498.44
483.65	6653.47
484.021	6787.02
484.391	6845.33
484.762	6846.91
485.133	6948.15
485.503	7056.62
485.874	7186.11
486.244	7218.43
486.615	7300.68
486.985	7422.26
487.356	7543.84
487.726	7555.37
488.097	7671.07
488.467	7699.54
488.837	7857.51
489.207	7942.93
489.578	8065.64
489.948	8153.77
490.318	8225.18
490.688	8233.99
491.058	8252.52
491.428	8454.33
491.798	8464.27
492.168	8667.88
492.538	8639.18
492.908	8784.03
493.278	8816.8
493.648	8830.36
494.017	8942
494.387	8977.02
494.757	9076
495.126	9124.14
495.496	9171.82
495.866	9133.18
496.235	9266.51
496.605	9341.53
496.974	9332.04
497.344	9419.27
497.713	9512.6
498.082	9512.38
498.452	9582.88
498.821	9549.44
499.19	9586.05
499.559	9692.49
499.928	9690.45
500.298	9721.41
500.667	9855.19
501.036	9881.18
501.405	9905.59
501.774	9876.44
502.143	9981.07
502.512	9936.77
502.88	9986.04
503.249	9948.3
503.618	10039.14
503.987	10130.67
504.356	10105.13
504.724	10206.14
505.093	10197.33
505.462	10254.28
505.83	10237.78
506.199	10266.48
506.567	10407.04
506.936	10292.47
507.304	10400.26
507.672	10379.25
508.041	10487.04
508.409	10429.42
508.777	10550.77
509.145	10594.61
509.514	10552.8
509.882	10574.27
510.25	10609.07
510.618	10613.14
510.986	10568.62
511.354	10681.16
511.722	10731.33
512.09	10720.71
512.458	10709.86
512.826	10780.59
513.193	10790.99
513.561	10797.09
513.929	10791.67
514.297	10836.41
514.664	10878.44
515.032	10881.15
515.4	10913.7
515.767	10906.24
516.135	10979.46
516.502	10857.43
516.869	11041.38
517.237	10954.37
517.604	10884.32
517.972	11014.48
518.339	11061.04
518.706	10943.75
519.073	10993.02
519.44	11033.24
519.808	11090.64
520.175	10996.63
520.542	11109.17
520.909	11055.61
521.276	11063.52
521.643	11097.65
522.009	11157.98
522.376	11148.94
522.743	11099.45
523.11	11217.87
523.477	11257.64
523.843	11255.16
524.21	11231.65
524.577	11273.69
524.943	11229.17
525.31	11294.48
525.676	11325.21
526.043	11247.92
526.409	11356.17
526.776	11340.13
527.142	11272.33
527.508	11307.58
527.874	11322.27
528.241	11316.4
528.607	11338.09
528.973	11334.25
529.339	11289.28
529.705	11381.71
530.071	11330.63
530.437	11324.08
530.803	11329.96
531.169	11385.32
531.535	11284.99
531.901	11262.84
532.267	11171.54
532.632	11147.14
532.998	11144.88
533.364	11171.77
533.73	11153.24
534.095	11189.62
534.461	11138.1
534.826	11120.24
535.192	11089.51
535.557	11101.04
535.923	11041.83
536.288	11012
536.653	10950.53
537.019	10895.39
537.384	10911.89
537.749	10905.33
538.114	10821.5
538.479	10813.81
538.845	10776.52
539.21	10673.25
539.575	10696.07
539.94	10657.21
540.305	10667.83
540.67	10547.15
541.034	10565.68
541.399	10586.25
541.764	10499.92
542.129	10407.95
542.494	10405.46
542.858	10321.62
543.223	10335.86
543.587	10319.81
543.952	10302.86
544.316	10244.56
544.681	10194.62
545.045	10209.08
545.41	10152.81
545.774	10122.3
546.138	10071.01
546.503	9970.44
546.867	9950.56
547.231	9946.94
547.595	9930.9
547.959	9923.89
548.324	9857.9
548.688	9797.12
549.052	9709.89
549.416	9703.56
549.779	9662.88
550.143	9631.47
550.507	9652.71
550.871	9621.75
551.235	9616.78
551.599	9548.53
551.962	9519.16
552.326	9507.63
552.689	9419.95
553.053	9341.53
553.417	9409.1
553.78	9346.73
554.143	9360.52
554.507	9311.7
554.87	9315.09
555.234	9305.83
555.597	9222.67
555.96	9144.7
556.323	9214.76
556.686	9153.74
557.05	9171.14
557.413	9097.92
557.776	9089.56
558.139	9136.79
558.502	9073.97
558.865	9077.36
559.228	9076.23
559.59	9076.23
559.953	9006.85
560.316	9064.93
560.679	9019.28
561.041	8991.94
561.404	9035.33
561.767	9024.48
562.129	8973.41
562.492	9011.15
562.854	8938.15
563.217	8944.48
563.579	9002.79
563.941	8955.33
564.304	8997.14
564.666	8968.66
565.028	8986.74
565.39	8936.57
565.753	8941.77
566.115	8974.31
566.477	9018.6
566.839	8989.68
567.201	8972.96
567.563	8959.85
567.925	9024.93
568.287	8996.01
568.648	9005.5
569.01	8982
569.372	9059.51
569.734	8935.22
570.095	8980.64
570.457	8974.99
570.819	9019.96
571.18	8930.47
571.542	9030.58
571.903	8985.61
572.265	9076.23
572.626	9064.93
572.987	9008.89
573.349	9069.22
573.71	9084.37
574.071	9059.96
574.432	9059.96
574.794	9189.9
575.155	9081.88
575.516	8990.13
575.877	9018.15
576.238	9078.26
576.599	9083.24
576.96	9087.3
577.32	9078.94
577.681	9101.09
578.042	9141.54
578.403	9095.44
578.763	9102.44
579.124	9107.19
579.485	9134.31
579.845	9108.09
580.206	9061.77
580.566	9069.68
580.927	9173.4
581.287	9139.51
581.648	9096.79
582.008	9148.32
582.368	9108.77
582.728	9097.47
583.089	9128.66
583.449	9078.94
583.809	9078.72
584.169	9134.31
584.529	9039.85
584.889	9099.51
585.249	8985.39
585.609	8998.94
585.969	9049.79
586.329	8930.7
586.688	8999.62
587.048	9015.89
587.408	9041.2
587.768	8975.44
588.127	8993.52
588.487	9012.73
588.846	9059.06
589.206	9002.79
589.565	9040.75
589.925	8969.11
590.284	9067.87
590.643	8981.32
591.003	8979.96
591.362	9056.12
591.721	8975.89
592.08	9008.44
592.44	8998.49
592.799	9003.69
593.158	8982.22
593.517	8947.42
593.876	8963.46
594.235	9002.33
594.593	8932.96
594.952	8939.06
595.311	8900.87
595.67	8952.84
596.029	8963.69
596.387	8956.69
596.746	8975.22
597.104	8926.63
597.463	8930.47
597.822	8929.12
598.18	8938.61
598.538	8902.22
598.897	8890.25
599.255	8818.38
599.613	8972.5
599.972	8903.35
600.33	8944.26
600.688	8889.57
601.046	8915.56
601.404	8935.89
601.762	8939.96
602.12	8895.9
602.478	8884.82
602.836	8967.08
603.194	8868.78
603.552	8884.82
603.91	8856.12
604.268	8906.29
604.625	8863.35
604.983	8901.55
605.341	8839.63
605.698	8925.95
606.056	8869.23
606.413	8884.14
606.771	8870.36
607.128	8886.63
607.485	8885.95
607.843	8864.94
608.2	8872.39
608.557	8933.86
608.914	8891.6
609.272	8969.11
609.629	8876.91
609.986	8985.84
610.343	8906.52
610.7	8974.31
611.057	8913.3
611.414	8994.2
611.771	8921.66
612.127	8986.97
612.484	8989.45
612.841	9011.6
613.198	8965.5
613.554	8978.15
613.911	9036.01
614.267	9048.66
614.624	8936.8
614.98	9002.11
615.337	9075.55
615.693	9081.43
616.05	9078.94
616.406	9063.8
616.762	9027.64
617.118	9042.11
617.475	9053.86
617.831	9106.06
618.187	9056.34
618.543	9059.06
618.899	9131.82
619.255	9075.1
619.611	9097.02
619.967	9088.21
620.323	9108.77
620.678	9017.7
621.034	9060.86
621.39	9087.76
621.746	9050.24
622.101	9129.34
622.457	9069.45
622.812	9079.62
623.168	9060.41
623.523	9118.94
623.879	9148.32
624.234	9019.06
624.589	9082.33
624.945	9105.61
625.3	9083.24
625.655	9111.03
626.01	9090.69
626.365	9092.5
626.72	9091.37
627.075	9067.19
627.43	8997.36
627.785	9033.75
628.14	9039.17
628.495	9029.23
628.85	9057.25
629.205	9000.3
629.559	9073.74
629.914	8966.4
630.269	9047.3
630.623	9037.14
630.978	8970.92
631.332	8974.54
631.687	8991.94
632.041	8917.59
632.396	8986.97
632.75	8927.53
633.104	8978.83
633.459	8916.23
633.813	8870.36
634.167	8858.83
634.521	8920.75
634.875	8894.31
635.229	8895.9
635.583	8851.6
635.937	8850.93
636.291	8872.39
636.645	8848.21
636.999	8759.63
637.352	8807.76
637.706	8773.64
638.06	8831.94
638.413	8807.99
638.767	8768.22
639.121	8850.93
639.474	8743.36
639.828	8683.25
640.181	8747.2
640.534	8741.78
640.888	8710.59
641.241	8688.44
641.594	8715.56
641.947	8758.95
642.301	8725.28
642.654	8704.94
643.007	8746.52
643.36	8684.6
643.713	8581.55
644.066	8694.09
644.419	8716.01
644.771	8657.94
645.124	8524.61
645.477	8491.61
645.83	8469.47
646.182	8405.51
646.535	8327.55
646.888	8431.05
647.24	8328
647.593	8374.1
647.945	8360.32
648.298	8390.15
648.65	8342.24
649.002	8316.7
649.355	8367.32
649.707	8377.72
650.059	8394.21
650.411	8509.47
650.763	8490.93
651.115	8583.36
651.467	8530.03
651.819	8573.87
652.171	8539.75
652.523	8525.51
652.875	8556.24
653.227	8518.5
653.578	8560.76
653.93	8513.99
654.282	8511.95
654.633	8455
654.985	8564.15
655.337	8504.72
655.688	8498.62
656.039	8529.35
656.391	8541.1
656.742	8525.74
657.094	8589.46
657.445	8537.94
657.796	8538.39
658.147	8567.32
658.498	8526.19
658.849	8543.81
659.2	8524.38
659.551	8598.5
659.902	8463.82
660.253	8544.04
660.604	8595.56
660.955	8487.09
661.306	8535.45
661.656	8518.05
662.007	8559.18
662.358	8556.24
662.708	8580.65
663.059	8527.77
663.409	8509.92
663.76	8582.46
664.11	8603.47
664.461	8563.93
664.811	8619.52
665.161	8589.69
665.511	8531.39
665.862	8556.7
666.212	8582.01
666.562	8568.45
666.912	8530.03
667.262	8596.02
667.612	8541.33
667.962	8548.79
668.312	8546.98
668.662	8610.25
669.011	8576.13
669.361	8582.68
669.711	8570.03
670.06	8509.69
670.41	8511.73
670.76	8510.37
671.109	8525.28
671.459	8528.67
671.808	8519.86
672.157	8519.41
672.507	8506.08
672.856	8472.86
673.205	8550.37
673.554	8452.29
673.904	8451.39
674.253	8517.37
674.602	8522.35
674.951	8381.79
675.3	8346.53
675.649	8433.54
675.998	8452.52
676.346	8436.25
676.695	8428.56
677.044	8392.63
677.393	8377.27
677.741	8452.74
678.09	8395.8
678.438	8357.38
678.787	8372.07
679.135	8304.73
679.484	8358.74
679.832	8348.79
680.181	8245.74
680.529	8283.71
680.877	8259.53
681.225	8252.98
681.573	8325.52
681.922	8196.93
682.27	8211.85
682.618	8256.14
682.966	8197.38
683.314	8162.36
683.661	8179.08
684.009	8155.12
684.357	8159.87
684.705	8127.1
685.053	8115.8
685.4	8087.33
685.748	8047.78
686.095	8058.63
686.443	8009.14
686.79	8042.59
687.138	7996.71
687.485	7986.99
687.832	7946.77
688.18	7953.32
688.527	7906.54
688.874	7911.74
689.221	7903.83
689.568	7845.08
689.915	7872.42
690.262	7807.56
690.609	7784.74
690.956	7760.56
691.303	7708.13
691.65	7701.35
691.997	7670.62
692.344	7707.45
692.69	7637.85
693.037	7625.42
693.383	7540
693.73	7596.04
694.077	7533.9
694.423	7487.12
694.769	7457.06
695.116	7510.4
695.462	7474.24
695.808	7378.87
696.155	7393.79
696.501	7340.23
696.847	7284.19
697.193	7300.23
697.539	7288.93
697.885	7221.59
698.231	7227.69
698.577	7279.22
698.923	7172.33
699.269	7157.64
699.614	7117.19
699.96	7047.81
700.306	7067.24
700.651	7066.57
700.997	7019.34
701.342	7018.88
701.688	7031.99
702.033	7001.03
702.379	6941.6
702.724	6894.82
703.069	6905.89
703.415	6793.58
703.76	6819.79
704.105	6836.74
704.45	6793.8
704.795	6801.71
705.14	6778.44
705.485	6724.2
705.83	6698.44
706.175	6691.21
706.52	6703.19
706.865	6667.03
707.209	6608.95
707.554	6658.67
707.899	6607.37
708.243	6567.14
708.588	6576.63
708.932	6557.65
709.277	6503.19
709.621	6491.44
709.966	6463.19
710.31	6520.37
710.654	6459.8
710.998	6414.61
711.342	6458.22
711.687	6399.46
712.031	6363.08
712.375	6369.18
712.719	6386.36
713.063	6385
713.407	6390.2
713.75	6350.2
714.094	6335.06
714.438	6308.85
714.782	6342.97
715.125	6256.87
715.469	6309.07
715.812	6277.21
716.156	6190.88
716.499	6202.86
716.843	6226.59
717.186	6213.93
717.53	6208.28
717.873	6232.24
718.216	6188.4
718.559	6198.11
718.902	6150.21
719.246	6142.97
719.589	6144.56
719.932	6139.13
720.275	6097.55
720.617	6147.95
720.96	6100.04
721.303	6073.15
721.646	6129.42
721.989	6088.06
722.331	6099.36
722.674	6117.89
723.016	6040.38
723.359	6062.07
723.701	6075.86
724.044	6050.55
724.386	5969.19
724.729	6010.77
725.071	6044.22
725.413	6034.05
725.755	6025.46
726.097	6017.33
726.439	5950.44
726.782	5995.63
727.124	6031.79
727.465	6008.29
727.807	5987.5
728.149	5971.23
728.491	5943.66
728.833	6008.97
729.175	5999.02
729.516	5926.03
729.858	5964.67
730.199	5952.24
730.541	5979.36
730.882	6002.41
731.224	6014.39
731.565	5935.07
731.906	5954.96
732.248	5966.03
732.589	5977.78
732.93	5942.3
733.271	5962.19
733.612	6003.77
733.953	5972.36
734.294	5964.22
734.635	5978.23
734.976	5975.07
735.317	5983.66
735.658	5984.56
735.999	6023.43
736.339	5934.17
736.68	5975.75
737.021	5967.39
737.361	5956.99
737.702	5981.17
738.042	6014.39
738.383	5982.98
738.723	5998.8
739.063	5996.76
739.404	6028.85
739.744	6032.02
740.084	6052.58
740.424	6070.89
740.764	6095.52
741.104	6093.26
741.444	6050.32
741.784	6101.85
742.124	6075.63
742.464	6181.62
742.804	6167.61
743.143	6136.42
743.483	6160.37
743.823	6134.84
744.162	6206.25
744.502	6235.85
744.841	6192.69
745.181	6301.84
745.52	6293.7
745.86	6373.93
746.199	6330.31
746.538	6372.35
746.877	6427.26
747.216	6500.03
747.556	6493.25
747.895	6540.48
748.234	6590.42
748.573	6634.49
748.911	6707.48
749.25	6709.06
749.589	6830.64
749.928	6859.34
750.267	6973.69
750.605	6979.56
750.944	6969.84
751.283	7069.96
751.621	7181.59
751.96	7225.21
752.298	7324.19
752.636	7445.09
752.975	7492.32
753.313	7624.74
753.651	7669.49
753.989	7759.43
754.327	7870.61
754.666	7988.35
755.004	8063.38
755.342	8198.06
755.679	8378.62
756.017	8452.07
756.355	8617.03
756.693	8725.51
757.031	8938.61
757.368	8957.59
757.706	9116
758.044	9225.38
758.381	9426.05
758.719	9512.15
759.056	9662.66
759.394	9869.2
759.731	10012.7
760.068	10182.87
760.405	10294.96
760.743	10469.41
761.08	10688.84
761.417	10736.53
761.754	11019.46
762.091	11118.66
762.428	11233.46
762.765	11419.67
763.102	11611.76
763.438	11806.78
763.775	11873.22
764.112	12159.99
764.449	12394.11
764.785	12433.88
765.122	12598.17
765.458	12704.61
765.795	12963.59
766.131	13143.92
766.467	13307.98
766.804	13344.59
767.14	13533.97
767.476	13705.49
767.812	13833.85
768.148	13999.94
768.485	14049.21
768.821	14267.73
769.157	14345.02
769.492	14501.85
769.828	14697.78
770.164	14703.2
770.5	14844.89
770.836	15022.74
771.171	15060.25
771.507	15258.89
771.842	15239.68
772.178	15433.13
772.513	15551.09
772.849	15582.5
773.184	15725.32
773.519	15821.82
773.855	15860.46
774.19	15999.21
774.525	16021.36
774.86	16140.9
775.195	16167.12
775.53	16158.3
775.865	16234.91
776.2	16150.17
776.535	16380.45
776.87	16436.49
777.205	16323.05
777.539	16447.34
777.874	16611.63
778.209	16545.19
778.543	16569.59
778.878	16568.24
779.212	16643.71
779.547	16656.82
779.881	16790.38
780.215	16731.62
780.55	16906.98
780.884	16692.98
781.218	16854.33
781.552	16883.26
781.886	16832.86
782.22	16882.58
782.554	16833.31
782.888	16805.07
783.222	16805.97
783.556	16779.98
783.889	16879.41
784.223	16742.24
784.557	16776.82
784.89	16817.27
785.224	16909.24
785.557	16792.19
785.891	16770.49
786.224	16758.97
786.558	16751.28
786.891	16683.49
787.224	16687.78
787.557	16749.7
787.891	16731.17
788.224	16773.2
788.557	16706.76
788.89	16737.5
789.223	16750.6
789.556	16691.4
789.888	16669.7
790.221	16608.24
790.554	16544.96
790.887	16585.41
791.219	16525.98
791.552	16517.62
791.884	16487.79
792.217	16545.41
792.549	16417.96
792.882	16310.62
793.214	16389.03
793.546	16390.39
793.879	16307.23
794.211	16224.97
794.543	16339.77
794.875	16283.72
795.207	16312.65
795.539	16230.17
795.871	16169.6
796.203	16140.68
796.535	16109.49
796.867	16086.44
797.198	16024.52
797.53	16078.76
797.862	15931.87
798.193	15935.26
798.525	15835.6
798.856	15923.06
799.188	15862.27
799.519	15660.24
799.85	15688.49
800.182	15767.81
800.513	15824.3
800.844	15536.4
801.175	15658.66
801.506	15670.18
801.837	15555.83
802.168	15649.84
802.499	15500.24
802.83	15490.98
803.161	15421.83
803.491	15466.57
803.822	15441.03
804.153	15370.98
804.483	15258.89
804.814	15306.8
805.145	15216.41
805.475	15247.82
805.805	15181.61
806.136	15164.66
806.466	15119.01
806.796	15077.65
807.126	15014.83
807.457	14954.27
807.787	15071.33
808.117	14883.99
808.447	14879.47
808.777	14928.51
809.107	14858.45
809.436	14865.46
809.766	14810.99
810.096	14814.84
810.426	14700.94
810.755	14840.15
811.085	14792.24
811.414	14724.44
811.744	14577.1
812.073	14582.3
812.403	14589.98
812.732	14498.46
813.061	14548.85
813.39	14491.23
813.719	14485.13
814.049	14530.78
814.378	14386.37
814.707	14389.08
815.036	14377.56
815.365	14300.05
815.693	14295.98
816.022	14265.47
816.351	14216.43
816.68	14147.06
817.008	14170.56
817.337	14085.82
817.665	14044.01
817.994	14028.42
818.322	14023.67
818.651	14041.3
818.979	13959.04
819.307	13991.81
819.636	13974.63
819.964	13852.83
820.292	14017.8
820.62	13975.08
820.948	13812.83
821.276	13959.49
821.604	13886.27
821.932	13826.84
822.259	13912.94
822.587	13960.85
822.915	13845.6
823.243	13945.03
823.57	13942.32
823.898	13880.17
824.225	13856.9
824.553	13815.77
824.88	13829.78
825.207	13903.67
825.535	13907.74
825.862	13921.98
826.189	13919.49
826.516	13943.45
826.843	13942.99
827.17	14000.17
827.497	13834.52
827.824	13909.32
828.151	13998.13
828.478	13931.92
828.805	13962.43
829.131	13923.33
829.458	13837.01
829.785	13854.64
830.111	13786.16
830.438	14006.5
830.764	13932.83
831.09	13942.09
831.417	13860.96
831.743	13928.31
832.069	13916.33
832.395	13847.18
832.722	13883.79
833.048	13766.95
833.374	13862.32
833.7	13818.03
834.026	13800.63
834.351	13757.24
834.677	13790
835.003	13827.29
835.329	13768.54
835.654	13697.13
835.98	13767.18
836.306	13797.01
836.631	13708.65
836.956	13768.54
837.282	13679.95
837.607	13693.74
837.932	13604.25
838.258	13680.63
838.583	13567.19
838.908	13605.6
839.233	13573.97
839.558	13540.75
839.883	13478.37
840.208	13479.73
840.533	13539.39
840.858	13529.9
841.182	13453.97
841.507	13462.56
841.832	13407.64
842.156	13304.14
842.481	13419.39
842.805	13326.06
843.13	13290.13
843.454	13298.27
843.778	13234.31
844.103	13156.35
844.427	13159.06
844.751	13228.66
845.075	13124.49
845.399	13129.91
845.723	13027.54
846.047	13013.98
846.371	12954.77
846.695	12914.77
847.019	12837.94
847.343	12761.56
847.666	12830.93
847.99	12657.38
848.313	12662.35
848.637	12606.76
848.96	12472.3
849.284	12459.19
849.607	12438.85
849.931	12327.67
850.254	12307.11
850.577	12279.08
850.9	12176.94
851.223	12179.65
851.546	12133.55
851.869	11965.65
852.192	12111.18
852.515	11982.82
852.838	11987.57
853.161	11992.76
853.483	11870.28
853.806	11808.81
854.129	11782.6
854.451	11755.93
854.774	11671.42
855.096	11678.2
855.419	11660.12
855.741	11614.24
856.063	11521.82
856.385	11562.04
856.708	11477.52
857.03	11376.96
857.352	11449.95
857.674	11448.15
857.996	11374.93
858.318	11336.74
858.64	11348.94
858.961	11240.69
859.283	11238.43
859.605	11200.47
859.926	11190.07
860.248	11159.57
860.57	11155.95
860.891	11111.88
861.212	11066.01
861.534	11084.99
861.855	11008.16
862.176	11056.97
862.498	10952.57
862.819	11002.06
863.14	10960.7
863.461	10941.27
863.782	10914.83
864.103	10903.07
864.424	10916.41
864.745	10885.67
865.065	10800.03
865.386	10790.54
865.707	10729.97
866.027	10716.64
866.348	10680.26
866.668	10632.8
866.989	10727.49
867.309	10722.74
867.63	10700.14
867.95	10622.63
868.27	10632.12
868.59	10589.64
868.91	10628.73
869.23	10627.15
869.55	10511.45
869.87	10595.74
870.19	10539.92
870.51	10561.16
870.83	10542.18
871.15	10439.36
871.469	10444.56
871.789	10523.42
872.109	10388.96
872.428	10405.91
872.748	10368.85
873.067	10391.45
873.386	10384.44
873.706	10377.66
874.025	10281.85
874.344	10229.87
874.663	10349.19
874.982	10256.99
875.301	10338.12
875.62	10260.38
875.939	10201.17
876.258	10247.95
876.577	10196.43
876.896	10201.85
877.214	10107.84
877.533	10200.04
877.852	10131.12
878.17	10067.39
878.489	10164.79
878.807	10099.93
879.125	10065.13
879.444	10044.34
879.762	10031.01
880.08	10013.15
880.398	10040.27
880.716	9992.36
881.034	9932.7
881.352	9947.85
881.67	9927.51
881.988	9949.2
882.306	9836.44
882.624	9898.36
882.941	9792.14
883.259	9774.97
883.577	9760.05
883.894	9802.09
884.212	9765.25
884.529	9711.02
884.846	9643.9
885.164	9677.34
885.481	9600.74
885.798	9644.58
886.115	9570.45
886.432	9551.7
886.75	9520.51
887.067	9588.53
887.383	9524.35
887.7	9572.94
888.017	9455.2
888.334	9469.44
888.651	9420.63
888.967	9437.8
889.284	9425.15
889.6	9338.82
889.917	9297.24
890.233	9287.07
890.55	9241.88
890.866	9207.98
891.182	9216.34
891.498	9215.89
891.815	9164.59
892.131	9149.45
892.447	9083.24
892.763	9042.33
893.079	9065.84
893.395	9012.5
893.71	9010.7
894.026	9006.85
894.342	8962.79
894.657	8858.16
894.973	8950.81
895.289	8891.83
895.604	8778.16
895.92	8751.27
896.235	8700.87
896.55	8757.37
896.865	8703.58
897.181	8701.55
897.496	8711.04
897.811	8636.47
898.126	8612.51
898.441	8565.51
898.756	8544.94
899.071	8464.49
899.386	8441.67
899.7	8368
900.015	8417.94
900.33	8268.12
900.644	8283.26
900.959	8242.81
901.273	8224.05
901.588	8226.08
901.902	8230.83
902.216	8153.09
902.531	8177.04
902.845	8133.88
903.159	8083.71
903.473	8081.23
903.787	8040.78
904.101	7955.36
904.415	8013.66
904.729	7958.52
905.042	7848.47
905.356	7824.06
905.67	7874
905.984	7822.03
906.297	7804.17
906.611	7668.81
906.924	7777.06
907.237	7709.71
907.551	7688.7
907.864	7635.36
908.177	7575.25
908.491	7573.44
908.804	7541.81
909.117	7471.98
909.43	7450.96
909.743	7393.56
910.056	7359.67
910.368	7328.71
910.681	7405.09
910.994	7335.94
911.307	7311.3
911.619	7205.77
911.932	7226.79
912.244	7147.24
912.557	7181.82
912.869	7147.24
913.181	7132.1
913.494	7100.46
913.806	7049.62
914.118	7031.76
914.43	6982.95
914.742	6958.32
915.054	6947.02
915.366	6930.07
915.678	6878.1
915.99	6844.42
916.302	6853.69
916.613	6766.46
916.925	6787.93
917.236	6743.64
917.548	6684.88
917.859	6710.64
918.171	6684.43
918.482	6600.59
918.794	6620.7
919.105	6578.44
919.416	6523.3
919.727	6533.25
920.038	6547.94
920.349	6489.86
920.66	6437.43
920.971	6436.53
921.282	6404.89
921.593	6384.1
921.903	6311.11
922.214	6327.15
922.525	6270.43
922.835	6278.34
923.146	6243.08
923.456	6208.74
923.767	6139.58
924.077	6201.28
924.387	6118.12
924.697	6147.72
925.008	6101.17
925.318	6051.23
925.628	6046.03
925.938	6017.33
926.248	5989.08
926.558	5962.19
926.867	6002.41
927.177	5973.71
927.487	5855.3
927.796	5887.16
928.106	5833.6
928.416	5792.93
928.725	5853.72
929.034	5784.79
929.344	5821.63
929.653	5747.05
929.962	5721.52
930.271	5669.77
930.581	5648.3
930.89	5618.69
931.199	5609.65
931.508	5645.13
931.817	5607.39
932.125	5564.68
932.434	5592.71
932.743	5502.09
933.051	5533.27
933.36	5428.87
933.669	5475.2
933.977	5410.56
934.286	5415.76
934.594	5339.15
934.902	5318.81
935.21	5330.57
935.519	5314.3
935.827	5322.43
936.135	5286.95
936.443	5267.29
936.751	5202.66
937.059	5215.77
937.367	5191.59
937.674	5176.67
937.982	5158.82
938.29	5077.01
938.597	5193.62
938.905	5079.05
939.213	4992.95
939.52	5041.76
939.827	5063.68
940.135	5008.99
940.442	5001.31
940.749	4959.73
941.056	4982.55
941.363	4935.55
941.67	4859.62
941.977	4884.7
942.284	4850.58
942.591	4806.74
942.898	4817.36
943.205	4794.08
943.511	4765.16
943.818	4791.6
944.125	4719.28
944.431	4704.82
944.738	4705.5
945.044	4681.77
945.35	4633.41
945.657	4620.75
945.963	4606.07
946.269	4564.48
946.575	4563.13
946.881	4490.59
947.187	4517.71
947.493	4476.35
947.799	4477.93
948.105	4467.99
948.41	4416.47
948.716	4444.04
949.022	4456.01
949.327	4402.23
949.633	4333.98
949.938	4315.9
950.244	4357.03
950.549	4274.77
950.854	4299.86
951.16	4286.3
951.465	4235.23
951.77	4230.48
952.075	4269.8
952.38	4191.39
952.685	4207.21
952.99	4163.82
953.294	4182.8
953.599	4130.82
953.904	4119.07
954.209	4067.32
954.513	4083.59
954.818	4075.46
955.122	4036.81
955.426	4051.5
955.731	4017.38
956.035	4011.05
956.339	3983.03
956.643	3972.41
956.948	3952.52
957.252	3943.48
957.556	3896.71
957.86	3907.1
958.163	3889.47
958.467	3869.59
958.771	3847.89
959.075	3886.08
959.378	3837.5
959.682	3806.76
959.985	3841.34
960.289	3757.73
960.592	3766.77
960.896	3759.31
961.199	3714.56
961.502	3713.21
961.805	3673.43
962.108	3672.76
962.411	3654
962.714	3588.24
963.017	3641.34
963.32	3642.7
963.623	3563.15
963.926	3611.52
964.228	3563.61
964.531	3521.57
964.833	3555.47
965.136	3479.32
965.438	3499.2
965.741	3507.11
966.043	3476.15
966.345	3473.89
966.648	3427.34
966.95	3432.99
967.252	3445.19
967.554	3395.02
967.856	3393.22
968.158	3346.21
968.46	3366.78
968.761	3345.31
969.063	3317.06
969.365	3341.24
969.666	3287
969.968	3284.52
970.269	3267.57
970.571	3257.4
970.872	3225.31
971.174	3240.23
971.475	3235.71
971.776	3191.64
972.077	3186.22
972.378	3168.81
972.679	3166.1
972.98	3132.66
973.281	3157.29
973.582	3154.58
973.883	3094.47
974.183	3089.04
974.484	3052.66
974.785	3025.09
975.085	3123.39
975.386	3051.3
975.686	3023.51
975.986	3042.49
976.287	3042.72
976.587	2954.58
976.887	2965.43
977.187	2976.96
977.487	2924.75
977.787	2916.84
978.087	2882.72
978.387	2910.06
978.687	2876.17
978.987	2865.55
979.286	2827.81
979.586	2888.82
979.885	2824.19
980.185	2828.26
980.484	2839.56
980.784	2818.54
981.083	2792.1
981.382	2799.33
981.682	2766.11
981.981	2791.42
982.28	2730.63
982.579	2755.72
982.878	2710.07
983.177	2686.34
983.475	2690.86
983.774	2658.77
984.073	2666.23
984.372	2677.75
984.67	2636.17
984.969	2645.66
985.267	2653.57
985.566	2616.51
985.864	2560.47
986.162	2589.4
986.461	2559.34
986.759	2579
987.057	2562.73
987.355	2555.27
987.653	2513.01
987.951	2499.91
988.249	2522.96
988.547	2501.04
988.844	2475.5
989.142	2461.04
989.44	2457.87
989.737	2430.76
990.035	2437.76
990.332	2465.78
990.63	2420.59
990.927	2433.02
991.224	2393.69
991.521	2385.78
991.819	2380.81
992.116	2388.95
992.413	2350.08
992.71	2316.41
993.006	2337.42
993.303	2295.62
993.6	2324.09
993.897	2314.6
994.193	2278.89
994.49	2270.76
994.787	2250.2
995.083	2265.11
995.379	2235.51
995.676	2273.47
995.972	2225.34
996.268	2212
996.565	2179.24
996.861	2182.85
997.157	2158.45
997.453	2186.47
997.749	2185.11
998.044	2143.76
998.34	2129.97
998.636	2125
998.932	2108.5
999.227	2102.4
999.523	2122.97
999.818	2088.39
1000.114	2061.05
1000.409	2073.93
1000.704	2038.45
1001	2047.94
1001.295	2010.2
1001.59	2030.09
1001.885	2001.39
1002.18	2009.3
1002.475	1975.17
1002.77	1928.17
1003.065	1972.69
1003.359	1948.06
1003.654	1940.15
1003.949	1918.68
1004.243	1894.27
1004.538	1891.79
1004.832	1905.12
1005.127	1909.64
1005.421	1886.59
1005.715	1857.66
1006.009	1895.4
1006.304	1842.97
1006.598	1825.35
1006.892	1835.29
1007.186	1817.21
1007.48	1795.74
1007.773	1770.43
1008.067	1784.22
1008.361	1733.82
1008.655	1778.12
1008.948	1748.06
1009.242	1756.87
1009.535	1737.44
1009.829	1701.73
1010.122	1715.97
1010.415	1677.1
1010.708	1707.61
1011.001	1679.14
1011.295	1661.96
1011.588	1674.17
1011.881	1662.64
1012.173	1649.76
1012.466	1640.95
1012.759	1651.34
1013.052	1654.96
1013.344	1593.72
1013.637	1604.56
1013.93	1594.39
1014.222	1603.88
1014.514	1564.34
1014.807	1572.02
1015.099	1545.81
1015.391	1571.12
1015.683	1502.87
1015.976	1515.53
1016.268	1531.12
1016.56	1488.18
1016.851	1484.57
1017.143	1485.24
1017.435	1486.83
1017.727	1457.9
1018.018	1489.31
1018.31	1457.9
1018.602	1435.08
1018.893	1447.96
1019.185	1445.02
1019.476	1442.53
1019.767	1387.39
1020.058	1428.07
1020.35	1399.82
1020.641	1400.05
1020.932	1372.7
1021.223	1382.42
1021.514	1355.3
1021.804	1321.63
1022.095	1326.15
1022.386	1342.87
1022.677	1336.77
1022.967	1324.57
1023.258	1292.03
1023.548	1318.69
1023.839	1296.77
1024.129	1285.02
1024.419	1278.7
1024.709	1254.29
1025	1263.1
1025.29	1254.06
1025.58	1233.72
1025.87	1222.88
1026.16	1244.35
1026.449	1213.84
1026.739	1189.88
1027.029	1207.74
1027.319	1194.4
1027.608	1174.97
1027.898	1192.82
1028.187	1188.75
1028.477	1150.56
1028.766	1180.84
1029.055	1143.78
1029.344	1157.34
1029.634	1129.32
1029.923	1139.04
1030.212	1120.73
1030.501	1125.25
1030.79	1104.46
1031.078	1119.15
1031.367	1077.34
1031.656	1083.67
1031.945	1070.57
1032.233	1087.51
1032.522	1082.32
1032.81	1058.14
1033.099	1045.03
1033.387	1064.01
1033.675	1050.45
1033.963	1077.12
1034.251	1031.02
1034.54	1016.33
1034.828	1028.76
1035.116	1022.66
1035.403	1007.74
1035.691	979.49
1035.979	1022.43
1036.267	988.31
1036.554	1012.04
1036.842	970
1037.129	976.1
1037.417	940.4
1037.704	960.96
1037.992	939.72
1038.279	936.33
1038.566	939.5
1038.853	939.5
1039.14	939.5
