Data from hue_190_FLMS001491_00008.txt Node
Date: Tue Feb 07 16:44:43 GMT 2017
User: dcchb
Spectrometer: FLMS00149
Trigger mode: 0
Integration Time (sec): 2.000000E-2
Scans to average: 10
Electric dark correction enabled: true
Nonlinearity correction enabled: false
Boxcar width: 0
XAxis mode: Wavelengths
Number of Pixels in Spectrum: 2048
>>>>>Begin Spectral Data<<<<<
341.393	-14.41
341.776	-14.41
342.16	-14.41
342.543	-62.54
342.927	-73.84
343.31	-62.54
343.693	-72.03
344.077	-70.9
344.46	-63.44
344.843	-53.05
345.226	-38.13
345.61	-33.61
345.993	-12.15
346.376	-18.25
346.759	3.9
347.142	27.4
347.525	49.77
347.908	64.46
348.291	62.65
348.674	94.74
349.057	121.18
349.44	132.71
349.823	125.48
350.206	147.85
350.588	179.71
350.971	202.76
351.354	202.09
351.737	233.95
352.119	235.53
352.502	253.38
352.884	259.94
353.267	277.56
353.65	300.39
354.032	305.13
354.414	309.43
354.797	311.46
355.179	328.64
355.562	309.43
355.944	327.51
356.326	323.66
356.709	327.73
357.091	331.12
357.473	339.71
357.855	334.96
358.238	334.51
358.62	327.28
359.002	358.92
359.384	340.39
359.766	328.64
360.148	326.38
360.53	323.44
360.912	344.68
361.294	315.75
361.676	333.16
362.057	321.4
362.439	349.43
362.821	326.6
363.203	320.27
363.584	315.98
363.966	319.6
364.348	339.26
364.729	322.31
365.111	302.2
365.493	312.82
365.874	301.29
366.256	313.72
366.637	313.04
367.019	299.94
367.4	318.24
367.781	310.56
368.163	310.1
368.544	300.61
368.925	321.63
369.306	319.37
369.688	315.75
370.069	304.91
370.45	304
370.831	305.81
371.212	304.91
371.593	303.55
371.974	318.69
372.355	299.48
372.736	300.61
373.117	308.3
373.498	288.64
373.879	313.49
374.26	297.22
374.641	328.41
375.021	318.92
375.402	304.68
375.783	301.07
376.163	316.21
376.544	324.34
376.925	319.6
377.305	300.39
377.686	318.47
378.066	314.4
378.447	304.68
378.827	333.61
379.208	325.47
379.588	329.54
379.968	329.99
380.349	318.47
380.729	344
381.109	359.14
381.489	316.88
381.87	303.33
382.25	318.01
382.63	327.96
383.01	331.8
383.39	319.14
383.77	337.9
384.15	340.61
384.53	353.49
384.91	346.49
385.29	344.91
385.67	325.02
386.049	346.71
386.429	324.34
386.809	350.1
387.189	358.24
387.568	346.94
387.948	339.48
388.328	360.72
388.707	340.16
389.087	354.4
389.466	354.17
389.846	364.11
390.225	359.37
390.605	342.65
390.984	332.93
391.363	350.78
391.743	356.43
392.122	362.98
392.501	389.88
392.881	358.47
393.26	358.92
393.639	373.61
394.018	374.74
394.397	366.37
394.776	350.56
395.155	388.97
395.534	367.28
395.913	358.47
396.292	359.6
396.671	351.91
397.05	382.87
397.429	394.62
397.808	382.19
398.186	390.1
398.565	389.65
398.944	392.14
399.323	373.83
399.701	400.5
400.08	407.5
400.458	401.63
400.837	408.86
401.215	423.77
401.594	421.74
401.972	405.92
402.351	413.15
402.729	414.73
403.107	414.51
403.486	433.72
403.864	447.5
404.242	437.79
404.62	413.6
404.999	412.25
405.377	437.56
405.755	435.53
406.133	439.82
406.511	431.68
406.889	439.82
407.267	466.48
407.645	442.53
408.023	465.58
408.401	484.56
408.779	480.72
409.156	475.3
409.534	493.15
409.912	490.21
410.29	528.18
410.667	508.74
411.045	526.37
411.422	522.98
411.8	530.89
412.178	521.4
412.555	531.34
412.933	562.08
413.31	553.71
413.687	564.34
414.065	581.06
414.442	579.02
414.819	584.9
415.197	593.71
415.574	608.85
415.951	612.02
416.328	611.11
416.705	603.43
417.082	642.53
417.46	649.76
417.837	649.53
418.214	660.83
418.591	682.07
418.967	692.69
419.344	687.5
419.721	703.09
420.098	709.19
420.475	729.08
420.852	735.18
421.228	747.16
421.605	745.57
421.982	764.78
422.358	771.11
422.735	779.7
423.111	819.24
423.488	829.41
423.864	827.61
424.241	818.11
424.617	855.4
424.994	849.75
425.37	889.75
425.746	893.37
426.123	923.87
426.499	923.65
426.875	912.35
427.251	962.07
427.627	954.16
428.003	958
428.379	976.53
428.756	1002.97
429.132	1007.49
429.507	1029.18
429.883	1020.37
430.259	1040.71
430.635	1036.87
431.011	1062.4
431.387	1087.26
431.763	1099.69
432.138	1126.81
432.514	1117.09
432.89	1143.76
433.265	1137.2
433.641	1149.63
434.016	1189.63
434.392	1248.39
434.767	1219.91
435.143	1273.24
435.518	1287.03
435.894	1296.97
436.269	1300.81
436.644	1336.52
437.02	1382.17
437.395	1408.61
437.77	1423.07
438.145	1442.5
438.52	1465.1
438.895	1468.49
439.271	1491.09
439.646	1553.91
440.021	1565.21
440.395	1542.84
440.77	1553.46
441.145	1610.64
441.52	1586
441.895	1621.71
442.27	1642.73
442.645	1699.45
443.019	1703.29
443.394	1692.22
443.769	1726.79
444.143	1686.11
444.518	1742.84
444.892	1777.86
445.267	1803.17
445.641	1808.6
446.016	1815.83
446.39	1829.84
446.764	1871.65
447.139	1842.04
447.513	1884.53
447.887	1921.59
448.262	1910.97
448.636	1911.19
449.01	1945.32
449.384	1951.42
449.758	1983.51
450.132	1995.03
450.506	2021.7
450.88	2023.96
451.254	2018.76
451.628	2045.88
452.002	2054.47
452.376	2070.06
452.75	2119.32
453.123	2142.83
453.497	2187.57
453.871	2195.48
454.244	2237.74
454.618	2231.41
454.992	2305.31
455.365	2279.32
455.739	2348.02
456.112	2346.89
456.486	2401.58
456.859	2407.68
457.232	2416.04
457.606	2446.77
457.979	2491.29
458.352	2503.95
458.725	2536.71
459.099	2613.55
459.472	2603.6
459.845	2659.65
460.218	2673.66
460.591	2727.89
460.964	2728.8
461.337	2781.68
461.71	2819.87
462.083	2849.47
462.456	2864.16
462.829	2876.82
463.201	2905.74
463.574	2923.82
463.947	2974.44
464.32	3082.01
464.692	3080.43
465.065	3143.93
465.438	3175.57
465.81	3203.59
466.183	3248.78
466.555	3283.36
466.928	3328.78
467.3	3366.97
467.672	3363.81
468.045	3480.19
468.417	3492.85
468.789	3502.34
469.161	3533.07
469.534	3646.97
469.906	3696
470.278	3745.49
470.65	3780.52
471.022	3819.17
471.394	3918.82
471.766	3926.28
472.138	4017.58
472.51	4053.74
472.882	4119.04
473.253	4131.47
473.625	4262.09
473.997	4352.71
474.369	4358.81
474.74	4418.25
475.112	4505.25
475.484	4584.12
475.855	4690.1
476.227	4659.37
476.598	4850.32
476.97	4840.38
477.341	4945.46
477.713	5034.95
478.084	5062.3
478.455	5231.11
478.827	5234.5
479.198	5390.42
479.569	5455.51
479.94	5582.51
480.311	5674.94
480.682	5736.63
481.053	5867.25
481.424	5972.33
481.795	6034.7
482.166	6124.19
482.537	6144.98
482.908	6341.36
483.279	6368.93
483.65	6519.89
484.021	6664.51
484.391	6738.41
484.762	6796.26
485.133	6851.18
485.503	6939.99
485.874	7087.1
486.244	7128.91
486.615	7288.45
486.985	7411.61
487.356	7542.01
487.726	7633.98
488.097	7797.37
488.467	7746.97
488.837	7927.53
489.207	8055.89
489.578	8130.01
489.948	8256.34
490.318	8302.44
490.688	8326.62
491.058	8407.29
491.428	8563.67
491.798	8710.11
492.168	8803.89
492.538	8813.61
492.908	8900.39
493.278	9038.91
493.648	9031.68
494.017	9135.41
494.387	9246.14
494.757	9327.27
495.126	9383.76
495.496	9364.33
495.866	9469.86
496.235	9515.06
496.605	9595.96
496.974	9632.12
497.344	9747.6
497.713	9790.76
498.082	9814.71
498.452	9919.12
498.821	9946.91
499.19	9945.56
499.559	9996.63
499.928	10113.46
500.298	10087.7
500.667	10166.57
501.036	10138.55
501.405	10190.07
501.774	10244.98
502.143	10316.62
502.512	10330.41
502.88	10413.34
503.249	10382.83
503.618	10468.26
503.987	10483.62
504.356	10442.95
504.724	10576.73
505.093	10520.46
505.462	10532.89
505.83	10605.88
506.199	10668.25
506.567	10800.45
506.936	10659.89
507.304	10847.91
507.672	10804.07
508.041	10857.85
508.409	10904.4
508.777	10946.66
509.145	11007
509.514	10945.98
509.882	11060.33
510.25	10966.1
510.618	11023.27
510.986	11035.02
511.354	11094.23
511.722	11170.38
512.09	11129.03
512.458	11051.97
512.826	11164.96
513.193	11188.69
513.561	11156.37
513.929	11146.2
514.297	11334.9
514.664	11297.39
515.032	11183.27
515.4	11337.39
515.767	11284.73
516.135	11326.31
516.502	11238.63
516.869	11370.38
517.237	11325.86
517.604	11268.91
517.972	11272.75
518.339	11331.96
518.706	11296.03
519.073	11398.17
519.44	11415.58
519.808	11392.98
520.175	11335.8
520.542	11408.34
520.909	11366.54
521.276	11346.65
521.643	11437.5
522.009	11404.28
522.376	11465.74
522.743	11411.73
523.11	11487.66
523.477	11562.92
523.843	11559.53
524.21	11510.94
524.577	11586.42
524.943	11531.73
525.31	11461
525.676	11564.95
526.043	11555.01
526.409	11511.39
526.776	11584.84
527.142	11532.63
527.508	11506.65
527.874	11503.71
528.241	11501.67
528.607	11456.03
528.973	11428.23
529.339	11489.92
529.705	11433.65
530.071	11499.19
530.437	11364.96
530.803	11400.89
531.169	11353.2
531.535	11328.12
531.901	11248.12
532.267	11222.13
532.632	11256.71
532.998	11216.26
533.364	11185.07
533.73	11146.2
534.095	11168.8
534.461	11123.15
534.826	11146.88
535.192	11114.11
535.557	11039.54
535.923	10958.64
536.288	10939.2
536.653	10949.83
537.019	10832.77
537.384	10781.24
537.749	10766.55
538.114	10730.17
538.479	10619.21
538.845	10644.07
539.21	10558.42
539.575	10511.64
539.94	10454.02
540.305	10430.97
540.67	10397.98
541.034	10306
541.399	10304.87
541.764	10274.36
542.129	10226.68
542.494	10161.15
542.858	10096.29
543.223	10098.77
543.587	10030.98
543.952	9948.95
544.316	9944.65
544.681	9807.03
545.045	9847.71
545.41	9755.96
545.774	9802.51
546.138	9654.94
546.503	9685.45
546.867	9560.94
547.231	9570.43
547.595	9547.83
547.959	9533.14
548.324	9365.69
548.688	9410.66
549.052	9354.61
549.416	9331.34
549.779	9220.38
550.143	9210.44
550.507	9128.4
550.871	9141.06
551.235	9063.32
551.599	9037.11
551.962	8986.94
552.326	8962.98
552.689	8932.03
553.053	8772.71
553.417	8765.25
553.78	8823.78
554.143	8700.17
554.507	8712.6
554.87	8692.94
555.234	8681.86
555.597	8584.46
555.96	8565.03
556.323	8610.45
556.686	8596.21
557.05	8531.81
557.413	8433.28
557.776	8498.82
558.139	8447.29
558.502	8399.84
558.865	8363.45
559.228	8348.99
559.59	8311.25
559.953	8399.38
560.316	8326.62
560.679	8273.96
561.041	8318.03
561.404	8249.56
561.767	8279.84
562.129	8199.84
562.492	8212.95
562.854	8259.5
563.217	8184.93
563.579	8226.05
563.941	8221.76
564.304	8208.65
564.666	8116.91
565.028	8194.87
565.39	8177.47
565.753	8188.99
566.115	8167.07
566.477	8161.2
566.839	8126.62
567.201	8128.43
567.563	8115.1
567.925	8119.84
568.287	8184.93
568.648	8156
569.01	8140.86
569.372	8122.55
569.734	8081.65
570.095	8123.01
570.457	8123.68
570.819	8147.19
571.18	8096.57
571.542	8082.1
571.903	8081.88
572.265	8078.26
572.626	8080.07
572.987	8154.64
573.349	8063.12
573.71	8108.54
574.071	8085.04
574.432	8054.08
574.794	8187.86
575.155	8104.02
575.516	8031.48
575.877	8066.74
576.238	8067.19
576.599	8112.61
576.96	8106.28
577.32	8050.01
577.681	8096.79
578.042	8095.44
578.403	8075.55
578.763	8065.38
579.124	8038.04
579.485	8047.3
579.845	8080.97
580.206	8036.23
580.566	8069.67
580.927	8079.84
581.287	8002.33
581.648	8043.23
582.008	8053.63
582.368	7994.87
582.728	8021.31
583.089	7969.56
583.449	7986.29
583.809	7969.11
584.169	7993.29
584.529	7958.94
584.889	8050.24
585.249	7876.01
585.609	7914.42
585.969	7969.56
586.329	7909.23
586.688	7900.64
587.048	7906.74
587.408	7874.88
587.768	7837.82
588.127	7847.08
588.487	7828.78
588.846	7883.01
589.206	7782.9
589.565	7844.14
589.925	7899.51
590.284	7759.17
590.643	7820.19
591.003	7810.92
591.362	7798.72
591.721	7817.48
592.08	7842.34
592.44	7799.85
592.799	7852.28
593.158	7774.54
593.517	7788.1
593.876	7726.18
594.235	7779.06
594.593	7721.66
594.952	7767.54
595.311	7658.16
595.67	7626.07
596.029	7772.51
596.387	7758.95
596.746	7713.75
597.104	7637.82
597.463	7629.69
597.822	7696.35
598.18	7625.84
598.538	7618.39
598.897	7654.09
599.255	7609.12
599.613	7688.89
599.972	7627.65
600.33	7718.95
600.688	7584.94
601.046	7600.31
601.404	7636.01
601.762	7622
602.12	7651.83
602.478	7597.6
602.836	7621.78
603.194	7560.31
603.552	7642.57
603.91	7541.1
604.268	7543.36
604.625	7583.59
604.983	7683.47
605.341	7594.89
605.698	7589.24
606.056	7629.91
606.413	7619.74
606.771	7615
607.128	7598.95
607.485	7553.76
607.843	7609.57
608.2	7561.89
608.557	7621.55
608.914	7605.05
609.272	7615.45
609.629	7523.47
609.986	7650.02
610.343	7577.26
610.7	7644.38
611.057	7596.47
611.414	7590.14
611.771	7652.96
612.127	7627.65
612.484	7709.01
612.841	7691.15
613.198	7567.32
613.554	7677.37
613.911	7659.29
614.267	7639.63
614.624	7640.53
614.98	7657.48
615.337	7701.55
615.693	7735.45
616.05	7677.14
616.406	7729.12
616.762	7702.45
617.118	7709.46
617.475	7686.63
617.831	7725.73
618.187	7743.81
618.543	7692.28
618.899	7713.07
619.255	7689.12
619.611	7763.02
619.967	7809.57
620.323	7794.65
620.678	7707.65
621.034	7661.1
621.39	7706.07
621.746	7688.22
622.101	7773.41
622.457	7701.32
622.812	7765.73
623.168	7745.39
623.523	7734.54
623.879	7748.33
624.234	7656.8
624.589	7735.9
624.945	7699.97
625.3	7719.63
625.655	7774.54
626.01	7672.62
626.365	7724.83
626.72	7718.27
627.075	7674.88
627.43	7710.36
627.785	7677.82
628.14	7628.56
628.495	7652.06
628.85	7686.86
629.205	7658.16
629.559	7657.71
629.914	7637.14
630.269	7667.43
630.623	7612.29
630.978	7594.89
631.332	7596.01
631.687	7663.81
632.041	7624.71
632.396	7613.87
632.75	7578.61
633.104	7591.72
633.459	7549.91
633.813	7544.04
634.167	7575.22
634.521	7565.28
634.875	7574.55
635.229	7574.55
635.583	7492.97
635.937	7472.18
636.291	7504.49
636.645	7466.53
636.999	7489.35
637.352	7500.2
637.706	7426.3
638.06	7426.98
638.413	7460.43
638.767	7454.55
639.121	7499.07
639.474	7367.09
639.828	7424.95
640.181	7436.47
640.534	7431.5
640.888	7401.44
641.241	7323.48
641.594	7360.09
641.947	7404.83
642.301	7312.86
642.654	7332.97
643.007	7348.34
643.36	7371.16
643.713	7314.44
644.066	7380.65
644.419	7317.6
644.771	7322.8
645.124	7219.53
645.477	7198.51
645.83	7158.74
646.182	7109.02
646.535	7082.58
646.888	7111.96
647.24	7057.27
647.593	7103.37
647.945	7166.2
648.298	7100.66
648.65	7117.61
649.002	7102.24
649.355	7106.31
649.707	7116.93
650.059	7139.98
650.411	7250.49
650.763	7225.18
651.115	7332.29
651.467	7294.78
651.819	7258.85
652.171	7326.19
652.523	7267.89
652.875	7224.95
653.227	7263.82
653.578	7355.8
653.93	7321.22
654.282	7273.76
654.633	7247.1
654.985	7262.92
655.337	7260.88
655.688	7297.94
656.039	7283.48
656.391	7322.58
656.742	7284.61
657.094	7304.95
657.445	7311.73
657.796	7306.76
658.147	7304.27
658.498	7272.41
658.849	7315.8
659.2	7305.18
659.551	7266.53
659.902	7306.31
660.253	7307.66
660.604	7364.83
660.955	7346.3
661.306	7376.36
661.656	7348.56
662.007	7367.55
662.358	7455.91
662.708	7351.28
663.059	7363.25
663.409	7320.77
663.76	7342.91
664.11	7373.2
664.461	7401.22
664.811	7339.3
665.161	7349.47
665.511	7369.35
665.862	7388.56
666.212	7444.38
666.562	7381.11
666.912	7393.31
667.262	7413.19
667.612	7389.69
667.962	7348.79
668.312	7334.78
668.662	7455.45
669.011	7386.98
669.361	7359.41
669.711	7345.85
670.06	7312.86
670.41	7350.82
670.76	7337.04
671.109	7387.88
671.459	7403.03
671.808	7302.46
672.157	7395.57
672.507	7236.93
672.856	7355.57
673.205	7316.7
673.554	7294.33
673.904	7308.34
674.253	7348.11
674.602	7329.36
674.951	7188.12
675.3	7176.82
675.649	7308.11
675.998	7295.91
676.346	7272.41
676.695	7337.04
677.044	7255.68
677.393	7275.12
677.741	7255.91
678.09	7195.8
678.438	7225.4
678.787	7193.99
679.135	7262.01
679.484	7208.23
679.832	7243.71
680.181	7123.26
680.529	7111.06
680.877	7164.84
681.225	7119.87
681.573	7188.79
681.922	7089.36
682.27	7068.12
682.618	7120.32
682.966	7071.06
683.314	7013.66
683.661	6985.41
684.009	6983.15
684.357	7029.93
684.705	6980.21
685.053	6958.52
685.4	6974.56
685.748	6896.37
686.095	6920.1
686.443	6894.34
686.79	6883.72
687.138	6867.67
687.485	6852.31
687.832	6850.95
688.18	6848.69
688.527	6788.35
688.874	6754
689.221	6745.19
689.568	6761.01
689.915	6753.1
690.262	6738.64
690.609	6701.58
690.956	6697.96
691.303	6664.51
691.65	6666.77
691.997	6591.97
692.344	6585.87
692.69	6544.74
693.037	6606.66
693.383	6506.78
693.73	6526.89
694.077	6471.07
694.423	6484.41
694.769	6464.52
695.116	6356.05
695.462	6405.99
695.808	6354.24
696.155	6403.28
696.501	6342.71
696.847	6329.38
697.193	6243.28
697.539	6298.65
697.885	6252.77
698.231	6223.85
698.577	6267.91
698.923	6196.5
699.269	6165.32
699.614	6102.27
699.96	6131.87
700.306	6022.05
700.651	6056.62
700.997	6016.62
701.342	6013.68
701.688	6003.06
702.033	6029.5
702.379	5934.82
702.724	5948.6
703.069	5936.85
703.415	5818.66
703.76	5866.79
704.105	5862.05
704.45	5841.26
704.795	5839.9
705.14	5815.72
705.485	5824.76
705.83	5705.22
706.175	5772.11
706.52	5759.23
706.865	5714.93
707.209	5718.1
707.554	5649.17
707.899	5648.27
708.243	5678.1
708.588	5673.58
708.932	5578.44
709.277	5621.38
709.621	5611.89
709.966	5554.03
710.31	5559.46
710.654	5503.64
710.998	5551.1
711.342	5529.4
711.687	5532.79
712.031	5501.38
712.375	5479.46
712.719	5432
713.063	5439.24
713.407	5478.78
713.75	5418.9
714.094	5440.82
714.438	5455.96
714.782	5380.93
715.125	5394.04
715.469	5388.62
715.812	5349.29
716.156	5366.24
716.499	5358.33
716.843	5338
717.186	5325.34
717.53	5362.63
717.873	5342.74
718.216	5367.82
718.559	5295.96
718.902	5213.25
719.246	5285.57
719.589	5216.19
719.932	5248.96
720.275	5269.97
720.617	5285.57
720.96	5251.67
721.303	5264.55
721.646	5305.45
721.989	5214.16
722.331	5233.82
722.674	5190.65
723.016	5203.99
723.359	5185.91
723.701	5226.36
724.044	5216.64
724.386	5145.68
724.729	5166.7
725.071	5197.43
725.413	5148.17
725.755	5148.85
726.097	5178.9
726.439	5136.42
726.782	5174.16
727.124	5254.83
727.465	5153.37
727.807	5200.6
728.149	5212.8
728.491	5156.98
728.833	5163.31
729.175	5195.4
729.516	5137.55
729.858	5113.14
730.199	5181.39
730.541	5205.57
730.882	5180.49
731.224	5147.49
731.565	5175.51
731.906	5167.83
732.248	5149.3
732.589	5122.86
732.93	5121.05
733.271	5157.21
733.612	5151.11
733.953	5159.24
734.294	5214.83
734.635	5134.84
734.976	5170.77
735.317	5161.73
735.658	5138
735.999	5151.56
736.339	5176.19
736.68	5217.32
737.021	5175.06
737.361	5164.67
737.702	5221.16
738.042	5236.75
738.383	5255.96
738.723	5280.82
739.063	5221.84
739.404	5266.36
739.744	5269.52
740.084	5234.04
740.424	5276.08
740.764	5270.65
741.104	5307.71
741.444	5258
741.784	5319.46
742.124	5333.7
742.464	5339.8
742.804	5366.02
743.143	5372.12
743.483	5461.83
743.823	5429.97
744.162	5436.52
744.502	5495.96
744.841	5494.38
745.181	5526.46
745.52	5579.34
745.86	5606.69
746.199	5628.38
746.538	5654.15
746.877	5669.96
747.216	5760.81
747.556	5839
747.895	5787.7
748.234	5824.76
748.573	5928.04
748.911	5949.73
749.25	5983.63
749.589	6076.51
749.928	6151.31
750.267	6166.22
750.605	6257.97
750.944	6286.9
751.283	6400.57
751.621	6499.09
751.96	6556.95
752.298	6649.6
752.636	6706.77
752.975	6806.88
753.313	6864.28
753.651	7079.87
753.989	7083.03
754.327	7203.03
754.666	7339.07
755.004	7427.21
755.342	7568.9
755.679	7728.44
756.017	7832.62
756.355	7963.01
756.693	8055.21
757.031	8244.59
757.368	8344.24
757.706	8549.44
758.044	8672.6
758.381	8793.5
758.719	8960.5
759.056	9118.23
759.394	9255.63
759.731	9431.67
760.068	9542.18
760.405	9752.57
760.743	9900.81
761.08	10129.28
761.417	10231.65
761.754	10439.78
762.091	10616.5
762.428	10757.51
762.765	10934.23
763.102	11138.07
763.438	11302.36
763.775	11422.13
764.112	11601.56
764.449	11873.42
764.785	12044.71
765.122	12130.58
765.458	12348.21
765.795	12506.85
766.131	12675.2
766.467	12799.27
766.804	12982.99
767.14	13095.53
767.476	13246.26
767.812	13473.83
768.148	13620.04
768.485	13724.89
768.821	13829.3
769.157	14063.64
769.492	14121.72
769.828	14351.54
770.164	14335.5
770.5	14507.7
770.836	14700.01
771.171	14835.15
771.507	14926.44
771.842	14835.15
772.178	15009.61
772.513	15180.45
772.849	15327.79
773.184	15363.04
773.519	15516.03
773.855	15530.95
774.19	15575.92
774.525	15687.78
774.86	15812.07
775.195	15958.05
775.53	15906.3
775.865	15957.6
776.2	15988.11
776.535	16023.36
776.87	16033.08
777.205	16235.34
777.539	16194.21
777.874	16352.62
778.209	16269.91
778.543	16257.93
778.878	16253.87
779.212	16403.69
779.547	16436.23
779.881	16583.58
780.215	16545.61
780.55	16650.01
780.884	16641.65
781.218	16531.37
781.552	16654.99
781.886	16619.73
782.22	16651.82
782.554	16732.5
782.888	16591.94
783.222	16573.63
783.556	16652.05
783.889	16632.39
784.223	16559.62
784.557	16605.72
784.89	16628.32
785.224	16521.66
785.557	16586.51
785.891	16585.84
786.224	16638.94
786.558	16598.49
786.891	16409.34
787.224	16511.49
787.557	16560.07
787.891	16541.99
788.224	16580.19
788.557	16621.31
788.89	16574.54
789.223	16656.57
789.556	16558.49
789.888	16488.44
790.221	16532.28
790.554	16398.72
790.887	16358.04
791.219	16359.17
791.552	16392.39
791.884	16376.35
792.217	16366.63
792.549	16400.08
792.882	16284.6
793.214	16243.7
793.546	16273.3
793.879	16062.68
794.211	16077.6
794.543	16275.79
794.875	16104.49
795.207	16170.25
795.539	16092.29
795.871	16124.15
796.203	15944.04
796.535	15913.76
796.867	15975.23
797.198	15946.53
797.53	15902.46
797.862	15811.84
798.193	15906.3
798.525	15802.13
798.856	15750.6
799.188	15692.53
799.519	15597.16
799.85	15541.79
800.182	15657.95
800.513	15598.74
800.844	15461.57
801.175	15490.27
801.506	15588.57
801.837	15484.17
802.168	15373.44
802.499	15347.9
802.83	15302.25
803.161	15358.52
803.491	15298.86
803.822	15450.95
804.153	15263.16
804.483	15179.09
804.814	15049.6
805.145	15066.55
805.475	15145.87
805.805	15027.91
806.136	14996.5
806.466	15050.96
806.796	14979.78
807.126	14837.63
807.457	14834.24
807.787	14953.56
808.117	14878.08
808.447	14736.84
808.777	14821.14
809.107	14756.73
809.436	14722.16
809.766	14709.05
810.096	14675.6
810.426	14611.2
810.755	14547.7
811.085	14605.32
811.414	14570.52
811.744	14434.03
812.073	14390.19
812.403	14512.22
812.732	14364.65
813.061	14405.55
813.39	14329.17
813.719	14357.65
814.049	14386.34
814.378	14281.94
814.707	14314.03
815.036	14357.19
815.365	14195.16
815.693	14085.79
816.022	14155.16
816.351	14101.61
816.68	14102.96
817.008	14088.73
817.337	14008.95
817.665	13949.75
817.994	13982.06
818.322	13993.59
818.651	13895.28
818.979	13862.06
819.307	13948.62
819.636	13894.83
819.964	13790.65
820.292	13829.75
820.62	13883.99
820.948	13848.05
821.276	13799.69
821.604	13788.39
821.932	13941.16
822.259	13794.27
822.587	13743.42
822.915	13756.98
823.243	13854.61
823.57	13689.19
823.898	13841.5
824.225	13841.05
824.553	13692.35
824.88	13817.09
825.207	13836.53
825.535	13827.04
825.862	13843.99
826.189	13791.11
826.516	13896.87
826.843	13911.1
827.17	13858.68
827.497	13859.13
827.824	13846.92
828.151	13890.76
828.478	13795.17
828.805	13863.42
829.131	13838.79
829.458	13920.14
829.785	13747.27
830.111	13790.2
830.438	13916.75
830.764	13819.81
831.09	13838.79
831.417	13766.93
831.743	13913.36
832.069	13887.15
832.395	13808.51
832.722	13814.83
833.048	13757.21
833.374	13791.56
833.7	13746.36
834.026	13712.46
834.351	13702.52
834.677	13756.76
835.003	13733.03
835.329	13747.04
835.654	13776.19
835.98	13726.02
836.306	13743.42
836.631	13574.61
836.956	13704.1
837.282	13739.13
837.607	13630.66
837.932	13625.23
838.258	13558.8
838.583	13587.72
838.908	13538.68
839.233	13600.15
839.558	13472.24
839.883	13477.67
840.208	13449.42
840.533	13472.47
840.858	13387.95
841.182	13423.88
841.507	13375.07
841.832	13305.02
842.156	13313.83
842.481	13302.08
842.805	13216.43
843.13	13323.77
843.454	13211.91
843.778	13188.41
844.103	13147.51
844.427	13106.38
844.751	13180.73
845.075	13083.33
845.399	13001.75
845.723	12914.52
846.047	12996.1
846.371	12848.76
846.695	12881.3
847.019	12812.37
847.343	12738.93
847.666	12701.87
847.99	12625.04
848.313	12578.48
848.637	12533.74
848.96	12454.19
849.284	12475.43
849.607	12431.59
849.931	12300.3
850.254	12265.95
850.577	12194.31
850.9	12162
851.223	12160.19
851.546	12030.25
851.869	11973.98
852.192	12027.76
852.515	11951.15
852.838	11866.86
853.161	11857.37
853.483	11742.8
853.806	11762.69
854.129	11722.46
854.451	11687.43
854.774	11595.68
855.096	11677.26
855.419	11577.15
855.741	11566.76
856.063	11542.35
856.385	11562.24
856.708	11464.16
857.03	11354.11
857.352	11415.58
857.674	11347.55
857.996	11317.73
858.318	11233.21
858.64	11284.28
858.961	11206.99
859.283	11179.88
859.605	11120.67
859.926	11162.7
860.248	11139.65
860.57	11018.07
860.891	11049.03
861.212	11021.01
861.534	11028.24
861.855	11007
862.176	10938.53
862.498	10945.31
862.819	10979.2
863.14	10901.24
863.461	10923.61
863.782	10834.57
864.103	10843.84
864.424	10760.23
864.745	10844.52
865.065	10764.29
865.386	10701.92
865.707	10629.38
866.027	10743.28
866.348	10675.48
866.668	10696.72
866.989	10650.62
867.309	10639.78
867.63	10648.82
867.95	10629.16
868.27	10514.36
868.59	10555.49
868.91	10522.72
869.23	10568.14
869.55	10461.93
869.87	10501.7
870.19	10563.62
870.51	10497.86
870.83	10492.44
871.15	10455.83
871.469	10465.09
871.789	10520.91
872.109	10385.32
872.428	10307.58
872.748	10416.51
873.067	10372.44
873.386	10277.98
873.706	10270.97
874.025	10261.93
874.344	10275.49
874.663	10251.09
874.982	10244.53
875.301	10200.24
875.62	10220.58
875.939	10197.08
876.258	10278.66
876.577	10140.35
876.896	10146.46
877.214	10140.81
877.533	10097.19
877.852	10022.62
878.17	10140.13
878.489	10085.44
878.807	10034.14
879.125	10042.28
879.444	10088.15
879.762	10007.48
880.08	9951.21
880.398	9902.85
880.716	9957.76
881.034	9936.74
881.352	9983.3
881.67	9927.48
881.988	9796.18
882.306	9840.93
882.624	9834.15
882.941	9776.07
883.259	9718.45
883.577	9703.98
883.894	9731.78
884.212	9733.13
884.529	9698.56
884.846	9748.5
885.164	9670.54
885.481	9668.05
885.798	9635.28
886.115	9518.22
886.432	9560.94
886.75	9522.97
887.067	9483.42
887.383	9521.16
887.7	9529.3
888.017	9490.43
888.334	9446.14
888.651	9433.03
888.967	9440.71
889.284	9362.97
889.6	9301.28
889.917	9220.83
890.233	9217.44
890.55	9218.35
890.866	9251.79
891.182	9209.98
891.498	9145.13
891.815	9064.22
892.131	9109.65
892.447	9096.54
892.763	9035.53
893.079	9021.74
893.395	8915.08
893.71	9027.84
894.026	8953.95
894.342	8926.38
894.657	8820.62
894.973	8853.83
895.289	8840.5
895.604	8828.75
895.92	8786.72
896.235	8755.08
896.55	8634.18
896.865	8672.6
897.181	8663.33
897.496	8624.69
897.811	8607.97
898.126	8545.59
898.441	8492.49
898.756	8518.25
899.071	8415.65
899.386	8464.24
899.7	8334.53
900.015	8306.05
900.33	8307.41
900.644	8271.03
900.959	8320.29
901.273	8243
901.588	8136.57
901.902	8116.23
902.216	8152.16
902.531	8087.98
902.845	8080.52
903.159	8083.01
903.473	8027.64
903.787	7994.65
904.101	7953.29
904.415	7970.92
904.729	7899.96
905.042	7829.23
905.356	7796.24
905.67	7816.57
905.984	7836.01
906.297	7807.08
906.611	7760.53
906.924	7710.81
907.237	7725.96
907.551	7667.43
907.864	7577.94
908.177	7633.53
908.491	7513.31
908.804	7506.07
909.117	7473.76
909.43	7431.5
909.743	7348.56
910.056	7333.65
910.368	7267.89
910.681	7286.64
910.994	7278.51
911.307	7315.8
911.619	7254.78
911.932	7214.56
912.244	7160.32
912.557	7090.27
912.869	7128.91
913.181	7068.8
913.494	7088.23
913.806	6990.16
914.118	7034.67
914.43	6944.51
914.742	7009.14
915.054	6944.73
915.366	6942.7
915.678	6844.62
915.99	6867.9
916.302	6818.41
916.613	6744.96
916.925	6749.71
917.236	6759.2
917.548	6678.75
917.859	6731.18
918.171	6638.98
918.482	6607.57
918.794	6585.87
919.105	6608.24
919.416	6580.67
919.727	6523.5
920.038	6476.04
920.349	6491.41
920.66	6450.51
920.971	6440.79
921.282	6421.13
921.593	6306.78
921.903	6310.85
922.214	6363.73
922.525	6265.65
922.835	6208.25
923.146	6223.17
923.456	6213.45
923.767	6203.96
924.077	6198.76
924.387	6097.3
924.697	6073.12
925.008	6084.42
925.318	6012.78
925.628	6044.87
925.938	6022.5
926.248	5954.93
926.558	5922.61
926.867	5931.88
927.177	5894.82
927.487	5895.27
927.796	5809.62
928.106	5869.51
928.416	5822.28
928.725	5810.75
929.034	5777.53
929.344	5763.52
929.653	5722.84
929.962	5686.69
930.271	5689.62
930.581	5639
930.89	5614.37
931.199	5560.59
931.508	5580.7
931.817	5606.24
932.125	5554.26
932.434	5554.94
932.743	5537.54
933.051	5495.96
933.36	5479.01
933.669	5421.61
933.977	5419.12
934.286	5364.66
934.594	5351.55
934.902	5391.55
935.21	5256.19
935.519	5342.97
935.827	5283.76
936.135	5224.33
936.443	5191.56
936.751	5163.31
937.059	5206.02
937.367	5173.03
937.674	5184.1
937.982	5132.35
938.29	5126.7
938.597	5091
938.905	5050.77
939.213	5037.66
939.52	5002.41
939.827	5024.56
940.135	4977.1
940.442	4914.05
940.749	4925.12
941.056	4916.99
941.363	4869.08
941.67	4888.52
941.977	4841.06
942.284	4813.94
942.591	4800.16
942.898	4785.69
943.205	4798.12
943.511	4810.55
943.818	4705.7
944.125	4727.62
944.431	4654.4
944.738	4684.23
945.044	4622.08
945.35	4578.92
945.657	4580.5
945.963	4565.36
946.269	4572.14
946.575	4553.61
946.881	4519.71
947.187	4499.15
947.493	4483.1
947.799	4458.24
948.105	4471.13
948.41	4408.08
948.716	4459.6
949.022	4405.36
949.327	4436.32
949.633	4314.29
949.938	4324.91
950.244	4353.39
950.549	4317.23
950.854	4262.54
951.16	4248.31
951.465	4227.97
951.77	4214.41
952.075	4194.75
952.38	4168.31
952.685	4188.19
952.99	4194.3
953.294	4143.9
953.599	4093.51
953.904	4075.2
954.209	4078.59
954.513	4069.1
954.818	4028.88
955.122	4075.88
955.426	4002.66
955.731	3994.75
956.035	3975.77
956.339	3922.89
956.643	3939.39
956.948	3921.99
957.252	3875.43
957.556	3892.84
957.86	3898.03
958.163	3902.1
958.467	3869.56
958.771	3834.76
959.075	3844.02
959.378	3788.43
959.682	3798.83
959.985	3762.22
960.289	3752.95
960.592	3737.13
960.896	3710.47
961.199	3702.11
961.502	3727.64
961.805	3717.02
962.108	3664.59
962.411	3619.17
962.714	3634.99
963.017	3591.15
963.32	3625.05
963.623	3612.62
963.926	3569.23
964.228	3541.21
964.531	3501.89
964.833	3533.97
965.136	3478.61
965.438	3499.17
965.741	3486.29
966.043	3450.59
966.345	3438.38
966.648	3421.89
966.95	3413.53
967.252	3371.49
967.554	3383.24
967.856	3309.12
968.158	3339.63
968.46	3322.23
968.761	3345.05
969.063	3307.54
969.365	3282
969.666	3271.16
969.968	3251.5
970.269	3271.61
970.571	3235.45
970.872	3192.06
971.174	3212.63
971.475	3169.24
971.776	3196.13
972.077	3161.1
972.378	3205.17
972.679	3176.92
972.98	3128.79
973.281	3136.02
973.582	3087.43
973.883	3078.85
974.183	3104.38
974.484	3101.44
974.785	3050.6
975.085	3012.86
975.386	3060.99
975.686	3002.01
975.986	2995.23
976.287	2942.58
976.587	2944.61
976.887	2964.05
977.187	2941
977.487	2929.92
977.787	2899.64
978.087	2916.82
978.387	2897.61
978.687	2873.65
978.987	2884.27
979.286	2857.61
979.586	2845.41
979.885	2842.47
980.185	2780.55
980.484	2833.65
980.784	2809.47
981.083	2818.97
981.382	2748.68
981.682	2753.66
981.981	2712.53
982.28	2756.37
982.579	2729.02
982.878	2719.08
983.177	2712.75
983.475	2688.35
983.774	2635.24
984.073	2660.1
984.372	2656.03
984.67	2648.8
984.969	2623.94
985.267	2609.03
985.566	2609.25
985.864	2562.47
986.162	2557.96
986.461	2552.08
986.759	2555.7
987.057	2545.53
987.355	2535.58
987.653	2517.96
987.951	2484.51
988.249	2492.87
988.547	2515.92
988.844	2479.99
989.142	2458.07
989.44	2488.35
989.737	2461.69
990.035	2439.77
990.332	2394.34
990.63	2378.98
990.927	2378.98
991.224	2371.07
991.521	2367
991.819	2367.9
992.116	2383.95
992.413	2335.81
992.71	2346.66
993.006	2360.9
993.303	2322.71
993.6	2304.85
993.897	2304.85
994.193	2269.6
994.49	2252.65
994.787	2264.18
995.083	2248.36
995.379	2232.77
995.676	2227.34
995.972	2206.1
996.268	2178.3
996.565	2198.64
996.861	2183.05
997.157	2177.63
997.453	2161.58
997.749	2131.3
998.044	2125.42
998.34	2127.68
998.636	2103.28
998.932	2111.64
999.227	2098.98
999.523	2114.35
999.818	2052.88
1000.114	2072.54
1000.409	2057.4
1000.704	2032.77
1001	2027.8
1001.295	2026.67
1001.59	2015.82
1001.885	2001.36
1002.18	1985.77
1002.475	1953.68
1002.77	1949.16
1003.065	1952.77
1003.359	1969.72
1003.654	1932.89
1003.949	1929.95
1004.243	1914.36
1004.538	1891.31
1004.832	1913.23
1005.127	1885.2
1005.421	1861.48
1005.715	1831.65
1006.009	1863.28
1006.304	1847.24
1006.598	1841.14
1006.892	1778.54
1007.186	1789.16
1007.48	1813.79
1007.773	1784.87
1008.067	1791.87
1008.361	1738.54
1008.655	1748.03
1008.948	1763.4
1009.242	1735.38
1009.535	1745.1
1009.829	1720.01
1010.122	1698.99
1010.415	1691.99
1010.708	1690.18
1011.001	1699.9
1011.295	1656.06
1011.588	1686.11
1011.881	1650.63
1012.173	1663.06
1012.466	1630.07
1012.759	1615.61
1013.052	1606.34
1013.344	1591.2
1013.637	1605.66
1013.93	1593.46
1014.222	1575.16
1014.514	1564.76
1014.807	1586.23
1015.099	1541.03
1015.391	1554.82
1015.683	1514.14
1015.976	1544.2
1016.268	1503.75
1016.56	1473.69
1016.851	1486.35
1017.143	1463.52
1017.435	1456.29
1017.727	1458.32
1018.018	1450.87
1018.31	1450.87
1018.602	1455.61
1018.893	1438.66
1019.185	1409.06
1019.476	1415.39
1019.767	1384.88
1020.058	1390.3
1020.35	1378.33
1020.641	1377.87
1020.932	1356.63
1021.223	1344.65
1021.514	1335.84
1021.804	1327.03
1022.095	1355.28
1022.386	1305.78
1022.677	1294.94
1022.967	1313.69
1023.258	1319.34
1023.548	1295.84
1023.839	1285.67
1024.129	1294.03
1024.419	1268.72
1024.709	1256.07
1025	1236.63
1025.29	1253.81
1025.58	1235.96
1025.87	1227.59
1026.16	1234.37
1026.449	1225.11
1026.739	1200.93
1027.029	1223.75
1027.319	1181.27
1027.608	1173.58
1027.898	1167.94
1028.187	1162.29
1028.477	1147.82
1028.766	1151.44
1029.055	1143.98
1029.344	1132.23
1029.634	1102.85
1029.923	1109.18
1030.212	1110.08
1030.501	1120.03
1030.79	1119.58
1031.078	1083.64
1031.367	1097.88
1031.656	1092.91
1031.945	1080.03
1032.233	1070.31
1032.522	1060.37
1032.81	1052.23
1033.099	1034.15
1033.387	1045.23
1033.675	1052.23
1033.963	1041.61
1034.251	1031.67
1034.54	1003.42
1034.828	1001.61
1035.116	1000.03
1035.403	1006.36
1035.691	994.15
1035.979	1005.91
1036.267	981.27
1036.554	950.54
1036.842	947.83
1037.129	940.6
1037.417	970.65
1037.704	954.16
1037.992	929.75
1038.279	922.52
1038.566	921.61
1038.853	921.61
1039.14	921.61
