Data from hue_220_FLMS001491_00076.txt Node
Date: Tue Feb 07 16:39:55 GMT 2017
User: dcchb
Spectrometer: FLMS00149
Trigger mode: 0
Integration Time (sec): 2.000000E-2
Scans to average: 10
Electric dark correction enabled: true
Nonlinearity correction enabled: false
Boxcar width: 0
XAxis mode: Wavelengths
Number of Pixels in Spectrum: 2048
>>>>>Begin Spectral Data<<<<<
341.393	-27.34
341.776	-27.34
342.16	-27.34
342.543	-62.37
342.927	-69.6
343.31	-73.44
343.693	-63.73
344.077	-80.68
344.46	-47
344.843	-49.49
345.226	-28.7
345.61	-32.09
345.993	-6.55
346.376	3.16
346.759	22.15
347.142	6.78
347.525	41.81
347.908	37.29
348.291	68.02
348.674	101.24
349.057	101.24
349.44	115.03
349.823	135.82
350.206	155.93
350.588	172.65
350.971	207
351.354	207.68
351.737	258.07
352.119	232.08
352.502	252.2
352.884	264.4
353.267	277.05
353.65	289.48
354.032	301.24
354.414	305.75
354.797	296.94
355.179	312.53
355.562	312.76
355.944	327.68
356.326	357.5
356.709	358.86
357.091	321.8
357.473	334.45
357.855	317.05
358.238	324.51
358.62	338.3
359.002	309.6
359.384	352.53
359.766	331.74
360.148	331.97
360.53	365.19
360.912	344.85
361.294	321.57
361.676	324.51
362.057	321.8
362.439	314.12
362.821	321.8
363.203	314.57
363.584	311.18
363.966	346.21
364.348	315.25
364.729	312.31
365.111	291.74
365.493	304.4
365.874	317.96
366.256	313.66
366.637	294.46
367.019	312.76
367.4	325.87
367.781	299.88
368.163	292.87
368.544	299.2
368.925	315.25
369.306	328.35
369.688	294.46
370.069	309.82
370.45	302.14
370.831	303.27
371.212	311.63
371.593	324.74
371.974	317.28
372.355	312.53
372.736	296.49
373.117	301.46
373.498	318.64
373.879	309.82
374.26	313.21
374.641	303.27
375.021	322.93
375.402	326.77
375.783	310.27
376.163	326.55
376.544	328.35
376.925	306.21
377.305	328.8
377.686	308.24
378.066	316.38
378.447	324.29
378.827	313.44
379.208	320.44
379.588	322.93
379.968	346.43
380.349	347.79
380.729	360.44
381.109	340.78
381.489	326.09
381.87	355.7
382.25	323.61
382.63	358.18
383.01	343.72
383.39	344.62
383.77	331.06
384.15	344.85
384.53	338.75
384.91	342.59
385.29	358.63
385.67	335.58
386.049	340.33
386.429	353.44
386.809	349.14
387.189	347.56
387.568	341.01
387.948	332.87
388.328	342.82
388.707	356.15
389.087	365.87
389.466	360.22
389.846	348.24
390.225	365.64
390.605	369.48
390.984	366.32
391.363	353.89
391.743	367.9
392.122	373.1
392.501	367.9
392.881	364.51
393.26	385.07
393.639	372.87
394.018	371.74
394.397	377.17
394.776	381.01
395.155	371.29
395.534	361.8
395.913	363.83
396.292	368.58
396.671	396.37
397.05	388.24
397.429	398.41
397.808	400.89
398.186	402.7
398.565	404.96
398.944	414.45
399.323	403.38
399.701	393.89
400.08	386.88
400.458	410.16
400.837	407.45
401.215	427.56
401.594	414.45
401.972	413.32
402.351	416.94
402.729	410.84
403.107	407.45
403.486	419.2
403.864	425.53
404.242	427.33
404.62	435.47
404.999	436.15
405.377	453.55
405.755	454.45
406.133	461.68
406.511	456.26
406.889	453.77
407.267	468.46
407.645	489.93
408.023	492.64
408.401	476.15
408.779	471.17
409.156	491.51
409.534	509.14
409.912	497.16
410.29	530.83
410.667	536.48
411.045	546.2
411.422	534.9
411.8	543.94
412.178	549.59
412.555	559.76
412.933	573.77
413.31	590.72
413.687	567.44
414.065	603.6
414.442	588.91
414.819	598.63
415.197	606.54
415.574	632.98
415.951	632.75
416.328	627.55
416.705	648.8
417.082	655.35
417.46	637.72
417.837	675.91
418.214	659.42
418.591	670.94
418.967	665.75
419.344	701.9
419.721	677.27
420.098	700.55
420.475	724.05
420.852	751.84
421.228	751.39
421.605	759.08
421.982	750.49
422.358	753.2
422.735	794.78
423.111	803.82
423.488	790.94
423.864	798.62
424.241	860.54
424.617	837.49
424.994	879.3
425.37	878.39
425.746	888.56
426.123	885.63
426.499	884.27
426.875	943.25
427.251	947.32
427.627	949.35
428.003	962.46
428.379	993.19
428.756	967.43
429.132	1027.09
429.507	1022.35
429.883	1053.08
430.259	1044.72
430.635	1049.69
431.011	1057.83
431.387	1081.33
431.763	1090.59
432.138	1103.7
432.514	1147.54
432.89	1128.33
433.265	1155.68
433.641	1188.22
434.016	1177.6
434.392	1225.05
434.767	1235.45
435.143	1260.31
435.518	1284.49
435.894	1313.19
436.269	1316.58
436.644	1323.81
437.02	1360.64
437.395	1357.03
437.77	1400.19
438.145	1455.78
438.52	1463.69
438.895	1456.68
439.271	1474.31
439.646	1519.28
440.021	1525.84
440.395	1560.18
440.77	1557.02
441.145	1561.09
441.52	1597.92
441.895	1614.65
442.27	1619.17
442.645	1619.84
443.019	1657.36
443.394	1677.47
443.769	1704.81
444.143	1715.89
444.518	1753.17
444.892	1730.35
445.267	1740.29
445.641	1730.58
446.016	1800.86
446.39	1788.43
446.764	1809.9
447.139	1799.95
447.513	1814.87
447.887	1843.79
448.262	1828.43
448.636	1851.93
449.01	1870.23
449.384	1877.24
449.758	1916.79
450.132	1916.33
450.506	1944.81
450.88	1957.91
451.254	1958.82
451.628	2000.17
452.002	2030
452.376	2013.51
452.75	2045.6
453.123	2034.75
453.497	2112.71
453.871	2062.09
454.244	2118.14
454.618	2167.17
454.992	2123.33
455.365	2192.71
455.739	2196.55
456.112	2244.69
456.486	2266.83
456.859	2252.37
457.232	2336.66
457.606	2306.15
457.979	2317.23
458.352	2364.01
458.725	2399.48
459.099	2470.22
459.472	2474.29
459.845	2458.69
460.218	2490.33
460.591	2543.89
460.964	2516.09
461.337	2602.87
461.71	2639.03
462.083	2650.33
462.456	2649.87
462.829	2650.33
463.201	2697.78
463.574	2715.18
463.947	2757.22
464.32	2804.45
464.692	2804.22
465.065	2817.1
465.438	2883.54
465.81	2938
466.183	2940.49
466.555	2988.4
466.928	2996.98
467.3	2974.84
467.672	3022.97
468.045	3104.33
468.417	3107.26
468.789	3130.09
469.161	3185.23
469.534	3204.66
469.906	3283.08
470.278	3322.62
470.65	3346.58
471.022	3402.62
471.394	3437.88
471.766	3468.84
472.138	3512.68
472.51	3577.08
472.882	3625.89
473.253	3660.47
473.625	3698.21
473.997	3797.19
474.369	3775.04
474.74	3817.07
475.112	3869.28
475.484	3897.98
475.855	3969.61
476.227	4022.49
476.598	4128.03
476.97	4142.49
477.341	4246.89
477.713	4286.44
478.084	4262.94
478.455	4378.87
478.827	4423.61
479.198	4541.8
479.569	4524.85
479.94	4601.01
480.311	4644.4
480.682	4763.94
481.053	4843.26
481.424	4856.6
481.795	4903.15
482.166	4989.02
482.537	5019.53
482.908	5134.55
483.279	5208.9
483.65	5245.74
484.021	5366.19
484.391	5388.11
484.762	5424.72
485.133	5456.13
485.503	5526.63
485.874	5642.34
486.244	5660.42
486.615	5764.59
486.985	5736.8
487.356	5895.66
487.726	5956.23
488.097	6019.28
488.467	5999.62
488.837	6203.45
489.207	6241.87
489.578	6262.89
489.948	6296.56
490.318	6413.84
490.688	6431.02
491.058	6512.15
491.428	6550.34
491.798	6683.67
492.168	6701.74
492.538	6762.31
492.908	6827.17
493.278	6847.05
493.648	6819.26
494.017	6960.72
494.387	7007.95
494.757	7014.5
495.126	7037.78
495.496	7098.12
495.866	7174.73
496.235	7206.82
496.605	7228.51
496.974	7338.34
497.344	7319.13
497.713	7363.87
498.082	7347.38
498.452	7483.19
498.821	7416.98
499.19	7506.47
499.559	7550.31
499.928	7573.81
500.298	7611.1
500.667	7680.48
501.036	7603.87
501.405	7692.91
501.774	7660.14
502.143	7729.06
502.512	7717.54
502.88	7774.94
503.249	7820.36
503.618	7863.3
503.987	7852.9
504.356	7887.93
504.724	7876.86
505.093	7894.26
505.462	7931.99
505.83	7966.8
506.199	7969.73
506.567	8064.19
506.936	8080.69
507.304	8176.28
507.672	8134.48
508.041	8148.26
508.409	8191.87
508.777	8220.12
509.145	8233.91
509.514	8236.85
509.882	8282.04
510.25	8251.76
510.618	8289.05
510.986	8310.97
511.354	8306.9
511.722	8402.49
512.09	8401.59
512.458	8357.29
512.826	8448.37
513.193	8439.1
513.561	8450.85
513.929	8485.88
514.297	8486.33
514.664	8497.86
515.032	8488.59
515.4	8522.49
515.767	8548.93
516.135	8574.24
516.502	8548.93
516.869	8651.52
517.237	8622.15
517.604	8512.77
517.972	8588.47
518.339	8608.59
518.706	8656.04
519.073	8583.5
519.44	8624.63
519.808	8649.94
520.175	8667.79
520.542	8689.49
520.909	8750.05
521.276	8668.92
521.643	8688.36
522.009	8701.47
522.376	8787.11
522.743	8759.77
523.11	8783.27
523.477	8828.92
523.843	8767.91
524.21	8826.43
524.577	8960.67
524.943	8850.61
525.31	8909.37
525.676	8903.95
526.043	8915.02
526.409	8879.99
526.776	8999.31
527.142	8950.05
527.508	8987.79
527.874	9023.49
528.241	9013.55
528.607	8926.32
528.973	9000.89
529.339	8990.95
529.705	9044.28
530.071	9016.26
530.437	9012.64
530.803	9020.1
531.169	8987.56
531.535	8976.94
531.901	8995.24
532.267	8973.78
532.632	9009.48
532.998	8982.59
533.364	9008.58
533.73	8967.9
534.095	9003.61
534.461	9016.94
534.826	8990.72
535.192	8988.24
535.557	9000.44
535.923	8981.91
536.288	8953.89
536.653	8902.59
537.019	8852.42
537.384	8890.39
537.749	8886.32
538.114	8868.24
538.479	8865.98
538.845	8834.57
539.21	8851.74
539.575	8797.73
539.94	8803.16
540.305	8817.4
540.67	8692.43
541.034	8703.27
541.399	8725.87
541.764	8718.19
542.129	8733.78
542.494	8667.79
542.858	8740.11
543.223	8684.74
543.587	8717.06
543.952	8656.5
544.316	8668.02
544.681	8539.44
545.045	8598.19
545.41	8590.06
545.774	8577.63
546.138	8621.92
546.503	8501.25
546.867	8490.17
547.231	8514.58
547.595	8507.57
547.959	8518.65
548.324	8498.53
548.688	8471.87
549.052	8446.56
549.416	8422.83
549.779	8422.6
550.143	8359.55
550.507	8369.05
550.871	8327.46
551.235	8312.1
551.599	8288.37
551.962	8383.28
552.326	8321.82
552.689	8292.44
553.053	8230.97
553.417	8242.95
553.78	8324.3
554.143	8273.68
554.507	8271.42
554.87	8241.59
555.234	8263.29
555.597	8226.45
555.96	8212.89
556.323	8209.95
556.686	8170.41
557.05	8162.05
557.413	8205.89
557.776	8197.52
558.139	8184.64
558.502	8122.05
558.865	8075.72
559.228	8176.28
559.59	8180.12
559.953	8178.77
560.316	8205.43
560.679	8235.94
561.041	8216.06
561.404	8274.13
561.767	8237.52
562.129	8176.96
562.492	8282.04
562.854	8200.24
563.217	8218.77
563.579	8260.57
563.941	8262.38
564.304	8275.26
564.666	8291.53
565.028	8229.84
565.39	8250.86
565.753	8324.07
566.115	8294.7
566.477	8356.39
566.839	8324.3
567.201	8325.2
567.563	8341.48
567.925	8406.78
568.287	8404.75
568.648	8382.15
569.01	8444.98
569.372	8494.92
569.734	8459.89
570.095	8427.8
570.457	8538.53
570.819	8478.42
571.18	8472.55
571.542	8536.72
571.903	8485.2
572.265	8543.73
572.626	8551.64
572.987	8550.51
573.349	8567.68
573.71	8589.83
574.071	8624.86
574.432	8618.08
574.794	8749.15
575.155	8720.67
575.516	8720.9
575.877	8705.76
576.238	8685.65
576.599	8747.11
576.96	8732.88
577.32	8758.19
577.681	8773.33
578.042	8798.19
578.403	8792.99
578.763	8892.65
579.124	8877.73
579.485	8941.01
579.845	8906.21
580.206	8928.58
580.566	8983.49
580.927	8937.17
581.287	9044.96
581.648	8946.21
582.008	8965.19
582.368	9018.52
582.728	9027.56
583.089	8969.93
583.449	9062.36
583.809	9111.4
584.169	9062.36
584.529	9086.09
584.889	9140.78
585.249	9144.17
585.609	9100.1
585.969	9179.42
586.329	9184.62
586.688	9227.55
587.048	9278.63
587.408	9167.22
587.768	9248.8
588.127	9251.28
588.487	9247.44
588.846	9286.08
589.206	9248.12
589.565	9294.22
589.925	9298.06
590.284	9287.89
590.643	9306.65
591.003	9316.82
591.362	9390.26
591.721	9384.61
592.08	9372.41
592.44	9383.26
592.799	9432.75
593.158	9397.94
593.517	9331.51
593.876	9424.84
594.235	9399.53
594.593	9397.49
594.952	9412.18
595.311	9422.13
595.67	9444.95
596.029	9491.28
596.387	9526.53
596.746	9553.65
597.104	9463.93
597.463	9501.67
597.822	9526.53
598.18	9515
598.538	9461.9
598.897	9525.17
599.255	9460.99
599.613	9634.1
599.972	9506.42
600.33	9584.83
600.688	9526.98
601.046	9623.25
601.404	9625.06
601.762	9597.94
602.12	9623.7
602.478	9563.82
602.836	9645.17
603.194	9524.95
603.552	9625.74
603.91	9608.56
604.268	9627.09
604.625	9620.09
604.983	9704.6
605.341	9637.03
605.698	9715.22
606.056	9676.36
606.413	9660.08
606.771	9698.95
607.128	9672.51
607.485	9661.44
607.843	9662.57
608.2	9684.04
608.557	9758.61
608.914	9742.12
609.272	9661.89
609.629	9746.86
609.986	9816.92
610.343	9790.93
610.7	9855.56
611.057	9801.32
611.414	9797.48
611.771	9849.46
612.127	9814.21
612.484	9830.25
612.841	9788.22
613.198	9819.63
613.554	9808.56
613.911	9893.07
614.267	9879.74
614.624	9881.1
614.98	9827.54
615.337	9930.81
615.693	9908.89
616.05	9921.1
616.406	9916.8
616.762	9859.4
617.118	9919.97
617.475	9934.88
617.831	9945.95
618.187	9965.39
618.543	9940.53
618.899	10071.15
619.255	9990.7
619.611	9916.58
619.967	10054.42
620.323	10043.58
620.678	10014.65
621.034	9937.14
621.39	9985.05
621.746	10039.74
622.101	10127.42
622.457	9961.77
622.812	10017.14
623.168	10066.4
623.523	10037.25
623.879	10108.43
624.234	9985.05
624.589	10089.23
624.945	10068.44
625.3	10007.19
625.655	10025.5
626.01	10023.69
626.365	10050.36
626.72	10048.78
627.075	9973.75
627.43	10056.91
627.785	9988.21
628.14	9990.47
628.495	10024.82
628.85	10023.24
629.205	9956.8
629.559	10013.75
629.914	9930.81
630.269	9969
630.623	9952.05
630.978	9854.43
631.332	9929.91
631.687	9971.04
632.041	9880.19
632.396	9905.5
632.75	9936.01
633.104	9868.89
633.459	9863.47
633.813	9887.42
634.167	9786.86
634.521	9884.03
634.875	9844.26
635.229	9790.48
635.583	9777.6
635.937	9804.26
636.291	9749.12
636.645	9829.8
636.999	9668.9
637.352	9768.33
637.706	9677.49
638.06	9763.13
638.413	9724.04
638.767	9741.89
639.121	9706.41
639.474	9661.89
639.828	9598.62
640.181	9645.17
640.534	9675.23
640.888	9643.81
641.241	9559.75
641.594	9623.25
641.947	9641.78
642.301	9606.98
642.654	9616.92
643.007	9649.69
643.36	9570.37
643.713	9565.85
644.066	9581.67
644.419	9529.24
644.771	9508
645.124	9459.19
645.477	9433.65
645.83	9358.4
646.182	9317.95
646.535	9302.35
646.888	9263.03
647.24	9212.87
647.593	9292.19
647.945	9267.55
648.298	9170.83
648.65	9197.27
649.002	9126.31
649.355	9255.12
649.707	9222.81
650.059	9308.68
650.411	9445.85
650.763	9405.85
651.115	9475.23
651.467	9475.68
651.819	9483.59
652.171	9521.78
652.523	9486.08
652.875	9454.44
653.227	9416.25
653.578	9507.32
653.93	9458.73
654.282	9377.38
654.633	9357.72
654.985	9417.61
655.337	9520.2
655.688	9403.82
656.039	9495.57
656.391	9478.39
656.742	9496.7
657.094	9393.65
657.445	9475.91
657.796	9475.46
658.147	9449.92
658.498	9414.67
658.849	9539.64
659.2	9461.22
659.551	9396.59
659.902	9457.6
660.253	9496.02
660.604	9517.94
660.955	9451.05
661.306	9476.14
661.656	9486.3
662.007	9459.41
662.358	9509.13
662.708	9469.81
663.059	9474.33
663.409	9465.29
663.76	9519.3
664.11	9475.91
664.461	9550.03
664.811	9515.68
665.161	9564.49
665.511	9499.19
665.862	9536.92
666.212	9515.68
666.562	9519.52
666.912	9496.93
667.262	9482.01
667.612	9576.7
667.962	9441.79
668.312	9463.71
668.662	9602.91
669.011	9527.21
669.361	9439.07
669.711	9476.36
670.06	9571.05
670.41	9418.96
670.76	9513.2
671.109	9503.7
671.459	9432.07
671.808	9499.41
672.157	9463.71
672.507	9378.96
672.856	9376.25
673.205	9395.91
673.554	9464.84
673.904	9397.49
674.253	9447.66
674.602	9421.67
674.951	9301.45
675.3	9267.1
675.649	9406.53
675.998	9343.94
676.346	9288.57
676.695	9359.08
677.044	9320.43
677.393	9385.29
677.741	9328.79
678.09	9340.32
678.438	9303.71
678.787	9274.56
679.135	9275.01
679.484	9217.84
679.832	9265.29
680.181	9238.18
680.529	9189.36
680.877	9197.72
681.225	9137.16
681.573	9204.5
681.922	9172.19
682.27	9144.62
682.618	9155.92
682.966	9109.82
683.314	9117.95
683.661	9072.53
684.009	9034.34
684.357	9016.49
684.705	8993.89
685.053	8982.14
685.4	8966.32
685.748	8972.65
686.095	8945.3
686.443	8917.51
686.79	8867.11
687.138	8938.75
687.485	8915.92
687.832	8823.72
688.18	8807.68
688.527	8802.03
688.874	8763.16
689.221	8747.79
689.568	8743.27
689.915	8686.33
690.262	8654.69
690.609	8658.53
690.956	8654.91
691.303	8652.88
691.65	8621.02
691.997	8557.97
692.344	8507.57
692.69	8471.64
693.037	8500.34
693.383	8422.15
693.73	8473
694.077	8364.75
694.423	8380.8
694.769	8338.76
695.116	8369.05
695.462	8282.04
695.808	8293.79
696.155	8260.8
696.501	8147.36
696.847	8227.13
697.193	8096.74
697.539	8168.6
697.885	8093.57
698.231	8018.77
698.577	8056.74
698.923	8051.09
699.269	7985.55
699.614	7961.37
699.96	7970.86
700.306	7957.76
700.651	7864.65
700.997	7844.09
701.342	7807.48
701.688	7808.38
702.033	7798.21
702.379	7706.69
702.724	7726.35
703.069	7689.29
703.415	7649.97
703.76	7612.91
704.105	7625.34
704.45	7633.7
704.795	7529.52
705.14	7515.96
705.485	7508.5
705.83	7450.2
706.175	7477.77
706.52	7430.54
706.865	7378.79
707.209	7401.16
707.554	7352.12
707.899	7409.07
708.243	7327.04
708.588	7257.21
708.932	7200.71
709.277	7249.53
709.621	7247.72
709.966	7218.57
710.31	7156.87
710.654	7167.5
710.998	7133.82
711.342	7141.28
711.687	7061.51
712.031	7089.31
712.375	7044.79
712.719	7072.58
713.063	7057.22
713.407	7082.3
713.75	7042.07
714.094	7024.9
714.438	7003.88
714.782	6997.33
715.125	6964.34
715.469	6966.82
715.812	6968.18
716.156	6880.5
716.499	6936.09
716.843	6930.89
717.186	6856.54
717.53	6954.85
717.873	6886.82
718.216	6876.66
718.559	6914.17
718.902	6796.21
719.246	6842.76
719.589	6834.17
719.932	6796.66
720.275	6815.19
720.617	6812.7
720.96	6780.16
721.303	6779.93
721.646	6771.8
721.989	6785.36
722.331	6786.04
722.674	6781.97
723.016	6725.92
723.359	6757.34
723.701	6798.92
724.044	6745.81
724.386	6658.36
724.729	6728.64
725.071	6714.85
725.413	6697.68
725.755	6678.24
726.097	6626.04
726.439	6635.31
726.782	6647.28
727.124	6692.03
727.465	6649.99
727.807	6627.4
728.149	6610.45
728.491	6619.49
728.833	6667.62
729.175	6621.29
729.516	6624.46
729.858	6651.12
730.199	6656.1
730.541	6635.76
730.882	6665.14
731.224	6651.12
731.565	6619.71
731.906	6606.15
732.248	6573.84
732.589	6632.59
732.93	6616.55
733.271	6612.26
733.612	6613.61
733.953	6657.68
734.294	6636.66
734.635	6604.8
734.976	6605.48
735.317	6594.85
735.658	6634.4
735.999	6611.8
736.339	6556.89
736.68	6635.08
737.021	6671.24
737.361	6591.01
737.702	6659.94
738.042	6611.58
738.383	6635.53
738.723	6661.29
739.063	6683.67
739.404	6688.64
739.744	6673.95
740.084	6613.61
740.424	6741.74
740.764	6699.26
741.104	6777.45
741.444	6695.19
741.784	6749.43
742.124	6778.58
742.464	6786.26
742.804	6729.31
743.143	6800.27
743.483	6818.13
743.823	6804.57
744.162	6820.16
744.502	6892.47
744.841	6950.33
745.181	6916.65
745.52	6983.55
745.86	7064.67
746.199	6982.19
746.538	7098.57
746.877	7167.27
747.216	7164.78
747.556	7186.48
747.895	7275.29
748.234	7238
748.573	7310.54
748.911	7349.64
749.25	7439.58
749.589	7427.15
749.928	7492.68
750.267	7555.96
750.605	7679.57
750.944	7807.7
751.283	7791.43
751.621	7886.12
751.96	7884.09
752.298	8052.22
752.636	8169.73
752.975	8179.22
753.313	8254.47
753.651	8433.9
753.989	8483.84
754.327	8588.02
754.666	8649.04
755.004	8788.47
755.342	8983.04
755.679	9081.57
756.017	9126.99
756.355	9268
756.693	9393.88
757.031	9610.37
757.368	9708.22
757.706	9882.23
758.044	9970.36
758.381	10176.23
758.719	10285.15
759.056	10418.94
759.394	10595.2
759.731	10685.14
760.068	10862.54
760.405	11004.68
760.743	11138.69
761.08	11327.61
761.417	11528.06
761.754	11736.41
762.091	11908.61
762.428	12079.91
762.765	12206.91
763.102	12374.14
763.438	12562.61
763.775	12676.73
764.112	12926.44
764.449	13138.19
764.785	13271.74
765.122	13340.21
765.458	13506.99
765.795	13676.48
766.131	13827.43
766.467	14005.06
766.804	14110.14
767.14	14228.1
767.476	14445.27
767.812	14520.07
768.148	14720.97
768.485	14819.72
768.821	14918.7
769.157	15087.06
769.492	15245.25
769.828	15381.52
770.164	15461.97
770.5	15518.91
770.836	15714.62
771.171	15730.21
771.507	15875.97
771.842	15964.33
772.178	16056.08
772.513	16135.62
772.849	16295.84
773.184	16279.8
773.519	16557.98
773.855	16511.43
774.19	16595.72
774.525	16716.85
774.86	16892.44
775.195	16918.65
775.53	16903.06
775.865	17056.27
776.2	17006.33
776.535	16929.95
776.87	17084.75
777.205	17117.06
777.539	17138.98
777.874	17251.52
778.209	17297.4
778.543	17353.22
778.878	17360.22
779.212	17383.5
779.547	17472.31
779.881	17549.82
780.215	17452.2
780.55	17578.07
780.884	17529.03
781.218	17558.63
781.552	17676.6
781.886	17529.93
782.22	17569.03
782.554	17544.85
782.888	17552.31
783.222	17496.49
783.556	17523.38
783.889	17562.48
784.223	17398.19
784.557	17567.22
784.89	17555.24
785.224	17592.53
785.557	17552.31
785.891	17451.52
786.224	17477.96
786.558	17551.63
786.891	17535.81
787.224	17405.19
787.557	17364.29
787.891	17488.13
788.224	17527.45
788.557	17432.31
788.89	17399.09
789.223	17509.82
789.556	17332.65
789.888	17361.35
790.221	17332.88
790.554	17264.18
790.887	17120.45
791.219	17198.64
791.552	17196.38
791.884	17118.42
792.217	17188.93
792.549	17074.13
792.882	17063.28
793.214	17078.42
793.546	17091.98
793.879	17014.69
794.211	16871.42
794.543	16981.02
794.875	16953.68
795.207	17060.79
795.539	16980.8
795.871	16923.4
796.203	16843.17
796.535	16649.73
796.867	16708.26
797.198	16656.74
797.53	16733.57
797.862	16622.39
798.193	16609.96
798.525	16618.55
798.856	16688.6
799.188	16410.87
799.519	16447.48
799.85	16371.09
800.182	16306.24
800.513	16428.49
800.844	16405.9
801.175	16343.98
801.506	16351.89
801.837	16277.99
802.168	16223.53
802.499	16155.28
802.83	16120.71
803.161	16073.48
803.491	16138.78
803.822	16005.45
804.153	15952.8
804.483	15936.76
804.814	15823.76
805.145	15873.71
805.475	15828.28
805.805	15811.11
806.136	15791.22
806.466	15824.67
806.796	15756.87
807.126	15638.46
807.457	15597.33
807.787	15603.43
808.117	15544.68
808.447	15411.57
808.777	15600.95
809.107	15441.63
809.436	15497.45
809.766	15386.94
810.096	15332.7
810.426	15311.46
810.755	15353.72
811.085	15280.73
811.414	15238.24
811.744	15118.92
812.073	15160.96
812.403	15141.52
812.732	15128.87
813.061	15107.17
813.39	15095.2
813.719	15012.26
814.049	15044.8
814.378	15097.68
814.707	14996.89
815.036	14994.41
815.365	14918.93
815.693	14816.11
816.022	14824.92
816.351	14745.15
816.68	14741.99
817.008	14828.08
817.337	14602.78
817.665	14608.43
817.994	14720.97
818.322	14634.87
818.651	14515.55
818.979	14496.34
819.307	14550.35
819.636	14545.38
819.964	14506.51
820.292	14582.89
820.62	14534.76
820.948	14467.19
821.276	14471.71
821.604	14449.79
821.932	14461.77
822.259	14510.35
822.587	14478.72
822.915	14363.24
823.243	14527.3
823.57	14377.48
823.898	14424.71
824.225	14335.67
824.553	14331.6
824.88	14381.09
825.207	14426.97
825.535	14429.68
825.862	14503.12
826.189	14421.54
826.516	14482.56
826.843	14462.22
827.17	14514.42
827.497	14453.18
827.824	14483.24
828.151	14567.53
828.478	14428.32
828.805	14459.05
829.131	14443.69
829.458	14455.21
829.785	14337.02
830.111	14457.25
830.438	14540.18
830.764	14480.3
831.09	14498.83
831.417	14394.88
831.743	14393.29
832.069	14464.7
832.395	14419.28
832.722	14347.42
833.048	14422.45
833.374	14407.98
833.7	14428.77
834.026	14395.1
834.351	14381.54
834.677	14370.02
835.003	14364.82
835.329	14408.66
835.654	14395.78
835.98	14312.84
836.306	14378.15
836.631	14276.23
836.956	14324.82
837.282	14294.54
837.607	14223.58
837.932	14262
838.258	14199.63
838.583	14253.18
838.908	14082.79
839.233	14132.51
839.558	14071.72
839.883	14041.21
840.208	14029.46
840.533	14032.4
840.858	14050.48
841.182	14052.96
841.507	14015
841.832	13922.57
842.156	13957.37
842.481	13910.37
842.805	13843.03
843.13	13790.15
843.454	13837.83
843.778	13761.9
844.103	13708.11
844.427	13735.91
844.751	13708.11
845.075	13672.63
845.399	13549.25
845.723	13488.01
846.047	13536.37
846.371	13431.96
846.695	13451.85
847.019	13352.19
847.343	13264.06
847.666	13263.61
847.99	13149.48
848.313	13191.29
848.637	13051.86
848.96	13060.67
849.284	12989.49
849.607	12929.38
849.931	12896.16
850.254	12856.84
850.577	12711.08
850.9	12695.71
851.223	12625.2
851.546	12605.32
851.869	12505.66
852.192	12563.74
852.515	12511.54
852.838	12408.04
853.161	12417.3
853.483	12360.35
853.806	12347.92
854.129	12268.6
854.451	12251.43
854.774	12207.59
855.096	12123.52
855.419	12144.99
855.741	12106.35
856.063	11924.21
856.385	11980.7
856.708	11919.46
857.03	11936.64
857.352	11946.35
857.674	11857.99
857.996	11833.36
858.318	11779.58
858.64	11735.06
858.961	11725.34
859.283	11661.39
859.605	11605.12
859.926	11602.18
860.248	11492.81
860.57	11598.34
860.891	11568.74
861.212	11504.1
861.534	11481.96
861.855	11457.33
862.176	11413.71
862.498	11358.35
862.819	11452.13
863.14	11382.98
863.461	11366.48
863.782	11299.59
864.103	11314.5
864.424	11259.14
864.745	11244.68
865.065	11243.09
865.386	11240.16
865.707	11072.03
866.027	11138.92
866.348	11152.7
866.668	11125.13
866.989	11060.95
867.309	11011.46
867.63	11094.62
867.95	11048.07
868.27	10974.4
868.59	11001.29
868.91	10980.5
869.23	10987.06
869.55	10880.17
869.87	10974.63
870.19	10851.92
870.51	10896.66
870.83	10947.96
871.15	10823.67
871.469	10858.47
871.789	10868.87
872.109	10813.05
872.428	10805.82
872.748	10868.19
873.067	10742.77
873.386	10717.91
873.706	10766.27
874.025	10660.51
874.344	10700.28
874.663	10761.3
874.982	10679.95
875.301	10722.66
875.62	10649.21
875.939	10585.94
876.258	10617.35
876.577	10598.82
876.896	10570.34
877.214	10539.16
877.533	10540.29
877.852	10504.36
878.17	10480.63
878.489	10538.03
878.807	10546.84
879.125	10452.15
879.444	10450.35
879.762	10395.66
880.08	10386.62
880.398	10379.84
880.716	10384.81
881.034	10289.67
881.352	10336.68
881.67	10233.18
881.988	10299.62
882.306	10247.87
882.624	10215.55
882.941	10188.43
883.259	10167.64
883.577	10124.93
883.894	10138.04
884.212	10132.84
884.529	10060.75
884.846	10057.36
885.164	10068.44
885.481	9959.29
885.798	9946.63
886.115	9982.79
886.432	9926.29
886.75	9954.99
887.067	9877.93
887.383	9886.97
887.7	9850.81
888.017	9798.16
888.334	9820.76
888.651	9835.22
888.967	9741.44
889.284	9723.13
889.6	9692.63
889.917	9585.06
890.233	9652.63
890.55	9582.57
890.866	9625.96
891.182	9529.92
891.498	9515.91
891.815	9438.4
892.131	9463.25
892.447	9446.98
892.763	9427.77
893.079	9413.99
893.395	9370.83
893.71	9323.6
894.026	9319.75
894.342	9322.01
894.657	9198.4
894.973	9236.82
895.289	9199.31
895.604	9186.65
895.92	9077.73
896.235	9088.35
896.55	9099.87
896.865	9081.12
897.181	9034.56
897.496	9040.67
897.811	8971.97
898.126	8916.38
898.441	8919.09
898.756	8839.32
899.071	8826.43
899.386	8798.41
899.7	8752.76
900.015	8692.43
900.33	8663.28
900.644	8636.61
900.959	8623.05
901.273	8591.19
901.588	8541.92
901.902	8537.18
902.216	8551.19
902.531	8499.44
902.845	8483.62
903.159	8409.72
903.473	8376.5
903.787	8319.33
904.101	8227.81
904.415	8301.48
904.729	8222.61
905.042	8168.37
905.356	8130.18
905.67	8153.01
905.984	8163.63
906.297	8131.09
906.611	8022.84
906.924	8077.98
907.237	7950.75
907.551	8007.7
907.864	7917.98
908.177	7876.86
908.491	7920.24
908.804	7849.06
909.117	7809.51
909.43	7752.79
909.743	7677.99
910.056	7641.16
910.368	7651.55
910.681	7612.46
910.994	7612.91
911.307	7552.57
911.619	7460.37
911.932	7517.99
912.244	7411.56
912.557	7462.18
912.869	7380.6
913.181	7346.47
913.494	7358.22
913.806	7332.24
914.118	7308.06
914.43	7242.3
914.742	7248.85
915.054	7214.73
915.366	7179.92
915.678	7128.85
915.99	7125.46
916.302	7039.81
916.613	7056.09
916.925	7059.7
917.236	6985.35
917.548	6967.73
917.859	6944.45
918.171	6880.5
918.482	6896.09
918.794	6847.5
919.105	6854.74
919.416	6785.13
919.727	6766.15
920.038	6765.25
920.349	6686.15
920.66	6697.45
920.971	6683.44
921.282	6644.8
921.593	6666.49
921.903	6585.14
922.214	6549.66
922.525	6532.26
922.835	6467.63
923.146	6424.92
923.456	6422.66
923.767	6440.51
924.077	6384.46
924.387	6389.44
924.697	6299.27
925.008	6267.63
925.318	6291.36
925.628	6316.22
925.938	6226.95
926.248	6196
926.558	6146.05
926.867	6128.43
927.177	6111.7
927.487	6123.45
927.796	6087.75
928.106	6056.34
928.416	6040.97
928.725	6067.64
929.034	5989.9
929.344	6007.3
929.653	5967.98
929.962	5960.3
930.271	5880.07
930.581	5874.42
930.89	5847.08
931.199	5793.29
931.508	5771.6
931.817	5834.42
932.125	5741.54
932.434	5742.67
932.743	5703.58
933.051	5673.3
933.36	5624.71
933.669	5633.52
933.977	5619.29
934.286	5615.45
934.594	5586.52
934.902	5539.74
935.21	5493.64
935.519	5475.11
935.827	5490.25
936.135	5464.72
936.443	5431.27
936.751	5391.04
937.059	5428.56
937.367	5391.27
937.674	5337.26
937.982	5338.84
938.29	5267.66
938.597	5328
938.905	5227.89
939.213	5192.86
939.52	5188.11
939.827	5249.35
940.135	5181.56
940.442	5161.67
940.749	5144.72
941.056	5110.37
941.363	5041.9
941.67	5102.01
941.977	5019.98
942.284	5003.71
942.591	4944.95
942.898	4953.77
943.205	4923.49
943.511	4902.47
943.818	4909.93
944.125	4909.25
944.431	4870.15
944.738	4878.52
945.044	4786.77
945.35	4801.68
945.657	4723.49
945.963	4730.72
946.269	4742.02
946.575	4768.24
946.881	4692.08
947.187	4714.9
947.493	4710.84
947.799	4643.04
948.105	4651.4
948.41	4603.27
948.716	4594
949.022	4541.35
949.327	4549.94
949.633	4557.17
949.938	4494.35
950.244	4493.22
950.549	4513.1
950.854	4402.14
951.16	4417.51
951.465	4379.55
951.77	4424.97
952.075	4378.64
952.38	4375.25
952.685	4313.33
952.99	4281.24
953.294	4285.76
953.599	4296.84
953.904	4247.35
954.209	4253.67
954.513	4239.89
954.818	4217.29
955.122	4150.17
955.426	4177.52
955.731	4147.24
956.035	4137.97
956.339	4132.32
956.643	4076.5
956.948	4102.04
957.252	4050.97
957.556	4042.61
957.86	4037.86
958.163	4013.45
958.467	3974.58
958.771	3971.2
959.075	3949.27
959.378	3955.38
959.682	3939.33
959.985	3893.46
960.289	3915.38
960.592	3841.93
960.896	3843.29
961.199	3868.15
961.502	3807.81
961.805	3795.83
962.108	3803.97
962.411	3788.6
962.714	3763.74
963.017	3726.23
963.32	3763.52
963.623	3746.79
963.926	3722.61
964.228	3673.8
964.531	3668.83
964.833	3679.68
965.136	3636.97
965.438	3627.48
965.741	3576.18
966.043	3609.4
966.345	3599.91
966.648	3573.24
966.95	3607.59
967.252	3524.88
967.554	3511.09
967.856	3522.17
968.158	3446.24
968.46	3443.75
968.761	3448.72
969.063	3435.39
969.365	3437.88
969.666	3407.14
969.968	3364.88
970.269	3340.03
970.571	3332.12
970.872	3354.49
971.174	3340.48
971.475	3329.86
971.776	3282.17
972.077	3264.55
972.378	3272
972.679	3257.99
972.98	3285.11
973.281	3217.54
973.582	3268.39
973.883	3195.17
974.183	3184.1
974.484	3195.62
974.785	3171.67
975.085	3169.86
975.386	3161.5
975.686	3146.81
975.986	3144.55
976.287	3069.98
976.587	3092.12
976.887	3059.81
977.187	3088.96
977.487	3011.22
977.787	3020.26
978.087	3033.37
978.387	3003.08
978.687	2961.05
978.987	2976.42
979.286	2942.3
979.586	2947.72
979.885	2935.52
980.185	2899.58
980.484	2886.03
980.784	2885.57
981.083	2919.02
981.382	2926.7
981.682	2865.01
981.981	2839.7
982.28	2842.19
982.579	2787.05
982.878	2827.5
983.177	2802.86
983.475	2760.61
983.774	2756.31
984.073	2759.02
984.372	2734.39
984.67	2731.45
984.969	2715.18
985.267	2701.62
985.566	2665.92
985.864	2711.79
986.162	2672.92
986.461	2659.82
986.759	2635.86
987.057	2585.24
987.355	2618.24
987.653	2597.22
987.951	2603.1
988.249	2574.4
988.547	2605.13
988.844	2561.06
989.142	2583.43
989.44	2551.12
989.737	2532.14
990.035	2535.53
990.332	2526.04
990.63	2506.37
990.927	2458.01
991.224	2465.7
991.521	2463.89
991.819	2484.45
992.116	2427.28
992.413	2409.88
992.71	2415.76
993.006	2394.06
993.303	2378.92
993.6	2414.63
993.897	2365.36
994.193	2359.26
994.49	2360.62
994.787	2340.05
995.083	2309.54
995.379	2327.4
995.676	2323.78
995.972	2277.91
996.268	2256.89
996.565	2275.42
996.861	2262.54
997.157	2273.61
997.453	2239.49
997.749	2187.51
998.044	2193.61
998.34	2206.95
998.636	2187.29
998.932	2182.99
999.227	2169.66
999.523	2158.14
999.818	2154.97
1000.114	2098.02
1000.409	2138.25
1000.704	2108.42
1001	2083.56
1001.295	2079.72
1001.59	2106.84
1001.885	2078.14
1002.18	2043.11
1002.475	2038.14
1002.77	2015.54
1003.065	2026.39
1003.359	2005.6
1003.654	2008.31
1003.949	1993.17
1004.243	1998.37
1004.538	1978.93
1004.832	1974.41
1005.127	1928.99
1005.421	1952.94
1005.715	1912.27
1006.009	1889.22
1006.304	1911.59
1006.598	1870.23
1006.892	1868.65
1007.186	1849.22
1007.48	1869.56
1007.773	1857.58
1008.067	1831.82
1008.361	1818.03
1008.655	1803.57
1008.948	1773.29
1009.242	1797.92
1009.535	1771.48
1009.829	1767.41
1010.122	1741.2
1010.415	1745.49
1010.708	1751.59
1011.001	1750.24
1011.295	1727.86
1011.588	1708.88
1011.881	1690.8
1012.173	1710.69
1012.466	1700.97
1012.759	1656.45
1013.052	1666.62
1013.344	1646.51
1013.637	1650.35
1013.93	1621.65
1014.222	1616.68
1014.514	1597.25
1014.807	1599.73
1015.099	1605.38
1015.391	1583.24
1015.683	1599.05
1015.976	1576.23
1016.268	1545.5
1016.56	1559.28
1016.851	1526.74
1017.143	1534.65
1017.435	1533.74
1017.727	1516.57
1018.018	1516.8
1018.31	1474.76
1018.602	1489
1018.893	1473.86
1019.185	1464.59
1019.476	1470.24
1019.767	1443.13
1020.058	1427.76
1020.35	1426.4
1020.641	1426.63
1020.932	1391.15
1021.223	1415.1
1021.514	1382.34
1021.804	1361.09
1022.095	1355.44
1022.386	1314.77
1022.677	1380.75
1022.967	1347.54
1023.258	1331.94
1023.548	1346.63
1023.839	1337.37
1024.129	1292.62
1024.419	1304.37
1024.709	1300.3
1025	1263.47
1025.29	1279.74
1025.58	1274.99
1025.87	1255.56
1026.16	1221.89
1026.449	1276.35
1026.739	1250.36
1027.029	1245.62
1027.319	1220.53
1027.608	1199.29
1027.898	1219.18
1028.187	1191.83
1028.477	1202.91
1028.766	1195.45
1029.055	1187.31
1029.344	1165.17
1029.634	1138.73
1029.923	1154.32
1030.212	1168.33
1030.501	1124.26
1030.79	1147.99
1031.078	1117.03
1031.367	1122.23
1031.656	1088.33
1031.945	1073.19
1032.233	1091.5
1032.522	1054.66
1032.81	1074.55
1033.099	1088.78
1033.387	1075.68
1033.675	1066.19
1033.963	1060.54
1034.251	1057.6
1034.54	1049.92
1034.828	1046.53
1035.116	1034.55
1035.403	1004.04
1035.691	1006.08
1035.979	1002.01
1036.267	1007.66
1036.554	988.67
1036.842	994.1
1037.129	1009.46
1037.417	992.97
1037.704	977.6
1037.992	966.98
1038.279	966.08
1038.566	933.99
1038.853	933.99
1039.14	933.99
