Data from hue_250_FLMS001491_00033.txt Node
Date: Tue Feb 07 16:00:53 GMT 2017
User: dcchb
Spectrometer: FLMS00149
Trigger mode: 0
Integration Time (sec): 2.000000E-2
Scans to average: 10
Electric dark correction enabled: true
Nonlinearity correction enabled: false
Boxcar width: 0
XAxis mode: Wavelengths
Number of Pixels in Spectrum: 2048
>>>>>Begin Spectral Data<<<<<
341.393	-26.74
341.776	-26.74
342.16	-26.74
342.543	-51.59
342.927	-53.18
343.31	-44.14
343.693	-65.38
344.077	-69.45
344.46	-66.28
344.843	-36.45
345.226	-44.82
345.61	-26.74
345.993	-14.76
346.376	-14.53
346.759	28.4
347.142	37.89
347.525	46.26
347.908	34.05
348.291	67.72
348.674	70.21
349.057	98.01
349.44	139.36
349.823	156.08
350.206	161.96
350.588	177.55
350.971	217.55
351.354	211.45
351.737	226.14
352.119	225.01
352.502	253.71
352.884	236.99
353.267	276.76
353.65	265.69
354.032	300.94
354.414	279.92
354.797	288.96
355.179	319.24
355.562	290.09
355.944	312.24
356.326	329.41
356.709	300.71
357.091	328.73
357.473	306.81
357.855	345.68
358.238	326.47
358.62	309.07
359.002	332.58
359.384	332.8
359.766	304.55
360.148	330.32
360.53	336.19
360.912	333.03
361.294	316.98
361.676	324.89
362.057	337.55
362.439	311.79
362.821	317.44
363.203	316.31
363.584	308.17
363.966	327.6
364.348	323.54
364.729	316.31
365.111	304.55
365.493	294.16
365.874	299.81
366.256	311.33
366.637	305.68
367.019	300.71
367.4	315.63
367.781	289.41
368.163	302.52
368.544	295.29
368.925	294.61
369.306	316.08
369.688	315.85
370.069	307.04
370.45	303.42
370.831	314.5
371.212	315.85
371.593	278.57
371.974	296.64
372.355	300.49
372.736	303.42
373.117	321.5
373.498	297.1
373.879	298.45
374.26	304.55
374.641	299.36
375.021	294.61
375.402	308.85
375.783	304.55
376.163	301.62
376.544	302.52
376.925	321.5
377.305	314.5
377.686	317.89
378.066	305.91
378.447	324.89
378.827	304.78
379.208	325.57
379.588	328.96
379.968	319.69
380.349	316.76
380.729	324.67
381.109	316.53
381.489	337.77
381.87	315.85
382.25	331.45
382.63	327.15
383.01	335.97
383.39	342.97
383.77	342.52
384.15	355.63
384.53	333.03
384.91	333.25
385.29	339.81
385.67	347.49
386.049	345.91
386.429	360.15
386.809	345.01
387.189	332.35
387.568	355.17
387.948	345.91
388.328	345.91
388.707	351.11
389.087	349.3
389.466	337.32
389.846	353.37
390.225	331.67
390.605	356.3
390.984	342.97
391.363	385.91
391.743	383.2
392.122	390.2
392.501	376.87
392.881	362.63
393.26	370.09
393.639	341.84
394.018	373.03
394.397	377.09
394.776	382.97
395.155	372.8
395.534	389.3
395.913	379.81
396.292	394.72
396.671	401.95
397.05	393.82
397.429	377.77
397.808	386.59
398.186	386.13
398.565	372.12
398.944	376.19
399.323	371.67
399.701	397.43
400.08	399.01
400.458	383.65
400.837	406.92
401.215	413.48
401.594	396.76
401.972	399.01
402.351	415.51
402.729	422.07
403.107	416.42
403.486	435.62
403.864	412.8
404.242	438.56
404.62	420.26
404.999	425.45
405.377	439.92
405.755	441.5
406.133	453.48
406.511	446.25
406.889	449.64
407.267	454.83
407.645	451.22
408.023	462.52
408.401	455.51
408.779	473.59
409.156	463.42
409.534	487.83
409.912	480.59
410.29	499.35
410.667	509.75
411.045	499.58
411.422	505.68
411.8	535.06
412.178	514.72
412.555	538.9
412.933	521.72
413.31	530.76
413.687	539.8
414.065	536.19
414.442	568.73
414.819	570.08
415.197	581.38
415.574	578.67
415.951	610.31
416.328	590.2
416.705	583.87
417.082	614.15
417.46	610.31
417.837	606.02
418.214	610.08
418.591	612.34
418.967	641.27
419.344	617.09
419.721	642.85
420.098	640.14
420.475	653.92
420.852	663.41
421.228	662.51
421.605	674.26
421.982	687.59
422.358	717.88
422.735	725.11
423.111	722.85
423.488	750.87
423.864	743.64
424.241	734.15
424.617	759.68
424.994	797.2
425.37	760.59
425.746	756.07
426.123	789.74
426.499	810.08
426.875	803.52
427.251	825.44
427.627	814.82
428.003	845.56
428.379	831.09
428.756	836.07
429.132	862.28
429.507	872.22
429.883	870.64
430.259	892.56
430.635	904.76
431.011	925.1
431.387	909.06
431.763	929.85
432.138	946.12
432.514	948.83
432.89	980.24
433.265	981.15
433.641	1007.36
434.016	1018.89
434.392	1041.26
434.767	1061.14
435.143	1067.25
435.518	1078.55
435.894	1068.83
436.269	1103.86
436.644	1137.98
437.02	1139.11
437.395	1130.97
437.77	1163.51
438.145	1202.16
438.52	1201.03
438.895	1216.85
439.271	1218.43
439.646	1242.83
440.021	1248.71
440.395	1255.94
440.77	1240.35
441.145	1293.91
441.52	1307.47
441.895	1295.26
442.27	1318.76
442.645	1344.3
443.019	1357.86
443.394	1344.3
443.769	1342.27
444.143	1388.59
444.518	1375.03
444.892	1404.19
445.267	1426.33
445.641	1416.16
446.016	1400.57
446.39	1429.04
446.764	1449.61
447.139	1445.54
447.513	1450.51
447.887	1483.73
448.262	1474.69
448.636	1494.81
449.01	1506.33
449.384	1529.15
449.758	1520.12
450.132	1535.71
450.506	1574.35
450.88	1573.67
451.254	1572.32
451.628	1594.46
452.002	1621.13
452.376	1630.39
452.75	1629.04
453.123	1643.5
453.497	1646.44
453.871	1696.38
454.244	1698.19
454.618	1701.35
454.992	1728.02
455.365	1749.94
455.739	1763.5
456.112	1766.66
456.486	1782.48
456.859	1798.98
457.232	1830.62
457.606	1831.75
457.979	1875.36
458.352	1913.33
458.725	1921.01
459.099	1935.25
459.472	1949.93
459.845	1970.95
460.218	1983.38
460.591	1974.11
460.964	1994.91
461.337	2036.94
461.71	2082.13
462.083	2110.38
462.456	2112.19
462.829	2090.27
463.201	2158.74
463.574	2164.84
463.947	2205.07
464.32	2230.83
464.692	2273.54
465.065	2258.4
465.438	2281.45
465.81	2315.12
466.183	2347.66
466.555	2368.91
466.928	2435.12
467.3	2387.66
467.672	2420.43
468.045	2484.84
468.417	2522.8
468.789	2504.27
469.161	2550.6
469.534	2558.51
469.906	2590.82
470.278	2641.22
470.65	2678.28
471.022	2716.92
471.394	2731.83
471.766	2740.2
472.138	2802.34
472.51	2844.6
472.882	2859.97
473.253	2936.58
473.625	2933.86
473.997	3019.29
474.369	3015.9
474.74	3023.13
475.112	3107.19
475.484	3124.82
475.855	3166.63
476.227	3200.52
476.598	3286.85
476.97	3298.83
477.341	3374.3
477.713	3410.69
478.084	3395.55
478.455	3518.48
478.827	3525.03
479.198	3632.15
479.569	3627.4
479.94	3661.53
480.311	3701.75
480.682	3783.33
481.053	3900.17
481.424	3923.22
481.795	3927.06
482.166	3992.59
482.537	4060.84
482.908	4169.76
483.279	4134.06
483.65	4213.83
484.021	4297.67
484.391	4315.3
484.762	4416.08
485.133	4426.03
485.503	4446.82
485.874	4547.83
486.244	4565.01
486.615	4630.54
486.985	4696.53
487.356	4737.88
487.726	4782.4
488.097	4859.69
488.467	4814.04
488.837	4928.39
489.207	4986.24
489.578	5073.47
489.948	5105.56
490.318	5159.57
490.688	5164.54
491.058	5238.44
491.428	5270.07
491.798	5351.2
492.168	5420.58
492.538	5444.08
492.908	5501.25
493.278	5579.67
493.648	5521.82
494.017	5643.62
494.387	5682.49
494.757	5706.45
495.126	5803.39
495.496	5760.23
495.866	5764.07
496.235	5854.46
496.605	5863.73
496.974	5911.41
497.344	5932.65
497.713	5982.82
498.082	5993.22
498.452	6030.05
498.821	6047.23
499.19	6092.65
499.559	6109.15
499.928	6145.98
500.298	6170.39
500.667	6214.23
501.036	6179.43
501.405	6272.53
501.774	6248.58
502.143	6355.69
502.512	6281.8
502.88	6377.61
503.249	6414.68
503.618	6446.54
503.987	6408.35
504.356	6464.17
504.724	6470.49
505.093	6459.65
505.462	6499.87
505.83	6538.06
506.199	6595.24
506.567	6677.27
506.936	6620.77
507.304	6719.98
507.672	6701
508.041	6750.49
508.409	6744.38
508.777	6797.94
509.145	6840.65
509.514	6792.29
509.882	6822.12
510.25	6802.24
510.618	6814.21
510.986	6788.45
511.354	6977.37
511.722	6957.49
512.09	6964.94
512.458	6962.91
512.826	7029.12
513.193	7038.84
513.561	7006.07
513.929	7035.68
514.297	7154.77
514.664	7124.26
515.032	7138.95
515.4	7161.55
515.767	7204.26
516.135	7166.97
516.502	7133.98
516.869	7239.97
517.237	7252.62
517.604	7250.59
517.972	7252.62
518.339	7312.96
518.706	7300.98
519.073	7328.1
519.44	7350.7
519.808	7430.47
520.175	7333.07
520.542	7452.16
520.909	7465.5
521.276	7445.16
521.643	7432.05
522.009	7533.74
522.376	7492.16
522.743	7553.63
523.11	7560.86
523.477	7603.12
523.843	7648.77
524.21	7660.52
524.577	7715.21
524.943	7672.72
525.31	7695.55
525.676	7766.28
526.043	7799.72
526.409	7760.63
526.776	7856.45
527.142	7820.51
527.508	7840.63
527.874	7866.84
528.241	7867.52
528.607	7854.19
528.973	7929.66
529.339	7914.98
529.705	8007.85
530.071	7992.26
530.437	7980.06
530.803	7972.83
531.169	8003.11
531.535	7980.74
531.901	7954.52
532.267	7985.71
532.632	7993.17
532.998	8026.61
533.364	8020.96
533.73	8002.2
534.095	8070
534.461	8044.69
534.826	8077.91
535.192	8017.12
535.557	8115.65
535.923	8059.6
536.288	8056.89
536.653	8054.63
537.019	8055.99
537.384	8072.26
537.749	8023
538.114	8021.41
538.479	8018.48
538.845	8003.33
539.21	8026.16
539.575	7992.04
539.94	8022.32
540.305	8056.67
540.67	8010.11
541.034	8066.16
541.399	8052.37
541.764	7990.91
542.129	8004.01
542.494	8033.16
542.858	8081.52
543.223	7966.95
543.587	8069.1
543.952	7983.45
544.316	7960.17
544.681	8002.66
545.045	8060.51
545.41	8007.18
545.774	8013.96
546.138	7953.62
546.503	7957.01
546.867	7963.11
547.231	8004.24
547.595	7972.6
547.959	7985.93
548.324	7966.27
548.688	7963.34
549.052	7990.45
549.416	7956.33
549.779	7923.34
550.143	7893.51
550.507	7948.65
550.871	7975.31
551.235	7887.86
551.599	7962.66
551.962	7982.77
552.326	7957.91
552.689	7926.27
553.053	7906.16
553.417	7912.72
553.78	7982.32
554.143	7954.97
554.507	7945.26
554.87	7890.34
555.234	8001.3
555.597	7927.86
555.96	7991.58
556.323	7942.55
556.686	7865.94
557.05	7945.26
557.413	8033.84
557.776	7983.9
558.139	8035.42
558.502	8015.76
558.865	7997.23
559.228	8092.37
559.59	8054.18
559.953	8062.54
560.316	8087.63
560.679	8043.56
561.041	8135.76
561.404	8089.43
561.767	8220.96
562.129	8098.02
562.492	8136.44
562.854	8128.53
563.217	8116.33
563.579	8193.61
563.941	8190.22
564.304	8272.03
564.666	8264.8
565.028	8277.23
565.39	8319.94
565.753	8328.07
566.115	8350.44
566.477	8333.5
566.839	8384.79
567.201	8445.58
567.563	8394.06
567.925	8403.78
568.287	8437.22
568.648	8484.68
569.01	8489.42
569.372	8544.11
569.734	8534.85
570.095	8519.93
570.457	8560.83
570.819	8574.62
571.18	8567.84
571.542	8613.04
571.903	8651.91
572.265	8603.09
572.626	8698.46
572.987	8710.66
573.349	8699.14
573.71	8780.94
574.071	8721.28
574.432	8778.23
574.794	8893.71
575.155	8806.93
575.516	8763.77
575.877	8890.77
576.238	8839.02
576.599	8928.51
576.96	8881.5
577.32	8920.37
577.681	8912.92
578.042	8975.06
578.403	8941.39
578.763	9029.52
579.124	9009.64
579.485	9014.38
579.845	9075.62
580.206	9032.69
580.566	9055.74
580.927	9131.21
581.287	9196.98
581.648	9056.87
582.008	9188.84
582.368	9126.7
582.728	9210.53
583.089	9159.91
583.449	9158.78
583.809	9233.13
584.169	9288.05
584.529	9176.19
584.889	9315.84
585.249	9184.55
585.609	9225.45
585.969	9282.17
586.329	9191.55
586.688	9203.53
587.048	9341.15
587.408	9273.81
587.768	9281.72
588.127	9318.33
588.487	9340.25
588.846	9376.63
589.206	9350.64
589.565	9322.62
589.925	9422.51
590.284	9353.81
590.643	9386.12
591.003	9406.46
591.362	9471.54
591.721	9427.7
592.08	9385.9
592.44	9464.99
592.799	9431.77
593.158	9399.23
593.517	9411.89
593.876	9470.41
594.235	9457.76
594.593	9513.35
594.952	9443.3
595.311	9465.67
595.67	9494.59
596.029	9593.35
596.387	9559.68
596.746	9592.67
597.104	9560.81
597.463	9493.69
597.822	9531.88
598.18	9534.82
598.538	9532.79
598.897	9624.99
599.255	9503.86
599.613	9624.31
599.972	9589.73
600.33	9598.77
600.688	9592.22
601.046	9638.55
601.404	9612.78
601.762	9724.42
602.12	9705.89
602.478	9695.04
602.836	9680.35
603.194	9631.31
603.552	9638.55
603.91	9619.34
604.268	9673.12
604.625	9609.85
604.983	9670.86
605.341	9632.44
605.698	9648.04
606.056	9655.72
606.413	9736.17
606.771	9690.3
607.128	9714.02
607.485	9670.64
607.843	9625.66
608.2	9733.68
608.557	9743.18
608.914	9668.6
609.272	9798.32
609.629	9813
609.986	9888.71
610.343	9773.46
610.7	9805.77
611.057	9870.18
611.414	9806
611.771	9781.14
612.127	9867.24
612.484	9889.84
612.841	9911.31
613.198	9843.51
613.554	9851.42
613.911	9877.64
614.267	9955.83
614.624	9902.49
614.98	9929.84
615.337	9949.27
615.693	9943.4
616.05	9870.86
616.406	9957.18
616.762	9970.97
617.118	9882.83
617.475	9890.74
617.831	9978.65
618.187	9994.47
618.543	9983.17
618.899	10030.63
619.255	10032.43
619.611	10034.02
619.967	10045.31
620.323	10082.38
620.678	10015.26
621.034	9958.99
621.39	9985.88
621.746	10039.89
622.101	10138.87
622.457	10099.32
622.812	10084.18
623.168	10001.02
623.523	10110.85
623.879	10116.27
624.234	10022.26
624.589	10022.04
624.945	10067.91
625.3	10060.46
625.655	10033.34
626.01	10080.34
626.365	10071.08
626.72	10034.69
627.075	10025.65
627.43	10000.57
627.785	9930.06
628.14	10013.23
628.495	10043.06
628.85	10036.05
629.205	9927.35
629.559	10026.33
629.914	10000.34
630.269	10022.04
630.623	9985.88
630.978	9947.46
631.332	9888.48
631.687	10053.22
632.041	9863.4
632.396	9941.36
632.75	9894.58
633.104	9859.11
633.459	9854.81
633.813	9891.65
634.167	9825.66
634.521	9832.67
634.875	9859.33
635.229	9872.44
635.583	9756.51
635.937	9746.57
636.291	9836.73
636.645	9796.28
636.999	9730.97
637.352	9773.91
637.706	9723.29
638.06	9740.69
638.413	9708.15
638.767	9734.59
639.121	9657.98
639.474	9691.65
639.828	9625.66
640.181	9687.58
640.534	9719.67
640.888	9709.05
641.241	9548.6
641.594	9598.32
641.947	9633.35
642.301	9543.86
642.654	9619.56
643.007	9582.95
643.36	9597.42
643.713	9569.4
644.066	9614.37
644.419	9475.61
644.771	9464.99
645.124	9410.53
645.477	9400.81
645.83	9337.99
646.182	9284.66
646.535	9245.11
646.888	9285.33
647.24	9257.09
647.593	9308.84
647.945	9221.38
648.298	9220.25
648.65	9191.55
649.002	9202.85
649.355	9275.62
649.707	9246.69
650.059	9291.89
650.411	9429.51
650.763	9365.11
651.115	9443.75
651.467	9453.01
651.819	9425.22
652.171	9373.69
652.523	9424.54
652.875	9406.46
653.227	9350.19
653.578	9420.47
653.93	9355.16
654.282	9393.58
654.633	9352.9
654.985	9363.98
655.337	9360.81
655.688	9337.54
656.039	9372.34
656.391	9384.09
656.742	9368.95
657.094	9395.39
657.445	9411.89
657.796	9429.96
658.147	9342.96
658.498	9422.73
658.849	9368.95
659.2	9382.51
659.551	9419.12
659.902	9404.65
660.253	9323.75
660.604	9434.26
660.955	9306.58
661.306	9402.85
661.656	9299.57
662.007	9379.34
662.358	9380.02
662.708	9394.48
663.059	9385.9
663.409	9348.16
663.76	9415.28
664.11	9409.4
664.461	9452.79
664.811	9411.43
665.161	9363.75
665.511	9382.51
665.862	9336.41
666.212	9450.75
666.562	9420.02
666.912	9355.16
667.262	9343.19
667.612	9321.94
667.962	9332.79
668.312	9311.32
668.662	9421.38
669.011	9348.61
669.361	9367.59
669.711	9420.47
670.06	9365.56
670.41	9270.87
670.76	9354.26
671.109	9387.25
671.459	9415.05
671.808	9346.35
672.157	9387.25
672.507	9262.51
672.856	9320.59
673.205	9350.19
673.554	9358.1
673.904	9254.38
674.253	9358.1
674.602	9377.76
674.951	9143.87
675.3	9153.81
675.649	9323.98
675.998	9272
676.346	9246.01
676.695	9284.43
677.044	9172.12
677.393	9196.75
677.741	9227.71
678.09	9185
678.438	9188.39
678.787	9143.42
679.135	9160.59
679.484	9180.25
679.832	9137.99
680.181	9109.75
680.529	9130.76
680.877	9043.08
681.225	9065.45
681.573	9096.19
681.922	9008.51
682.27	9047.38
682.618	9005.79
682.966	9024.55
683.314	9039.92
683.661	8927.6
684.009	8960.82
684.357	8909.98
684.705	8920.6
685.053	8916.53
685.4	8883.76
685.748	8867.49
686.095	8858
686.443	8847.15
686.79	8801.73
687.138	8799.92
687.485	8827.49
687.832	8752.69
688.18	8753.6
688.527	8724.45
688.874	8731.23
689.221	8673.6
689.568	8644.22
689.915	8677.44
690.262	8690.55
690.609	8603.09
690.956	8566.03
691.303	8499.82
691.65	8551.79
691.997	8493.72
692.344	8466.15
692.69	8361.97
693.037	8430.22
693.383	8329.65
693.73	8356.77
694.077	8338.47
694.423	8267.28
694.769	8275.87
695.116	8251.92
695.462	8185.93
695.808	8194.97
696.155	8253.5
696.501	8190
696.847	8164.46
697.193	8056.67
697.539	8095.31
697.885	8020.06
698.231	8043.33
698.577	7988.42
698.923	8051.47
699.269	7973.05
699.614	7900.51
699.96	7849.67
700.306	7885.15
700.651	7839.27
700.997	7810.12
701.342	7803.11
701.688	7777.58
702.033	7812.38
702.379	7747.75
702.724	7721.76
703.069	7675.43
703.415	7588.2
703.76	7618.26
704.105	7612.16
704.45	7616.45
704.795	7523.35
705.14	7511.6
705.485	7526.51
705.83	7483.12
706.175	7486.29
706.52	7509.79
706.865	7435.21
707.209	7413.52
707.554	7370.58
707.899	7390.02
708.243	7336.23
708.588	7330.36
708.932	7219.17
709.277	7282.45
709.621	7232.96
709.966	7254.88
710.31	7228.21
710.654	7158.39
710.998	7197.25
711.342	7157.93
711.687	7141.66
712.031	7123.36
712.375	7069.8
712.719	7149.12
713.063	7120.42
713.407	7137.59
713.75	7026.86
714.094	6988.45
714.438	7039.07
714.782	7055.79
715.125	6968.11
715.469	6994.32
715.812	6981.21
716.156	6893.53
716.499	6942.8
716.843	6906.19
717.186	6917.71
717.53	6914.32
717.873	6868.68
718.216	6880.43
718.559	6847.66
718.902	6821.44
719.246	6891.27
719.589	6796.59
719.932	6849.24
720.275	6760.88
720.617	6779.86
720.96	6750.26
721.303	6780.77
721.646	6812.63
721.989	6755.23
722.331	6786.42
722.674	6718.17
723.016	6772.41
723.359	6714.56
723.701	6688.79
724.044	6729.47
724.386	6715.46
724.729	6665.06
725.071	6692.86
725.413	6652.64
725.755	6674.1
726.097	6608.57
726.439	6664.61
726.782	6673.43
727.124	6668
727.465	6602.24
727.807	6638.85
728.149	6616.93
728.491	6623.71
728.833	6613.77
729.175	6619.87
729.516	6572.64
729.858	6632.52
730.199	6560.43
730.541	6628.23
730.882	6625.52
731.224	6613.31
731.565	6579.87
731.906	6581.23
732.248	6563.37
732.589	6471.85
732.93	6503.94
733.271	6577.16
733.612	6573.77
733.953	6538.06
734.294	6495.13
734.635	6483.83
734.976	6494
735.317	6515.92
735.658	6547.78
735.999	6491.06
736.339	6565.63
736.68	6544.39
737.021	6538.74
737.361	6556.14
737.702	6541.23
738.042	6549.59
738.383	6582.81
738.723	6552.75
739.063	6559.53
739.404	6529.7
739.744	6564.73
740.084	6557.72
740.424	6563.15
740.764	6533.54
741.104	6631.17
741.444	6610.83
741.784	6558.4
742.124	6606.54
742.464	6605.86
742.804	6614.67
743.143	6635.24
743.483	6671.39
743.823	6637.27
744.162	6619.87
744.502	6649.7
744.841	6676.59
745.181	6721.79
745.52	6720.43
745.86	6772.41
746.199	6728.79
746.538	6802.69
746.877	6780.32
747.216	6866.64
747.556	6852.86
747.895	6899.86
748.234	6929.24
748.573	6896.02
748.911	6985.51
749.25	7031.83
749.589	7037.48
749.928	7084.26
750.267	7188.44
750.605	7145.96
750.944	7250.59
751.283	7272.73
751.621	7326.52
751.96	7334.65
752.298	7414.65
752.636	7495.78
752.975	7510.24
753.313	7614.87
753.651	7669.78
753.989	7671.37
754.327	7766.5
754.666	7804.7
755.004	7909.1
755.342	7940.51
755.679	8050.79
756.017	8142.54
756.355	8297.56
756.693	8357.9
757.031	8423.44
757.368	8497.33
757.706	8538.46
758.044	8651.23
758.381	8777.78
758.719	8885.12
759.056	9017.09
759.394	9056.64
759.731	9149.75
760.068	9216.86
760.405	9357.88
760.743	9420.47
761.08	9679
761.417	9588.38
761.754	9762.84
762.091	9846.9
762.428	9905.43
762.765	9982.27
763.102	10118.53
763.438	10249.15
763.775	10305.42
764.112	10396.94
764.449	10523.95
764.785	10573.89
765.122	10641.46
765.458	10703.6
765.795	10849.81
766.131	10930.04
766.467	11013.43
766.804	11068.34
767.14	11168.9
767.476	11273.53
767.812	11275.57
768.148	11417.71
768.485	11429.23
768.821	11532.51
769.157	11593.75
769.492	11620.41
769.828	11790.35
770.164	11726.63
770.5	11830.8
770.836	11916.45
771.171	11918.49
771.507	11996.68
771.842	11989.9
772.178	12024.7
772.513	12155.32
772.849	12193.51
773.184	12227.4
773.519	12201.19
773.855	12263.11
774.19	12301.53
774.525	12279.83
774.86	12431.24
775.195	12394.18
775.53	12428.08
775.865	12446.61
776.2	12338.14
776.535	12381.07
776.87	12494.29
777.205	12466.04
777.539	12436.89
777.874	12522.99
778.209	12435.08
778.543	12445.7
778.878	12405.25
779.212	12501.3
779.547	12402.09
779.881	12571.58
780.215	12478.7
780.55	12530.22
780.884	12512.14
781.218	12518.24
781.552	12484.35
781.886	12454.52
782.22	12474.4
782.554	12440.05
782.888	12409.32
783.222	12349.21
783.556	12377.23
783.889	12401.19
784.223	12269.44
784.557	12319.83
784.89	12328.64
785.224	12313.28
785.557	12264.01
785.891	12261.75
786.224	12302.88
786.558	12278.02
786.891	12119.84
787.224	12242.09
787.557	12124.13
787.891	12189.44
788.224	12217.46
788.557	12184.02
788.89	12118.93
789.223	12199.83
789.556	12084.36
789.888	12014.75
790.221	11970.46
790.554	11964.59
790.887	11922.55
791.219	11899.5
791.552	11901.99
791.884	11844.82
792.217	11899.73
792.549	11855.21
792.882	11724.37
793.214	11671.71
793.546	11772.5
793.879	11707.42
794.211	11587.2
794.543	11670.58
794.875	11602.79
795.207	11733.63
795.539	11617.7
795.871	11649.34
796.203	11532.51
796.535	11526.18
796.867	11467.2
797.198	11445.5
797.53	11473.98
797.862	11395.11
798.193	11453.41
798.525	11329.12
798.856	11325.28
799.188	11237.37
799.519	11274.21
799.85	11171.16
800.182	11218.17
800.513	11182.01
800.844	11094.55
801.175	11174.78
801.506	11165.51
801.837	11086.19
802.168	11095.23
802.499	11015.01
802.83	11054.78
803.161	10991.96
803.491	11057.04
803.822	10938.4
804.153	10935.91
804.483	10852.53
804.814	10836.71
805.145	10863.37
805.475	10792.87
805.805	10781.57
806.136	10783.37
806.466	10726.2
806.796	10738.18
807.126	10637.62
807.457	10628.8
807.787	10683.72
808.117	10686.2
808.447	10514.68
808.777	10588.58
809.107	10556.94
809.436	10488.47
809.766	10508.35
810.096	10496.38
810.426	10448.02
810.755	10452.76
811.085	10416.38
811.414	10426.55
811.744	10320.56
812.073	10328.92
812.403	10372.09
812.732	10252.09
813.061	10276.04
813.39	10354.23
813.719	10244.18
814.049	10250.73
814.378	10252.77
814.707	10165.99
815.036	10178.19
815.365	10144.3
815.693	10058.42
816.022	10054.81
816.351	10022.49
816.68	9916.73
817.008	10001.47
817.337	9983.62
817.665	9849.16
817.994	9909.5
818.322	9899.56
818.651	9893.91
818.979	9810.74
819.307	9895.71
819.636	9886.68
819.964	9835.6
820.292	9794.25
820.62	9815.26
820.948	9803.06
821.276	9869.27
821.604	9760.12
821.932	9799.22
822.259	9793.12
822.587	9746.79
822.915	9774.36
823.243	9780.69
823.57	9747.02
823.898	9770.07
824.225	9781.59
824.553	9818.65
824.88	9736.17
825.207	9788.15
825.535	9753.12
825.862	9806.45
826.189	9814.36
826.516	9828.82
826.843	9818.2
827.17	9806
827.497	9852.33
827.824	9806.9
828.151	9791.08
828.478	9802.38
828.805	9863.85
829.131	9819.33
829.458	9776.85
829.785	9758.77
830.111	9768.94
830.438	9778.66
830.764	9809.39
831.09	9803.06
831.417	9824.08
831.743	9808.03
832.069	9785.21
832.395	9804.87
832.722	9802.38
833.048	9784.98
833.374	9755.83
833.7	9730.3
834.026	9660.47
834.351	9729.84
834.677	9687.58
835.003	9729.17
835.329	9717.41
835.654	9707.24
835.98	9671.31
836.306	9718.09
836.631	9608.26
836.956	9733.46
837.282	9684.19
837.607	9655.49
837.932	9624.31
838.258	9671.54
838.583	9598.32
838.908	9597.19
839.233	9585.67
839.558	9525.1
839.883	9484.88
840.208	9469.06
840.533	9503.41
840.858	9462.73
841.182	9428.38
841.507	9442.39
841.832	9474.93
842.156	9350.42
842.481	9361.49
842.805	9390.42
843.13	9316.97
843.454	9406.24
843.778	9288.05
844.103	9267.03
844.427	9260.02
844.751	9239.91
845.075	9243.08
845.399	9222.06
845.723	9131.89
846.047	9134.83
846.371	9089.63
846.695	9062.97
847.019	8957.43
847.343	8971.22
847.666	8940.49
847.99	8815.29
848.313	8926.47
848.637	8805.8
848.96	8780.94
849.284	8789.75
849.607	8685.58
849.931	8725.8
850.254	8673.83
850.577	8598.8
850.9	8538.91
851.223	8567.39
851.546	8550.21
851.869	8470.67
852.192	8503.43
852.515	8479.03
852.838	8473.15
853.161	8379.37
853.483	8394.96
853.806	8304.34
854.129	8350.9
854.451	8287.85
854.774	8255.76
855.096	8222.54
855.419	8192.93
855.741	8234.06
856.063	8089.43
856.385	8169.21
856.708	8112.48
857.03	8069.1
857.352	8073.84
857.674	7993.17
857.996	8023.22
858.318	8002.43
858.64	8004.24
858.961	7988.65
859.283	7914.3
859.605	7924.24
859.926	7902.09
860.248	7917.91
860.57	7836.33
860.891	7907.07
861.212	7862.55
861.534	7785.71
861.855	7760.63
862.176	7785.71
862.498	7759.05
862.819	7765.37
863.14	7718.6
863.461	7699.61
863.782	7727.41
864.103	7714.3
864.424	7660.52
864.745	7705.72
865.065	7649.9
865.386	7580.07
865.707	7613.29
866.027	7558.6
866.348	7544.36
866.668	7570.58
866.989	7523.35
867.309	7487.87
867.63	7506.62
867.95	7512.27
868.27	7466.4
868.59	7453.97
868.91	7448.55
869.23	7466.63
869.55	7434.08
869.87	7441.09
870.19	7444.71
870.51	7427.08
870.83	7430.02
871.15	7363.8
871.469	7414.42
871.789	7409.68
872.109	7413.07
872.428	7359.96
872.748	7370.13
873.067	7397.02
873.386	7394.76
873.706	7382.79
874.025	7272.28
874.344	7269.12
874.663	7300.53
874.982	7292.39
875.301	7258.95
875.62	7221.89
875.939	7188.21
876.258	7253.98
876.577	7213.53
876.896	7190.25
877.214	7201.55
877.533	7174.43
877.852	7151.83
878.17	7138.05
878.489	7179.63
878.807	7147.09
879.125	7147.54
879.444	7127.43
879.762	7050.59
880.08	7070.03
880.398	7091.95
880.716	7058.5
881.034	6996.58
881.352	7031.38
881.67	6977.6
881.988	6945.74
882.306	6965.17
882.624	6950.93
882.941	6963.81
883.259	6854.21
883.577	6844.95
883.894	6895.12
884.212	6874.1
884.529	6888.79
884.846	6913.42
885.164	6827.77
885.481	6775.8
885.798	6839.52
886.115	6790.94
886.432	6734.22
886.75	6768.11
887.067	6772.18
887.383	6712.97
887.7	6740.09
888.017	6684.05
888.334	6664.39
888.651	6664.39
888.967	6659.64
889.284	6595.01
889.6	6546.42
889.917	6574.45
890.233	6558.4
890.55	6567.89
890.866	6553.2
891.182	6538.74
891.498	6505.3
891.815	6503.71
892.131	6461.68
892.447	6518.4
892.763	6375.81
893.079	6422.81
893.395	6415.35
893.71	6413.55
894.026	6352.3
894.342	6312.31
894.657	6355.24
894.973	6359.31
895.289	6329.71
895.604	6304.4
895.92	6241.8
896.235	6209.03
896.55	6208.81
896.865	6232.53
897.181	6182.59
897.496	6156.15
897.811	6152.76
898.126	6122.71
898.441	6073.44
898.756	6026.44
899.071	6021.92
899.386	6019.43
899.7	5982.82
900.015	5969.26
900.33	5905.54
900.644	5938.76
900.959	5933.56
901.273	5882.49
901.588	5834.58
901.902	5870.06
902.216	5868.7
902.531	5838.42
902.845	5796.16
903.159	5732.43
903.473	5750.29
903.787	5748.48
904.101	5685.2
904.415	5661.25
904.729	5654.02
905.042	5567.69
905.356	5636.17
905.67	5611.08
905.984	5582.83
906.297	5564.98
906.611	5497.19
906.924	5554.13
907.237	5487.47
907.551	5490.41
907.864	5468.94
908.177	5452.67
908.491	5435.72
908.804	5430.3
909.117	5329.51
909.43	5338.55
909.743	5272.11
910.056	5332.67
910.368	5266.46
910.681	5247.25
910.994	5239.11
911.307	5220.36
911.619	5177.87
911.932	5175.61
912.244	5176.74
912.557	5102.85
912.869	5117.53
913.181	5099.91
913.494	5129.51
913.806	5037.09
914.118	5037.54
914.43	5000.7
914.742	4987.82
915.054	5041.38
915.366	4945.11
915.678	4977.43
915.99	4962.51
916.302	4843.42
916.613	4882.74
916.925	4853.81
917.236	4859.46
917.548	4800.93
917.859	4828.05
918.171	4812.23
918.482	4822.4
918.794	4759.13
919.105	4758.22
919.416	4693.82
919.727	4714.38
920.038	4680.26
920.349	4655.4
920.66	4659.02
920.971	4621.5
921.282	4626.93
921.593	4600.71
921.903	4572.01
922.214	4586.25
922.525	4531.11
922.835	4459.02
923.146	4495.86
923.456	4499.25
923.767	4469.42
924.077	4443.2
924.387	4428.06
924.697	4386.03
925.008	4422.41
925.318	4410.66
925.628	4344.22
925.938	4335.18
926.248	4363.66
926.558	4353.04
926.867	4285.47
927.177	4268.52
927.487	4225.36
927.796	4251.79
928.106	4264
928.416	4212.47
928.725	4223.55
929.034	4159.59
929.344	4141.52
929.653	4158.69
929.962	4118.47
930.271	4129.54
930.581	4101.74
930.89	4105.13
931.199	4082.53
931.508	4014.74
931.817	4043.89
932.125	4024.68
932.434	4020.61
932.743	3937.68
933.051	3956.21
933.36	3995.76
933.669	3878.47
933.977	3900.84
934.286	3945.59
934.594	3875.53
934.902	3874.86
935.21	3852.48
935.519	3861.07
935.827	3818.81
936.135	3819.26
936.443	3768.87
936.751	3777.23
937.059	3781.07
937.367	3723.45
937.674	3734.97
937.982	3734.29
938.29	3729.55
938.597	3734.97
938.905	3667.4
939.213	3637.57
939.52	3616.78
939.827	3637.35
940.135	3588.76
940.442	3593.73
940.749	3543.34
941.056	3600.51
941.363	3521.64
941.67	3566.39
941.977	3536.79
942.284	3535.43
942.591	3508.31
942.898	3509.89
943.205	3519.16
943.511	3469.89
943.818	3457.01
944.125	3457.01
944.431	3436.22
944.738	3424.47
945.044	3402.78
945.35	3374.53
945.657	3358.71
945.963	3333.18
946.269	3328.2
946.575	3339.5
946.881	3322.55
947.187	3321.2
947.493	3282.33
947.799	3276.45
948.105	3273.06
948.41	3225.83
948.716	3204.59
949.022	3191.26
949.327	3189
949.633	3214.31
949.938	3204.59
950.244	3173.41
950.549	3150.36
950.854	3131.6
951.16	3132.95
951.465	3116.91
951.77	3113.29
952.075	3054.76
952.38	3038.49
952.685	3077.14
952.99	3031.71
953.294	3020.41
953.599	3011.38
953.904	3018.61
954.209	2963.02
954.513	2974.99
954.818	2928.67
955.122	2942
955.426	2969.57
955.731	2887.31
956.035	2909.68
956.339	2903.36
956.643	2910.59
956.948	2897.93
957.252	2876.69
957.556	2864.94
957.86	2868.1
958.163	2833.98
958.467	2810.25
958.771	2797.82
959.075	2791.72
959.378	2787.88
959.682	2796.47
959.985	2733.19
960.289	2746.07
960.592	2716.92
960.896	2696.58
961.199	2746.07
961.502	2737.26
961.805	2661.1
962.108	2678.05
962.411	2702.23
962.714	2695.45
963.017	2655.23
963.32	2646.64
963.623	2628.33
963.926	2644.61
964.228	2584.49
964.531	2576.36
964.833	2605.51
965.136	2594.89
965.438	2550.82
965.741	2544.04
966.043	2532.29
966.345	2545.17
966.648	2516.47
966.95	2536.36
967.252	2490.94
967.554	2490.49
967.856	2491.39
968.158	2483.71
968.46	2455.91
968.761	2441.9
969.063	2442.35
969.365	2419.53
969.666	2424.72
969.968	2412.3
970.269	2416.14
970.571	2380.88
970.872	2417.04
971.174	2372.52
971.475	2382.24
971.776	2354.9
972.077	2336.59
972.378	2333.65
972.679	2303.15
972.98	2349.25
973.281	2306.08
973.582	2321.9
973.883	2297.04
974.183	2299.08
974.484	2287.78
974.785	2250.94
975.085	2256.14
975.386	2238.97
975.686	2220.89
975.986	2218.63
976.287	2211.62
976.587	2192.87
976.887	2165.75
977.187	2180.89
977.487	2190.61
977.787	2175.24
978.087	2136.14
978.387	2126.88
978.687	2134.11
978.987	2118.74
979.286	2127.78
979.586	2081.91
979.885	2083.26
980.185	2127.33
980.484	2065.41
980.784	2051.85
981.083	2074.45
981.382	2039.88
981.682	2039.42
981.981	2044.85
982.28	2017.96
982.579	2002.81
982.878	2036.94
983.177	1972.98
983.475	2016.37
983.774	1964.85
984.073	1947.67
984.372	1951.29
984.67	1976.6
984.969	1968.92
985.267	1972.98
985.566	1951.52
985.864	1939.09
986.162	1913.1
986.461	1922.14
986.759	1879.43
987.057	1901.35
987.355	1908.58
987.653	1889.37
987.951	1886.89
988.249	1871.52
988.547	1865.19
988.844	1812.76
989.142	1855.93
989.44	1839.88
989.737	1791.97
990.035	1811.18
990.332	1804.63
990.63	1775.93
990.927	1753.33
991.224	1759.66
991.521	1766.44
991.819	1776.38
992.116	1765.76
992.413	1758.75
992.71	1724.18
993.006	1756.49
993.303	1721.69
993.6	1756.04
993.897	1713.1
994.193	1698.19
994.49	1749.71
994.787	1683.27
995.083	1657.74
995.379	1667.91
995.676	1663.16
995.972	1657.51
996.268	1670.17
996.565	1656.16
996.861	1649.83
997.157	1642.82
997.453	1606.89
997.749	1604.41
998.044	1584.29
998.34	1612.77
998.636	1575.03
998.932	1591.07
999.227	1585.88
999.523	1574.13
999.818	1589.27
1000.114	1542.04
1000.409	1539.1
1000.704	1537.74
1001	1520.57
1001.295	1533.67
1001.59	1499.1
1001.885	1509.27
1002.18	1500.91
1002.475	1509.95
1002.77	1508.36
1003.065	1498.2
1003.359	1471.76
1003.654	1469.27
1003.949	1468.59
1004.243	1437.18
1004.538	1447.57
1004.832	1447.35
1005.127	1431.08
1005.421	1423.85
1005.715	1429.04
1006.009	1424.75
1006.304	1393.57
1006.598	1403.96
1006.892	1387.92
1007.186	1379.1
1007.48	1369.38
1007.773	1380.01
1008.067	1346.33
1008.361	1353.79
1008.655	1370.74
1008.948	1350.18
1009.242	1337.52
1009.535	1329.84
1009.829	1315.15
1010.122	1331.42
1010.415	1307.01
1010.708	1297.97
1011.001	1288.26
1011.295	1286
1011.588	1273.57
1011.881	1261.37
1012.173	1261.82
1012.466	1242.61
1012.759	1286.45
1013.052	1253.23
1013.344	1218.88
1013.637	1239.9
1013.93	1214.36
1014.222	1225.66
1014.514	1197.19
1014.807	1189.05
1015.099	1203.97
1015.391	1184.08
1015.683	1210.97
1015.976	1178.2
1016.268	1187.24
1016.56	1171.88
1016.851	1142.95
1017.143	1151.31
1017.435	1125.78
1017.727	1151.09
1018.018	1116.51
1018.31	1109.05
1018.602	1119.45
1018.893	1102.73
1019.185	1079.22
1019.476	1142.27
1019.767	1090.97
1020.058	1052.33
1020.35	1070.86
1020.641	1095.72
1020.932	1065.66
1021.223	1062.73
1021.514	1061.82
1021.804	1040.13
1022.095	1061.6
1022.386	1030.64
1022.677	1034.25
1022.967	1017.76
1023.258	1008.94
1023.548	1014.14
1023.839	996.74
1024.129	999.45
1024.419	972.79
1024.709	964.65
1025	980.47
1025.29	992.45
1025.58	978.21
1025.87	978.43
1026.16	983.18
1026.449	946.8
1026.739	948.38
1027.029	948.61
1027.319	949.96
1027.608	928.04
1027.898	904.99
1028.187	910.19
1028.477	897.08
1028.766	908.61
1029.055	910.87
1029.344	902.28
1029.634	911.32
1029.923	871.32
1030.212	857.76
1030.501	890.08
1030.79	882.17
1031.078	877.42
1031.367	875.16
1031.656	857.31
1031.945	845.33
1032.233	840.13
1032.522	843.3
1032.81	853.69
1033.099	854.14
1033.387	843.75
1033.675	823.18
1033.963	831.77
1034.251	817.54
1034.54	818.66
1034.828	806.69
1035.116	788.38
1035.403	779.57
1035.691	813.92
1035.979	790.19
1036.267	792.68
1036.554	779.12
1036.842	798.78
1037.129	782.96
1037.417	784.09
1037.704	755.39
1037.992	768.5
1038.279	774.82
1038.566	746.58
1038.853	746.58
1039.14	746.58
