Data from hue_140_FLMS001491_00093.txt Node
Date: Tue Feb 07 16:56:40 GMT 2017
User: dcchb
Spectrometer: FLMS00149
Trigger mode: 0
Integration Time (sec): 2.000000E-2
Scans to average: 10
Electric dark correction enabled: true
Nonlinearity correction enabled: false
Boxcar width: 0
XAxis mode: Wavelengths
Number of Pixels in Spectrum: 2048
>>>>>Begin Spectral Data<<<<<
341.393	-17.03
341.776	-17.03
342.16	-17.03
342.543	-55.22
342.927	-39.18
343.31	-62
343.693	-45.73
344.077	-73.3
344.46	-80.31
344.843	-68.11
345.226	-39.63
345.61	-27.43
345.993	-17.03
346.376	-3.7
346.759	19.58
347.142	32.23
347.525	27.03
347.908	69.52
348.291	76.98
348.674	84.66
349.057	107.26
349.44	129.86
349.823	131.89
350.206	170.76
350.588	200.59
350.971	194.03
351.354	234.49
351.737	253.02
352.119	249.4
352.502	264.09
352.884	276.74
353.267	287.14
353.65	276.74
354.032	298.66
354.414	318.55
354.797	307.93
355.179	327.59
355.562	308.16
355.944	332.56
356.326	338.66
356.709	322.17
357.091	342.73
357.473	349.51
357.855	297.31
358.238	341.83
358.62	321.49
359.002	322.84
359.384	340.02
359.766	342.05
360.148	331.66
360.53	355.84
360.912	338.21
361.294	332.79
361.676	332.34
362.057	346.57
362.439	319.68
362.821	323.3
363.203	328.49
363.584	328.04
363.966	325.33
364.348	316.97
364.729	326.91
365.111	320.36
365.493	327.36
365.874	302.28
366.256	307.7
366.637	310.87
367.019	305.44
367.4	334.6
367.781	303.64
368.163	307.93
368.544	303.41
368.925	301.38
369.306	333.69
369.688	324.2
370.069	332.56
370.45	313.35
370.831	337.53
371.212	321.71
371.593	304.09
371.974	326.01
372.355	316.52
372.736	326.01
373.117	315.61
373.498	327.14
373.879	329.4
374.26	295.27
374.641	305.9
375.021	308.83
375.402	319
375.783	317.87
376.163	327.59
376.544	334.6
376.925	325.78
377.305	333.47
377.686	319.91
378.066	340.25
378.447	333.47
378.827	327.14
379.208	322.84
379.588	338.44
379.968	318.32
380.349	326.01
380.729	322.84
381.109	357.65
381.489	339.34
381.87	321.94
382.25	349.51
382.63	329.4
383.01	336.18
383.39	341.38
383.77	323.3
384.15	345.44
384.53	348.61
384.91	343.64
385.29	368.04
385.67	350.19
386.049	356.74
386.429	374.14
386.809	363.75
387.189	351.09
387.568	360.81
387.948	361.49
388.328	365.33
388.707	354.71
389.087	350.87
389.466	378.21
389.846	374.37
390.225	360.13
390.605	371.88
390.984	375.95
391.363	374.82
391.743	374.14
392.122	351.32
392.501	382.5
392.881	360.58
393.26	383.18
393.639	364.2
394.018	372.11
394.397	391.32
394.776	389.28
395.155	385.89
395.534	388.83
395.913	367.59
396.292	383.63
396.671	366.69
397.05	380.7
397.429	384.31
397.808	399.23
398.186	378.44
398.565	403.29
398.944	394.93
399.323	404.2
399.701	372.11
400.08	384.09
400.458	388.38
400.837	407.14
401.215	401.26
401.594	406.91
401.972	410.98
402.351	407.36
402.729	387.25
403.107	403.75
403.486	414.14
403.864	444.42
404.242	409.85
404.62	406.68
404.999	420.24
405.377	405.78
405.755	431.77
406.133	441.49
406.511	415.27
406.889	429.28
407.267	437.19
407.645	434.25
408.023	465.89
408.401	418.44
408.779	417.98
409.156	441.26
409.534	461.37
409.912	447.36
410.29	468.83
410.667	481.48
411.045	486.46
411.422	481.26
411.8	476.29
412.178	474.25
412.555	486.91
412.933	492.78
413.31	478.77
413.687	474.03
414.065	507.7
414.442	483.52
414.819	495.72
415.197	516.29
415.574	498.66
415.951	486.68
416.328	486.23
416.705	495.95
417.082	538.66
417.46	498.66
417.837	515.61
418.214	525.55
418.591	529.17
418.967	515.38
419.344	518.55
419.721	536.17
420.098	526.68
420.475	539.11
420.852	535.72
421.228	554.25
421.605	544.99
421.982	555.61
422.358	565.78
422.735	552.9
423.111	567.13
423.488	544.53
423.864	557.87
424.241	595.61
424.617	601.26
424.994	550.41
425.37	579.34
425.746	588.6
426.123	601.26
426.499	585.21
426.875	593.12
427.251	600.35
427.627	629.28
428.003	616.17
428.379	632.67
428.756	635.15
429.132	613.68
429.507	627.7
429.883	639.45
430.259	638.99
430.635	646.9
431.011	645.1
431.387	656.4
431.763	629.5
432.138	654.81
432.514	700.91
432.89	677.19
433.265	691.2
433.641	690.07
434.016	715.83
434.392	693
434.767	681.03
435.143	732.55
435.518	704.53
435.894	730.07
436.269	731.65
436.644	730.07
437.02	749.73
437.395	726.9
437.77	746.11
438.145	763.51
438.52	734.36
438.895	773.91
439.271	754.02
439.646	783.4
440.021	796.5
440.395	791.53
440.77	765.32
441.145	782.95
441.52	815.04
441.895	813
442.27	806
442.645	811.19
443.019	833.34
443.394	851.42
443.769	820.46
444.143	834.47
444.518	836.05
444.892	840.8
445.267	842.15
445.641	867.46
446.016	862.49
446.39	837.18
446.764	879.67
447.139	871.08
447.513	871.3
447.887	863.4
448.262	885.32
448.636	911.08
449.01	904.75
449.384	919.67
449.758	911.98
450.132	928.48
450.506	905.2
450.88	942.94
451.254	911.98
451.628	953.34
452.002	955.6
452.376	960.12
452.75	953.56
453.123	964.41
453.497	991.98
453.871	994.47
454.244	993.34
454.618	1015.93
454.992	1038.08
455.365	1029.94
455.739	1052.77
456.112	1078.76
456.486	1066.33
456.859	1076.5
457.232	1115.14
457.606	1085.54
457.979	1120.34
458.352	1124.63
458.725	1137.06
459.099	1136.38
459.472	1191.52
459.845	1184.74
460.218	1180.45
460.591	1208.7
460.964	1200.11
461.337	1232.2
461.71	1248.47
462.083	1290.05
462.456	1263.16
462.829	1311.52
463.201	1345.19
463.574	1302.93
463.947	1351.52
464.32	1356.72
464.692	1377.73
465.065	1384.06
465.438	1398.52
465.81	1428.8
466.183	1444.4
466.555	1480.55
466.928	1496.37
467.3	1535.47
467.672	1544.73
468.045	1601
468.417	1611.4
468.789	1628.8
469.161	1641.91
469.534	1642.58
469.906	1703.83
470.278	1696.14
470.65	1742.47
471.022	1782.24
471.394	1823.6
471.766	1856.14
472.138	1902.01
472.51	1922.8
472.882	1933.2
473.253	2001.22
473.625	2096.81
473.997	2078.05
474.369	2095.91
474.74	2156.47
475.112	2204.38
475.484	2249.12
475.855	2318.95
476.227	2374.77
476.598	2445.5
476.97	2483.47
477.341	2554.65
477.713	2625.38
478.084	2679.17
478.455	2756.9
478.827	2831.48
479.198	2876.45
479.569	2956.67
479.94	3019.27
480.311	3131.58
480.682	3191.92
481.053	3296.78
481.424	3389.88
481.795	3456.55
482.166	3560.27
482.537	3622.19
482.908	3757.56
483.279	3832.36
483.65	3907.61
484.021	4073.71
484.391	4145.34
484.762	4213.82
485.133	4331.55
485.503	4403.42
485.874	4593.24
486.244	4688.15
486.615	4824.42
486.985	4941.25
487.356	5073.45
487.726	5175.82
488.097	5337.85
488.467	5382.6
488.837	5579.66
489.207	5687.45
489.578	5830.04
489.948	5979.19
490.318	6082.92
490.688	6169.24
491.058	6346.42
491.428	6510.03
491.798	6607.43
492.168	6789.57
492.538	6897.14
492.908	7032.72
493.278	7166.96
493.648	7249.44
494.017	7418.25
494.387	7564.01
494.757	7568.76
495.126	7767.85
495.496	7851.23
495.866	8058.23
496.235	8211.45
496.605	8236.99
496.974	8370.99
497.344	8499.8
497.713	8553.36
498.082	8708.84
498.452	8794.26
498.821	8934.14
499.19	9033.12
499.559	9121.94
499.928	9283.51
500.298	9361.25
500.667	9554.69
501.036	9474.02
501.405	9670.62
501.774	9746.78
502.143	9801.69
502.512	9914.91
502.88	10001.23
503.249	10024.74
503.618	10111.51
503.987	10268.57
504.356	10282.81
504.724	10435.12
505.093	10471.5
505.462	10524.84
505.83	10640.54
506.199	10710.37
506.567	10796.69
506.936	10823.36
507.304	10973.41
507.672	11036.91
508.041	11083.01
508.409	11212.28
508.777	11181.32
509.145	11354.87
509.514	11379.73
509.882	11411.59
510.25	11469.9
510.618	11554.64
510.986	11564.36
511.354	11720.96
511.722	11728.87
512.09	11831.24
512.458	11802.99
512.826	12028.53
513.193	11918.25
513.561	12020.16
513.929	12031.92
514.297	12088.86
514.664	12153.95
515.032	12185.58
515.4	12311
515.767	12257.45
516.135	12341.06
516.502	12194.62
516.869	12456.76
517.237	12456.76
517.604	12449.98
517.972	12535.86
518.339	12614.05
518.706	12572.24
519.073	12654.05
519.44	12669.19
519.808	12774.95
520.175	12660.15
520.542	12835.96
520.909	12888.16
521.276	12781.27
521.643	12966.13
522.009	12948.5
522.376	12932.68
522.743	13076.63
523.11	13066.24
523.477	13182.62
523.843	13145.33
524.21	13280.92
524.577	13194.37
524.943	13254.71
525.31	13260.58
525.676	13369.96
526.043	13427.36
526.409	13424.2
526.776	13486.79
527.142	13475.04
527.508	13488.37
527.874	13557.75
528.241	13525.21
528.607	13562.5
528.973	13573.57
529.339	13521.82
529.705	13615.83
530.071	13630.52
530.437	13650.18
530.803	13620.57
531.169	13692.89
531.535	13608.6
531.901	13578.32
532.267	13624.87
532.632	13628.03
532.998	13669.61
533.364	13575.6
533.73	13591.65
534.095	13547.13
534.461	13618.99
534.826	13552.33
535.192	13570.86
535.557	13669.16
535.923	13519.56
536.288	13487.47
536.653	13506
537.019	13448.6
537.384	13465.55
537.749	13528.6
538.114	13495.15
538.479	13369.06
538.845	13366.12
539.21	13295.84
539.575	13371.77
539.94	13259
540.305	13332.22
540.67	13343.75
541.034	13186.46
541.399	13242.96
541.764	13195.73
542.129	13140.36
542.494	13087.03
542.858	13096.97
543.223	13037.09
543.587	13130.42
543.952	13032.57
544.316	12947.6
544.681	12935.62
545.045	12903.53
545.41	12982.4
545.774	12936.07
546.138	12819.92
546.503	12819.69
546.867	12751.44
547.231	12795.06
547.595	12740.82
547.959	12690.2
548.324	12723.87
548.688	12657.66
549.052	12676.87
549.416	12547.16
549.779	12520.04
550.143	12517.1
550.507	12645.01
550.871	12515.52
551.235	12386.71
551.599	12534.73
551.962	12426.93
552.326	12343.09
552.689	12448.85
553.053	12334.73
553.417	12305.58
553.78	12460.15
554.143	12302.87
554.507	12279.82
554.87	12245.24
555.234	12435.29
555.597	12226.26
555.96	12254.28
556.323	12209.09
556.686	12220.16
557.05	12194.62
557.413	12269.42
557.776	12195.53
558.139	12186.04
558.502	12173.38
558.865	12184.91
559.228	12207.73
559.59	12189.88
559.953	12143.32
560.316	12225.81
560.679	12226.49
561.041	12192.14
561.404	12265.36
561.767	12258.12
562.129	12190.56
562.492	12260.84
562.854	12190.56
563.217	12195.3
563.579	12219.03
563.941	12213.83
564.304	12187.84
564.666	12317.56
565.028	12294.28
565.39	12244.34
565.753	12313.94
566.115	12319.59
566.477	12334.73
566.839	12294.96
567.201	12368.86
567.563	12379.48
567.925	12361.17
568.287	12425.35
568.648	12388.74
569.01	12387.84
569.372	12445.46
569.734	12385.13
570.095	12413.37
570.457	12551.45
570.819	12548.51
571.18	12506.93
571.542	12441.4
571.903	12578.34
572.265	12520.04
572.626	12438.91
572.987	12574.05
573.349	12529.76
573.71	12511.22
574.071	12536.99
574.432	12570.43
574.794	12621.96
575.155	12611.11
575.516	12571.34
575.877	12629.87
576.238	12565.91
576.599	12674.61
576.96	12645.91
577.32	12672.8
577.681	12622.41
578.042	12638.45
578.403	12553.03
578.763	12621.28
579.124	12597.55
579.485	12632.13
579.845	12612.46
580.206	12647.72
580.566	12664.22
580.927	12641.62
581.287	12684.1
581.648	12614.72
582.008	12707.38
582.368	12592.13
582.728	12648.17
583.089	12658.11
583.449	12565.01
583.809	12649.3
584.169	12646.81
584.529	12541.73
584.889	12707.6
585.249	12554.84
585.609	12540.38
585.969	12683.2
586.329	12529.76
586.688	12529.53
587.048	12539.92
587.408	12561.39
587.768	12609.08
588.127	12547.83
588.487	12521.62
588.846	12623.99
589.206	12470.77
589.565	12401.62
589.925	12552.13
590.284	12562.97
590.643	12405.46
591.003	12497.21
591.362	12571.34
591.721	12423.77
592.08	12488.17
592.44	12426.48
592.799	12462.86
593.158	12431.9
593.517	12454.28
593.876	12465.58
594.235	12432.81
594.593	12364.79
594.952	12428.06
595.311	12330.44
595.67	12363.43
596.029	12498.34
596.387	12410.44
596.746	12406.37
597.104	12358.23
597.463	12375.86
597.822	12433.94
598.18	12372.02
598.538	12332.47
598.897	12436.42
599.255	12334.73
599.613	12484.33
599.972	12457.89
600.33	12384.45
600.688	12390.32
601.046	12398.01
601.404	12460.83
601.762	12353.49
602.12	12433.03
602.478	12420.38
602.836	12407.72
603.194	12442.75
603.552	12416.31
603.91	12355.07
604.268	12428.06
604.625	12386.93
604.983	12373.38
605.341	12322.08
605.698	12418.57
606.056	12411.57
606.413	12458.34
606.771	12396.65
607.128	12361.85
607.485	12364.34
607.843	12445.01
608.2	12461.51
608.557	12431.68
608.914	12344.68
609.272	12427.16
609.629	12487.5
609.986	12457.21
610.343	12463.99
610.7	12509.87
611.057	12512.35
611.414	12467.84
611.771	12519.59
612.127	12564.78
612.484	12552.81
612.841	12604.56
613.198	12508.29
613.554	12511.22
613.911	12666.02
614.267	12628.96
614.624	12570.21
614.98	12646.36
615.337	12662.18
615.693	12653.59
616.05	12600.94
616.406	12714.16
616.762	12617.89
617.118	12733.59
617.475	12675.51
617.831	12662.18
618.187	12745.12
618.543	12650.66
618.899	12721.39
619.255	12722.52
619.611	12759.13
619.967	12728.62
620.323	12779.24
620.678	12745.34
621.034	12715.51
621.39	12735.85
621.746	12747.6
622.101	12856.07
622.457	12721.61
622.812	12730.65
623.168	12807.04
623.523	12741.95
623.879	12753.7
624.234	12752.12
624.589	12773.82
624.945	12759.58
625.3	12710.77
625.655	12756.19
626.01	12838.22
626.365	12755.74
626.72	12742.18
627.075	12753.48
627.43	12768.85
627.785	12671.22
628.14	12731.11
628.495	12736.08
628.85	12679.81
629.205	12667.15
629.559	12757.09
629.914	12710.99
630.269	12741.95
630.623	12727.49
630.978	12672.35
631.332	12743.08
631.687	12673.93
632.041	12616.76
632.396	12645.68
632.75	12633.26
633.104	12664.67
633.459	12496.31
633.813	12597.1
634.167	12562.52
634.521	12501.73
634.875	12535.86
635.229	12591.67
635.583	12422.19
635.937	12496.08
636.291	12476.2
636.645	12406.82
636.999	12446.37
637.352	12512.81
637.706	12328.18
638.06	12421.06
638.413	12381.28
638.767	12361.4
639.121	12320.72
639.474	12238.01
639.828	12281.63
640.181	12353.26
640.534	12254.06
640.888	12336.31
641.241	12267.39
641.594	12268.97
641.947	12263.55
642.301	12289.31
642.654	12280.04
643.007	12233.04
643.36	12296.54
643.713	12224.23
644.066	12286.37
644.419	12153.72
644.771	12104.91
645.124	12059.71
645.477	11939.94
645.83	11808.87
646.182	11804.8
646.535	11860.17
646.888	11851.81
647.24	11777.68
647.593	11866.95
647.945	11797.57
648.298	11761.19
648.65	11749.21
649.002	11694.52
649.355	11698.59
649.707	11770.45
650.059	11819.04
650.411	11921.64
650.763	11979.94
651.115	12089.99
651.467	12070.33
651.819	12072.37
652.171	12014.51
652.523	11967.51
652.875	11984.46
653.227	11976.1
653.578	12015.42
653.93	12051.12
654.282	11974.06
654.633	11919.15
654.985	12017.68
655.337	12033.05
655.688	11942.65
656.039	11970.45
656.391	11976.32
656.742	12046.6
657.094	11954.63
657.445	12066.94
657.796	12002.54
658.147	12007.51
658.498	12019.71
658.849	12005.7
659.2	11953.95
659.551	11976.78
659.902	12010.9
660.253	12044.57
660.604	12051.35
660.955	12089.99
661.306	12149.2
661.656	12000.28
662.007	12064.46
662.358	11975.65
662.708	12006.83
663.059	12051.8
663.409	11958.47
663.76	12069.43
664.11	12035.53
664.461	12145.13
664.811	12108.07
665.161	12089.31
665.511	12046.38
665.862	12050.67
666.212	12170.67
666.562	12122.99
666.912	12088.86
667.262	12125.7
667.612	12030.11
667.962	12092.48
668.312	12019.49
668.662	12098.13
669.011	12012.03
669.361	12058.36
669.711	12055.42
670.06	12047.51
670.41	12064
670.76	12024.46
671.109	12050.67
671.459	12022.88
671.808	11989.2
672.157	12098.58
672.507	11989.88
672.856	11923.22
673.205	11951.92
673.554	11961.63
673.904	11933.16
674.253	12012.48
674.602	11907.17
674.951	11789.21
675.3	11760.28
675.649	11938.58
675.998	11833.28
676.346	11832.15
676.695	11943.56
677.044	11823.79
677.393	11888.19
677.741	11886.38
678.09	11933.84
678.438	11828.98
678.787	11911.01
679.135	11872.6
679.484	11767.74
679.832	11843.67
680.181	11723.9
680.529	11745.6
680.877	11692.94
681.225	11650.46
681.573	11717.57
681.922	11694.52
682.27	11626.95
682.618	11537.01
682.966	11576.11
683.314	11603.45
683.661	11564.13
684.009	11470.35
684.357	11517.35
684.705	11474.42
685.053	11513.74
685.4	11401.88
685.748	11432.16
686.095	11342.44
686.443	11296.12
686.79	11356.23
687.138	11325.95
687.485	11316.23
687.832	11282.33
688.18	11289.56
688.527	11237.36
688.874	11278.04
689.221	11161.66
689.568	11177.25
689.915	11169.79
690.262	11148.77
690.609	11116.01
690.956	11010.25
691.303	10974.99
691.65	10937.48
691.997	10940.42
692.344	10887.09
692.69	10814.09
693.037	10766.41
693.383	10697.71
693.73	10746.75
694.077	10675.79
694.423	10697.94
694.769	10595.57
695.116	10530.94
695.462	10606.42
695.808	10546.76
696.155	10528.23
696.501	10424.73
696.847	10468.79
697.193	10384.27
697.539	10380.89
697.885	10328.01
698.231	10278.29
698.577	10260.44
698.923	10230.83
699.269	10203.04
699.614	10122.81
699.96	10096.6
700.306	10117.16
700.651	10026.77
700.997	9923.72
701.342	9934.12
701.688	9979.99
702.033	9916.26
702.379	9903.16
702.724	9898.19
703.069	9822.71
703.415	9724.41
703.76	9782.26
704.105	9698.64
704.45	9735.48
704.795	9683.95
705.14	9627.23
705.485	9608.48
705.83	9619.78
706.175	9576.84
706.52	9565.31
706.865	9499.55
707.209	9447.58
707.554	9488.93
707.899	9403.51
708.243	9358.54
708.588	9469.27
708.932	9309.5
709.277	9283.06
709.621	9294.36
709.966	9227.92
710.31	9295.49
710.654	9174.82
710.998	9164.65
711.342	9180.46
711.687	9190.86
712.031	9121.71
712.375	9057.08
712.719	9078.09
713.063	9039.23
713.407	9048.26
713.75	9027.25
714.094	9074.7
714.438	9006.68
714.782	8969.17
715.125	8986.35
715.469	8985.22
715.812	8951.09
716.156	8859.57
716.499	8793.81
716.843	8854.82
717.186	8853.02
717.53	8844.2
717.873	8859.57
718.216	8850.53
718.559	8807.37
718.902	8722.17
719.246	8800.81
719.589	8759.91
719.932	8703.42
720.275	8681.04
720.617	8672.91
720.96	8660.7
721.303	8691.44
721.646	8646.24
721.989	8622.51
722.331	8713.13
722.674	8608.28
723.016	8638.11
723.359	8597.2
723.701	8598.33
724.044	8581.61
724.386	8584.55
724.729	8627.26
725.071	8613.7
725.413	8550.88
725.755	8521.95
726.097	8564.89
726.439	8510.43
726.782	8494.16
727.124	8503.19
727.465	8497.54
727.807	8537.54
728.149	8514.72
728.491	8458.68
728.833	8527.6
729.175	8489.18
729.516	8445.57
729.858	8443.54
730.199	8406.02
730.541	8422.52
730.882	8420.26
731.224	8423.2
731.565	8411.9
731.906	8439.92
732.248	8405.57
732.589	8414.61
732.93	8394.5
733.271	8427.26
733.612	8401.95
733.953	8457.77
734.294	8388.62
734.635	8398.56
734.976	8439.69
735.317	8405.12
735.658	8410.77
735.999	8365.8
736.339	8401.5
736.68	8415.74
737.021	8382.97
737.361	8401.05
737.702	8457.09
738.042	8453.48
738.383	8450.54
738.723	8449.41
739.063	8503.42
739.404	8545
739.744	8449.41
740.084	8463.87
740.424	8498.9
740.764	8502.74
741.104	8564.66
741.444	8496.87
741.784	8551.33
742.124	8518.79
742.464	8469.3
742.804	8554.94
743.143	8573.7
743.483	8593.81
743.823	8599.46
744.162	8609.41
744.502	8716.97
744.841	8662.74
745.181	8740.7
745.52	8753.13
745.86	8769.63
746.199	8828.61
746.538	8845.11
746.877	8882.85
747.216	8977.31
747.556	8974.82
747.895	9090.75
748.234	9106.12
748.573	9088.94
748.911	9135.72
749.25	9257.3
749.589	9271.76
749.928	9376.39
750.267	9445.99
750.605	9466.56
750.944	9555.14
751.283	9641.47
751.621	9697.29
751.96	9707.91
752.298	9879.88
752.636	10047.79
752.975	10062.93
753.313	10136.37
753.651	10219.99
753.989	10271.51
754.327	10397.16
754.666	10459.75
755.004	10680.31
755.342	10765.28
755.679	10837.14
756.017	10944.03
756.355	11129.79
756.693	11196.23
757.031	11350.35
757.368	11415.43
757.706	11617.91
758.044	11704.01
758.381	11912.14
758.719	11984.01
759.056	12173.38
759.394	12351.23
759.731	12430.55
760.068	12633.93
760.405	12756.42
760.743	12891.1
761.08	13142.62
761.417	13218.32
761.754	13384.42
762.091	13630.52
762.428	13717.29
762.765	13749.84
763.102	14056.04
763.438	14199.09
763.775	14373.1
764.112	14449.48
764.449	14702.81
764.785	14764.27
765.122	14889.92
765.458	14999.07
765.795	15162.45
766.131	15288.55
766.467	15513.41
766.804	15506.17
767.14	15670.92
767.476	15879.27
767.812	15913.85
768.148	16165.82
768.485	16163.78
768.821	16226.38
769.157	16355.42
769.492	16547.05
769.828	16686.93
770.164	16693.04
770.5	16773.49
770.836	16935.97
771.171	17032.24
771.507	17149.97
771.842	17064.1
772.178	17259.35
772.513	17298.22
772.849	17415.73
773.184	17457.99
773.519	17549.74
773.855	17524.43
774.19	17653.46
774.525	17706.12
774.86	17849.62
775.195	17842.61
775.53	17859.33
775.865	17808.03
776.2	17821.59
776.535	17927.35
776.87	17908.14
777.205	18008.93
777.539	17988.14
777.874	18134.58
778.209	18060.01
778.543	18048.03
778.878	18079.89
779.212	18223.84
779.547	18123.51
779.881	18256.61
780.215	18281.47
780.55	18299.77
780.884	18189.49
781.218	18292.54
781.552	18211.64
781.886	18293.67
782.22	18265.42
782.554	18235.14
782.888	18201.47
783.222	18216.84
783.556	18121.25
783.889	18132.09
784.223	18030.4
784.557	17965.77
784.89	18070.63
785.224	18064.53
785.557	18061.36
785.891	18056.62
786.224	18037.86
786.558	18107.69
786.891	17893.23
787.224	17891.87
787.557	17943.62
787.891	17892.78
788.224	17902.5
788.557	17893
788.89	17984.08
789.223	17867.69
789.556	17789.73
789.888	17658.21
790.221	17799.67
790.554	17577.98
790.887	17746.34
791.219	17625.44
791.552	17589.28
791.884	17465.22
792.217	17532.11
792.549	17471.77
792.882	17475.84
793.214	17326.92
793.546	17449.4
793.879	17257.99
794.211	17228.16
794.543	17354.49
794.875	17257.77
795.207	17228.84
795.539	17239.46
795.871	17244.21
796.203	17075.17
796.535	17038.56
796.867	17065.46
797.198	17016.87
797.53	17017.55
797.862	16915.85
798.193	16840.6
798.525	16824.56
798.856	16920.15
799.188	16708.18
799.519	16634.28
799.85	16522.87
800.182	16610.78
800.513	16634.51
800.844	16492.36
801.175	16633.15
801.506	16514.96
801.837	16404.91
802.168	16500.05
802.499	16342.31
802.83	16335.08
803.161	16226.38
803.491	16210.11
803.822	16208.08
804.153	16177.79
804.483	16091.7
804.814	16010.57
805.145	16155.87
805.475	15972.83
805.805	15949.78
806.136	15955.88
806.466	15920.4
806.796	15934.41
807.126	15783.91
807.457	15802.66
807.787	15728.09
808.117	15728.99
808.447	15732.61
808.777	15643.12
809.107	15683.34
809.436	15566.29
809.766	15614.42
810.096	15465.95
810.426	15546.85
810.755	15421.2
811.085	15383.01
811.414	15366.06
811.744	15279.06
812.073	15228.44
812.403	15224.6
812.732	15193.19
813.061	15241.77
813.39	15183.47
813.719	15156.58
814.049	15224.83
814.378	15139.63
814.707	15054.21
815.036	15126.07
815.365	15081.33
815.693	14937.83
816.022	14915.68
816.351	14866.42
816.68	14750.71
817.008	14837.72
817.337	14662.13
817.665	14708.68
817.994	14682.69
818.322	14675.91
818.651	14652.19
818.979	14533.09
819.307	14701.45
819.636	14661.68
819.964	14514.79
820.292	14596.37
820.62	14599.31
820.948	14534.22
821.276	14533.54
821.604	14413.1
821.932	14500.1
822.259	14521.34
822.587	14563.6
822.915	14441.8
823.243	14519.53
823.57	14476.6
823.898	14496.26
824.225	14468.46
824.553	14415.81
824.88	14444.73
825.207	14509.36
825.535	14465.75
825.862	14532.41
826.189	14436.6
826.516	14547.56
826.843	14559.98
827.17	14482.47
827.497	14587.78
827.824	14553.2
828.151	14534.22
828.478	14561.79
828.805	14588.46
829.131	14479.76
829.458	14512.53
829.785	14476.82
830.111	14506.2
830.438	14542.36
830.764	14506.88
831.09	14607.67
831.417	14540.55
831.743	14579.19
832.069	14498.07
832.395	14482.47
832.722	14512.3
833.048	14465.07
833.374	14446.09
833.7	14375.58
834.026	14299.2
834.351	14473.43
834.677	14377.39
835.003	14454.22
835.329	14482.02
835.654	14350.5
835.98	14276.6
836.306	14373.1
836.631	14231.86
836.956	14375.13
837.282	14333.32
837.607	14228.69
837.932	14254.23
838.258	14250.16
838.583	14277.51
838.908	14116.61
839.233	14219.88
839.558	14187.34
839.883	14077.29
840.208	14024.86
840.533	14049.49
840.858	14088.36
841.182	13993.22
841.507	14002.94
841.832	13987.34
842.156	13970.17
842.481	13885.65
842.805	13850.62
843.13	13847.23
843.454	13830.51
843.778	13665.32
844.103	13714.81
844.427	13681.82
844.751	13664.19
845.075	13694.7
845.399	13625.77
845.723	13562.5
846.047	13564.08
846.371	13444.99
846.695	13449.73
847.019	13255.61
847.343	13312.33
847.666	13224.88
847.99	13161.38
848.313	13168.83
848.637	13061.72
848.96	13041.15
849.284	12998.9
849.607	12925.9
849.931	12899.24
850.254	12800.48
850.577	12745.79
850.9	12673.03
851.223	12669.86
851.546	12631.9
851.869	12598.68
852.192	12573.82
852.515	12480.49
852.838	12376.54
853.161	12416.76
853.483	12308.29
853.806	12364.11
854.129	12285.47
854.451	12197.79
854.774	12095.19
855.096	12162.53
855.419	12149.88
855.741	12035.31
856.063	11990.11
856.385	11930.9
856.708	11948.75
857.03	11913.73
857.352	11901.07
857.674	11860.62
857.996	11825.82
858.318	11766.39
858.64	11820.17
858.961	11673.96
859.283	11707.86
859.605	11606.39
859.926	11602.55
860.248	11650.91
860.57	11602.32
860.891	11572.27
861.212	11519.84
861.534	11509.44
861.855	11399.84
862.176	11459.5
862.498	11450.01
862.819	11536.11
863.14	11401.88
863.461	11399.16
863.782	11318.71
864.103	11380.86
864.424	11321.65
864.745	11283.69
865.065	11262.22
865.386	11160.3
865.707	11194.42
866.027	11162.11
866.348	11109.91
866.668	11081.66
866.989	11153.07
867.309	11095.22
867.63	11059.96
867.95	11081.66
868.27	11034.2
868.59	11105.84
868.91	11013.18
869.23	11047.99
869.55	10978.38
869.87	11005.95
870.19	10939.97
870.51	10949.46
870.83	10993.98
871.15	10882.57
871.469	10862.68
871.789	10934.09
872.109	10884.37
872.428	10726.86
872.748	10783.59
873.067	10784.94
873.386	10801.67
873.706	10757.37
874.025	10701.1
874.344	10742.91
874.663	10744.04
874.982	10680.76
875.301	10702.01
875.62	10660.2
875.939	10717.6
876.258	10666.08
876.577	10599.86
876.896	10595.34
877.214	10609.35
877.533	10564.61
877.852	10554.89
878.17	10500.43
878.489	10516.7
878.807	10465.4
879.125	10480.54
879.444	10408.91
879.762	10434.9
880.08	10433.09
880.398	10346.08
880.716	10424.05
881.034	10330.27
881.352	10382.02
881.67	10352.41
881.988	10380.66
882.306	10266.54
882.624	10198.74
882.941	10186.54
883.259	10138.63
883.577	10095.69
883.894	10148.57
884.212	10119.65
884.529	10118.07
884.846	10072.64
885.164	9928.24
885.481	10000.1
885.798	10029.93
886.115	9973.89
886.432	9976.38
886.75	9926.66
887.067	9904.29
887.383	9835.59
887.7	9869.49
888.017	9866.1
888.334	9787.91
888.651	9761.24
888.967	9827.23
889.284	9723.73
889.6	9716.72
889.917	9634.24
890.233	9603.28
890.55	9601.92
890.866	9642.15
891.182	9560.34
891.498	9551.08
891.815	9512.89
892.131	9516.28
892.447	9367.35
892.763	9421.81
893.079	9363.74
893.395	9372.1
893.71	9368.93
894.026	9253.91
894.342	9293
894.657	9155.15
894.973	9232.89
895.289	9205.77
895.604	9211.65
895.92	9070.86
896.235	9024.31
896.55	9080.13
896.865	9048.72
897.181	9029.06
897.496	9012.11
897.811	9001.03
898.126	8886.01
898.441	8907.93
898.756	8836.29
899.071	8816.18
899.386	8799.46
899.7	8729.4
900.015	8728.05
900.33	8674.72
900.644	8610.76
900.959	8688.95
901.273	8611.21
901.588	8567.83
901.902	8469.52
902.216	8479.24
902.531	8476.08
902.845	8392.69
903.159	8392.69
903.473	8420.03
903.787	8319.7
904.101	8315.85
904.415	8263.88
904.729	8246.25
905.042	8176.65
905.356	8170.77
905.67	8166.25
905.984	8143.66
906.297	8100.04
906.611	8069.08
906.924	8014.62
907.237	8020.04
907.551	7955.64
907.864	7995.41
908.177	7967.84
908.491	7830.22
908.804	7862.08
909.117	7758.36
909.43	7814.4
909.743	7664.35
910.056	7741.41
910.368	7658.92
910.681	7663.67
910.994	7579.83
911.307	7597.68
911.619	7508.19
911.932	7543.22
912.244	7477.23
912.557	7524.24
912.869	7448.76
913.181	7392.04
913.494	7336.67
913.806	7347.74
914.118	7286.05
914.43	7270.23
914.742	7260.97
915.054	7171.48
915.366	7162.44
915.678	7123.8
915.99	7086.06
916.302	7054.65
916.613	7058.49
916.925	6998.83
917.236	7049.22
917.548	6956.34
917.859	6982.1
918.171	6928.77
918.482	6927.19
918.794	6831.37
919.105	6800.41
919.416	6768.32
919.727	6774.43
920.038	6776.46
920.349	6666.41
920.66	6672.96
920.971	6695.11
921.282	6668.21
921.593	6570.14
921.903	6597.93
922.214	6579.86
922.525	6553.19
922.835	6497.82
923.146	6536.01
923.456	6451.5
923.767	6420.99
924.077	6390.26
924.387	6355.91
924.697	6331.5
925.008	6320.88
925.318	6281.11
925.628	6348
925.938	6254.67
926.248	6197.94
926.558	6200.43
926.867	6169.24
927.177	6149.13
927.487	6131.05
927.796	6088.79
928.106	6033.65
928.416	6097.16
928.725	6026.42
929.034	6018.97
929.344	5999.53
929.653	5933.54
929.962	5889.03
930.271	5889.48
930.581	5839.76
930.89	5854.9
931.199	5768.13
931.508	5803.6
931.817	5795.7
932.125	5775.81
932.434	5795.7
932.743	5721.57
933.051	5683.38
933.36	5687.22
933.669	5604.74
933.977	5601.12
934.286	5544.85
934.594	5558.64
934.902	5527.23
935.21	5520.22
935.519	5552.76
935.827	5450.39
936.135	5512.99
936.443	5425.99
936.751	5429.15
937.059	5386.21
937.367	5310.74
937.674	5369.94
937.982	5312.54
938.29	5296.5
938.597	5260.34
938.905	5234.58
939.213	5260.12
939.52	5209.27
939.827	5172.89
940.135	5153.23
940.442	5155.26
940.749	5170.4
941.056	5096.28
941.363	5078.2
941.67	5062.16
941.977	4981.25
942.284	4971.99
942.591	5000.91
942.898	4961.59
943.205	4971.76
943.511	4914.14
943.818	4884.98
944.125	4892.44
944.431	4858.09
944.738	4861.71
945.044	4867.36
945.35	4798.21
945.657	4776.96
945.963	4785.55
946.269	4729.28
946.575	4771.09
946.881	4700.58
947.187	4702.84
947.493	4643.18
947.799	4640.7
948.105	4637.31
948.41	4559.57
948.716	4623.3
949.022	4567.93
949.327	4541.49
949.633	4539.23
949.938	4519.34
950.244	4502.85
950.549	4472.34
950.854	4445.67
951.16	4421.95
951.465	4447.03
951.77	4401.83
952.075	4356.18
952.38	4346.24
952.685	4280.93
952.99	4308.28
953.294	4316.19
953.599	4270.09
953.904	4259.46
954.209	4259.24
954.513	4243.19
954.818	4195.96
955.122	4192.8
955.426	4174.49
955.731	4159.58
956.035	4132.69
956.339	4116.42
956.643	4109.86
956.948	4075.97
957.252	4062.18
957.556	4035.06
957.86	4007.04
958.163	4001.17
958.467	4010.21
958.771	3940.83
959.075	3959.59
959.378	3949.42
959.682	3985.35
959.985	3943.99
960.289	3877.78
960.592	3889.98
960.896	3842.07
961.199	3879.36
961.502	3840.04
961.805	3806.37
962.108	3791
962.411	3743.32
962.714	3784.67
963.017	3746.03
963.32	3723.21
963.623	3714.85
963.926	3692.47
964.228	3675.07
964.531	3666.94
964.833	3635.53
965.136	3672.59
965.438	3603.66
965.741	3575.87
966.043	3595.98
966.345	3536.32
966.648	3573.83
966.95	3583.78
967.252	3518.47
967.554	3519.6
967.856	3487.06
968.158	3474.4
968.46	3436.66
968.761	3478.92
969.063	3434.85
969.365	3428.07
969.666	3439.6
969.968	3381.75
970.269	3389.88
970.571	3416.55
970.872	3388.98
971.174	3353.05
971.475	3315.08
971.776	3324.35
972.077	3290.22
972.378	3272.6
972.679	3279.6
972.98	3241.41
973.281	3236.67
973.582	3231.02
973.883	3208.19
974.183	3201.19
974.484	3183.56
974.785	3165.71
975.085	3120.06
975.386	3183.11
975.686	3117.35
975.986	3100.4
976.287	3036.67
976.587	3033.73
976.887	3064.47
977.187	3068.31
977.487	3032.15
977.787	2996.67
978.087	3028.31
978.387	2964.36
978.687	2974.3
978.987	2992.83
979.286	2943.11
979.586	2899.27
979.885	2918.03
980.185	2908.09
980.484	2912.16
980.784	2927.97
981.083	2864.47
981.382	2877.13
981.682	2861.53
981.981	2831.48
982.28	2823.34
982.579	2827.64
982.878	2807.98
983.177	2816.11
983.475	2798.71
983.774	2768.2
984.073	2734.53
984.372	2698.15
984.67	2740.86
984.969	2690.01
985.267	2702.44
985.566	2701.99
985.864	2703.12
986.162	2677.36
986.461	2651.37
986.759	2632.39
987.057	2620.19
987.355	2641.2
987.653	2593.52
987.951	2581.77
988.249	2572.05
988.547	2586.51
988.844	2595.1
989.142	2571.6
989.44	2506.97
989.737	2525.95
990.035	2540.41
990.332	2518.72
990.63	2498.61
990.927	2478.27
991.224	2475.56
991.521	2467.42
991.819	2438.95
992.116	2473.97
992.413	2446.4
992.71	2419.06
993.006	2369.57
993.303	2390.13
993.6	2375.22
993.897	2385.62
994.193	2379.51
994.49	2357.82
994.787	2361.44
995.083	2331.83
995.379	2318.27
995.676	2276.47
995.972	2285.05
996.268	2295
996.565	2278.27
996.861	2259.29
997.157	2278.5
997.453	2238.27
997.749	2236.47
998.044	2194.66
998.34	2229.46
998.636	2230.14
998.932	2160.99
999.227	2164.38
999.523	2149.92
999.818	2165.96
1000.114	2140.42
1000.409	2091.84
1000.704	2097.71
1001	2095
1001.295	2070.6
1001.59	2066.53
1001.885	2073.76
1002.18	2042.35
1002.475	2070.14
1002.77	2041.67
1003.065	2007.09
1003.359	2013.87
1003.654	1983.37
1003.949	1978.39
1004.243	1984.72
1004.538	1972.97
1004.832	1957.15
1005.127	1955.57
1005.421	1928.68
1005.715	1914.89
1006.009	1906.08
1006.304	1901.79
1006.598	1894.55
1006.892	1872.63
1007.186	1856.14
1007.48	1887.55
1007.773	1874.67
1008.067	1829.92
1008.361	1819.53
1008.655	1792.64
1008.948	1799.64
1009.242	1778.85
1009.535	1796.93
1009.829	1779.98
1010.122	1755.35
1010.415	1751.06
1010.708	1728.01
1011.001	1726.42
1011.295	1759.87
1011.588	1713.54
1011.881	1690.72
1012.173	1688.23
1012.466	1699.98
1012.759	1686.88
1013.052	1653.66
1013.344	1664.5
1013.637	1635.58
1013.93	1643.49
1014.222	1613.66
1014.514	1630.61
1014.807	1621.34
1015.099	1598.74
1015.391	1599.42
1015.683	1592.19
1015.976	1610.04
1016.268	1594.68
1016.56	1536.6
1016.851	1535.47
1017.143	1529.82
1017.435	1527.56
1017.727	1529.14
1018.018	1503.6
1018.31	1471.97
1018.602	1486.2
1018.893	1481.46
1019.185	1475.36
1019.476	1449.59
1019.767	1458.18
1020.058	1394.91
1020.35	1441.01
1020.641	1399.88
1020.932	1432.65
1021.223	1418.64
1021.514	1402.36
1021.804	1396.49
1022.095	1355.59
1022.386	1377.51
1022.677	1350.61
1022.967	1345.87
1023.258	1326.43
1023.548	1342.93
1023.839	1331.86
1024.129	1328.24
1024.419	1297.51
1024.709	1292.08
1025	1295.7
1025.29	1282.14
1025.58	1258.87
1025.87	1277.62
1026.16	1237.62
1026.449	1252.31
1026.739	1231.07
1027.029	1246.44
1027.319	1227.68
1027.608	1214.12
1027.898	1214.12
1028.187	1208.02
1028.477	1213.67
1028.766	1170.05
1029.055	1175.25
1029.344	1144.07
1029.634	1135.25
1029.923	1150.17
1030.212	1165.99
1030.501	1163.73
1030.79	1120.11
1031.078	1145.65
1031.367	1114.01
1031.656	1130.73
1031.945	1106.1
1032.233	1114.91
1032.522	1115.14
1032.81	1081.24
1033.099	1089.15
1033.387	1083.5
1033.675	1082.6
1033.963	1042.37
1034.251	1040.57
1034.54	1069.49
1034.828	1023.17
1035.116	1035.14
1035.403	1054.12
1035.691	1013.22
1035.979	1018.19
1036.267	998.53
1036.554	1006.67
1036.842	997.86
1037.129	993.56
1037.417	970.74
1037.704	989.72
1037.992	969.16
1038.279	962.38
1038.566	969.38
1038.853	969.38
1039.14	969.38
