Data from hue_300_FLMS001491_00076.txt Node
Date: Tue Feb 07 15:51:11 GMT 2017
User: dcchb
Spectrometer: FLMS00149
Trigger mode: 0
Integration Time (sec): 2.000000E-2
Scans to average: 10
Electric dark correction enabled: true
Nonlinearity correction enabled: false
Boxcar width: 0
XAxis mode: Wavelengths
Number of Pixels in Spectrum: 2048
>>>>>Begin Spectral Data<<<<<
341.393	-3.95
341.776	-3.95
342.16	-3.95
342.543	-40.56
342.927	-52.32
343.31	-80.56
343.693	-72.88
344.077	-57.51
344.46	-64.97
344.843	-39.66
345.226	-30.39
345.61	-20.68
345.993	-23.62
346.376	-3.05
346.759	8.93
347.142	8.47
347.525	49.83
347.908	77.17
348.291	67.91
348.674	78.98
349.057	102.03
349.44	112.88
349.823	147.91
350.206	170.73
350.588	180.22
350.971	205.76
351.354	212.99
351.737	224.97
352.119	249.82
352.502	252.99
352.884	252.99
353.267	273.78
353.65	281.69
354.032	283.95
354.414	305.42
354.797	312.2
355.179	309.48
355.562	312.87
355.944	330.5
356.326	325.98
356.709	333.89
357.091	332.08
357.473	320.56
357.855	320.78
358.238	335.25
358.62	342.25
359.002	335.02
359.384	344.06
359.766	320.78
360.148	352.19
360.53	337.05
360.912	332.99
361.294	335.47
361.676	318.3
362.057	333.44
362.439	320.78
362.821	335.02
363.203	323.49
363.584	323.95
363.966	305.42
364.348	322.59
364.729	320.33
365.111	301.35
365.493	310.39
365.874	314.68
366.256	320.56
366.637	328.69
367.019	311.97
367.4	316.71
367.781	311.29
368.163	318.97
368.544	308.35
368.925	321.23
369.306	323.27
369.688	341.35
370.069	320.33
370.45	325.53
370.831	302.25
371.212	320.56
371.593	316.49
371.974	309.71
372.355	342.48
372.736	316.04
373.117	311.07
373.498	305.19
373.879	346.32
374.26	346.54
374.641	328.92
375.021	318.97
375.402	320.56
375.783	316.26
376.163	322.59
376.544	330.73
376.925	323.49
377.305	330.5
377.686	336.15
378.066	351.29
378.447	316.04
378.827	330.5
379.208	323.49
379.588	305.42
379.968	342.25
380.349	324.85
380.729	334.79
381.109	344.96
381.489	336.83
381.87	345.64
382.25	346.77
382.63	342.02
383.01	347
383.39	333.89
383.77	343.83
384.15	339.54
384.53	327.34
384.91	334.34
385.29	338.64
385.67	331.18
386.049	352.19
386.429	366.43
386.809	343.15
387.189	363.72
387.568	346.54
387.948	349.26
388.328	330.5
388.707	331.86
389.087	367.11
389.466	349.03
389.846	347
390.225	393.32
390.605	370.72
390.984	354.68
391.363	358.52
391.743	366.88
392.122	369.82
392.501	378.63
392.881	391.29
393.26	382.48
393.639	368.92
394.018	372.76
394.397	399.42
394.776	369.14
395.155	395.81
395.534	382.25
395.913	383.83
396.292	384.96
396.671	390.39
397.05	407.11
397.429	406.2
397.808	387.9
398.186	385.41
398.565	390.16
398.944	408.24
399.323	421.34
399.701	397.84
400.08	415.24
400.458	405.75
400.837	402.14
401.215	391.06
401.594	422.7
401.972	429.71
402.351	418.18
402.729	403.04
403.107	430.61
403.486	447.56
403.864	444.85
404.242	436.94
404.62	425.41
404.999	448.46
405.377	445.07
405.755	461.12
406.133	440.55
406.511	455.24
406.889	477.16
407.267	442.14
407.645	472.19
408.023	480.1
408.401	480.78
408.779	470.84
409.156	477.16
409.534	524.17
409.912	501.12
410.29	499.53
410.667	533.88
411.045	533.21
411.422	532.53
411.8	534.79
412.178	564.39
412.555	532.53
412.933	576.82
413.31	584.96
413.687	586.31
414.065	585.86
414.442	595.58
414.819	593.77
415.197	614.56
415.574	616.37
415.951	622.24
416.328	640.77
416.705	644.39
417.082	632.41
417.46	678.29
417.837	673.09
418.214	695.69
418.591	681
418.967	669.7
419.344	704.28
419.721	716.93
420.098	716.48
420.475	723.71
420.852	722.81
421.228	744.05
421.605	740.21
421.982	740.43
422.358	765.74
422.735	767.32
423.111	779.53
423.488	772.75
423.864	820.88
424.241	829.92
424.617	808.23
424.994	821.33
425.37	828.79
425.746	838.06
426.123	871.73
426.499	888.68
426.875	853.88
427.251	870.82
427.627	909.92
428.003	913.76
428.379	933.65
428.756	931.61
429.132	937.49
429.507	960.99
429.883	947.21
430.259	975.45
430.635	981.33
431.011	993.08
431.387	1006.41
431.763	1028.56
432.138	1029.92
432.514	1068.33
432.89	1064.72
433.265	1073.98
433.641	1080.99
434.016	1076.24
434.392	1093.19
434.767	1110.82
435.143	1123.25
435.518	1142.23
435.894	1163.92
436.269	1150.59
436.644	1166.64
437.02	1184.26
437.395	1212.06
437.77	1225.17
438.145	1217.03
438.52	1256.58
438.895	1264.26
439.271	1261.77
439.646	1255.9
440.021	1248.22
440.395	1272.62
440.77	1256.13
441.145	1292.73
441.52	1299.29
441.895	1288.67
442.27	1315.56
442.645	1330.93
443.019	1326.63
443.394	1327.99
443.769	1329.57
444.143	1342.22
444.518	1341.32
444.892	1344.26
445.267	1367.31
445.641	1361.43
446.016	1366.18
446.39	1363.02
446.764	1360.76
447.139	1396.46
447.513	1411.15
447.887	1369.79
448.262	1394.65
448.636	1403.47
449.01	1390.58
449.384	1429.45
449.758	1432.84
450.132	1439.17
450.506	1411.83
450.88	1438.72
451.254	1413.86
451.628	1475.55
452.002	1488.89
452.376	1499.96
452.75	1497.25
453.123	1478.72
453.497	1506.74
453.871	1485.95
454.244	1545.16
454.618	1548.32
454.992	1545.61
455.365	1537.25
455.739	1588.55
456.112	1583.8
456.486	1578.83
456.859	1610.92
457.232	1624.03
457.606	1607.3
457.979	1654.76
458.352	1654.53
458.725	1625.83
459.099	1685.04
459.472	1711.71
459.845	1711.71
460.218	1709.9
460.591	1744.93
460.964	1731.59
461.337	1750.8
461.71	1774.98
462.083	1810.23
462.456	1770.46
462.829	1765.04
463.201	1791.7
463.574	1813.17
463.947	1838.26
464.32	1855.66
464.692	1874.41
465.065	1898.59
465.438	1899.27
465.81	1895.2
466.183	1911.93
466.555	1936.56
466.928	1949.89
467.3	1960.74
467.672	2016.56
468.045	2032.15
468.417	2044.8
468.789	2001.19
469.161	2024.01
469.534	2085.71
469.906	2101.53
470.278	2120.74
470.65	2124.12
471.022	2141.98
471.394	2178.59
471.766	2152.6
472.138	2225.59
472.51	2246.16
472.882	2251.13
473.253	2264.23
473.625	2278.25
473.997	2318.24
474.369	2320.28
474.74	2346.04
475.112	2365.7
475.484	2398.24
475.855	2430.78
476.227	2418.58
476.598	2508.52
476.97	2514.85
477.341	2524.79
477.713	2577.45
478.084	2566.83
478.455	2637.78
478.827	2636.43
479.198	2679.59
479.569	2689.31
479.94	2736.31
480.311	2765.69
480.682	2787.61
481.053	2846.14
481.424	2830.1
481.795	2888.17
482.166	2924.1
482.537	2913.48
482.908	2988.06
483.279	2988.06
483.65	3007.27
484.021	3049.3
484.391	3095.62
484.762	3135.4
485.133	3129.07
485.503	3165.68
485.874	3204.32
486.244	3177.43
486.615	3282.29
486.985	3308.27
487.356	3335.39
487.726	3344.66
488.097	3412.9
488.467	3400.02
488.837	3449.74
489.207	3487.48
489.578	3506.24
489.948	3551.88
490.318	3574.03
490.688	3561.83
491.058	3623.07
491.428	3649.06
491.798	3640.47
492.168	3752.1
492.538	3731.99
492.908	3738.09
493.278	3772.9
493.648	3773.12
494.017	3848.37
494.387	3867.58
494.757	3859.9
495.126	3917.3
495.496	3916.17
495.866	3915.49
496.235	3966.34
496.605	3995.04
496.974	3970.86
497.344	4035.26
497.713	3996.39
498.082	4038.88
498.452	4107.8
498.821	4085.88
499.19	4100.57
499.559	4126.56
499.928	4176.73
500.298	4167.46
500.667	4173.34
501.036	4191.19
501.405	4260.79
501.774	4211.08
502.143	4240.91
502.512	4262.37
502.88	4317.29
503.249	4273.67
503.618	4332.43
503.987	4351.64
504.356	4366.78
504.724	4343.28
505.093	4385.76
505.462	4364.97
505.83	4377.85
506.199	4454.01
506.567	4464.85
506.936	4453.78
507.304	4487.45
507.672	4493.78
508.041	4484.06
508.409	4518.86
508.777	4535.36
509.145	4548.69
509.514	4545.3
509.882	4583.72
510.25	4574.46
510.618	4609.48
510.986	4622.36
511.354	4636.15
511.722	4688.35
512.09	4693.32
512.458	4665.3
512.826	4709.14
513.193	4727.9
513.561	4767.9
513.929	4711.18
514.297	4763.83
514.664	4769.71
515.032	4817.61
515.4	4836.6
515.767	4871.85
516.135	4787.78
516.502	4753.21
516.869	4849.25
517.237	4895.8
517.604	4878.4
517.972	4933.32
518.339	4894.9
518.706	4940.1
519.073	4914.11
519.44	4966.54
519.808	5009.02
520.175	4974.45
520.542	5017.61
520.909	5032.75
521.276	5021.22
521.643	5061.67
522.009	5086.31
522.376	5100.32
522.743	5137.61
523.11	5133.31
523.477	5118.62
523.843	5191.84
524.21	5204.95
524.577	5251.73
524.943	5246.53
525.31	5269.13
525.676	5279.52
526.043	5326.98
526.409	5335.11
526.776	5409.46
527.142	5422.12
527.508	5443.36
527.874	5435.22
528.241	5521.55
528.607	5522.68
528.973	5492.62
529.339	5536.01
529.705	5536.01
530.071	5608.33
530.437	5667.31
530.803	5655.56
531.169	5683.58
531.535	5669.79
531.901	5677.7
532.267	5711.83
532.632	5764.71
532.998	5754.99
533.364	5832.28
533.73	5832.95
534.095	5832.28
534.461	5891.48
534.826	5856.46
535.192	5897.13
535.557	5986.17
535.923	5938.94
536.288	5976
536.653	6000.63
537.019	6045.15
537.384	6044.7
537.749	6023.68
538.114	6064.59
538.479	6114.53
538.845	6088.77
539.21	6150.69
539.575	6128.54
539.94	6163.11
540.305	6215.77
540.67	6248.08
541.034	6244.92
541.399	6262.77
541.764	6300.06
542.129	6314.98
542.494	6329.89
542.858	6402.2
543.223	6412.37
543.587	6453.5
543.952	6467.51
544.316	6479.26
544.681	6531.92
545.045	6481.3
545.41	6577.12
545.774	6543.67
546.138	6554.06
546.503	6630.67
546.867	6622.76
547.231	6654.63
547.595	6685.13
547.959	6754.51
548.324	6719.03
548.688	6741.4
549.052	6831.57
549.416	6762.87
549.779	6771.46
550.143	6851.46
550.507	6877.9
550.871	6884.9
551.235	6881.51
551.599	7002.19
551.962	6920.83
552.326	7015.52
552.689	7012.13
553.053	6929.87
553.417	7076.31
553.78	7110.43
554.143	7081.96
554.507	7085.35
554.87	7154.73
555.234	7170.77
555.597	7106.14
555.96	7152.24
556.323	7199.7
556.686	7235.4
557.05	7281.5
557.413	7253.71
557.776	7269.75
558.139	7294.38
558.502	7289.19
558.865	7297.55
559.228	7346.13
559.59	7362.18
559.953	7437.88
560.316	7450.09
560.679	7551.1
561.041	7583.19
561.404	7497.54
561.767	7598.78
562.129	7552.23
562.492	7628.84
562.854	7591.78
563.217	7606.92
563.579	7627.03
563.941	7632.23
564.304	7706.58
564.666	7780.7
565.028	7754.94
565.39	7771.43
565.753	7806.01
566.115	7794.03
566.477	7893.01
566.839	7888.04
567.201	7929.62
567.563	7975.72
567.925	7997.87
568.287	7965.1
568.648	8014.37
569.01	7998.32
569.372	8111.99
569.734	8078.32
570.095	8166.45
570.457	8184.53
570.819	8187.69
571.18	8240.35
571.542	8328.48
571.903	8386.11
572.265	8328.71
572.626	8371.42
572.987	8357.63
573.349	8476.05
573.71	8566.22
574.071	8582.26
574.432	8584.75
574.794	8641.47
575.155	8755.59
575.516	8709.04
575.877	8861.8
576.238	9007.11
576.599	9047.78
576.96	9138.86
577.32	9118.07
577.681	9229.02
578.042	9341.34
578.403	9374.1
578.763	9538.39
579.124	9553.53
579.485	9697.26
579.845	9857.03
580.206	9919.17
580.566	10001.21
580.927	10130.92
581.287	10308.09
581.648	10444.58
582.008	10591.92
582.368	10680.28
582.728	10916.21
583.089	11049.99
583.449	11148.29
583.809	11393.49
584.169	11543.54
584.529	11647.49
584.889	11963.19
585.249	12123.86
585.609	12264.2
585.969	12632.1
586.329	12723.62
586.688	12969.94
587.048	13223.04
587.408	13409.93
587.768	13641.79
588.127	13970.37
588.487	14125.17
588.846	14501.88
589.206	14564.48
589.565	14893.73
589.925	15197.45
590.284	15352.7
590.643	15677.21
591.003	16043.31
591.362	16292.34
591.721	16603.07
592.08	16922.15
592.44	17118.08
592.799	17418.64
593.158	17729.36
593.517	17931.17
593.876	18378.39
594.235	18602.56
594.593	18812.95
594.952	19191.7
595.311	19452.48
595.67	19779.71
596.029	20219.02
596.387	20437.77
596.746	20737.65
597.104	21008.15
597.463	21207.46
597.822	21635.25
598.18	21851.29
598.538	22121.34
598.897	22566.98
599.255	22719.97
599.613	23304.13
599.972	23394.07
600.33	23764.91
600.688	23931.01
601.046	24295.07
601.404	24615.51
601.762	24807.37
602.12	25239.22
602.478	25465.21
602.836	25780.9
603.194	25860.45
603.552	26102.03
603.91	26380.89
604.268	26705.4
604.625	26988.56
604.983	27279.85
605.341	27394.19
605.698	27758.48
606.056	28038.47
606.413	28213.61
606.771	28510.32
607.128	28661.05
607.485	28856.3
607.843	29227.37
608.2	29402.73
608.557	29901.25
608.914	29914.58
609.272	30138.53
609.629	30449.48
609.986	30654.22
610.343	30739.19
610.7	31169.46
611.057	31272.29
611.414	31364.26
611.771	31627.53
612.127	31971.93
612.484	31934.41
612.841	32276.33
613.198	32361.75
613.554	32654.4
613.911	32898.91
614.267	32900.04
614.624	33134.38
614.98	33395.17
615.337	33746.12
615.693	33670.41
616.05	33721.71
616.406	34090.52
616.762	34014.81
617.118	34162.83
617.475	34317.4
617.831	34608.24
618.187	34584.97
618.543	34799.65
618.899	35126.2
619.255	35216.81
619.611	35369.35
619.967	35426.07
620.323	35616.58
620.678	35562.34
621.034	35684.82
621.39	35843.24
621.746	35782
622.101	36303.79
622.457	36099.05
622.812	36328.2
623.168	36461.98
623.523	36627.85
623.879	36714.4
624.234	36511.7
624.589	36767.06
624.945	36887.73
625.3	36900.84
625.655	37094.28
626.01	37095.18
626.365	37029.65
626.72	37200.49
627.075	37261.05
627.43	37263.09
627.785	37357.55
628.14	37348.06
628.495	37472.12
628.85	37498.11
629.205	37376.08
629.559	37613.59
629.914	37612.46
630.269	37644.77
630.623	37753.47
630.978	37510.99
631.332	37887.03
631.687	37757.54
632.041	37740.59
632.396	37854.03
632.75	37763.87
633.104	37723.87
633.459	37618.11
633.813	37827.37
634.167	37813.81
634.521	37828.72
634.875	37968.83
635.229	37933.35
635.583	37711.89
635.937	37809.97
636.291	37792.79
636.645	37723.41
636.999	37700.36
637.352	37878.89
637.706	37744.21
638.06	37908.95
638.413	37764.77
638.767	37792.34
639.121	37945.78
639.474	37645.68
639.828	37609.52
640.181	37694.94
640.534	37901.04
640.888	37647.03
641.241	37544.89
641.594	37557.77
641.947	37756.41
642.301	37675.51
642.654	37703.98
643.007	37795.5
643.36	37703.75
643.713	37654.94
644.066	37979.23
644.419	37651.33
644.771	37483.2
645.124	37071.91
645.477	37059.48
645.83	36836.88
646.182	36819.26
646.535	36624.91
646.888	36541.3
647.24	36408.87
647.593	36770.9
647.945	36691.13
648.298	36374.3
648.65	36545.14
649.002	36456.1
649.355	36635.76
649.707	36711.01
650.059	36712.37
650.411	37169.53
650.763	37336.31
651.115	37465.12
651.467	37437.55
651.819	37447.04
652.171	37293.14
652.523	37256.99
652.875	37336.31
653.227	37078.23
653.578	37478.45
653.93	37495.62
654.282	37113.49
654.633	36982.64
654.985	37192.81
655.337	37270.09
655.688	37262.18
656.039	37386.93
656.391	37037.11
656.742	37106.03
657.094	37096.76
657.445	37267.83
657.796	37124.56
658.147	37034.17
658.498	37186.71
658.849	37310.54
659.2	37062.64
659.551	37053.15
659.902	37201.17
660.253	37249.08
660.604	37144
660.955	36833.72
661.306	37121.4
661.656	37087.73
662.007	37055.86
662.358	37193.26
662.708	37132.7
663.059	37104.9
663.409	36812.48
663.76	37094.05
664.11	37087.73
664.461	37042.98
664.811	37120.04
665.161	37066.03
665.511	36905.81
665.862	36896.54
666.212	37056.09
666.562	37162.75
666.912	37001.63
667.262	36972.02
667.612	36976.77
667.962	37062.42
668.312	36969.54
668.662	36991.23
669.011	37047.5
669.361	36929.54
669.711	36811.57
670.06	36944.68
670.41	36771.35
670.76	36762.31
671.109	37030.78
671.459	36783.55
671.808	36772.48
672.157	36912.14
672.507	36635.76
672.856	36642.31
673.205	36662.43
673.554	36863.1
673.904	36743.55
674.253	36774.51
674.602	36738.36
674.951	36235.09
675.3	36125.04
675.649	36522.32
675.998	36610
676.346	36579.49
676.695	36715.98
677.044	36502.88
677.393	36605.93
677.741	36566.61
678.09	36530.23
678.438	36559.15
678.787	36497.46
679.135	36522.99
679.484	36212.27
679.832	36345.6
680.181	36141.54
680.529	36265.37
680.877	36214.53
681.225	36023.57
681.573	36447.06
681.922	36080.97
682.27	36054.31
682.618	35998.71
682.966	35963.01
683.314	35990.58
683.661	35867.87
684.009	35804.14
684.357	35731.83
684.705	35716.69
685.053	35829
685.4	35654.54
685.748	35580.87
686.095	35465.17
686.443	35274.21
686.79	35309.47
687.138	35425.4
687.485	35295
687.832	35178.85
688.18	35111.73
688.527	35042.36
688.874	34990.38
689.221	34997.61
689.568	34793.55
689.915	34685.75
690.262	34736.83
690.609	34577.28
690.956	34500.9
691.303	34596.04
691.65	34253.9
691.997	34353.79
692.344	34283.73
692.69	34020.91
693.037	34211.64
693.383	33919.9
693.73	33951.76
694.077	33747.25
694.423	33873.35
694.769	33595.61
695.116	33681.49
695.462	33574.37
695.808	33543.19
696.155	33589.29
696.501	33400.36
696.847	33113.59
697.193	33172.35
697.539	33118.79
697.885	32852.58
698.231	32752.92
698.577	32710.67
698.923	32761.06
699.269	32622.31
699.614	32461.41
699.96	32389.32
700.306	32335.76
700.651	32322.2
700.997	32127.63
701.342	32194.52
701.688	32044.24
702.033	31996.56
702.379	31913.85
702.724	31760.86
703.069	31860.74
703.415	31572.62
703.76	31492.17
704.105	31535.55
704.45	31397.93
704.795	31295.79
705.14	31179.86
705.485	31157.03
705.83	31065.51
706.175	31042.91
706.52	30981.22
706.865	30860.32
707.209	30955.46
707.554	30744.39
707.899	30724.28
708.243	30726.54
708.588	30722.92
708.932	30405.42
709.277	30458.52
709.621	30522.7
709.966	30223.05
710.31	30303.5
710.654	29980.12
710.998	30144.41
711.342	30086.33
711.687	30073.22
712.031	29863.96
712.375	29839.55
712.719	29852.44
713.063	29771.99
713.407	29912.77
713.75	29775.6
714.094	29647.7
714.438	29588.49
714.782	29599.56
715.125	29395.95
715.469	29600.24
715.812	29200.93
716.156	29078.44
716.499	29144.43
716.843	29150.53
717.186	29012.23
717.53	29095.62
717.873	29127.48
718.216	29018.79
718.559	28796.64
718.902	28790.99
719.246	28807.04
719.589	28626.03
719.932	28688.62
720.275	28588.97
720.617	28706.02
720.96	28534.96
721.303	28503.32
721.646	28559.36
721.989	28226.49
722.331	28514.84
722.674	28314.85
723.016	28265.13
723.359	28233.04
723.701	28263.55
724.044	28132.93
724.386	27910.11
724.729	28155.53
725.071	27976.78
725.413	27947.85
725.755	27814.3
726.097	27745.15
726.439	27723.9
726.782	27755.54
727.124	27767.74
727.465	27599.61
727.807	27691.81
728.149	27620.18
728.491	27554.64
728.833	27556.22
729.175	27567.52
729.516	27483.46
729.858	27391.71
730.199	27458.37
730.541	27418.83
730.882	27492.95
731.224	27420.63
731.565	27301.77
731.906	27290.02
732.248	27305.61
732.589	27040.53
732.93	27050.48
733.271	27076.46
733.612	27073.98
733.953	27139.51
734.294	26948.56
734.635	26925.05
734.976	26890.71
735.317	26809.35
735.658	26876.02
735.999	26827.2
736.339	26793.98
736.68	26890.03
737.021	26722.8
737.361	26645.74
737.702	26750.82
738.042	26680.09
738.383	26549.92
738.723	26675.8
739.063	26614.55
739.404	26504.73
739.744	26557.83
740.084	26421.11
740.424	26356.93
740.764	26303.15
741.104	26502.47
741.444	26337.05
741.784	26280.1
742.124	26264.06
742.464	26172.31
742.804	26117.39
743.143	26189.03
743.483	26110.39
743.823	25901.35
744.162	25962.82
744.502	26038.3
744.841	25944.74
745.181	25994.46
745.52	25883.5
745.86	25838.53
746.199	25906.78
746.538	25890.96
746.877	25942.93
747.216	25914.01
747.556	25853.9
747.895	25920.79
748.234	25758.31
748.573	25649.16
748.911	25699.32
749.25	25637.4
749.589	25573.45
749.928	25632.21
750.267	25625.65
750.605	25553.79
750.944	25457.07
751.283	25428.14
751.621	25535.49
751.96	25461.82
752.298	25394.7
752.636	25424.53
752.975	25271.54
753.313	25119.45
753.651	25273.12
753.989	25231.31
754.327	25175.04
754.666	25095.05
755.004	25156.51
755.342	25107.7
755.679	24990.42
756.017	24995.61
756.355	25108.61
756.693	24881.94
757.031	24978.67
757.368	24793.36
757.706	24835.62
758.044	24777.99
758.381	24749.07
758.719	24646.7
759.056	24768.05
759.394	24685.34
759.731	24522.86
760.068	24458.9
760.405	24441.05
760.743	24216.43
761.08	24442.41
761.417	24319.47
761.754	24333.03
762.091	24267.05
762.428	24096.88
762.765	24004.45
763.102	24168.29
763.438	24032.48
763.775	23880.16
764.112	23895.98
764.449	23907.96
764.785	23728.08
765.122	23639.04
765.458	23621.64
765.795	23562.43
766.131	23531.7
766.467	23423.23
766.804	23379.84
767.14	23252.83
767.476	23205.83
767.812	23119.73
768.148	23115.44
768.485	23012.16
768.821	22872.73
769.157	22940.07
769.492	22789.12
769.828	22748.22
770.164	22640.42
770.5	22567.43
770.836	22597.71
771.171	22371.95
771.507	22439.52
771.842	22178.74
772.178	22228.46
772.513	22108.68
772.849	22182.81
773.184	22002.02
773.519	21903.49
773.855	21807.45
774.19	21779.43
774.525	21628.47
774.86	21805.64
775.195	21685.19
775.53	21632.54
775.865	21519.32
776.2	21280.23
776.535	21176.96
776.87	21223.74
777.205	21152.33
777.539	20956.85
777.874	21068.71
778.209	20863.75
778.543	20848.83
778.878	20748.49
779.212	20752.56
779.547	20699.91
779.881	20569.06
780.215	20477.77
780.55	20529.29
780.884	20315.51
781.218	20265.12
781.552	20328.39
781.886	20175.18
782.22	20041.17
782.554	19985.35
782.888	19834.17
783.222	19871.45
783.556	19795.75
783.889	19609.54
784.223	19540.84
784.557	19507.85
784.89	19562.99
785.224	19491.13
785.557	19345.37
785.891	19351.47
786.224	19288.87
786.558	19200.96
786.891	18997.35
787.224	19016.56
787.557	19002.1
787.891	18889.33
788.224	18832.16
788.557	18831.48
788.89	18776.79
789.223	18718.49
789.556	18625.84
789.888	18537.93
790.221	18534.54
790.554	18386.75
790.887	18273.3
791.219	18251.84
791.552	18223.59
791.884	18121.22
792.217	18115.79
792.549	17997.38
792.882	17942.01
793.214	17875.35
793.546	17936.14
793.879	17742.25
794.211	17631.06
794.543	17703.83
794.875	17596.49
795.207	17627.67
795.539	17532.76
795.871	17500.9
796.203	17309.49
796.535	17312.88
796.867	17293.67
797.198	17278.53
797.53	17234.46
797.862	17035.15
798.193	17090.96
798.525	16984.3
798.856	16987.24
799.188	16897.07
799.519	16875.15
799.85	16731.2
800.182	16711.76
800.513	16724.64
800.844	16517.87
801.175	16613.91
801.506	16559
801.837	16442.62
802.168	16435.61
802.499	16351.1
802.83	16182.06
803.161	16239.46
803.491	16160.59
803.822	16139.12
804.153	16064.1
804.483	15955.63
804.814	16001.27
805.145	15939.58
805.475	15921.05
805.805	15876.08
806.136	15809.41
806.466	15835.18
806.796	15766.25
807.126	15655.07
807.457	15561.29
807.787	15592.47
808.117	15530.55
808.447	15541.63
808.777	15529.87
809.107	15482.42
809.436	15395.64
809.766	15412.14
810.096	15253.27
810.426	15242.65
810.755	15278.13
811.085	15230.45
811.414	15246.27
811.744	15106.83
812.073	15076.33
812.403	15060.73
812.732	14945.93
813.061	14947.97
813.39	14912.26
813.719	14848.99
814.049	14874.3
814.378	14774.19
814.707	14663.23
815.036	14764.7
815.365	14624.59
815.693	14537.36
816.022	14551.82
816.351	14551.82
816.68	14411.03
817.008	14489
817.337	14377.59
817.665	14346.63
817.994	14401.32
818.322	14317.25
818.651	14279.51
818.979	14149.35
819.307	14269.57
819.636	14261.66
819.964	14102.79
820.292	14218.5
820.62	14184.37
820.948	14106.18
821.276	14115.9
821.604	14065.51
821.932	14127.65
822.259	14065.51
822.587	14030.03
822.915	13965.62
823.243	14017.82
823.57	13985.28
823.898	14057.82
824.225	14016.47
824.553	13997.71
824.88	14027.99
825.207	14028.67
825.535	13953.87
825.862	14006.75
826.189	13957.94
826.516	14055.56
826.843	14018.05
827.17	14060.31
827.497	14114.54
827.824	14037.71
828.151	14045.17
828.478	14049.46
828.805	14070.7
829.131	13987.32
829.458	14033.87
829.785	13822.8
830.111	13954.77
830.438	14017.6
830.764	13955.45
831.09	13899.41
831.417	13936.47
831.743	13956.58
832.069	13925.62
832.395	13891.73
832.722	13931.95
833.048	13886.75
833.374	13870.71
833.7	13821.67
834.026	13810.37
834.351	13739.64
834.677	13811.5
835.003	13745.97
835.329	13834.55
835.654	13757.04
835.98	13691.05
836.306	13739.41
836.631	13650.6
836.956	13719.75
837.282	13708.23
837.607	13639.08
837.932	13607.21
838.258	13545.75
838.583	13602.24
838.908	13442.7
839.233	13538.74
839.558	13545.97
839.883	13534.45
840.208	13428.91
840.533	13437.73
840.858	13409.93
841.182	13416.71
841.507	13406.31
841.832	13274.57
842.156	13270.5
842.481	13310.5
842.805	13285.41
843.13	13261.01
843.454	13242.93
843.778	13152.99
844.103	13072.09
844.427	13060.11
844.751	13025.99
845.075	12949.38
845.399	12943.28
845.723	12893.11
846.047	12943.05
846.371	12786.44
846.695	12772.88
847.019	12748.7
847.343	12623.06
847.666	12597.07
847.99	12597.97
848.313	12530.86
848.637	12466.45
848.96	12435.27
849.284	12418.54
849.607	12356.85
849.931	12204.99
850.254	12280.47
850.577	12150.53
850.9	12115.5
851.223	12083.86
851.546	12012.68
851.869	11955.5
852.192	11927.26
852.515	11958.89
852.838	11841.61
853.161	11842.51
853.483	11757.09
853.806	11743.08
854.129	11693.82
854.451	11689.98
854.774	11646.81
855.096	11613.59
855.419	11579.92
855.741	11503.09
856.063	11470.09
856.385	11446.82
856.708	11369.98
857.03	11384.9
857.352	11339.25
857.674	11327.95
857.996	11238.24
858.318	11206.15
858.64	11193.94
858.961	11144.23
859.283	11094.28
859.605	11057.45
859.926	11155.98
860.248	11064.91
860.57	11052.7
860.891	11027.17
861.212	10958.02
861.534	10875.08
861.855	10864.01
862.176	10905.36
862.498	10923.89
862.819	10882.54
863.14	10885.93
863.461	10811.81
863.782	10777
864.103	10746.72
864.424	10666.05
864.745	10755.54
865.065	10737.23
865.386	10646.84
865.707	10683
866.027	10659.27
866.348	10631.47
866.668	10661.98
866.989	10616.33
867.309	10558.48
867.63	10581.76
867.95	10500.63
868.27	10496.33
868.59	10447.75
868.91	10512.83
869.23	10496.33
869.55	10410.69
869.87	10454.53
870.19	10404.81
870.51	10388.99
870.83	10358.94
871.15	10340.18
871.469	10320.52
871.789	10328.2
872.109	10323.01
872.428	10233.29
872.748	10239.62
873.067	10325.94
873.386	10223.57
873.706	10222.44
874.025	10180.18
874.344	10185.83
874.663	10182.22
874.982	10094.31
875.301	10152.84
875.62	10090.92
875.939	10065.84
876.258	10080.75
876.577	10026.06
876.896	10039.62
877.214	10023.58
877.533	10063.58
877.852	10005.95
878.17	9957.82
878.489	9995.1
878.807	9949.68
879.125	9915.78
879.444	9883.24
879.762	9847.54
880.08	9899.29
880.398	9850.02
880.716	9824.49
881.034	9763.25
881.352	9833.75
881.67	9796.01
881.988	9767.54
882.306	9757.6
882.624	9669.92
882.941	9677.6
883.259	9667.43
883.577	9626.3
883.894	9567.77
884.212	9615.45
884.529	9647.77
884.846	9473.54
885.164	9462.24
885.481	9466.3
885.798	9462.69
886.115	9504.5
886.432	9454.1
886.75	9388.79
887.067	9457.27
887.383	9396.7
887.7	9353.09
888.017	9296.59
888.334	9304.28
888.651	9323.26
888.967	9293.2
889.284	9212.75
889.6	9155.58
889.917	9171.85
890.233	9142.7
890.55	9101.57
890.866	9152.41
891.182	9081.91
891.498	9019.31
891.815	8998.97
892.131	8938.64
892.447	8924.85
892.763	8897.51
893.079	8899.54
893.395	8884.4
893.71	8772.09
894.026	8918.97
894.342	8800.33
894.657	8808.02
894.973	8746.32
895.289	8805.53
895.604	8799.88
895.92	8611.19
896.235	8553.79
896.55	8591.07
896.865	8585.42
897.181	8577.06
897.496	8542.49
897.811	8523.28
898.126	8418.2
898.441	8413.45
898.756	8442.6
899.071	8353.79
899.386	8312.21
899.7	8287.58
900.015	8264.98
900.33	8204.87
900.644	8246
900.959	8227.69
901.273	8187.92
901.588	8124.87
901.902	8120.58
902.216	8124.87
902.531	8048.71
902.845	8007.13
903.159	7959.23
903.473	7937.98
903.787	7946.12
904.101	7897.53
904.415	7818.89
904.729	7843.75
905.042	7812.11
905.356	7850.08
905.67	7775.95
905.984	7704.54
906.297	7736.41
906.611	7635.17
906.924	7644.43
907.237	7590.65
907.551	7652.34
907.864	7652.57
908.177	7558.56
908.491	7538.9
908.804	7514.04
909.117	7495.28
909.43	7420.26
909.743	7358.11
910.056	7340.71
910.368	7321.5
910.681	7262.29
910.994	7233.14
911.307	7228.17
911.619	7159.92
911.932	7180.94
912.244	7079.7
912.557	7109.98
912.869	7029.08
913.181	7023.88
913.494	7095.29
913.806	6983.43
914.118	6974.17
914.43	6921.06
914.742	6941.4
915.054	6860.5
915.366	6868.18
915.678	6871.12
915.99	6780.95
916.302	6790.22
916.613	6715.87
916.925	6700.95
917.236	6713.83
917.548	6641.75
917.859	6655.76
918.171	6555.19
918.482	6568.3
918.794	6537.12
919.105	6502.31
919.416	6453.05
919.727	6500.28
920.038	6418.25
920.349	6397.91
920.66	6361.98
920.971	6349.32
921.282	6356.33
921.593	6288.31
921.903	6284.02
922.214	6277.01
922.525	6201.76
922.835	6158.14
923.146	6157.47
923.456	6181.87
923.767	6121.99
924.077	6075.43
924.387	6046.51
924.697	6004.93
925.008	6020.29
925.318	6001.09
925.628	5979.39
925.938	5959.28
926.248	5908.21
926.558	5893.52
926.867	5853.52
927.177	5821.88
927.487	5816.46
927.796	5785.5
928.106	5754.54
928.416	5728.32
928.725	5720.87
929.034	5687.42
929.344	5688.33
929.653	5633.19
929.962	5625.05
930.271	5617.14
930.581	5541.66
930.89	5528.78
931.199	5482.68
931.508	5479.29
931.817	5430.03
932.125	5448.33
932.434	5438.39
932.743	5383.02
933.051	5347.54
933.36	5314.78
933.669	5322.91
933.977	5298.96
934.286	5249.47
934.594	5263.48
934.902	5222.12
935.21	5190.03
935.519	5218.51
935.827	5212.86
936.135	5173.08
936.443	5142.58
936.751	5084.73
937.059	5109.81
937.367	5053.31
937.674	5052.18
937.982	5073.2
938.29	5017.83
938.597	4983.26
938.905	4940.55
939.213	4927.22
939.52	4917.5
939.827	4912.98
940.135	4919.53
940.442	4813.09
940.749	4858.52
941.056	4845.86
941.363	4759.99
941.67	4775.13
941.977	4749.59
942.284	4730.61
942.591	4755.92
942.898	4682.7
943.205	4625.08
943.511	4671.4
943.818	4633.66
944.125	4595.47
944.431	4589.82
944.738	4593.44
945.044	4553.44
945.35	4508.24
945.657	4501.46
945.963	4457.17
946.269	4469.83
946.575	4468.7
946.881	4486.77
947.187	4404.06
947.493	4396.16
947.799	4343.5
948.105	4350.96
948.41	4329.26
948.716	4350.28
949.022	4284.75
949.327	4258.31
949.633	4233.22
949.938	4193.22
950.244	4256.27
950.549	4186.44
950.854	4149.83
951.16	4159.78
951.465	4155.94
951.77	4149.61
952.075	4096.95
952.38	4074.81
952.685	4051.98
952.99	4038.88
953.294	4035.94
953.599	4031.87
953.904	4007.47
954.209	3992.1
954.513	3974.7
954.818	3891.31
955.122	3931.76
955.426	3959.33
955.731	3907.58
956.035	3873.01
956.339	3912.33
956.643	3852.89
956.948	3837.07
957.252	3840.24
957.556	3821.48
957.86	3773.8
958.163	3781.03
958.467	3768.38
958.771	3728.83
959.075	3733.57
959.378	3701.71
959.682	3714.14
959.985	3700.35
960.289	3612.9
960.592	3638.66
960.896	3650.64
961.199	3614.71
961.502	3581.04
961.805	3574.03
962.108	3516.4
962.411	3524.54
962.714	3522.28
963.017	3486.57
963.32	3495.16
963.623	3477.76
963.926	3474.15
964.228	3480.02
964.531	3483.41
964.833	3444.09
965.136	3431.66
965.438	3370.19
965.741	3388.05
966.043	3371.55
966.345	3325.9
966.648	3351.66
966.95	3325.45
967.252	3280.93
967.554	3308.05
967.856	3247.03
968.158	3244.1
968.46	3250.42
968.761	3236.86
969.063	3217.66
969.365	3203.42
969.666	3199.12
969.968	3206.81
970.269	3179.46
970.571	3151.89
970.872	3150.09
971.174	3142.86
971.475	3108.51
971.776	3074.83
972.077	3114.38
972.378	3055.85
972.679	3069.86
972.98	3061.73
973.281	3055.63
973.582	3019.24
973.883	3031.22
974.183	2972.01
974.484	2985.57
974.785	2932.69
975.085	2972.92
975.386	2940.37
975.686	2932.69
975.986	2919.36
976.287	2927.72
976.587	2875.52
976.887	2878.68
977.187	2869.87
977.487	2867.16
977.787	2839.81
978.087	2840.72
978.387	2826.93
978.687	2802.75
978.987	2795.75
979.286	2756.2
979.586	2776.31
979.885	2742.87
980.185	2712.36
980.484	2730.21
980.784	2725.01
981.083	2701.28
981.382	2656.77
981.682	2678.46
981.981	2687.05
982.28	2641.85
982.579	2620.84
982.878	2664.45
983.177	2637.11
983.475	2615.64
983.774	2571.8
984.073	2549.42
984.372	2554.62
984.67	2559.82
984.969	2565.02
985.267	2528.41
985.566	2532.25
985.864	2526.83
986.162	2522.31
986.461	2466.04
986.759	2473.27
987.057	2466.94
987.355	2419.71
987.653	2485.25
987.951	2420.16
988.249	2427.17
988.547	2445.47
988.844	2424.46
989.142	2412.48
989.44	2354.4
989.737	2401.63
990.035	2351.01
990.332	2343.55
990.63	2388.3
990.927	2321.41
991.224	2313.05
991.521	2308.07
991.819	2285.25
992.116	2301.52
992.413	2313.5
992.71	2238.47
993.006	2246.16
993.303	2246.16
993.6	2242.99
993.897	2237.57
994.193	2220.85
994.49	2202.31
994.787	2180.17
995.083	2203.44
995.379	2186.04
995.676	2172.94
995.972	2162.09
996.268	2160.73
996.565	2127.51
996.861	2137.01
997.157	2083.9
997.453	2078.02
997.749	2093.84
998.044	2056.33
998.34	2067.4
998.636	2050.45
998.932	2061.08
999.227	2017.01
999.523	2023.34
999.818	2013.62
1000.114	1997.8
1000.409	2001.42
1000.704	1971.13
1001	1994.64
1001.295	1934.98
1001.59	1966.39
1001.885	1914.19
1002.18	1958.03
1002.475	1911.25
1002.77	1925.03
1003.065	1867.86
1003.359	1897.69
1003.654	1891.59
1003.949	1887.3
1004.243	1875.54
1004.538	1826.51
1004.832	1888.2
1005.127	1836.45
1005.421	1818.6
1005.715	1804.59
1006.009	1805.26
1006.304	1796.22
1006.598	1779.28
1006.892	1752.16
1007.186	1746.51
1007.48	1774.53
1007.773	1757.35
1008.067	1717.81
1008.361	1686.4
1008.655	1694.98
1008.948	1701.31
1009.242	1694.08
1009.535	1697.92
1009.829	1680.07
1010.122	1672.84
1010.415	1645.27
1010.708	1632.61
1011.001	1624.48
1011.295	1611.37
1011.588	1609.34
1011.881	1621.99
1012.173	1588.32
1012.466	1575.66
1012.759	1603.46
1013.052	1603.23
1013.344	1555.1
1013.637	1553.97
1013.93	1524.37
1014.222	1546.96
1014.514	1496.8
1014.807	1521.88
1015.099	1481.2
1015.391	1480.98
1015.683	1484.82
1015.976	1497.25
1016.268	1472.62
1016.56	1470.81
1016.851	1443.01
1017.143	1460.41
1017.435	1446.4
1017.727	1439.62
1018.018	1399.62
1018.31	1407.76
1018.602	1413.41
1018.893	1416.8
1019.185	1396.23
1019.476	1381.77
1019.767	1363.02
1020.058	1342.68
1020.35	1313.3
1020.641	1379.96
1020.932	1344.48
1021.223	1322.79
1021.514	1318.72
1021.804	1309.01
1022.095	1299.97
1022.386	1285.28
1022.677	1289.8
1022.967	1246.63
1023.258	1238.95
1023.548	1236.69
1023.839	1246.63
1024.129	1264.03
1024.419	1243.24
1024.709	1228.78
1025	1210.93
1025.29	1215.9
1025.58	1187.2
1025.87	1186.97
1026.16	1172.06
1026.449	1179.97
1026.739	1158.27
1027.029	1159.63
1027.319	1162.12
1027.608	1158.95
1027.898	1175.45
1028.187	1137.48
1028.477	1104.49
1028.766	1118.28
1029.055	1106.3
1029.344	1117.37
1029.634	1090.93
1029.923	1082.34
1030.212	1088.9
1030.501	1112.17
1030.79	1063.36
1031.078	1050.71
1031.367	1090.93
1031.656	1033.08
1031.945	1074.89
1032.233	1041.89
1032.522	1034.21
1032.81	1041.89
1033.099	1022.68
1033.387	1001.44
1033.675	1007.77
1033.963	983.36
1034.251	979.97
1034.54	996.47
1034.828	982.91
1035.116	977.04
1035.403	988.56
1035.691	940.43
1035.979	966.64
1036.267	962.8
1036.554	953.31
1036.842	953.76
1037.129	930.26
1037.417	921.9
1037.704	926.19
1037.992	905.4
1038.279	917.83
1038.566	876.7
1038.853	876.7
1039.14	876.7
