Data from hue_220_FLMS001491_00011.txt Node
Date: Tue Feb 07 16:38:35 GMT 2017
User: dcchb
Spectrometer: FLMS00149
Trigger mode: 0
Integration Time (sec): 2.000000E-2
Scans to average: 10
Electric dark correction enabled: true
Nonlinearity correction enabled: false
Boxcar width: 0
XAxis mode: Wavelengths
Number of Pixels in Spectrum: 2048
>>>>>Begin Spectral Data<<<<<
341.393	-15.8
341.776	-15.8
342.16	-15.8
342.543	-63.49
342.927	-42.92
343.31	-66.88
343.693	-69.59
344.077	-59.42
344.46	-57.39
344.843	-63.26
345.226	-46.99
345.61	-47.44
345.993	-23.49
346.376	-3.6
346.759	20.58
347.142	12.22
347.525	47.7
347.908	75.49
348.291	79.79
348.674	104.19
349.057	98.09
349.44	141.93
349.823	150.74
350.206	172.66
350.588	195.26
350.971	208.14
351.354	204.3
351.737	225.77
352.119	245.21
352.502	268.26
352.884	256.73
353.267	284.3
353.65	276.84
354.032	286.56
354.414	292.89
354.797	317.75
355.179	303.06
355.562	316.84
355.944	314.36
356.326	325.2
356.709	320.23
357.091	321.36
357.473	337.18
357.855	336.05
358.238	328.14
358.62	331.76
359.002	328.14
359.384	322.72
359.766	340.8
360.148	352.32
360.53	334.02
360.912	326.56
361.294	334.24
361.676	316.62
362.057	335.82
362.439	324.98
362.821	334.47
363.203	303.96
363.584	304.86
363.966	302.38
364.348	340.12
364.729	314.13
365.111	318.42
365.493	335.6
365.874	303.06
366.256	287.01
366.637	305.54
367.019	315.49
367.4	300.8
367.781	316.39
368.163	335.82
368.544	334.69
368.925	301.02
369.306	321.59
369.688	301.02
370.069	303.96
370.45	286.79
370.831	301.7
371.212	330.17
371.593	298.54
371.974	314.81
372.355	292.89
372.736	310.06
373.117	308.48
373.498	315.71
373.879	299.22
374.26	298.99
374.641	313.9
375.021	304.41
375.402	311.19
375.783	300.35
376.163	331.3
376.544	321.81
376.925	327.69
377.305	322.27
377.686	302.15
378.066	298.54
378.447	340.12
378.827	321.81
379.208	306.22
379.588	325.43
379.968	329.5
380.349	322.27
380.729	309.38
381.109	317.07
381.489	339.44
381.87	333.34
382.25	334.02
382.63	339.89
383.01	336.28
383.39	339.21
383.77	338.99
384.15	329.5
384.53	340.57
384.91	352.77
385.29	346.45
385.67	355.71
386.049	353.23
386.429	343.28
386.809	350.06
387.189	357.74
387.568	344.86
387.948	361.81
388.328	341.25
388.707	353.23
389.087	352.77
389.466	379.44
389.846	352.1
390.225	338.08
390.605	360.91
390.984	370.63
391.363	359.55
391.743	380.34
392.122	362.49
392.501	362.49
392.881	377.41
393.26	370.85
393.639	372.21
394.018	372.66
394.397	378.31
394.776	384.18
395.155	370.85
395.534	374.24
395.913	391.19
396.292	390.96
396.671	402.49
397.05	384.86
397.429	385.99
397.808	376.28
398.186	405.65
398.565	388.03
398.944	386.44
399.323	389.16
399.701	387.57
400.08	400.91
400.458	386.9
400.837	408.82
401.215	435.03
401.594	408.82
401.972	425.99
402.351	414.24
402.729	411.98
403.107	427.8
403.486	413.11
403.864	428.03
404.242	433.68
404.62	437.74
404.999	431.42
405.377	447.01
405.755	457.4
406.133	441.13
406.511	427.12
406.889	468.48
407.267	457.63
407.645	449.49
408.023	482.71
408.401	480.45
408.779	484.97
409.156	488.59
409.534	501.92
409.912	483.84
410.29	509.83
410.667	477.74
411.045	522.03
411.422	511.64
411.8	512.32
412.178	549.38
412.555	543.28
412.933	538.08
413.31	563.84
413.687	560.68
414.065	561.13
414.442	583.28
414.819	599.32
415.197	612.65
415.574	590.51
415.951	627.12
416.328	641.58
416.705	619.88
417.082	628.47
417.46	658.98
417.837	673.22
418.214	648.81
418.591	667.12
418.967	689.94
419.344	678.64
419.721	686.1
420.098	715.7
420.475	703.95
420.852	718.19
421.228	736.72
421.605	724.06
421.982	764.06
422.358	793.67
422.735	759.32
423.111	779.43
423.488	794.12
423.864	782.37
424.241	827.79
424.617	850.16
424.994	860.1
425.37	872.31
425.746	870.73
426.123	895.36
426.499	905.3
426.875	907.56
427.251	938.29
427.627	951.85
428.003	968.58
428.379	970.84
428.756	950.95
429.132	982.59
429.507	969.71
429.883	985.52
430.259	1040.21
430.635	1011.06
431.011	1070.27
431.387	1049.03
431.763	1084.28
432.138	1087.9
432.514	1099.65
432.89	1127.67
433.265	1131.28
433.641	1159.08
434.016	1178.97
434.392	1197.27
434.767	1206.31
435.143	1231.39
435.518	1282.69
435.894	1248.79
436.269	1327.44
436.644	1320.66
437.02	1317.49
437.395	1373.99
437.77	1378.28
438.145	1417.6
438.52	1431.16
438.895	1450.6
439.271	1454.67
439.646	1483.14
440.021	1499.18
440.395	1520.43
440.77	1516.81
441.145	1534.89
441.52	1609.46
441.895	1579.86
442.27	1583.02
442.645	1646.07
443.019	1638.16
443.394	1626.19
443.769	1666.86
444.143	1675.45
444.518	1691.5
444.892	1684.94
445.267	1696.69
445.641	1734.66
446.016	1776.46
446.39	1761.1
446.764	1790.48
447.139	1764.94
447.513	1820.98
447.887	1792.51
448.262	1846.07
448.636	1806.29
449.01	1833.41
449.384	1839.97
449.758	1851.72
450.132	1880.87
450.506	1913.86
450.88	1905.05
451.254	1910.47
451.628	1938.72
452.002	1966.52
452.376	1990.24
452.75	1998.38
453.123	1992.28
453.497	2048.77
453.871	2089.22
454.244	2126.74
454.618	2121.77
454.992	2156.12
455.365	2160.64
455.739	2190.47
456.112	2196.34
456.486	2228.88
456.859	2241.09
457.232	2251.03
457.606	2259.16
457.979	2294.42
458.352	2359.27
458.725	2351.36
459.099	2392.27
459.472	2421.42
459.845	2424.81
460.218	2475.43
460.591	2478.82
460.964	2498.93
461.337	2546.39
461.71	2544.81
462.083	2587.97
462.456	2616.67
462.829	2605.82
463.201	2624.58
463.574	2668.87
463.947	2723.11
464.32	2776.44
464.692	2752.94
465.065	2791.35
465.438	2852.82
465.81	2874.51
466.183	2899.82
466.555	2951.57
466.928	2954.51
467.3	2973.72
467.672	3006.26
468.045	3078.58
468.417	3062.53
468.789	3099.14
469.161	3110.89
469.534	3147.5
469.906	3229.31
470.278	3246.93
470.65	3294.62
471.022	3354.5
471.394	3427.27
471.766	3425.69
472.138	3431.56
472.51	3545.23
472.882	3548.4
473.253	3583.2
473.625	3628.39
473.997	3680.82
474.369	3738.67
474.74	3753.36
475.112	3815.06
475.484	3833.81
475.855	3886.01
476.227	3956.75
476.598	4024.09
476.97	4095.95
477.341	4134.82
477.713	4240.81
478.084	4185.67
478.455	4320.8
478.827	4304.76
479.198	4449.61
479.569	4436.51
479.94	4570.74
480.311	4620.68
480.682	4690.96
481.053	4791.53
481.424	4800.57
481.795	4847.8
482.166	4907.91
482.537	5000.11
482.908	5076.72
483.279	5087.79
483.65	5159.43
484.021	5307.22
484.391	5292.3
484.762	5310.61
485.133	5375.01
485.503	5447.1
485.874	5566.2
486.244	5562.58
486.615	5648
486.985	5741.56
487.356	5790.14
487.726	5845.74
488.097	5944.94
488.467	5948.56
488.837	6071.72
489.207	6080.98
489.578	6208.66
489.948	6264.71
490.318	6327.31
490.688	6325.05
491.058	6435.78
491.428	6484.82
491.798	6509.9
492.168	6606.39
492.538	6643.23
492.908	6702.44
493.278	6786.73
493.648	6772.49
494.017	6872.83
494.387	6917.8
494.757	6992.6
495.126	7006.38
495.496	6976.33
495.866	7008.87
496.235	7068.3
496.605	7126.83
496.974	7144.23
497.344	7188.53
497.713	7236.21
498.082	7212.48
498.452	7331.8
498.821	7340.61
499.19	7383.1
499.559	7429.2
499.928	7438.91
500.298	7459.48
500.667	7531.34
501.036	7478.24
501.405	7619.25
501.774	7577.67
502.143	7561.85
502.512	7636.42
502.88	7653.6
503.249	7649.76
503.618	7702.64
503.987	7732.24
504.356	7795.06
504.724	7825.35
505.093	7755.06
505.462	7745.35
505.83	7879.58
506.199	7851.11
506.567	7975.85
506.936	7918.45
507.304	7917.32
507.672	7967.49
508.041	7984.21
508.409	7999.35
508.777	8051.78
509.145	8093.81
509.514	8114.83
509.882	8127.03
510.25	8117.31
510.618	8143.08
510.986	8117.31
511.354	8208.84
511.722	8265.33
512.09	8192.79
512.458	8231.89
512.826	8239.12
513.193	8259.46
513.561	8246.12
513.929	8345.56
514.297	8342.62
514.664	8398.89
515.032	8345.11
515.4	8331.77
515.767	8408.61
516.135	8353.47
516.502	8276.63
516.869	8422.17
517.237	8379.68
517.604	8261.72
517.972	8392.34
518.339	8457.19
518.706	8359.34
519.073	8418.1
519.44	8402.28
519.808	8499.9
520.175	8448.15
520.542	8521.82
520.909	8539
521.276	8507.59
521.643	8515.27
522.009	8508.04
522.376	8565.21
522.743	8563.4
523.11	8590.52
523.477	8623.52
523.843	8623.29
524.21	8690.18
524.577	8606.79
524.943	8614.48
525.31	8665.1
525.676	8717.07
526.043	8734.7
526.409	8737.64
526.776	8791.65
527.142	8784.87
527.508	8752.1
527.874	8727.02
528.241	8762.04
528.607	8712.33
528.973	8815.83
529.339	8729.05
529.705	8731.31
530.071	8784.64
530.437	8790.97
530.803	8809.5
531.169	8818.99
531.535	8767.24
531.901	8771.08
532.267	8701.48
532.632	8665.1
532.998	8716.85
533.364	8800.46
533.73	8740.58
534.095	8777.64
534.461	8734.93
534.826	8717.53
535.192	8671.42
535.557	8748.71
535.923	8667.81
536.288	8706.45
536.653	8701.25
537.019	8632.78
537.384	8666
537.749	8591.88
538.114	8619
538.479	8649.28
538.845	8541.71
539.21	8485.21
539.575	8566.34
539.94	8529.51
540.305	8544.87
540.67	8510.07
541.034	8476.63
541.399	8506.91
541.764	8498.77
542.129	8449.28
542.494	8407.02
542.858	8356.4
543.223	8361.83
543.587	8431.2
543.952	8348.72
544.316	8307.37
544.681	8296.75
545.045	8306.01
545.41	8336.74
545.774	8323.86
546.138	8156.86
546.503	8225.79
546.867	8221.72
547.231	8253.81
547.595	8230.08
547.959	8178.33
548.324	8197.31
548.688	8060.14
549.052	8178.33
549.416	8080.25
549.779	7999.35
550.143	8094.49
550.507	8058.11
550.871	8036.41
551.235	7991.89
551.599	8010.42
551.962	8038.67
552.326	7922.74
552.689	8032.12
553.053	7949.86
553.417	7927.94
553.78	7949.18
554.143	7949.64
554.507	7972.91
554.87	7896.76
555.234	7963.87
555.597	7859.92
555.96	7909.86
556.323	7887.72
556.686	7869.19
557.05	7890.88
557.413	7875.51
557.776	7840.49
558.139	7910.09
558.502	7875.06
558.865	7911.67
559.228	7858.79
559.59	7855.85
559.953	7786.02
560.316	7894.04
560.679	7853.82
561.041	7877.1
561.404	7891.11
561.767	7947.15
562.129	7833.25
562.492	7923.2
562.854	7861.95
563.217	7904.67
563.579	7843.42
563.941	7899.47
564.304	7919.58
564.666	7943.08
565.028	7914.38
565.39	7897.66
565.753	7962.97
566.115	7995.51
566.477	7964.55
566.839	8034.83
567.201	7961.16
567.563	8030.76
567.925	8076.64
568.287	8078.45
568.648	8037.54
569.01	8048.84
569.372	8067.37
569.734	8061.5
570.095	8083.42
570.457	8113.7
570.819	8108.5
571.18	8117.77
571.542	8111.67
571.903	8172.45
572.265	8157.54
572.626	8205.67
572.987	8183.3
573.349	8189.86
573.71	8259.23
574.071	8276.63
574.432	8279.12
574.794	8331.09
575.155	8300.36
575.516	8220.59
575.877	8281.15
576.238	8317.31
576.599	8421.49
576.96	8368.83
577.32	8477.76
577.681	8383.07
578.042	8433.92
578.403	8449.74
578.763	8365.44
579.124	8487.93
579.485	8483.63
579.845	8515.27
580.206	8502.84
580.566	8481.15
580.927	8519.56
581.287	8496.29
581.648	8539.68
582.008	8546.46
582.368	8588.49
582.728	8566.12
583.089	8625.55
583.449	8556.4
583.809	8619.22
584.169	8718.65
584.529	8640.92
584.889	8709.39
585.249	8645.66
585.609	8705.32
585.969	8733.34
586.329	8703.97
586.688	8706.23
587.048	8785.09
587.408	8719.78
587.768	8758.43
588.127	8765.43
588.487	8771.99
588.846	8863.74
589.206	8788.71
589.565	8767.47
589.925	8896.28
590.284	8847.69
590.643	8885.43
591.003	8892.44
591.362	8933.11
591.721	8921.59
592.08	8911.87
592.44	8941.25
592.799	8891.76
593.158	8931.53
593.517	8985.77
593.876	8985.09
594.235	8960.23
594.593	8957.97
594.952	8984.41
595.311	8964.75
595.67	8994.81
596.029	9011.53
596.387	8993
596.746	9075.03
597.104	9016.05
597.463	8983.73
597.822	8968.82
598.18	8994.35
598.538	9020.79
598.897	9089.72
599.255	9065.54
599.613	9164.07
599.972	9082.26
600.33	9179.43
600.688	9000.46
601.046	9093.33
601.404	9131.75
601.762	9150.28
602.12	9158.42
602.478	9189.6
602.836	9171.52
603.194	9105.76
603.552	9157.06
603.91	9097.63
604.268	9153.9
604.625	9135.82
604.983	9240
605.341	9196.38
605.698	9192.09
606.056	9236.38
606.413	9208.36
606.771	9191.41
607.128	9172.88
607.485	9235.93
607.843	9240.22
608.2	9193.44
608.557	9256.27
608.914	9213.11
609.272	9378.98
609.629	9320.22
609.986	9300.11
610.343	9271.18
610.7	9322.25
611.057	9280
611.414	9286.55
611.771	9358.19
612.127	9373.55
612.484	9358.41
612.841	9399.54
613.198	9343.05
613.554	9312.99
613.911	9442.48
614.267	9418.3
614.624	9363.61
614.98	9409.71
615.337	9479.99
615.693	9449.71
616.05	9396.15
616.406	9462.82
616.762	9436.6
617.118	9475.7
617.475	9380.78
617.831	9448.13
618.187	9479.31
618.543	9423.27
618.899	9524.96
619.255	9504.4
619.611	9564.73
619.967	9559.99
620.323	9545.53
620.678	9524.06
621.034	9553.44
621.39	9534
621.746	9423.5
622.101	9577.84
622.457	9507.11
622.812	9560.21
623.168	9552.98
623.523	9536.26
623.879	9560.44
624.234	9467.79
624.589	9549.14
624.945	9512.53
625.3	9593.21
625.655	9511.85
626.01	9572.64
626.365	9561.34
626.72	9540.1
627.075	9557.5
627.43	9517.05
627.785	9478.41
628.14	9558.63
628.495	9590.72
628.85	9528.13
629.205	9464.4
629.559	9526.32
629.914	9463.27
630.269	9468.47
630.623	9473.44
630.978	9490.39
631.332	9485.19
631.687	9513.66
632.041	9419.65
632.396	9445.87
632.75	9378.3
633.104	9410.16
633.459	9390.28
633.813	9392.76
634.167	9329.71
634.521	9323.84
634.875	9338.3
635.229	9367.9
635.583	9358.64
635.937	9373.55
636.291	9269.37
636.645	9295.59
636.999	9260.11
637.352	9222.6
637.706	9247.91
638.06	9298.75
638.413	9291.52
638.767	9257.62
639.121	9290.17
639.474	9224.63
639.828	9201.81
640.181	9212.88
640.534	9262.37
640.888	9220.56
641.241	9164.07
641.594	9225.08
641.947	9191.64
642.301	9174.91
642.654	9139.89
643.007	9169.72
643.36	9169.94
643.713	9148.7
644.066	9142.37
644.419	9129.04
644.771	9071.87
645.124	8996.61
645.477	8909.38
645.83	8884.53
646.182	8837.07
646.535	8810.4
646.888	8802.95
647.24	8751.87
647.593	8827.58
647.945	8852.21
648.298	8835.71
648.65	8763.85
649.002	8777.64
649.355	8845.66
649.707	8809.27
650.059	8833.68
650.411	8892.66
650.763	8891.76
651.115	9034.8
651.467	8982.6
651.819	9005.65
652.171	8992.09
652.523	8973.34
652.875	8983.05
653.227	8971.53
653.578	9068.02
653.93	8989.61
654.282	8976.5
654.633	8944.19
654.985	8964.52
655.337	8957.07
655.688	8990.06
656.039	9016.95
656.391	8988.25
656.742	8932.21
657.094	8989.16
657.445	9021.47
657.796	8944.86
658.147	8971.53
658.498	8998.87
658.849	9094.01
659.2	9048.36
659.551	8990.96
659.902	9019.21
660.253	8969.5
660.604	9047.46
660.955	8985.77
661.306	9014.24
661.656	9099.66
662.007	9055.14
662.358	9017.63
662.708	8998.42
663.059	9019.44
663.409	8989.83
663.76	9027.57
664.11	8965.65
664.461	9060.57
664.811	9097.4
665.161	9075.71
665.511	9024.86
665.862	9103.5
666.212	9103.96
666.562	9037.06
666.912	9111.64
667.262	9022.38
667.612	9081.58
667.962	9058.08
668.312	9068.25
668.662	9127.01
669.011	9031.64
669.361	9062.15
669.711	9057.18
670.06	8988.93
670.41	9047.46
670.76	9081.81
671.109	9098.31
671.459	8993
671.808	8994.58
672.157	8920.68
672.507	8925.2
672.856	8941.93
673.205	8932.21
673.554	9000.23
673.904	8956.84
674.253	9032.09
674.602	9001.36
674.951	8827.58
675.3	8766.11
675.649	8895.83
675.998	8923.85
676.346	8921.14
676.695	8950.06
677.044	8909.84
677.393	8909.38
677.741	8912.55
678.09	8870.06
678.438	8849.72
678.787	8851.76
679.135	8806.34
679.484	8797.97
679.832	8843.62
680.181	8771.31
680.529	8777.41
680.877	8820.8
681.225	8741.48
681.573	8794.36
681.922	8770.86
682.27	8723.63
682.618	8745.09
682.966	8691.99
683.314	8721.37
683.661	8683.18
684.009	8599.56
684.357	8607.7
684.705	8591.43
685.053	8619.9
685.4	8588.71
685.748	8532.67
686.095	8530.86
686.443	8474.59
686.79	8468.04
687.138	8540.13
687.485	8426.91
687.832	8481.37
688.18	8462.84
688.527	8340.81
688.874	8355.05
689.221	8348.95
689.568	8312.79
689.915	8330.87
690.262	8300.81
690.609	8254.49
690.956	8207.71
691.303	8237.54
691.65	8163.19
691.997	8216.52
692.344	8113.7
692.69	8082.06
693.037	8136.75
693.383	8027.37
693.73	8038.22
694.077	7951.22
694.423	8029.63
694.769	8028.96
695.116	7900.15
695.462	7932.69
695.808	7867.83
696.155	7911.9
696.501	7821.96
696.847	7825.35
697.193	7711
697.539	7801.16
697.885	7690.89
698.231	7664.9
698.577	7698.12
698.923	7637.33
699.269	7646.37
699.614	7636.65
699.96	7546.48
700.306	7590.1
700.651	7480.72
700.997	7448.86
701.342	7414.06
701.688	7379.93
702.033	7362.98
702.379	7399.37
702.724	7424.45
703.069	7361.85
703.415	7261.52
703.76	7247.28
704.105	7229.65
704.45	7230.56
704.795	7204.57
705.14	7145.59
705.485	7172.93
705.83	7132.48
706.175	7090.45
706.52	7134.52
706.865	7018.13
707.209	7061.07
707.554	6997.8
707.899	7025.14
708.243	6975.2
708.588	6959.83
708.932	6918.48
709.277	6913.73
709.621	6904.24
709.966	6870.12
710.31	6874.18
710.654	6871.47
710.998	6828.31
711.342	6824.69
711.687	6881.42
712.031	6805.03
712.375	6792.38
712.719	6723
713.063	6729.1
713.407	6753.51
713.75	6684.58
714.094	6693.62
714.438	6707.63
714.782	6661.99
715.125	6698.82
715.469	6677.13
715.812	6619.95
716.156	6599.61
716.499	6590.58
716.843	6656.11
717.186	6582.44
717.53	6647.07
717.873	6591.25
718.216	6584.47
718.559	6558.26
718.902	6497.7
719.246	6532.27
719.589	6494.08
719.932	6476.91
720.275	6505.38
720.617	6473.52
720.96	6496.57
721.303	6477.58
721.646	6465.61
721.989	6443.46
722.331	6444.14
722.674	6452.05
723.016	6324.59
723.359	6396.68
723.701	6439.84
724.044	6389.22
724.386	6347.42
724.729	6483.01
725.071	6358.27
725.413	6439.39
725.755	6377.02
726.097	6297.93
726.439	6356.91
726.782	6346.29
727.124	6391.26
727.465	6351.03
727.807	6338.6
728.149	6293.41
728.491	6332.28
728.833	6352.62
729.175	6342.67
729.516	6359.85
729.858	6319.85
730.199	6309.9
730.541	6308.1
730.882	6305.39
731.224	6347.87
731.565	6291.37
731.906	6349.68
732.248	6296.12
732.589	6334.54
732.93	6353.07
733.271	6320.53
733.612	6293.86
733.953	6338.15
734.294	6280.53
734.635	6231.49
734.976	6294.54
735.317	6305.39
735.658	6295.22
735.999	6353.07
736.339	6335.67
736.68	6353.29
737.021	6347.87
737.361	6351.26
737.702	6367.98
738.042	6320.98
738.383	6305.84
738.723	6361.88
739.063	6332.95
739.404	6438.26
739.744	6372.95
740.084	6374.76
740.424	6403.69
740.764	6393.07
741.104	6473.06
741.444	6450.92
741.784	6440.3
742.124	6491.59
742.464	6449.34
742.804	6488.88
743.143	6525.49
743.483	6465.15
743.823	6487.53
744.162	6551.93
744.502	6636.45
744.841	6623.79
745.181	6672.61
745.52	6631.93
745.86	6637.35
746.199	6696.56
746.538	6774.3
746.877	6773.17
747.216	6835.77
747.556	6814.07
747.895	6929.32
748.234	6926.61
748.573	6981.3
748.911	6979.94
749.25	7058.13
749.589	7126.15
749.928	7205.02
750.267	7285.02
750.605	7311.46
750.944	7337.67
751.283	7428.07
751.621	7533.15
751.96	7561.4
752.298	7684.11
752.636	7732.24
752.975	7736.31
753.313	7900.82
753.651	7997.09
753.989	8096.07
754.327	8189.86
754.666	8258.78
755.004	8407.02
755.342	8544.65
755.679	8670.52
756.017	8728.37
756.355	8823.74
756.693	8925.88
757.031	9139.89
757.368	9303.27
757.706	9347.11
758.044	9533.32
758.381	9727.44
758.719	9833.65
759.056	9935.8
759.394	10143.93
759.731	10200.65
760.068	10355.67
760.405	10573.3
760.743	10657.59
761.08	10921.76
761.417	10903.23
761.754	11199.49
762.091	11373.73
762.428	11469.54
762.765	11618.24
763.102	11832.02
763.438	11974.39
763.775	12172.58
764.112	12383.42
764.449	12617.76
764.785	12599.46
765.122	12792.45
765.458	12942.72
765.795	13106.79
766.131	13268.14
766.467	13473.33
766.804	13523.05
767.14	13665.64
767.476	13844.62
767.812	13895.69
768.148	14184.5
768.485	14308.56
768.821	14408.22
769.157	14588.56
769.492	14633.75
769.828	14776.57
770.164	14856.35
770.5	15035.55
770.836	15156.68
771.171	15226.96
771.507	15321.19
771.842	15376.11
772.178	15519.38
772.513	15614.97
772.849	15731.58
773.184	15836.21
773.519	15900.39
773.855	15921.4
774.19	15934.51
774.525	16128.63
774.86	16281.39
775.195	16307.16
775.53	16315.07
775.865	16365.91
776.2	16460.6
776.535	16443.42
776.87	16523.65
777.205	16518.45
777.539	16626.7
777.874	16771.1
778.209	16630.54
778.543	16778.33
778.878	16689.74
779.212	16805.22
779.547	16794.6
779.881	16938.33
780.215	16852.23
780.55	17112.78
780.884	16939
781.218	16936.07
781.552	17081.82
781.886	17032.33
782.22	17026.23
782.554	17035.72
782.888	17019.91
783.222	16957.31
783.556	16995.95
783.889	17051.77
784.223	16936.07
784.557	17047.7
784.89	17037.98
785.224	17000.92
785.557	16970.42
785.891	16912.79
786.224	16954.6
786.558	17002.28
786.891	16888.16
787.224	16880.93
787.557	16952.34
787.891	16974.94
788.224	16868.95
788.557	16936.74
788.89	16928.61
789.223	17031.2
789.556	16882.06
789.888	16854.26
790.221	16844.99
790.554	16727.03
790.887	16737.65
791.219	16645.68
791.552	16654.94
791.884	16665.11
792.217	16607.71
792.549	16647.49
792.882	16590.76
793.214	16579.92
793.546	16528.17
793.879	16482.97
794.211	16412.92
794.543	16512.12
794.875	16413.37
795.207	16517.55
795.539	16395.29
795.871	16438.23
796.203	16314.39
796.535	16230.1
796.867	16217.89
797.198	16274.16
797.53	16155.97
797.862	16086.37
798.193	16141.51
798.525	16057.9
798.856	16127.27
799.188	15913.04
799.519	15929.09
799.85	15842.54
800.182	15890.44
800.513	15777.9
800.844	15760.96
801.175	15828.07
801.506	15847.96
801.837	15743.55
802.168	15687.74
802.499	15721.86
802.83	15579.04
803.161	15577.46
803.491	15579.49
803.822	15593.5
804.153	15472.38
804.483	15427.86
804.814	15389.44
805.145	15384.02
805.475	15353.06
805.805	15276
806.136	15299.27
806.466	15345.37
806.796	15243
807.126	15187.41
807.457	15095.66
807.787	15150.12
808.117	14990.13
808.447	14998.04
808.777	15101.09
809.107	15085.04
809.436	15014.53
809.766	14994.87
810.096	14923.92
810.426	14891.83
810.755	14824.48
811.085	14873.3
811.414	14924.59
811.744	14770.02
812.073	14803.01
812.403	14812.51
812.732	14632.62
813.061	14668.55
813.39	14555.34
813.719	14573.19
814.049	14664.94
814.378	14549.01
814.707	14423.82
815.036	14542.23
815.365	14523.7
815.693	14308.79
816.022	14430.14
816.351	14372.52
816.68	14259.75
817.008	14360.31
817.337	14203.26
817.665	14182.47
817.994	14188.12
818.322	14147.89
818.651	14137.72
818.979	14133.2
819.307	14178.85
819.636	14135.69
819.964	14030.83
820.292	14045.07
820.62	14139.76
820.948	13908.12
821.276	14128.46
821.604	14083.26
821.932	14121.9
822.259	14040.55
822.587	14121.68
822.915	13948.35
823.243	14015.92
823.57	14041.45
823.898	14079.42
824.225	14015.69
824.553	13998.06
824.88	14035.35
825.207	14010.95
825.535	14036.03
825.862	14101.34
826.189	14031.51
826.516	14125.07
826.843	14095.69
827.17	14033.77
827.497	14165.97
827.824	13993.77
828.151	14194.67
828.478	14092.52
828.805	14181.79
829.131	14006.88
829.458	14075.8
829.785	13987.89
830.111	14050.27
830.438	14105.63
830.764	14090.27
831.09	14084.16
831.417	14015.24
831.743	14117.61
832.069	14092.98
832.395	13945.64
832.722	14045.75
833.048	13957.61
833.374	14011.62
833.7	13931.4
834.026	13978.63
834.351	13976.14
834.677	13914.45
835.003	13979.08
835.329	13953.55
835.654	13974.56
835.98	13865.41
836.306	13937.5
836.631	13858.63
836.956	13976.14
837.282	13968.91
837.607	13878.97
837.932	13835.81
838.258	13776.38
838.583	13886.65
838.908	13643.72
839.233	13666.77
839.558	13647.11
839.883	13666.1
840.208	13674.46
840.533	13698.64
840.858	13648.47
841.182	13623.38
841.507	13602.59
841.832	13518.08
842.156	13476.27
842.481	13474.91
842.805	13430.17
843.13	13322.38
843.454	13325.09
843.778	13341.81
844.103	13334.8
844.427	13327.35
844.751	13260.23
845.075	13211.64
845.399	13175.71
845.723	13179.33
846.047	13229.5
846.371	13053
846.695	13063.63
847.019	12980.69
847.343	12928.49
847.666	12853.91
847.99	12797.42
848.313	12728.72
848.637	12698.21
848.96	12721.71
849.284	12742.96
849.607	12612.34
849.931	12512
850.254	12420.25
850.577	12332.57
850.9	12300.93
851.223	12272.01
851.546	12245.12
851.869	12123.31
852.192	12304.1
852.515	12081.73
852.838	12098.23
853.161	12106.14
853.483	11966.48
853.806	11955.41
854.129	11942.98
854.451	11869.76
854.774	11867.72
855.096	11781.63
855.419	11803.09
855.741	11731.46
856.063	11675.41
856.385	11660.05
856.708	11633.15
857.03	11530.11
857.352	11602.87
857.674	11514.29
857.996	11433.84
858.318	11399.49
858.64	11382.99
858.961	11370.56
859.283	11310
859.605	11283.56
859.926	11335.08
860.248	11310.9
860.57	11186.16
860.891	11281.07
861.212	11206.05
861.534	11169.44
861.855	11073.62
862.176	11116.56
862.498	11072.49
862.819	11143.9
863.14	11019.39
863.461	11001.98
863.782	11013.28
864.103	10942.33
864.424	10862.33
864.745	10990.46
865.065	10891.93
865.386	10815.55
865.707	10874.08
866.027	10828.2
866.348	10846.73
866.668	10794.76
866.989	10748.43
867.309	10804.7
867.63	10752.5
867.95	10714.99
868.27	10714.76
868.59	10731.03
868.91	10634.76
869.23	10634.31
869.55	10653.07
869.87	10677.47
870.19	10599.51
870.51	10688.55
870.83	10580.53
871.15	10593.41
871.469	10528.1
871.789	10536.46
872.109	10561.32
872.428	10462.34
872.748	10498.5
873.067	10472.06
873.386	10493.3
873.706	10439.74
874.025	10451.49
874.344	10365.84
874.663	10387.76
874.982	10349.57
875.301	10408.33
875.62	10260.76
875.939	10258.95
876.258	10308.9
876.577	10263.47
876.896	10226.86
877.214	10211.72
877.533	10179.86
877.852	10209.24
878.17	10202.91
878.489	10106.87
878.807	10153.65
879.125	10144.83
879.444	10153.19
879.762	10063.48
880.08	10086.3
880.398	10000.43
880.716	10016.93
881.034	10030.71
881.352	10039.52
881.67	10019.64
881.988	10007.66
882.306	9996.14
882.624	9932.41
882.941	9946.19
883.259	9841.11
883.577	9834.33
883.894	9825.74
884.212	9820.77
884.529	9827.55
884.846	9787.33
885.164	9717.5
885.481	9725.63
885.798	9771.96
886.115	9669.14
886.432	9692.19
886.75	9670.95
887.067	9618.07
887.383	9569.48
887.7	9560.44
888.017	9587.56
888.334	9573.77
888.651	9513.44
888.967	9511.18
889.284	9360.22
889.6	9435.25
889.917	9376.04
890.233	9429.82
890.55	9304.18
890.866	9357.28
891.182	9293.78
891.498	9315.02
891.815	9238.64
892.131	9221.69
892.447	9138.08
892.763	9138.3
893.079	9158.64
893.395	9067.8
893.71	9083.39
894.026	8993.68
894.342	9070.28
894.657	8984.86
894.973	9002.94
895.289	8924.75
895.604	8980.57
895.92	8842.72
896.235	8791.42
896.55	8774.02
896.865	8816.05
897.181	8741.03
897.496	8722.04
897.811	8766.11
898.126	8688.6
898.441	8619
898.756	8619.67
899.071	8584.87
899.386	8602.05
899.7	8472.11
900.015	8428.49
900.33	8386.91
900.644	8416.29
900.959	8421.94
901.273	8313.69
901.588	8287.25
901.902	8252.68
902.216	8260.59
902.531	8206.58
902.845	8236.86
903.159	8159.35
903.473	8144.43
903.787	8112.8
904.101	8097.2
904.415	8058.56
904.729	8052.01
905.042	8012.91
905.356	7896.3
905.67	7945.12
905.984	7882.97
906.297	7869.41
906.611	7761.39
906.924	7822.18
907.237	7798.23
907.551	7776.76
907.864	7714.84
908.177	7692.92
908.491	7624.9
908.804	7620.38
909.117	7519.14
909.43	7502.87
909.743	7429.88
910.056	7450.67
910.368	7431.91
910.681	7436.43
910.994	7372.25
911.307	7365.7
911.619	7276.88
911.932	7360.05
912.244	7256.77
912.557	7271.46
912.869	7209.99
913.181	7138.13
913.494	7136.32
913.806	7097.91
914.118	7095.19
914.43	7027.17
914.742	7021.07
915.054	6955.31
915.366	6956.67
915.678	6859.49
915.99	6932.94
916.302	6828.31
916.613	6835.77
916.925	6818.59
917.236	6777.69
917.548	6810
917.859	6762.1
918.171	6740.4
918.482	6686.84
918.794	6638.48
919.105	6674.19
919.416	6614.08
919.727	6576.56
920.038	6587.64
920.349	6538.15
920.66	6561.2
920.971	6536.34
921.282	6480.52
921.593	6421.54
921.903	6408.21
922.214	6365.95
922.525	6368.43
922.835	6412.27
923.146	6293.18
923.456	6231.49
923.767	6246.63
924.077	6238.04
924.387	6224.03
924.697	6142.68
925.008	6186.29
925.318	6113.53
925.628	6145.62
925.938	6107.2
926.248	6018.39
926.558	6030.14
926.867	6028.56
927.177	5970.48
927.487	5961.89
927.796	5890.25
928.106	5935.9
928.416	5887.32
928.725	5891.61
929.034	5822.91
929.344	5839.63
929.653	5852.52
929.962	5768
930.271	5709.24
930.581	5705.4
930.89	5744.04
931.199	5682.35
931.508	5657.27
931.817	5583.37
932.125	5616.82
932.434	5596.93
932.743	5563.26
933.051	5524.61
933.36	5538.17
933.669	5468.8
933.977	5423.6
934.286	5453.43
934.594	5440.32
934.902	5375.92
935.21	5363.49
935.519	5354
935.827	5393.77
936.135	5328.01
936.443	5295.02
936.751	5252.53
937.059	5258.41
937.367	5237.16
937.674	5196.26
937.982	5197.39
938.29	5145.87
938.597	5191.97
938.905	5117.17
939.213	5098.86
939.52	5069.49
939.827	5086.89
940.135	5034.01
940.442	5016.83
940.749	5032.42
941.056	4978.19
941.363	4945.42
941.67	4967.34
941.977	4943.16
942.284	4877.63
942.591	4880.11
942.898	4830.4
943.205	4837.63
943.511	4805.09
943.818	4761.47
944.125	4816.16
944.431	4781.13
944.738	4741.13
945.044	4702.26
945.35	4678.99
945.657	4640.12
945.963	4629.95
946.269	4619.1
946.575	4609.16
946.881	4535.26
947.187	4598.99
947.493	4562.83
947.799	4566.9
948.105	4526.45
948.41	4491.65
948.716	4482.83
949.022	4431.99
949.327	4400.35
949.633	4402.38
949.938	4424.98
950.244	4434.25
950.549	4398.77
950.854	4318.77
951.16	4338.43
951.465	4296.85
951.77	4284.2
952.075	4237.64
952.38	4233.35
952.685	4213.24
952.99	4163.29
953.294	4192.22
953.599	4114.03
953.904	4161.49
954.209	4119.91
954.513	4067.7
954.818	4141.15
955.122	4069.29
955.426	4050.08
955.731	4101.6
956.035	4011.21
956.339	4037.87
956.643	4024.09
956.948	3993.58
957.252	3946.58
957.556	3956.07
957.86	3900.93
958.163	3926.01
958.467	3883.98
958.771	3899.12
959.075	3837.43
959.378	3809.63
959.682	3827.03
959.985	3834.04
960.289	3812.12
960.592	3757.66
960.896	3762.18
961.199	3789.07
961.502	3774.83
961.805	3752.68
962.108	3702.52
962.411	3692.35
962.714	3709.52
963.017	3641.5
963.32	3617.32
963.623	3627.94
963.926	3636.98
964.228	3617.77
964.531	3618
964.833	3578
965.136	3565.8
965.438	3552.01
965.741	3518.11
966.043	3537.32
966.345	3481.28
966.648	3507.04
966.95	3444.22
967.252	3437.44
967.554	3420.94
967.856	3410.09
968.158	3355.86
968.46	3413.26
968.761	3355.18
969.063	3330.77
969.365	3333.94
969.666	3318.8
969.968	3302.07
970.269	3301.85
970.571	3314.28
970.872	3284.9
971.174	3238.35
971.475	3225.01
971.776	3219.82
972.077	3237.44
972.378	3219.14
972.679	3180.95
972.98	3194.73
973.281	3155.41
973.582	3175.98
973.883	3117.67
974.183	3122.42
974.484	3097.56
974.785	3080.84
975.085	3085.58
975.386	3068.63
975.686	3017.56
975.986	3037
976.287	3032.93
976.587	2997.22
976.887	3000.61
977.187	3027.73
977.487	2969.43
977.787	2934.4
978.087	2937.56
978.387	2906.15
978.687	2926.94
978.987	2901.63
979.286	2888.07
979.586	2875.64
979.885	2853.27
980.185	2837
980.484	2844.46
980.784	2843.33
981.083	2820.5
981.382	2826.38
981.682	2820.5
981.981	2834.29
982.28	2732.6
982.579	2735.08
982.878	2754.29
983.177	2737.57
983.475	2729.66
983.774	2665.03
984.073	2679.49
984.372	2681.3
984.67	2676.33
984.969	2685.59
985.267	2650.57
985.566	2616.22
985.864	2618.7
986.162	2581.87
986.461	2593.39
986.759	2595.65
987.057	2590.68
987.355	2573.96
987.653	2544.35
987.951	2556.78
988.249	2526.28
988.547	2511.36
988.844	2473.85
989.142	2486.73
989.44	2478.59
989.737	2460.06
990.035	2475.88
990.332	2450.35
990.63	2432.72
990.927	2449.67
991.224	2410.8
991.521	2387.52
991.819	2388.65
992.116	2366.05
992.413	2357.92
992.71	2346.62
993.006	2336.9
993.303	2342.55
993.6	2317.92
993.897	2307.3
994.193	2307.52
994.49	2310.46
994.787	2283.12
995.083	2265.72
995.379	2256.45
995.676	2258.26
995.972	2236.57
996.268	2232.05
996.565	2212.39
996.861	2216.23
997.157	2191.82
997.453	2175.78
997.749	2178.71
998.044	2158.6
998.34	2158.6
998.636	2156.79
998.932	2127.64
999.227	2109.79
999.523	2113.18
999.818	2068.66
1000.114	2105.04
1000.409	2056.23
1000.704	2067.08
1001	2052.62
1001.295	2063.01
1001.59	2034.54
1001.885	2014.65
1002.18	1987.76
1002.475	1964.93
1002.77	1993.18
1003.065	1957.25
1003.359	1959.74
1003.654	1952.05
1003.949	1929.91
1004.243	1932.17
1004.538	1941.43
1004.832	1920.87
1005.127	1911.15
1005.421	1871.83
1005.715	1905.95
1006.009	1893.98
1006.304	1847.42
1006.598	1858.27
1006.892	1846.29
1007.186	1813.98
1007.48	1813.3
1007.773	1803.81
1008.067	1810.14
1008.361	1777.14
1008.655	1763.36
1008.948	1765.39
1009.242	1785.96
1009.535	1758.39
1009.829	1755.22
1010.122	1698.05
1010.415	1720.42
1010.708	1717.48
1011.001	1691.5
1011.295	1686.75
1011.588	1685.17
1011.881	1665.96
1012.173	1651.95
1012.466	1608.56
1012.759	1656.47
1013.052	1648.56
1013.344	1610.14
1013.637	1653.76
1013.93	1595.68
1014.222	1605.85
1014.514	1582.57
1014.807	1581.44
1015.099	1573.53
1015.391	1558.39
1015.683	1535.57
1015.976	1541.22
1016.268	1529.24
1016.56	1526.08
1016.851	1491.5
1017.143	1522.46
1017.435	1510.71
1017.727	1498.96
1018.018	1486.75
1018.31	1473.2
1018.602	1449.02
1018.893	1461.44
1019.185	1458.96
1019.476	1407.66
1019.767	1440.2
1020.058	1419.64
1020.35	1403.37
1020.641	1401.79
1020.932	1365.18
1021.223	1388.68
1021.514	1380.09
1021.804	1365.18
1022.095	1324.95
1022.386	1324.95
1022.677	1309.13
1022.967	1314.78
1023.258	1306.65
1023.548	1330.15
1023.839	1304.39
1024.129	1272.07
1024.419	1251.51
1024.709	1294.44
1025	1274.33
1025.29	1239.76
1025.58	1258.96
1025.87	1230.04
1026.16	1263.26
1026.449	1250.15
1026.739	1229.13
1027.029	1201.79
1027.319	1190.72
1027.608	1174.45
1027.898	1188.68
1028.187	1198.17
1028.477	1174.22
1028.766	1175.12
1029.055	1149.81
1029.344	1131.96
1029.634	1123.83
1029.923	1121.11
1030.212	1100.55
1030.501	1125.63
1030.79	1104.17
1031.078	1094.22
1031.367	1080.66
1031.656	1092.41
1031.945	1072.75
1032.233	1091.51
1032.522	1072.98
1032.81	1024.85
1033.099	1041.34
1033.387	1074.79
1033.675	1029.37
1033.963	1046.31
1034.251	1037.27
1034.54	1042.02
1034.828	1016.71
1035.116	1014.22
1035.403	1019.2
1035.691	1007.22
1035.979	985.07
1036.267	983.72
1036.554	991.4
1036.842	984.4
1037.129	985.52
1037.417	955.92
1037.704	958.41
1037.992	939.65
1038.279	974.23
1038.566	955.02
1038.853	955.02
1039.14	955.02
