Data from hue_330_FLMS001491_28.txt Node
Date: Mon Feb 06 15:45:10 GMT 2017
User: dcchb
Spectrometer: FLMS00149
Trigger mode: 0
Integration Time (sec): 2.000000E-2
Scans to average: 10
Electric dark correction enabled: true
Nonlinearity correction enabled: false
Boxcar width: 0
XAxis mode: Wavelengths
Number of Pixels in Spectrum: 2048
>>>>>Begin Spectral Data<<<<<
341.393	-11.86
341.776	-11.86
342.16	-11.86
342.543	-60.9
342.927	-75.14
343.31	-64.52
343.693	-71.3
344.077	-72.65
344.46	-53.22
344.843	-48.93
345.226	-61.13
345.61	-40.56
345.993	-15.93
346.376	-9.15
346.759	5.54
347.142	36.27
347.525	49.38
347.908	65.42
348.291	51.64
348.674	109.26
349.057	119.88
349.44	125.31
349.823	151.07
350.206	158.53
350.588	199.43
350.971	212.31
351.354	224.29
351.737	242.37
352.119	246.89
352.502	261.12
352.884	285.3
353.267	298.64
353.65	280.56
354.032	287.11
354.414	299.31
354.797	300.67
355.179	324.62
355.562	339.31
355.944	318.97
356.326	330.27
356.709	335.47
357.091	347.45
357.473	332.99
357.855	346.77
358.238	354.68
358.62	338.86
359.002	352.65
359.384	344.28
359.766	341.12
360.148	335.02
360.53	323.95
360.912	356.04
361.294	338.64
361.676	341.57
362.057	355.81
362.439	344.51
362.821	320.33
363.203	316.71
363.584	319.65
363.966	321.69
364.348	323.49
364.729	325.75
365.111	311.74
365.493	318.3
365.874	327.34
366.256	306.09
366.637	318.3
367.019	299.31
367.4	325.08
367.781	310.61
368.163	327.34
368.544	318.75
368.925	313.33
369.306	316.49
369.688	296.6
370.069	306.55
370.45	327.11
370.831	325.08
371.212	310.61
371.593	311.74
371.974	307.45
372.355	301.57
372.736	329.6
373.117	328.47
373.498	317.39
373.879	304.51
374.26	313.55
374.641	318.07
375.021	310.61
375.402	330.5
375.783	331.4
376.163	314.68
376.544	328.69
376.925	339.09
377.305	315.13
377.686	321.01
378.066	325.98
378.447	334.12
378.827	319.88
379.208	336.38
379.588	337.73
379.968	331.4
380.349	328.24
380.729	348.58
381.109	317.62
381.489	309.94
381.87	316.49
382.25	343.38
382.63	340.89
383.01	332.53
383.39	342.48
383.77	325.75
384.15	344.28
384.53	352.19
384.91	340.89
385.29	351.74
385.67	354
386.049	359.43
386.429	333.21
386.809	342.7
387.189	355.58
387.568	352.65
387.948	353.55
388.328	340.67
388.707	332.76
389.087	357.62
389.466	363.72
389.846	356.94
390.225	378.86
390.605	363.95
390.984	372.31
391.363	369.59
391.743	363.49
392.122	366.43
392.501	360.33
392.881	378.63
393.26	355.58
393.639	371.4
394.018	376.15
394.397	369.37
394.776	365.75
395.155	358.52
395.534	365.08
395.913	376.6
396.292	377.05
396.671	376.6
397.05	366.66
397.429	368.01
397.808	387.45
398.186	398.07
398.565	384.28
398.944	376.83
399.323	361.23
399.701	383.15
400.08	375.7
400.458	362.59
400.837	415.7
401.215	387.22
401.594	407.79
401.972	410.27
402.351	385.87
402.729	396.71
403.107	422.47
403.486	400.1
403.864	426.09
404.242	415.02
404.62	425.41
404.999	418.41
405.377	423.15
405.755	429.93
406.133	418.63
406.511	441.01
406.889	440.33
407.267	434.23
407.645	448.69
408.023	439.65
408.401	447.78
408.779	437.62
409.156	469.25
409.534	464.06
409.912	447.11
410.29	477.39
410.667	453.43
411.045	484.39
411.422	489.14
411.8	478.52
412.178	482.81
412.555	492.98
412.933	494.11
413.31	483.26
413.687	504.96
414.065	494.56
414.442	534.11
414.819	535.92
415.197	536.14
415.574	543.6
415.951	535.24
416.328	577.05
416.705	575.92
417.082	545.41
417.46	566.2
417.837	563.26
418.214	563.26
418.591	588.12
418.967	591.06
419.344	572.53
419.721	575.92
420.098	589.25
420.475	598.74
420.852	587.89
421.228	610.94
421.605	624.73
421.982	623.6
422.358	651.4
422.735	651.62
423.111	642.58
423.488	673.09
423.864	661.79
424.241	665.18
424.617	664.73
424.994	684.61
425.37	675.12
425.746	701.56
426.123	680.77
426.499	678.29
426.875	728
427.251	686.42
427.627	714.9
428.003	740.43
428.379	743.6
428.756	731.39
429.132	756.03
429.507	748.12
429.883	784.5
430.259	757.16
430.635	785.4
431.011	790.37
431.387	827.66
431.763	806.42
432.138	819.3
432.514	840.77
432.89	816.14
433.265	861.33
433.641	840.32
434.016	851.84
434.392	849.13
434.767	882.35
435.143	872.63
435.518	862.24
435.894	912.18
436.269	888.9
436.644	931.84
437.02	943.59
437.395	897.04
437.77	921.22
438.145	910.15
438.52	943.59
438.895	982.46
439.271	976.81
439.646	993.08
440.021	972.52
440.395	987.66
440.77	960.54
441.145	997.37
441.52	1004.83
441.895	1029.24
442.27	1016.13
442.645	1018.39
443.019	1056.81
443.394	1024.27
443.769	1016.13
444.143	1031.05
444.518	1027.43
444.892	1038.73
445.267	1064.72
445.641	1038.28
446.016	1050.71
446.39	1092.51
446.764	1097.03
447.139	1058.84
447.513	1075.56
447.887	1071.05
448.262	1071.72
448.636	1077.15
449.01	1073.08
449.384	1103.81
449.758	1102.91
450.132	1120.54
450.506	1100.42
450.88	1116.02
451.254	1133.64
451.628	1142.23
452.002	1158.05
452.376	1167.99
452.75	1139.97
453.123	1179.74
453.497	1191.27
453.871	1162.57
454.244	1198.5
454.618	1212.51
454.992	1220.42
455.365	1225.39
455.739	1242.34
456.112	1244.15
456.486	1236.46
456.859	1269.46
457.232	1251.83
457.606	1278.72
457.979	1254.77
458.352	1313.98
458.725	1294.32
459.099	1316.69
459.472	1321.21
459.845	1352.17
460.218	1348.78
460.591	1350.59
460.964	1356.01
461.337	1378.61
461.71	1367.53
462.083	1403.47
462.456	1417.7
462.829	1401.66
463.201	1390.81
463.574	1421.77
463.947	1453.18
464.32	1486.85
464.692	1479.17
465.065	1490.7
465.438	1523.24
465.81	1513.52
466.183	1564.59
466.555	1593.07
466.928	1535.21
467.3	1546.74
467.672	1567.08
468.045	1611.37
468.417	1612.27
468.789	1612.27
469.161	1618.83
469.534	1643.01
469.906	1678.49
470.278	1682.78
470.65	1659.5
471.022	1744.02
471.394	1733.4
471.766	1762.78
472.138	1748.32
472.51	1780.18
472.882	1814.75
473.253	1873.06
473.625	1836.67
473.997	1880.29
474.369	1875.54
474.74	1908.09
475.112	1929.55
475.484	1989.44
475.855	1998.03
476.227	2033.73
476.598	2046.61
476.97	2050.68
477.341	2080.74
477.713	2165.03
478.084	2120.06
478.455	2203.67
478.827	2180.62
479.198	2279.83
479.569	2260.39
479.94	2289.09
480.311	2326.61
480.682	2346.94
481.053	2426.72
481.424	2433.95
481.795	2472.36
482.166	2480.05
482.537	2489.77
482.908	2511.23
483.279	2561.4
483.65	2590.33
484.021	2610.21
484.391	2658.8
484.762	2669.65
485.133	2708.97
485.503	2720.95
485.874	2746.71
486.244	2791.68
486.615	2816.76
486.985	2861.73
487.356	2895.63
487.726	2897.44
488.097	2977.66
488.467	2952.13
488.837	2995.97
489.207	3024.44
489.578	3127.49
489.948	3129.75
490.318	3128.17
490.688	3172.23
491.058	3202.74
491.428	3217.2
491.798	3248.62
492.168	3335.17
492.538	3320.93
492.908	3351.66
493.278	3357.09
493.648	3447.93
494.017	3429.85
494.387	3409.74
494.757	3502.39
495.126	3499.46
495.496	3501.94
495.866	3515.73
496.235	3601.6
496.605	3616.29
496.974	3618.1
497.344	3671.2
497.713	3654.25
498.082	3656.51
498.452	3710.07
498.821	3733.35
499.19	3734.03
499.559	3739.68
499.928	3786.68
500.298	3790.3
500.667	3806.79
501.036	3825.1
501.405	3869.16
501.774	3876.17
502.143	3907.35
502.512	3902.61
502.88	3953.23
503.249	3948.48
503.618	3985.09
503.987	3974.47
504.356	3983.74
504.724	3964.75
505.093	4041.36
505.462	4031.65
505.83	4043.85
506.199	4048.82
506.567	4095.37
506.936	4098.54
507.304	4154.35
507.672	4120
508.041	4163.17
508.409	4176.05
508.777	4199.1
509.145	4214.24
509.514	4219.44
509.882	4223.5
510.25	4259.44
510.618	4218.31
510.986	4200.45
511.354	4295.59
511.722	4340.11
512.09	4336.72
512.458	4281.13
512.826	4385.08
513.193	4397.74
513.561	4337.63
513.929	4385.53
514.297	4421.47
514.664	4433.89
515.032	4439.32
515.4	4503.27
515.767	4495.59
516.135	4482.26
516.502	4473.22
516.869	4560.9
517.237	4503.5
517.604	4498.07
517.972	4541.91
518.339	4554.57
518.706	4570.16
519.073	4597.96
519.44	4598.86
519.808	4573.33
520.175	4621.69
520.542	4658.07
520.909	4676.37
521.276	4658.52
521.643	4693.32
522.009	4715.47
522.376	4738.75
522.743	4753.43
523.11	4796.82
523.477	4831.62
523.843	4822.36
524.21	4872.3
524.577	4878.85
524.943	4872.98
525.31	4884.96
525.676	4953.66
526.043	4980.77
526.409	5016.48
526.776	5022.58
527.142	5039.53
527.508	5108.68
527.874	5117.27
528.241	5126.53
528.607	5087.44
528.973	5158.4
529.339	5172.18
529.705	5205.85
530.071	5266.64
530.437	5268.9
530.803	5292.18
531.169	5294.44
531.535	5340.76
531.901	5371.5
532.267	5363.59
532.632	5447.43
532.998	5395.68
533.364	5434.55
533.73	5450.59
534.095	5505.28
534.461	5524.94
534.826	5548.67
535.192	5545.28
535.557	5613.52
535.923	5544.6
536.288	5625.95
536.653	5650.13
537.019	5623.92
537.384	5691.26
537.749	5690.36
538.114	5700.53
538.479	5746.85
538.845	5709.34
539.21	5756.12
539.575	5814.65
539.94	5818.49
540.305	5837.25
540.67	5865.72
541.034	5868.21
541.399	5934.87
541.764	5872.05
542.129	5946.85
542.494	5954.76
542.858	5958.37
543.223	5986.62
543.587	6046.51
543.952	6070.01
544.316	6042.67
544.681	6094.42
545.045	6135.32
545.41	6146.62
545.774	6179.84
546.138	6189.55
546.503	6209.22
546.867	6225.03
547.231	6329.44
547.595	6298.25
547.959	6335.54
548.324	6337.35
548.688	6367.4
549.052	6385.48
549.416	6381.87
549.779	6441.07
550.143	6391.81
550.507	6420.28
550.871	6503.9
551.235	6452.82
551.599	6581.18
551.962	6537.79
552.326	6553.61
552.689	6601.97
553.053	6599.49
553.417	6575.76
553.78	6665.7
554.143	6641.29
554.507	6708.86
554.87	6676.1
555.234	6742.76
555.597	6745.25
555.96	6720.61
556.323	6761.29
556.686	6724
557.05	6795.64
557.413	6871.57
557.776	6855.07
558.139	6882.19
558.502	6869.54
558.865	6920.16
559.228	6979.36
559.59	7001.06
559.953	6950.89
560.316	7080.6
560.679	7068.4
561.041	7085.35
561.404	7100.49
561.767	7127.61
562.129	7058.23
562.492	7243.09
562.854	7209.87
563.217	7186.14
563.579	7219.13
563.941	7220.94
564.304	7227.04
564.666	7311.11
565.028	7329.64
565.39	7327.38
565.753	7321.95
566.115	7379.58
566.477	7375.96
566.839	7474.72
567.201	7452.12
567.563	7545.68
567.925	7472.91
568.287	7457.09
568.648	7525.34
569.01	7606.47
569.372	7594.94
569.734	7620.7
570.095	7693.47
570.457	7704.54
570.819	7772.11
571.18	7771.21
571.542	7860.25
571.903	7840.13
572.265	7868.61
572.626	7902.05
572.987	7943.18
573.349	8090.75
573.71	8113.35
574.071	8138.88
574.432	8159.22
574.794	8313.57
575.155	8279.9
575.516	8293.45
575.877	8361.02
576.238	8442.83
576.599	8577.97
576.96	8542.04
577.32	8612.77
577.681	8699.09
578.042	8831.29
578.403	8869.71
578.763	8992.42
579.124	9035.36
579.485	9201
579.845	9230.38
580.206	9398.51
580.566	9447.77
580.927	9604.38
581.287	9744.26
581.648	9786.3
582.008	10029.23
582.368	10144.71
582.728	10294.08
583.089	10304.47
583.449	10557.12
583.809	10743.79
584.169	10881.41
584.529	11100.61
584.889	11257.9
585.249	11402.75
585.609	11553.26
585.969	11841.16
586.329	11957.99
586.688	12221.26
587.048	12392.78
587.408	12597.3
587.768	12787.8
588.127	13050.84
588.487	13210.16
588.846	13576.93
589.206	13722.24
589.565	14034.09
589.925	14286.29
590.284	14480.18
590.643	14737.58
591.003	15028.42
591.362	15305.7
591.721	15533.72
592.08	15867.04
592.44	16172.57
592.799	16400.36
593.158	16658.43
593.517	16870.4
593.876	17263.16
594.235	17473.33
594.593	17796.71
594.952	18158.51
595.311	18276.02
595.67	18588.32
596.029	19024.7
596.387	19383.56
596.746	19600.05
597.104	19788.75
597.463	20183.54
597.822	20368.17
598.18	20618.33
598.538	20875.27
598.897	21331.53
599.255	21428.93
599.613	22039.08
599.972	22188.23
600.33	22508.9
600.688	22604.04
601.046	23053.07
601.404	23318.82
601.762	23541.64
602.12	23859.82
602.478	24115.41
602.836	24443.76
603.194	24567.6
603.552	24820.03
603.91	25040.13
604.268	25361.48
604.625	25540.01
604.983	25841.47
605.341	25977.28
605.698	26430.38
606.056	26764.83
606.413	26870.59
606.771	27186.52
607.128	27440.52
607.485	27429.45
607.843	27770.46
608.2	28248.18
608.557	28399.82
608.914	28428.52
609.272	28863.99
609.629	29060.37
609.986	29348.49
610.343	29438.66
610.7	29707.81
611.057	29848.37
611.414	30119.1
611.771	30174.01
612.127	30446.09
612.484	30647.44
612.841	30814.67
613.198	31001.11
613.554	31194.32
613.911	31490.81
614.267	31574.65
614.624	31696
614.98	31989.33
615.337	32216.44
615.693	32205.37
616.05	32285.37
616.406	32627.05
616.762	32619.82
617.118	32783.66
617.475	32974.84
617.831	33138.9
618.187	33413.7
618.543	33516.29
618.899	33733.01
619.255	33787.47
619.611	33900.01
619.967	34082.61
620.323	34223.85
620.678	34232.66
621.034	34271.3
621.39	34363.5
621.746	34455.25
622.101	34894.56
622.457	34606.66
622.812	34875.58
623.168	35053.2
623.523	35068.57
623.879	35328.9
624.234	35035.35
624.589	35309.47
624.945	35447.54
625.3	35505.85
625.655	35556.01
626.01	35620.87
626.365	35692.73
626.72	35788.32
627.075	35961.65
627.43	35952.61
627.785	35765.73
628.14	36160.74
628.495	36138.37
628.85	36181.08
629.205	36056.57
629.559	36304.92
629.914	36245.49
630.269	36391.92
630.623	36200.74
630.978	36284.36
631.332	36432.6
631.687	36572.71
632.041	36402.55
632.396	36458.82
632.75	36497.01
633.104	36531.13
633.459	36503.33
633.813	36467.63
634.167	36484.8
634.521	36555.08
634.875	36643.22
635.229	36560.51
635.583	36389.21
635.937	36612.71
636.291	36492.26
636.645	36533.39
636.999	36628.08
637.352	36644.8
637.706	36587.85
638.06	36607.51
638.413	36658.36
638.767	36480.06
639.121	36656.32
639.474	36429.89
639.828	36597.34
640.181	36584.46
640.534	36708.98
640.888	36497.91
641.241	36397.57
641.594	36503.11
641.947	36630.34
642.301	36419.72
642.654	36492.94
643.007	36496.1
643.36	36386.05
643.713	36339.72
644.066	36631.92
644.419	36437.57
644.771	36098.15
645.124	35875.55
645.477	35825.39
645.83	35572.29
646.182	35493.42
646.535	35496.35
646.888	35371.39
647.24	35283.93
647.593	35414.55
647.945	35387.21
648.298	35156.48
648.65	35285.51
649.002	35189.92
649.355	35264.95
649.707	35143.14
650.059	35423.81
650.411	35757.59
650.763	35862.22
651.115	36369.55
651.467	36081.42
651.819	36167.98
652.171	36096.79
652.523	36073.51
652.875	36041.43
653.227	35953.74
653.578	36181.08
653.93	36019.28
654.282	35906.06
654.633	35944.25
654.985	35973.18
655.337	36030.8
655.688	36031.26
656.039	36116.23
656.391	35774.31
656.742	35930.69
657.094	35809.34
657.445	35916.91
657.796	35884.14
658.147	35658.38
658.498	35833.3
658.849	35852.05
659.2	35840.75
659.551	35634.66
659.902	35755.78
660.253	35849.34
660.604	35798.49
660.955	35692.51
661.306	35750.59
661.656	35769.57
662.007	35720.53
662.358	35654.32
662.708	35690.47
663.059	35740.19
663.409	35601.66
663.76	35713.75
664.11	35645.96
664.461	35806.4
664.811	35793.52
665.161	35711.49
665.511	35714.43
665.862	35722.11
666.212	35756.46
666.562	35828.32
666.912	35813.63
667.262	35664.94
667.612	35727.08
667.962	35670.59
668.312	35522.12
668.662	35866.29
669.011	35612.51
669.361	35616.35
669.711	35611.38
670.06	35624.94
670.41	35431.95
670.76	35474.66
671.109	35693.41
671.459	35520.31
671.808	35391.5
672.157	35475.79
672.507	35312.4
672.856	35368.22
673.205	35389.24
673.554	35530.48
673.904	35339.07
674.253	35484.83
674.602	35373.87
674.951	34963.49
675.3	34736.83
675.649	35276.7
675.998	35200.09
676.346	35258.39
676.695	35391.5
677.044	35193.99
677.393	35199.19
677.741	35362.57
678.09	35132.75
678.438	35158.28
678.787	35245.97
679.135	35148.79
679.484	34943.83
679.832	35033.99
680.181	34856.6
680.529	34960.32
680.877	34918.74
681.225	34953.09
681.573	35131.17
681.922	34765.53
682.27	34740.67
682.618	34766.2
682.966	34629.26
683.314	34791.06
683.661	34602.37
684.009	34440.79
684.357	34462.48
684.705	34429.26
685.053	34481.47
685.4	34332.32
685.748	34229.5
686.095	34222.26
686.443	34048.03
686.79	34166.67
687.138	34167.12
687.485	34161.47
687.832	33877.87
688.18	34079.89
688.527	33791.31
688.874	33794.7
689.221	33703.18
689.568	33576.63
689.915	33603.3
690.262	33584.54
690.609	33430.42
690.956	33363.08
691.303	33355.39
691.65	33310.42
691.997	33186.59
692.344	33019.81
692.69	33031.11
693.037	33150.88
693.383	32801.06
693.73	32837.44
694.077	32711.57
694.423	32756.31
694.769	32525.81
695.116	32514.51
695.462	32448.98
695.808	32333.27
696.155	32420.05
696.501	32129.44
696.847	32193.39
697.193	31978.03
697.539	32178.93
697.885	31873.85
698.231	31787.98
698.577	31787.53
698.923	31695.1
699.269	31506.4
699.614	31406.52
699.96	31402.45
700.306	31358.38
700.651	31286.52
700.997	31081.78
701.342	31105.51
701.688	31037.94
702.033	31048.79
702.379	31042.69
702.724	30849.47
703.069	30887.44
703.415	30498.29
703.76	30668.69
704.105	30623.94
704.45	30574.45
704.795	30352.76
705.14	30413.55
705.485	30288.13
705.83	30122.48
706.175	30206.78
706.52	30084.07
706.865	29884.98
707.209	29945.99
707.554	29842.72
707.899	29911.87
708.243	29810.63
708.588	29650.18
708.932	29499.22
709.277	29509.85
709.621	29453.35
709.966	29254.94
710.31	29292.9
710.654	29006.36
710.998	29188.27
711.342	29219.23
711.687	29123.42
712.031	28956.87
712.375	28904.66
712.719	28800.03
713.063	28834.84
713.407	28920.26
713.75	28809.07
714.094	28608.85
714.438	28509.42
714.782	28694.5
715.125	28401.17
715.469	28592.58
715.812	28401.85
716.156	28317.56
716.499	28206.38
716.843	28327.73
717.186	28055.65
717.53	28332.7
717.873	28145.36
718.216	28178.36
718.559	28010.9
718.902	27866.95
719.246	27954.18
719.589	27831.25
719.932	27774.3
720.275	27676
720.617	27685.71
720.96	27594.64
721.303	27600.74
721.646	27637.8
721.989	27401.88
722.331	27530.91
722.674	27486.62
723.016	27480.07
723.359	27330.69
723.701	27397.36
724.044	27270.58
724.386	27155.56
724.729	27281.43
725.071	27136.8
725.413	27087.54
725.755	27071.72
726.097	27074.2
726.439	26827.88
726.782	26906.07
727.124	26987.65
727.465	26812.06
727.807	26845.28
728.149	26748.79
728.491	26605.74
728.833	26738.62
729.175	26667.43
729.516	26542.92
729.858	26625.63
730.199	26464.28
730.541	26497.5
730.882	26435.12
731.224	26485.07
731.565	26339.53
731.906	26413.2
732.248	26389.25
732.589	26263.38
732.93	26065.64
733.271	26219.99
733.612	26221.57
733.953	26105.87
734.294	26004.63
734.635	26015.47
734.976	26034.68
735.317	25902.48
735.658	25885.31
735.999	25829.72
736.339	25772.54
736.68	25901.35
737.021	25826.78
737.361	25684.41
737.702	25745.2
738.042	25624.07
738.383	25676.95
738.723	25734.13
739.063	25475.83
739.404	25678.31
739.744	25473.34
740.084	25483.06
740.424	25550.63
740.764	25407.13
741.104	25490.74
741.444	25286.23
741.784	25273.8
742.124	25442.16
742.464	25228.6
742.804	25230.64
743.143	25099.11
743.483	25069.96
743.823	25035.61
744.162	25055.95
744.502	25039.68
744.841	24832
745.181	24962.85
745.52	24797.43
745.86	24893.24
746.199	24783.42
746.538	24775.05
746.877	24845.56
747.216	24804.88
747.556	24730.31
747.895	24618.9
748.234	24542.52
748.573	24609.64
748.911	24409.87
749.25	24516.53
749.589	24322.41
749.928	24415.97
750.267	24453.03
750.605	24291.45
750.944	24302.75
751.283	24276.76
751.621	24282.19
751.96	24088.52
752.298	24078.8
752.636	24162.64
752.975	24033.38
753.313	23947.28
753.651	23966.49
753.989	23777.79
754.327	23809.88
754.666	23698.7
755.004	23693.5
755.342	23775.53
755.679	23559.04
756.017	23519.04
756.355	23563.56
756.693	23479.04
757.031	23512.49
757.368	23332.15
757.706	23208.77
758.044	23320.4
758.381	23205.15
758.719	23071.6
759.056	23105.27
759.394	23024.14
759.731	22909.34
760.068	23031.15
760.405	22825.28
760.743	22860.53
761.08	22716.8
761.417	22684.94
761.754	22582.57
762.091	22571.04
762.428	22570.14
762.765	22360.2
763.102	22435.68
763.438	22271.62
763.775	22181.22
764.112	22173.54
764.449	22128.57
764.785	22058.29
765.122	21981
765.458	21924.06
765.795	21787.56
766.131	21799.54
766.467	21682.71
766.804	21630.05
767.14	21457.18
767.476	21521.36
767.812	21352.32
768.148	21384.86
768.485	21269.38
768.821	21164.98
769.157	21129.05
769.492	21074.59
769.828	21103.29
770.164	20911.2
770.5	20850.86
770.836	20870.75
771.171	20666.69
771.507	20700.59
771.842	20544.43
772.178	20402.29
772.513	20423.08
772.849	20342.4
773.184	20282.97
773.519	20296.75
773.855	20155.06
774.19	20063.99
774.525	20076.65
774.86	20043.88
775.195	19899.02
775.53	19798.91
775.865	19698.8
776.2	19659.94
776.535	19539.03
776.87	19421.52
777.205	19425.36
777.539	19298.59
777.874	19342.43
778.209	19202.09
778.543	19115.54
778.878	19054.3
779.212	19039.61
779.547	18956.45
779.881	18936.56
780.215	18813.63
780.55	18813.18
780.884	18673.75
781.218	18691.37
781.552	18571.15
781.886	18443.92
782.22	18410.93
782.554	18347.65
782.888	18180.65
783.222	18137.72
783.556	18077.38
783.889	18030.83
784.223	17949.7
784.557	17925.07
784.89	17868.12
785.224	17879.42
785.557	17716.71
785.891	17678.74
786.224	17693.43
786.558	17681.23
786.891	17483.04
787.224	17436.72
787.557	17326.66
787.891	17289.6
788.224	17274.46
788.557	17277.17
788.89	17119.44
789.223	17170.96
789.556	17016.84
789.888	17041.25
790.221	16901.14
790.554	16786.79
790.887	16858.43
791.219	16767.36
791.552	16662.73
791.884	16604.87
792.217	16667.7
792.549	16588.83
792.882	16462.05
793.214	16340.02
793.546	16355.62
793.879	16288.72
794.211	16167.82
794.543	16254.15
794.875	16082.63
795.207	16197.65
795.539	16051.67
795.871	16069.52
796.203	15963.76
796.535	15788.62
796.867	15741.62
797.198	15770.55
797.53	15671.57
797.862	15637.67
798.193	15703.43
798.525	15500.27
798.856	15545.24
799.188	15420.27
799.519	15396.09
799.85	15232.93
800.182	15283.78
800.513	15238.13
800.844	15164.46
801.175	15214.85
801.506	15097.12
801.837	15048.53
802.168	14999.49
802.499	14958.36
802.83	14894.64
803.161	14800.63
803.491	14903.45
803.822	14824.13
804.153	14829.78
804.483	14658.03
804.814	14637.47
805.145	14654.64
805.475	14554.98
805.805	14520.86
806.136	14456
806.466	14563.57
806.796	14462.33
807.126	14314.76
807.457	14371.71
807.787	14326.29
808.117	14234.99
808.447	14169.46
808.777	14226.63
809.107	14198.84
809.436	14151.83
809.766	14045.39
810.096	14054.66
810.426	14009.24
810.755	13997.26
811.085	13907.54
811.414	13927.2
811.744	13807.21
812.073	13794.1
812.403	13737.38
812.732	13667.55
813.061	13622.35
813.39	13587.33
813.719	13580.32
814.049	13654.22
814.378	13482.92
814.707	13506.42
815.036	13475.01
815.365	13355.47
815.693	13315.24
816.022	13334.68
816.351	13314.57
816.68	13224.62
817.008	13316.37
817.337	13200.67
817.665	13170.61
817.994	13185.98
818.322	13166.09
818.651	13035.02
818.979	13018.75
819.307	13028.02
819.636	12993.22
819.964	12874.35
820.292	13002.71
820.62	12960.68
820.948	12887.91
821.276	12978.08
821.604	12825.99
821.932	12937.4
822.259	12893.56
822.587	12827.8
822.915	12914.58
823.243	12921.13
823.57	12774.69
823.898	12831.64
824.225	12842.04
824.553	12767.69
824.88	12878.19
825.207	12784.18
825.535	12861.02
825.862	12800.23
826.189	12788.03
826.516	12858.76
826.843	12845.2
827.17	12836.61
827.497	12832.77
827.824	12860.34
828.151	12836.84
828.478	12908.02
828.805	12858.08
829.131	12784.18
829.458	12745.54
829.785	12809.27
830.111	12719.55
830.438	12809.72
830.764	12799.55
831.09	12820.79
831.417	12741.47
831.743	12786.9
832.069	12801.58
832.395	12708.93
832.722	12782.83
833.048	12748.48
833.374	12691.53
833.7	12677.29
834.026	12668.03
834.351	12640.01
834.677	12689.72
835.003	12701.02
835.329	12650.4
835.654	12670.74
835.98	12638.88
836.306	12594.81
836.631	12579.9
836.956	12601.36
837.282	12562.04
837.607	12492.89
837.932	12515.26
838.258	12506.9
838.583	12485.66
838.908	12322.5
839.233	12369.28
839.558	12396.17
839.883	12348.71
840.208	12329.96
840.533	12259.9
840.858	12324.53
841.182	12283.63
841.507	12265.55
841.832	12209.28
842.156	12226.68
842.481	12231.66
842.805	12095.16
843.13	12135.61
843.454	12142.62
843.778	12052.23
844.103	11946.01
844.427	12012.23
844.751	11926.81
845.075	11906.47
845.399	11907.6
845.723	11884.09
846.047	11891.55
846.371	11726.58
846.695	11689.3
847.019	11706.47
847.343	11577.66
847.666	11576.08
847.99	11551.22
848.313	11484.33
848.637	11368.63
848.96	11337.67
849.284	11380.6
849.607	11311.91
849.931	11275.97
850.254	11186.49
850.577	11144.68
850.9	11059.71
851.223	11099.71
851.546	11003.44
851.869	10896.78
852.192	10968.64
852.515	10866.49
852.838	10874.63
853.161	10876.66
853.483	10733.62
853.806	10775.42
854.129	10688.87
854.451	10626.5
854.774	10645.93
855.096	10547.86
855.419	10594.41
855.741	10590.57
856.063	10559.16
856.385	10480.97
856.708	10443
857.03	10458.37
857.352	10383.79
857.674	10363.23
857.996	10302.44
858.318	10278.26
858.64	10314.64
858.961	10217.02
859.283	10224.93
859.605	10181.99
859.926	10181.54
860.248	10087.31
860.57	10085.27
860.891	10070.13
861.212	10065.61
861.534	10066.29
861.855	10014.99
862.176	9951.04
862.498	9942
862.819	9981.09
863.14	9935.67
863.461	9962.79
863.782	9882.57
864.103	9830.36
864.424	9829.91
864.745	9822
865.065	9786.97
865.386	9698.16
865.707	9677.82
866.027	9752.17
866.348	9730.03
866.668	9777.26
866.989	9667.88
867.309	9660.65
867.63	9635.11
867.95	9631.27
868.27	9586.75
868.59	9631.95
868.91	9567.32
869.23	9576.58
869.55	9535.23
869.87	9537.49
870.19	9523.48
870.51	9485.06
870.83	9532.07
871.15	9466.53
871.469	9429.92
871.789	9468.79
872.109	9486.42
872.428	9377.27
872.748	9415.46
873.067	9371.62
873.386	9420.2
873.706	9354.44
874.025	9360.09
874.344	9371.84
874.663	9351.51
874.982	9279.42
875.301	9273.32
875.62	9274.45
875.939	9215.92
876.258	9169.36
876.577	9222.92
876.896	9216.14
877.214	9143.6
877.533	9107.22
877.852	9117.61
878.17	9193.09
878.489	9163.26
878.807	9170.95
879.125	9060.67
879.444	9128.23
879.762	9088.24
880.08	9077.84
880.398	9005.98
880.716	9010.05
881.034	8998.52
881.352	9010.95
881.67	8918.97
881.988	8927.11
882.306	8889.82
882.624	8931.63
882.941	8839.88
883.259	8802.59
883.577	8814.34
883.894	8855.25
884.212	8825.64
884.529	8818.86
884.846	8766.89
885.164	8703.84
885.481	8700.45
885.798	8712.2
886.115	8629.49
886.432	8637.85
886.75	8610.96
887.067	8618.64
887.383	8641.02
887.7	8648.02
888.017	8574.12
888.334	8541.81
888.651	8464.75
888.967	8488.03
889.284	8478.08
889.6	8441.47
889.917	8352.44
890.233	8411.64
890.55	8370.74
890.866	8375.03
891.182	8399.44
891.498	8309.95
891.815	8257.3
892.131	8198.09
892.447	8252.1
892.763	8192.89
893.079	8188.15
893.395	8184.08
893.71	8128.26
894.026	8108.83
894.342	8069.51
894.657	8016.63
894.973	8065.66
895.289	8058.43
895.604	8033.12
895.92	7963.07
896.235	7935.27
896.55	7937.31
896.865	7860.7
897.181	7853.92
897.496	7850.53
897.811	7861.15
898.126	7771.21
898.441	7730.76
898.756	7694.6
899.071	7696.41
899.386	7691.66
899.7	7579.8
900.015	7590.87
900.33	7520.59
900.644	7594.94
900.959	7529.18
901.273	7477.66
901.588	7462.52
901.902	7414.83
902.216	7383.65
902.531	7445.11
902.845	7337.32
903.159	7308.62
903.473	7290.32
903.787	7262.07
904.101	7228.4
904.415	7234.27
904.729	7202.64
905.042	7165.57
905.356	7132.13
905.67	7084.45
905.984	7088.97
906.297	7098.01
906.611	7036.31
906.924	7093.49
907.237	7008.97
907.551	6934.39
907.864	6976.88
908.177	6986.14
908.491	6862.31
908.804	6859.14
909.117	6855.98
909.43	6846.26
909.743	6779.37
910.056	6787.73
910.368	6722.87
910.681	6681.29
910.994	6656.89
911.307	6691.91
911.619	6647.4
911.932	6644.91
912.244	6574.4
912.557	6538.47
912.869	6527.62
913.181	6431.36
913.494	6509.55
913.806	6401.75
914.118	6414.86
914.43	6359.04
914.742	6403.11
915.054	6348.19
915.366	6293.05
915.678	6265.03
915.99	6274.3
916.302	6176.9
916.613	6185.94
916.925	6175.77
917.236	6164.02
917.548	6095.32
917.859	6115.88
918.171	6063.91
918.482	6054.19
918.794	6000.63
919.105	6058.71
919.416	5958.83
919.727	5956.34
920.038	5924.7
920.349	5883.35
920.66	5907.98
920.971	5854.2
921.282	5871.15
921.593	5840.86
921.903	5755.67
922.214	5770.81
922.525	5705.05
922.835	5676.57
923.146	5698.95
923.456	5680.87
923.767	5616.24
924.077	5623.24
924.387	5547.31
924.697	5536.01
925.008	5512.06
925.318	5509.57
925.628	5528.1
925.938	5478.61
926.248	5411.95
926.558	5381.21
926.867	5370.14
927.177	5420.99
927.487	5397.94
927.796	5295.34
928.106	5315.23
928.416	5286.53
928.725	5289.47
929.034	5319.75
929.344	5214.21
929.653	5225.29
929.962	5170.6
930.271	5160.88
930.581	5155.01
930.89	5131.5
931.199	5061
931.508	5041.56
931.817	5042.69
932.125	5036.14
932.434	5038.4
932.743	4983.03
933.051	4917.05
933.36	4945.97
933.669	4865.52
933.977	4900.32
934.286	4893.54
934.594	4890.15
934.902	4791.4
935.21	4816.94
935.519	4832.53
935.827	4807.22
936.135	4767.9
936.443	4745.75
936.751	4702.81
937.059	4689.71
937.367	4659.2
937.674	4646.54
937.982	4672.08
938.29	4604.29
938.597	4625.75
938.905	4547.34
939.213	4549.15
939.52	4557.73
939.827	4525.87
940.135	4532.65
940.442	4521.12
940.749	4492.2
941.056	4479.09
941.363	4375.37
941.67	4423.05
941.977	4355.48
942.284	4380.79
942.591	4327.23
942.898	4341.92
943.205	4360.68
943.511	4323.16
943.818	4296.95
944.125	4258.31
944.431	4282.71
944.738	4257.18
945.044	4215.37
945.35	4209.27
945.657	4151.42
945.963	4175.82
946.269	4150.74
946.575	4144.41
946.881	4169.72
947.187	4040.68
947.493	4086.11
947.799	4092.43
948.105	4044.07
948.41	4028.03
948.716	4035.94
949.022	3988.26
949.327	3965.21
949.633	3963.85
949.938	3963.17
950.244	3958.88
950.549	3880.91
950.854	3866
951.16	3869.16
951.465	3834.59
951.77	3849.5
952.075	3821.71
952.38	3801.14
952.685	3803.18
952.99	3759.34
953.294	3753.91
953.599	3762.5
953.904	3700.58
954.209	3717.98
954.513	3690.86
954.818	3705.55
955.122	3670.3
955.426	3617.19
955.731	3623.75
956.035	3592.79
956.339	3598.44
956.643	3586.69
956.948	3581.04
957.252	3549.17
957.556	3527.25
957.86	3560.92
958.163	3584.88
958.467	3530.19
958.771	3509.63
959.075	3451.77
959.378	3449.74
959.682	3446.8
959.985	3443.41
960.289	3435.95
960.592	3429.63
960.896	3378.78
961.199	3357.99
961.502	3330.65
961.805	3359.8
962.108	3307.6
962.411	3331.55
962.714	3285.68
963.017	3303.3
963.32	3292.23
963.623	3282.74
963.926	3260.14
964.228	3217.88
964.531	3234.15
964.833	3214.94
965.136	3166.36
965.438	3180.82
965.741	3155.51
966.043	3140.37
966.345	3124.55
966.648	3121.61
966.95	3095.4
967.252	3104.66
967.554	3055.4
967.856	3067.38
968.158	3027.83
968.46	2984.89
968.761	3033.93
969.063	3084.33
969.365	2960.94
969.666	2969.3
969.968	2941.05
970.269	2967.94
970.571	2939.92
970.872	2929.98
971.174	2922.75
971.475	2911.22
971.776	2899.02
972.077	2859.25
972.378	2868.51
972.679	2847.72
972.98	2842.3
973.281	2845.69
973.582	2823.32
973.883	2843.88
974.183	2811.56
974.484	2796.88
974.785	2772.02
975.085	2762.98
975.386	2726.37
975.686	2751.68
975.986	2733.6
976.287	2682.98
976.587	2706.48
976.887	2670.1
977.187	2698.8
977.487	2680.04
977.787	2644.56
978.087	2659.7
978.387	2617.67
978.687	2626.71
978.987	2618.58
979.286	2622.64
979.586	2560.27
979.885	2548.07
980.185	2554.17
980.484	2535.87
980.784	2525.02
981.083	2529.99
981.382	2517.56
981.682	2514.62
981.981	2518.92
982.28	2492.7
982.579	2466.49
982.878	2484.57
983.177	2448.86
983.475	2439.6
983.774	2429.43
984.073	2384.91
984.372	2398.02
984.67	2435.53
984.969	2390.11
985.267	2373.61
985.566	2373.84
985.864	2376.1
986.162	2347.62
986.461	2315.53
986.759	2301.3
987.057	2286.61
987.355	2299.71
987.653	2285.48
987.951	2287.28
988.249	2243.22
988.547	2264.23
988.844	2248.64
989.142	2228.98
989.44	2278.02
989.737	2197.57
990.035	2235.31
990.332	2255.42
990.63	2164.8
990.927	2205.25
991.224	2189.66
991.521	2153.95
991.819	2118.02
992.116	2163.9
992.413	2137.46
992.71	2129.1
993.006	2126.61
993.303	2101.98
993.6	2074.63
993.897	2082.32
994.193	2079.15
994.49	2041.42
994.787	2029.89
995.083	2069.21
995.379	2031.92
995.676	2018.37
995.972	2041.42
996.268	2028.53
996.565	2013.62
996.861	1996.44
997.157	1967.74
997.453	2003.9
997.749	1985.37
998.044	1957.58
998.34	1955.32
998.636	1959.84
998.932	1917.12
999.227	1900.4
999.523	1924.81
999.818	1876
1000.114	1878.71
1000.409	1877.58
1000.704	1872.38
1001	1867.41
1001.295	1850.91
1001.59	1868.09
1001.885	1816.11
1002.18	1782.89
1002.475	1796.45
1002.77	1811.82
1003.065	1795.55
1003.359	1786.51
1003.654	1784.25
1003.949	1781.08
1004.243	1744.02
1004.538	1712.38
1004.832	1727.75
1005.127	1737.69
1005.421	1723.23
1005.715	1697.02
1006.009	1709.22
1006.304	1672.39
1006.598	1688.66
1006.892	1628.77
1007.186	1667.41
1007.48	1658.83
1007.773	1652.05
1008.067	1616.12
1008.361	1641.43
1008.655	1637.81
1008.948	1623.8
1009.242	1599.84
1009.535	1617.7
1009.829	1593.29
1010.122	1594.2
1010.415	1560.75
1010.708	1553.07
1011.001	1535.44
1011.295	1518.27
1011.588	1523.24
1011.881	1509.23
1012.173	1484.82
1012.466	1526.4
1012.759	1507.19
1013.052	1486.4
1013.344	1472.16
1013.637	1454.54
1013.93	1438.27
1014.222	1490.47
1014.514	1455.22
1014.807	1444.82
1015.099	1439.4
1015.391	1403.47
1015.683	1444.14
1015.976	1423.13
1016.268	1410.47
1016.56	1401.88
1016.851	1356.91
1017.143	1383.58
1017.435	1384.48
1017.727	1383.13
1018.018	1352.39
1018.31	1332.51
1018.602	1317.59
1018.893	1335.67
1019.185	1314.2
1019.476	1297.93
1019.767	1323.02
1020.058	1281.21
1020.35	1307.88
1020.641	1296.12
1020.932	1303.81
1021.223	1297.93
1021.514	1275.11
1021.804	1232.85
1022.095	1235.11
1022.386	1197.82
1022.677	1217.93
1022.967	1210.7
1023.258	1248.22
1023.548	1219.74
1023.839	1190.36
1024.129	1212.74
1024.419	1200.53
1024.709	1166.18
1025	1161.66
1025.29	1162.12
1025.58	1173.64
1025.87	1137.48
1026.16	1166.18
1026.449	1114.21
1026.739	1130.93
1027.029	1109.01
1027.319	1110.14
1027.608	1106.52
1027.898	1097.26
1028.187	1072.18
1028.477	1098.39
1028.766	1069.01
1029.055	1066.3
1029.344	1076.24
1029.634	1043.48
1029.923	1045.96
1030.212	1047.77
1030.501	1048.45
1030.79	1029.46
1031.078	1005.06
1031.367	1004.38
1031.656	1008.9
1031.945	1019.52
1032.233	1006.87
1032.522	994.44
1032.81	972.52
1033.099	995.12
1033.387	988.79
1033.675	964.16
1033.963	969.13
1034.251	956.02
1034.54	1003.02
1034.828	936.59
1035.116	930.94
1035.403	944.72
1035.691	930.71
1035.979	922.8
1036.267	903.59
1036.554	931.61
1036.842	895.46
1037.129	905.17
1037.417	896.13
1037.704	890.26
1037.992	872.18
1038.279	874.67
1038.566	855.91
1038.853	855.91
1039.14	855.91
