Data from hue_170_FLMS001491_00056.txt Node
Date: Tue Feb 07 16:48:53 GMT 2017
User: dcchb
Spectrometer: FLMS00149
Trigger mode: 0
Integration Time (sec): 2.000000E-2
Scans to average: 10
Electric dark correction enabled: true
Nonlinearity correction enabled: false
Boxcar width: 0
XAxis mode: Wavelengths
Number of Pixels in Spectrum: 2048
>>>>>Begin Spectral Data<<<<<
341.393	-21.36
341.776	-21.36
342.16	-21.36
342.543	-75.37
342.927	-71.98
343.31	-85.99
343.693	-66.55
344.077	-60
344.46	-57.51
344.843	-46.89
345.226	-34.24
345.61	-39.66
345.993	-25.42
346.376	8.02
346.759	10.28
347.142	13.22
347.525	36.27
347.908	83.05
348.291	71.3
348.674	85.08
349.057	109.04
349.44	116.04
349.823	138.64
350.206	151.97
350.588	180.67
350.971	189.26
351.354	209.82
351.737	225.87
352.119	259.77
352.502	248.92
352.884	282.14
353.267	282.82
353.65	278.07
354.032	275.59
354.414	294.57
354.797	328.01
355.179	309.94
355.562	314.91
355.944	318.97
356.326	327.79
356.709	325.3
357.091	322.36
357.473	326.66
357.855	322.82
358.238	309.03
358.62	338.18
359.002	317.84
359.384	344.51
359.766	336.38
360.148	343.61
360.53	350.39
360.912	337.96
361.294	333.44
361.676	331.86
362.057	338.41
362.439	335.7
362.821	319.2
363.203	304.51
363.584	303.38
363.966	332.76
364.348	318.3
364.729	300.9
365.111	296.15
365.493	335.25
365.874	321.23
366.256	314.91
366.637	323.95
367.019	305.42
367.4	309.26
367.781	315.81
368.163	292.99
368.544	296.15
368.925	311.97
369.306	315.36
369.688	303.16
370.069	291.18
370.45	307.9
370.831	305.19
371.212	302.03
371.593	323.27
371.974	303.61
372.355	303.38
372.736	306.32
373.117	304.06
373.498	310.61
373.879	289.14
374.26	305.19
374.641	303.16
375.021	314.68
375.402	319.65
375.783	333.89
376.163	325.08
376.544	305.42
376.925	296.15
377.305	313.1
377.686	325.75
378.066	337.51
378.447	291.63
378.827	309.03
379.208	335.7
379.588	321.46
379.968	328.24
380.349	327.11
380.729	318.3
381.109	351.52
381.489	326.88
381.87	339.99
382.25	337.73
382.63	316.71
383.01	313.1
383.39	338.41
383.77	326.88
384.15	321.91
384.53	344.51
384.91	340.22
385.29	343.83
385.67	342.93
386.049	322.82
386.429	345.64
386.809	358.3
387.189	339.09
387.568	339.54
387.948	358.52
388.328	356.49
388.707	348.58
389.087	339.09
389.466	359.2
389.846	359.65
390.225	367.56
390.605	363.27
390.984	365.98
391.363	369.59
391.743	363.27
392.122	372.31
392.501	371.85
392.881	370.95
393.26	375.47
393.639	338.41
394.018	382.25
394.397	379.99
394.776	368.46
395.155	375.7
395.534	365.75
395.913	378.63
396.292	395.81
396.671	401.68
397.05	387
397.429	378.86
397.808	377.5
398.186	384.51
398.565	389.71
398.944	396.94
399.323	406.88
399.701	388.58
400.08	388.35
400.458	394.23
400.837	402.36
401.215	398.29
401.594	405.53
401.972	395.13
402.351	418.63
402.729	412.31
403.107	426.54
403.486	420.21
403.864	406.66
404.242	408.92
404.62	438.75
404.999	429.71
405.377	430.16
405.755	429.71
406.133	447.33
406.511	430.16
406.889	446.2
407.267	452.53
407.645	442.81
408.023	438.29
408.401	466.09
408.779	465.19
409.156	477.61
409.534	490.5
409.912	470.16
410.29	478.29
410.667	481.91
411.045	478.74
411.422	495.69
411.8	500.21
412.178	521
412.555	516.26
412.933	526.65
413.31	527.1
413.687	518.52
414.065	530.27
414.442	532.98
414.819	518.52
415.197	533.21
415.574	540.89
415.951	573.66
416.328	554
416.705	563.71
417.082	568.91
417.46	589.02
417.837	598.52
418.214	591.28
418.591	597.84
418.967	584.96
419.344	596.26
419.721	586.09
420.098	605.07
420.475	615.46
420.852	622.24
421.228	624.5
421.605	607.33
421.982	645.52
422.358	645.97
422.735	679.87
423.111	672.64
423.488	662.02
423.864	657.04
424.241	696.14
424.617	690.72
424.994	706.76
425.37	691.39
425.746	662.47
426.123	702.92
426.499	737.49
426.875	716.7
427.251	744.05
427.627	728.68
428.003	752.18
428.379	770.94
428.756	767.78
429.132	773.88
429.507	766.19
429.883	770.71
430.259	806.65
430.635	758.29
431.011	788.57
431.387	825.4
431.763	825.63
432.138	831.05
432.514	855.23
432.89	853.2
433.265	846.64
433.641	881.67
434.016	884.84
434.392	911.05
434.767	911.28
435.143	912.18
435.518	928.45
435.894	925.51
436.269	952.18
436.644	981.56
437.02	974.78
437.395	970.93
437.77	973.87
438.145	1020.88
438.52	1015.91
438.895	1037.6
439.271	1034.89
439.646	1050.25
440.021	1050.93
440.395	1077.15
440.77	1047.77
441.145	1086.64
441.52	1095.45
441.895	1108.56
442.27	1116.92
442.645	1129.8
443.019	1122.12
443.394	1155.11
443.769	1170.48
444.143	1156.47
444.518	1161.89
444.892	1197.14
445.267	1170.25
445.641	1215.22
446.016	1234.43
446.39	1238.5
446.764	1212.06
447.139	1239.85
447.513	1235.33
447.887	1239.85
448.262	1287.08
448.636	1281.21
449.01	1271.27
449.384	1327.08
449.758	1304.26
450.132	1310.14
450.506	1317.14
450.88	1309.91
451.254	1346.97
451.628	1349.91
452.002	1386.29
452.376	1402.11
452.75	1384.94
453.123	1395.33
453.497	1409.12
453.871	1431.04
454.244	1497.7
454.618	1501.99
454.992	1507.87
455.365	1520.52
455.739	1529.56
456.112	1580.86
456.486	1593.52
456.859	1601.2
457.232	1617.02
457.606	1621.54
457.979	1661.09
458.352	1687.3
458.725	1688.66
459.099	1728.2
459.472	1735.43
459.845	1773.4
460.218	1786.73
460.591	1801.2
460.964	1822.21
461.337	1854.53
461.71	1857.47
462.083	1880.29
462.456	1928.42
462.829	1928.88
463.201	1957.12
463.574	1946.5
463.947	2021.75
464.32	2059.49
464.692	2072.6
465.065	2097.91
465.438	2123
465.81	2184.46
466.183	2216.78
466.555	2276.89
466.928	2264.69
467.3	2251.58
467.672	2322.99
468.045	2362.76
468.417	2388.52
468.789	2431.01
469.161	2461.07
469.534	2518.92
469.906	2566.15
470.278	2574.28
470.65	2632.13
471.022	2699.25
471.394	2740.83
471.766	2767.95
472.138	2832.81
472.51	2875.74
472.882	2936.98
473.253	2996.87
473.625	3061.05
473.997	3148.73
474.369	3161.16
474.74	3232.8
475.112	3326.81
475.484	3362.74
475.855	3450.42
476.227	3473.02
476.598	3629.4
476.97	3647.47
477.341	3772.44
477.713	3879.11
478.084	3900.58
478.455	4050.4
478.827	4116.84
479.198	4206.33
479.569	4242.49
479.94	4406.55
480.311	4458.98
480.682	4607.68
481.053	4700.55
481.424	4851.96
481.795	4904.84
482.166	5006.31
482.537	5087.66
482.908	5239.75
483.279	5314.78
483.65	5458.95
484.021	5627.76
484.391	5747.53
484.762	5782.11
485.133	5902.33
485.503	6054.42
485.874	6164.7
486.244	6295.99
486.615	6448.31
486.985	6552.71
487.356	6730.56
487.726	6795.41
488.097	7026.37
488.467	7037.67
488.837	7239.7
489.207	7376.87
489.578	7501.16
489.948	7649.4
490.318	7817.53
490.688	7875.84
491.058	8043.29
491.428	8201.71
491.798	8276.28
492.168	8435.37
492.538	8541.58
492.908	8727.57
493.278	8896.38
493.648	8957.62
494.017	9050.95
494.387	9189.48
494.757	9310.38
495.126	9412.07
495.496	9458.17
495.866	9560.99
496.235	9704.26
496.605	9873.07
496.974	9926.18
497.344	10022.22
497.713	10158.72
498.082	10245.95
498.452	10370.91
498.821	10409.78
499.19	10443
499.559	10604.13
499.928	10631.25
500.298	10736.78
500.667	10887.06
501.036	10867.85
501.405	11006.38
501.774	11025.59
502.143	11049.54
502.512	11139.03
502.88	11338.8
503.249	11235.52
503.618	11381.28
503.987	11416.08
504.356	11474.39
504.724	11639.58
505.093	11644.55
505.462	11662.86
505.83	11820.37
506.199	11866.24
506.567	11975.62
506.936	11953.47
507.304	12100.13
507.672	12144.43
508.041	12178.78
508.409	12287.7
508.777	12308.04
509.145	12443.85
509.514	12389.62
509.882	12447.02
510.25	12401.14
510.618	12453.34
510.986	12566.56
511.354	12673
511.722	12750.96
512.09	12835.48
512.458	12818.53
512.826	12900.79
513.193	12942.82
513.561	12928.13
513.929	12987.79
514.297	13077.06
514.664	13080
515.032	13129.49
515.4	13170.61
515.767	13192.31
516.135	13254.68
516.502	13177.17
516.869	13361.57
517.237	13324.28
517.604	13292.64
517.972	13465.75
518.339	13527.21
518.706	13479.98
519.073	13458.06
519.44	13581
519.808	13574.67
520.175	13597.95
520.542	13658.96
520.909	13779.41
521.276	13586.42
521.643	13834.1
522.009	13844.04
522.376	13828.9
522.743	13833.87
523.11	13945.28
523.477	13965.4
523.843	14007.65
524.21	14090.14
524.577	14134.2
524.943	14064.6
525.31	14096.47
525.676	14204.26
526.043	14283.35
526.409	14255.11
526.776	14386.4
527.142	14297.59
527.508	14352.73
527.874	14302.34
528.241	14388.21
528.607	14257.59
528.973	14494.2
529.339	14378.72
529.705	14429.34
530.071	14447.19
530.437	14490.81
530.803	14428.43
531.169	14461.65
531.535	14455.78
531.901	14344.37
532.267	14336.23
532.632	14490.81
532.998	14398.83
533.364	14466.17
533.73	14455.33
534.095	14463.46
534.461	14418.72
534.826	14424.59
535.192	14334.43
535.557	14386.18
535.923	14257.82
536.288	14301.88
536.653	14291.49
537.019	14180.31
537.384	14307.53
537.749	14244.71
538.114	14194.99
538.479	14168.33
538.845	14126.75
539.21	14069.8
539.575	14082.23
539.94	14048.11
540.305	14079.97
540.67	13985.06
541.034	13929.46
541.399	13976.92
541.764	13916.81
542.129	13882.69
542.494	13835.23
542.858	13782.8
543.223	13701.22
543.587	13736.25
543.952	13754.33
544.316	13697.83
544.681	13672.3
545.045	13623.48
545.41	13590.49
545.774	13679.98
546.138	13522.24
546.503	13552.3
546.867	13455.13
547.231	13462.36
547.595	13463.04
547.959	13382.81
548.324	13293.1
548.688	13253.55
549.052	13312.53
549.416	13192.99
549.779	13204.29
550.143	13139.88
550.507	13123.16
550.871	13173.78
551.235	13108.24
551.599	13076.83
551.962	13171.29
552.326	13010.62
552.689	13096.94
553.053	12958.64
553.417	12959.55
553.78	13089.94
554.143	12850.4
554.507	12967.68
554.87	12897.63
555.234	12950.51
555.597	12861.47
555.96	12848.14
556.323	12855.14
556.686	12730.85
557.05	12841.58
557.413	12731.76
557.776	12817.4
558.139	12863.05
558.502	12694.69
558.865	12767.91
559.228	12768.14
559.59	12773.79
559.953	12721.36
560.316	12774.01
560.679	12743.96
561.041	12842.94
561.404	12819.66
561.767	12861.92
562.129	12737.63
562.492	12875.71
562.854	12834.8
563.217	12757.52
563.579	12713.45
563.941	12796.39
564.304	12750.96
564.666	12832.77
565.028	12888.14
565.39	12784.41
565.753	12814.47
566.115	12843.84
566.477	12910.06
566.839	12818.98
567.201	12898.3
567.563	12828.25
567.925	12956.61
568.287	12963.39
568.648	12867.12
569.01	12937.63
569.372	12950.28
569.734	12883.39
570.095	12938.98
570.457	13058.3
570.819	12979.66
571.18	12952.09
571.542	12967.46
571.903	13006.78
572.265	13022.37
572.626	13090.84
572.987	13081.8
573.349	13103.95
573.71	13116.38
574.071	13083.61
574.432	13139.65
574.794	13176.26
575.155	13117.73
575.516	13103.5
575.877	13130.39
576.238	13155.02
576.599	13172.2
576.96	13150.5
577.32	13048.81
577.681	13173.55
578.042	13169.94
578.403	13139.65
578.763	13158.64
579.124	13108.47
579.485	13145.53
579.845	13242.25
580.206	13116.38
580.566	13147.34
580.927	13141.46
581.287	13228.47
581.648	13205.42
582.008	13193.44
582.368	13176.72
582.728	13154.8
583.089	13169.71
583.449	13118.86
583.809	13200.44
584.169	13096.04
584.529	13042.48
584.889	13147.56
585.249	13009.04
585.609	12984.18
585.969	13150.5
586.329	13034.8
586.688	13034.35
587.048	12990.05
587.408	12942.15
587.768	12984.18
588.127	12955.48
588.487	12998.19
588.846	13079.09
589.206	12945.31
589.565	12908.47
589.925	12992.31
590.284	12935.14
590.643	12927.68
591.003	12897.18
591.362	12965.2
591.721	13013.56
592.08	12947.57
592.44	12892.88
592.799	12872.54
593.158	12936.5
593.517	12862.6
593.876	12967.23
594.235	12870.28
594.593	12926.78
594.952	12898.76
595.311	12891.07
595.67	12893.79
596.029	13037.28
596.387	12922.71
596.746	12886.55
597.104	12950.96
597.463	12885.88
597.822	12928.13
598.18	12861.92
598.538	12827.57
598.897	12818.53
599.255	12787.8
599.613	12927.23
599.972	12817.63
600.33	12883.84
600.688	12738.31
601.046	12882.26
601.404	12875.25
601.762	12861.02
602.12	12871.86
602.478	12851.3
602.836	12853.33
603.194	12765.88
603.552	12763.17
603.91	12727.69
604.268	12823.28
604.625	12860.34
604.983	12887.91
605.341	12713.23
605.698	12840.45
606.056	12871.19
606.413	12803.84
606.771	12828.93
607.128	12795.26
607.485	12812.21
607.843	12928.13
608.2	12955.48
608.557	12963.39
608.914	12863.05
609.272	12985.53
609.629	12901.69
609.986	12985.53
610.343	12905.08
610.7	12938.53
611.057	12968.13
611.414	12954.35
611.771	12936.72
612.127	13016.72
612.484	12949.83
612.841	13032.31
613.198	12971.3
613.554	13037.06
613.911	13078.64
614.267	13010.62
614.624	12979.88
614.98	13009.94
615.337	13088.81
615.693	13114.57
616.05	13110.05
616.406	13082.03
616.762	13137.85
617.118	13052.65
617.475	13028.7
617.831	13162.25
618.187	13168.58
618.543	13075.25
618.899	13200.44
619.255	13206.09
619.611	13165.87
619.967	13140.78
620.323	13285.19
620.678	13135.36
621.034	13121.8
621.39	13169.94
621.746	13108.69
622.101	13253.55
622.457	13105.08
622.812	13187.56
623.168	13153.67
623.523	13222.82
623.879	13162.03
624.234	13146.89
624.589	13214.91
624.945	13319.54
625.3	13226.43
625.655	13202.03
626.01	13233.44
626.365	13184.4
626.72	13160.67
627.075	13194.79
627.43	13223.49
627.785	13075.48
628.14	13106.21
628.495	13163.38
628.85	13160.44
629.205	13145.98
629.559	13150.95
629.914	13108.69
630.269	13114.12
630.623	13128.13
630.978	13034.8
631.332	13052.65
631.687	13155.7
632.041	13011.75
632.396	13088.81
632.75	12929.72
633.104	13036.15
633.459	12922.49
633.813	12974.46
634.167	12905.99
634.521	12959.55
634.875	12977.17
635.229	12824.86
635.583	12876.38
635.937	12930.39
636.291	12794.8
636.645	12871.19
636.999	12764.98
637.352	12876.84
637.706	12787.35
638.06	12775.6
638.413	12678.42
638.767	12760.23
639.121	12776.27
639.474	12736.05
639.828	12645.66
640.181	12652.44
640.534	12717.97
640.888	12659.67
641.241	12652.89
641.594	12637.97
641.947	12725.65
642.301	12697.18
642.654	12659.22
643.007	12691.53
643.36	12652.89
643.713	12644.53
644.066	12705.99
644.419	12571.76
644.771	12476.62
645.124	12336.29
645.477	12377.41
645.83	12263.07
646.182	12224.42
646.535	12215.39
646.888	12194.37
647.24	12143.3
647.593	12207.48
647.945	12247.02
648.298	12197.31
648.65	12157.08
649.002	12082.51
649.355	12139
649.707	12120.47
650.059	12178.78
650.411	12444.08
650.763	12404.08
651.115	12517.3
651.467	12428.49
651.819	12509.16
652.171	12401.82
652.523	12404.08
652.875	12514.59
653.227	12427.81
653.578	12506.68
653.93	12457.41
654.282	12409.05
654.633	12344.2
654.985	12349.84
655.337	12420.8
655.688	12484.53
656.039	12482.27
656.391	12429.39
656.742	12378.54
657.094	12373.12
657.445	12428.26
657.796	12398.43
658.147	12439.56
658.498	12457.86
658.849	12487.02
659.2	12428.94
659.551	12418.54
659.902	12453.34
660.253	12435.94
660.604	12433.23
660.955	12435.72
661.306	12425.55
661.656	12459.67
662.007	12429.39
662.358	12480.91
662.708	12536.28
663.059	12515.49
663.409	12393.23
663.76	12505.55
664.11	12477.53
664.461	12532.44
664.811	12420.35
665.161	12426.23
665.511	12478.43
665.862	12431.88
666.212	12481.37
666.562	12460.8
666.912	12447.47
667.262	12462.61
667.612	12476.85
667.962	12471.88
668.312	12462.38
668.662	12499.22
669.011	12454.02
669.361	12531.53
669.711	12523.17
670.06	12419.45
670.41	12417.19
670.76	12458.32
671.109	12478.43
671.459	12405.21
671.808	12421.48
672.157	12418.32
672.507	12361.14
672.856	12302.84
673.205	12334.03
673.554	12427.58
673.904	12402.5
674.253	12436.85
674.602	12336.29
674.951	12160.02
675.3	12081.83
675.649	12361.82
675.998	12330.41
676.346	12342.16
676.695	12338.09
677.044	12228.04
677.393	12237.08
677.741	12269.39
678.09	12212.22
678.438	12260.81
678.787	12199.79
679.135	12204.76
679.484	12106.24
679.832	12217.19
680.181	12124.77
680.529	12079.57
680.877	12128.38
681.225	12118.21
681.573	12167.7
681.922	12016.29
682.27	11987.14
682.618	11994.15
682.966	11989.18
683.314	11929.97
683.661	11994.83
684.009	11882.74
684.357	11903.75
684.705	11833.25
685.053	11873.47
685.4	11913.47
685.748	11714.61
686.095	11707.15
686.443	11745.79
686.79	11717.55
687.138	11702.86
687.485	11722.52
687.832	11688.85
688.18	11616.08
688.527	11670.54
688.874	11573.37
689.221	11551.9
689.568	11478.68
689.915	11489.98
690.262	11432.58
690.609	11361.17
690.956	11358.68
691.303	11337.44
691.65	11305.8
691.997	11294.28
692.344	11153.04
692.69	11127.73
693.037	11101.52
693.383	11056.32
693.73	11009.99
694.077	10999.15
694.423	10961.86
694.769	10979.49
695.116	10947.4
695.462	10941.97
695.808	10862.65
696.155	10890.22
696.501	10750.79
696.847	10758.25
697.193	10732.26
697.539	10739.94
697.885	10569.78
698.231	10587.41
698.577	10582.21
698.923	10548.76
699.269	10532.94
699.614	10476.45
699.96	10425.6
700.306	10420.63
700.651	10352.16
700.997	10267.41
701.342	10249.11
701.688	10174.53
702.033	10221.31
702.379	10174.99
702.724	10189
703.069	10231.71
703.415	10039.4
703.76	10028.1
704.105	10007.08
704.45	9976.35
704.795	9910.13
705.14	9920.3
705.485	9903.13
705.83	9830.59
706.175	9775.68
706.52	9805.28
706.865	9751.95
707.209	9748.56
707.554	9693.64
707.899	9682.8
708.243	9618.84
708.588	9601.22
708.932	9546.3
709.277	9537.94
709.621	9505.4
709.966	9472.86
710.31	9489.13
710.654	9358.06
710.998	9449.81
711.342	9463.82
711.687	9392.86
712.031	9324.39
712.375	9322.81
712.719	9329.13
713.063	9300.21
713.407	9304.28
713.75	9258.17
714.094	9194.22
714.438	9248.23
714.782	9218.85
715.125	9195.35
715.469	9209.81
715.812	9175.92
716.156	9097.05
716.499	9128.46
716.843	9105.41
717.186	9053.89
717.53	9058.63
717.873	9134.34
718.216	9114.45
718.559	9042.59
718.902	8927.79
719.246	9045.75
719.589	8927.11
719.932	8954.45
720.275	8990.16
720.617	8950.16
720.96	8961.69
721.303	8898.86
721.646	8948.8
721.989	8838.3
722.331	8869.03
722.674	8881.46
723.016	8921.91
723.359	8834.23
723.701	8866.09
724.044	8852.31
724.386	8771.86
724.729	8867.9
725.071	8828.58
725.413	8824.74
725.755	8721.69
726.097	8766.21
726.439	8785.42
726.782	8722.6
727.124	8760.33
727.465	8759.66
727.807	8794.46
728.149	8739.32
728.491	8737.51
728.833	8732.54
729.175	8673.33
729.516	8686.89
729.858	8713.1
730.199	8721.24
730.541	8701.81
730.882	8698.19
731.224	8666.1
731.565	8676.5
731.906	8694.12
732.248	8662.48
732.589	8658.64
732.93	8614.58
733.271	8670.39
733.612	8697.74
733.953	8672.43
734.294	8659.32
734.635	8679.21
734.976	8691.41
735.317	8642.15
735.658	8651.41
735.999	8665.65
736.339	8600.56
736.68	8718.98
737.021	8642.6
737.361	8666.55
737.702	8693.22
738.042	8686.44
738.383	8687.34
738.723	8667.91
739.063	8659.32
739.404	8697.29
739.744	8665.65
740.084	8621.58
740.424	8737.06
740.764	8688.02
741.104	8803.72
741.444	8811.63
741.784	8751.75
742.124	8748.36
742.464	8822.93
742.804	8806.21
743.143	8848.02
743.483	8907
743.823	8904.74
744.162	8877.39
744.502	8941.8
744.841	9019.08
745.181	9071.06
745.52	8972.53
745.86	9026.77
746.199	9086.43
746.538	9096.82
746.877	9197.61
747.216	9184.5
747.556	9267.44
747.895	9378.85
748.234	9397.61
748.573	9367.1
748.911	9429.92
749.25	9535.23
749.589	9602.8
749.928	9606.64
750.267	9740.65
750.605	9775
750.944	9854.77
751.283	9869.68
751.621	10007.08
751.96	10066.74
752.298	10186.51
752.636	10311.48
752.975	10321.2
753.313	10428.77
753.651	10583.34
753.989	10716.22
754.327	10737.01
754.666	10794.41
755.004	10967.73
755.342	11140.61
755.679	11220.83
756.017	11357.78
756.355	11459.7
756.693	11592.8
757.031	11741.5
757.368	11866.02
757.706	11954.37
758.044	12124.99
758.381	12292.22
758.719	12442.05
759.056	12633.23
759.394	12807.01
759.731	12887.46
760.068	13057.17
760.405	13148.24
760.743	13340.78
761.08	13555.69
761.417	13712.29
761.754	13944.15
762.091	14067.99
762.428	14214.2
762.765	14253.3
763.102	14573.52
763.438	14670.46
763.775	14804.24
764.112	15034.75
764.449	15182.99
764.785	15274.29
765.122	15416.66
765.458	15507.28
765.795	15760.15
766.131	15890.32
766.467	16074.49
766.804	16105.9
767.14	16247.14
767.476	16452.56
767.812	16522.16
768.148	16711.54
768.485	16801.93
768.821	16912.21
769.157	16994.92
769.492	17093.67
769.828	17311.07
770.164	17281.01
770.5	17448.02
770.836	17617.05
771.171	17699.08
771.507	17736.37
771.842	17799.87
772.178	17958.96
772.513	17969.36
772.849	18064.95
773.184	18165.96
773.519	18197.6
773.855	18255.9
774.19	18294.77
774.525	18282.8
774.86	18442.34
775.195	18527.08
775.53	18542.22
775.865	18514.88
776.2	18588.55
776.535	18536.57
776.87	18664.26
777.205	18600.53
777.539	18741.32
777.874	18857.47
778.209	18698.83
778.543	18878.71
778.878	18859.73
779.212	18902.89
779.547	18796.45
779.881	18883.46
780.215	18937.69
780.55	18923.46
780.884	18915.32
781.218	18810.24
781.552	18986.28
781.886	18963
782.22	18839.62
782.554	18844.36
782.888	18793.29
783.222	18789
783.556	18867.87
783.889	18882.1
784.223	18756
784.557	18747.87
784.89	18824.02
785.224	18675.55
785.557	18639.85
785.891	18672.16
786.224	18648.66
786.558	18819.28
786.891	18536.12
787.224	18529.12
787.557	18572.73
787.891	18678.94
788.224	18637.59
788.557	18560.08
788.89	18515.78
789.223	18659.28
789.556	18544.26
789.888	18439.4
790.221	18339.74
790.554	18266.3
790.887	18327.31
791.219	18294.55
791.552	18215.23
791.884	18047.77
792.217	18110.15
792.549	18104.04
792.882	17972.97
793.214	18063.37
793.546	18073.99
793.879	17945.86
794.211	17805.75
794.543	17946.99
794.875	17832.64
795.207	17973.88
795.539	17836.03
795.871	17860.43
796.203	17768.69
796.535	17561.23
796.867	17681.46
797.198	17541.35
797.53	17479.88
797.862	17423.38
798.193	17468.58
798.525	17431.52
798.856	17518.75
799.188	17261.81
799.519	17218.19
799.85	17148.14
800.182	17254.12
800.513	17315.14
800.844	17153.79
801.175	17244.41
801.506	17220
801.837	17121.47
802.168	17018.65
802.499	17026.56
802.83	16947.69
803.161	16881.25
803.491	16933.91
803.822	16862.04
804.153	16780.69
804.483	16696.17
804.814	16664.99
805.145	16680.8
805.475	16707.02
805.805	16570.98
806.136	16472.45
806.466	16551.77
806.796	16574.59
807.126	16432.68
807.457	16481.49
807.787	16366.46
808.117	16406.69
808.447	16279.23
808.777	16338.89
809.107	16213.7
809.436	16159.01
809.766	16201.27
810.096	16117.43
810.426	16037.21
810.755	16105.9
811.085	16054.61
811.414	16024.32
811.744	15909.3
812.073	15824.78
812.403	15873.14
812.732	15815.29
813.061	15811.67
813.39	15793.14
813.719	15727.38
814.049	15735.74
814.378	15676.54
814.707	15635.18
815.036	15669.98
815.365	15608.06
815.693	15444
816.022	15460.95
816.351	15433.83
816.68	15437.45
817.008	15426.37
817.337	15198.81
817.665	15289.88
817.994	15271.12
818.322	15218.7
818.651	15184.57
818.979	15153.16
819.307	15284
819.636	15190.45
819.964	15184.35
820.292	15205.59
820.62	15181.63
820.948	15074.74
821.276	15218.7
821.604	15057.8
821.932	15119.26
822.259	15138.02
822.587	15051.24
822.915	15049.66
823.243	15142.99
823.57	15046.27
823.898	15005.59
824.225	15030.9
824.553	14989.55
824.88	15072.03
825.207	15096.44
825.535	15053.73
825.862	15145.03
826.189	15070.45
826.516	15135.76
826.843	15040.17
827.17	15109.32
827.497	15081.07
827.824	15090.56
828.151	15189.54
828.478	15176.66
828.805	15154.52
829.131	15134.86
829.458	15095.54
829.785	15133.95
830.111	15106.16
830.438	15118.81
830.764	15088.08
831.09	15163.78
831.417	15018.93
831.743	15127.17
832.069	15046.95
832.395	15112.03
832.722	15013.96
833.048	14988.42
833.374	14972.15
833.7	14891.7
834.026	14971.02
834.351	14963.34
834.677	14973.28
835.003	15000.62
835.329	14990.68
835.654	14981.19
835.98	14940.51
836.306	14910.91
836.631	14911.13
836.956	14899.83
837.282	14866.39
837.607	14896.67
837.932	14823
838.258	14762.44
838.583	14733.28
838.908	14755.66
839.233	14752.49
839.558	14697.13
839.883	14689.67
840.208	14611.48
840.533	14564.02
840.858	14575.77
841.182	14544.14
841.507	14577.13
841.832	14528.32
842.156	14505.72
842.481	14451.48
842.805	14385.05
843.13	14330.58
843.454	14270.7
843.778	14282.68
844.103	14226.63
844.427	14154.54
844.751	14216.69
845.075	14136.69
845.399	14123.58
845.723	14076.35
846.047	14084.26
846.371	14016.02
846.695	13997.94
847.019	13783.71
847.343	13805.85
847.666	13723.82
847.99	13686.98
848.313	13761.56
848.637	13526.54
848.96	13577.16
849.284	13563.15
849.607	13371.51
849.931	13366.99
850.254	13378.97
850.577	13289.26
850.9	13205.42
851.223	13258.07
851.546	13035.25
851.869	13095.81
852.192	13069.15
852.515	12969.04
852.838	12907.57
853.161	12924.07
853.483	12815.14
853.806	12779.66
854.129	12718.87
854.451	12675.49
854.774	12679.33
855.096	12620.8
855.419	12574.25
855.741	12535.15
856.063	12434.59
856.385	12430.07
856.708	12475.27
857.03	12337.87
857.352	12397.75
857.674	12372.22
857.996	12227.81
858.318	12274.82
858.64	12290.86
858.961	12200.24
859.283	12129.51
859.605	12048.84
859.926	12146.46
860.248	12059
860.57	11959.8
860.891	12030.53
861.212	11934.26
861.534	11905.79
861.855	11873.7
862.176	11898.11
862.498	11891.33
862.819	11872.8
863.14	11804.55
863.461	11783.76
863.782	11774.49
864.103	11801.38
864.424	11788.5
864.745	11822.18
865.065	11672.35
865.386	11602.07
865.707	11559.58
866.027	11561.84
866.348	11635.29
866.668	11580.15
866.989	11528.85
867.309	11493.6
867.63	11523.88
867.95	11420.15
868.27	11406.82
868.59	11450.89
868.91	11381.51
869.23	11365.69
869.55	11394.62
869.87	11418.57
870.19	11368.85
870.51	11336.31
870.83	11435.52
871.15	11224.68
871.469	11247.05
871.789	11274.62
872.109	11289.99
872.428	11213.6
872.748	11219.7
873.067	11247.95
873.386	11160.72
873.706	11130.44
874.025	11194.85
874.344	11088.41
874.663	11096.54
874.982	10995.3
875.301	11039.82
875.62	11040.05
875.939	11035.98
876.258	11075.98
876.577	11012.48
876.896	10954.4
877.214	10926.83
877.533	10913.72
877.852	10866.49
878.17	10932.25
878.489	10928.41
878.807	10909.2
879.125	10859.71
879.444	10861.75
879.762	10872.37
880.08	10859.49
880.398	10763.67
880.716	10775.2
881.034	10791.47
881.352	10783.56
881.67	10666.05
881.988	10732.26
882.306	10691.13
882.624	10600.96
882.941	10530.46
883.259	10570.68
883.577	10484.81
883.894	10582.66
884.212	10542.66
884.529	10489.1
884.846	10503.57
885.164	10408.88
885.481	10494.53
885.798	10466.96
886.115	10350.8
886.432	10413.17
886.75	10310.58
887.067	10304.7
887.383	10318.49
887.7	10286.85
888.017	10287.07
888.334	10295.44
888.651	10249.56
888.967	10189.68
889.284	10124.82
889.6	10058.61
889.917	10006.86
890.233	10016.8
890.55	9977.25
890.866	9991.94
891.182	9974.54
891.498	9925.05
891.815	9882.79
892.131	9809.57
892.447	9788.33
892.763	9747.65
893.079	9742.46
893.395	9751.27
893.71	9669.92
894.026	9663.14
894.342	9634.44
894.657	9533.65
894.973	9515.79
895.289	9523.93
895.604	9519.64
895.92	9420.2
896.235	9447.32
896.55	9404.39
896.865	9349.25
897.181	9302.02
897.496	9392.86
897.811	9293.88
898.126	9299.98
898.441	9231.28
898.756	9230.83
899.071	9120.33
899.386	9153.54
899.7	9027.67
900.015	8982.7
900.33	8973.44
900.644	8904.74
900.959	8983.15
901.273	8868.35
901.588	8861.57
901.902	8814.8
902.216	8804.18
902.531	8841.91
902.845	8732.76
903.159	8683.5
903.473	8655.7
903.787	8603.73
904.101	8592.2
904.415	8538.87
904.729	8585.42
905.042	8542.04
905.356	8492.32
905.67	8445.31
905.984	8458.87
906.297	8413.45
906.611	8296.17
906.924	8412.77
907.237	8316.96
907.551	8354.24
907.864	8252.55
908.177	8173.23
908.491	8234.25
908.804	8150.18
909.117	8111.99
909.43	8019.56
909.743	8024.99
910.056	8020.69
910.368	8000.81
910.681	7938.21
910.994	7939.34
911.307	7962.16
911.619	7836.07
911.932	7867.02
912.244	7762.62
912.557	7811.88
912.869	7677.2
913.181	7620.03
913.494	7614.38
913.806	7576.86
914.118	7528.28
914.43	7536.41
914.742	7470.88
915.054	7516.3
915.366	7465
915.678	7437.88
915.99	7344.78
916.302	7328.28
916.613	7340.03
916.925	7325.57
917.236	7331.22
917.548	7226.14
917.859	7197.66
918.171	7154.05
918.482	7141.62
918.794	7178.68
919.105	7121.96
919.416	7043.32
919.727	6993.83
920.038	7072.24
920.349	6991.57
920.66	6959.48
920.971	6904.34
921.282	6913.15
921.593	6871.12
921.903	6820.05
922.214	6819.82
922.525	6804.45
922.835	6816.88
923.146	6725.59
923.456	6742.76
923.767	6707.51
924.077	6682.2
924.387	6633.16
924.697	6622.31
925.008	6568.98
925.318	6552.26
925.628	6525.14
925.938	6498.02
926.248	6448.53
926.558	6430.68
926.867	6405.37
927.177	6426.84
927.487	6327.63
927.796	6354.07
928.106	6269.55
928.416	6356.78
928.725	6293.05
929.034	6220.29
929.344	6224.81
929.653	6231.81
929.962	6172.83
930.271	6108.2
930.581	6088.09
930.89	6043.8
931.199	5993.85
931.508	5978.94
931.817	5993.85
932.125	6004.02
932.434	5983.23
932.743	5882.44
933.051	5879.96
933.36	5880.64
933.669	5855.78
933.977	5837.7
934.286	5891.94
934.594	5759.28
934.902	5749.11
935.21	5722.67
935.519	5685.39
935.827	5714.76
936.135	5662.79
936.443	5665.73
936.751	5600.87
937.059	5594.09
937.367	5592.28
937.674	5566.75
937.982	5533.98
938.29	5512.51
938.597	5508.44
938.905	5425.73
939.213	5411.27
939.52	5433.87
939.827	5389.12
940.135	5355
940.442	5318.39
940.749	5283.82
941.056	5276.36
941.363	5250.37
941.67	5294.44
941.977	5225.96
942.284	5163.14
942.591	5232.97
942.898	5178.06
943.205	5176.25
943.511	5128.57
943.818	5070.71
944.125	5043.82
944.431	5075.46
944.738	5002.47
945.044	4951.17
945.35	4973.54
945.657	4931.73
945.963	4918.4
946.269	4882.7
946.575	4861.45
946.881	4850.38
947.187	4862.13
947.493	4822.13
947.799	4764.28
948.105	4785.3
948.41	4744.62
948.716	4765.86
949.022	4730.84
949.327	4718.18
949.633	4682.48
949.938	4687.9
950.244	4648.58
950.549	4568.81
950.854	4617.84
951.16	4632.99
951.465	4615.58
951.77	4524.29
952.075	4526.32
952.38	4487
952.685	4490.62
952.99	4473.67
953.294	4447.68
953.599	4449.94
953.904	4428.25
954.209	4374.69
954.513	4358.19
954.818	4370.17
955.122	4332.43
955.426	4283.62
955.731	4273.67
956.035	4299.89
956.339	4271.41
956.643	4265.31
956.948	4224.63
957.252	4207.69
957.556	4181.25
957.86	4173.34
958.163	4133.56
958.467	4106.22
958.771	4166.78
959.075	4093.79
959.378	4115.03
959.682	4075.71
959.985	4093.56
960.289	4030.74
960.592	3997.07
960.896	3992.1
961.199	4000.46
961.502	3952.78
961.805	3956.39
962.108	3916.85
962.411	3930.18
962.714	3877.53
963.017	3873.01
963.32	3897.19
963.623	3870.52
963.926	3843.18
964.228	3840.92
964.531	3763.86
964.833	3771.77
965.136	3769.96
965.438	3713.24
965.741	3717.08
966.043	3727.7
966.345	3699.68
966.648	3694.71
966.95	3656.74
967.252	3599.57
967.554	3676.17
967.856	3613.13
968.158	3569.74
968.46	3628.49
968.761	3587.36
969.063	3550.75
969.365	3521.6
969.666	3555.73
969.968	3517.31
970.269	3491.32
970.571	3476.18
970.872	3460.14
971.174	3474.82
971.475	3430.98
971.776	3458.1
972.077	3382.62
972.378	3403.41
972.679	3379.69
972.98	3367.71
973.281	3330.42
973.582	3331.55
973.883	3328.16
974.183	3299.91
974.484	3276.19
974.785	3253.36
975.085	3247.71
975.386	3275.06
975.686	3227.6
975.986	3202.06
976.287	3223.08
976.587	3200.03
976.887	3189.63
977.187	3166.13
977.487	3163.65
977.787	3127.94
978.087	3093.36
978.387	3106.7
978.687	3115.51
978.987	3093.82
979.286	3075.96
979.586	3056.3
979.885	3014.05
980.185	3028.51
980.484	2987.38
980.784	2992.35
981.083	2971.56
981.382	2958.91
981.682	2986.93
981.981	2944.44
982.28	2930.66
982.579	2882.3
982.878	2955.06
983.177	2869.64
983.475	2868.96
983.774	2848.85
984.073	2838.23
984.372	2817.44
984.67	2811.79
984.969	2794.16
985.267	2788.51
985.566	2782.41
985.864	2797.78
986.162	2746.71
986.461	2768.63
986.759	2722.3
987.057	2720.72
987.355	2690.21
987.653	2716.88
987.951	2700.15
988.249	2659.93
988.547	2638.24
988.844	2664.68
989.142	2650.21
989.44	2565.7
989.737	2609.76
990.035	2579.71
990.332	2609.31
990.63	2563.89
990.927	2560.5
991.224	2543.32
991.521	2557.11
991.819	2553.72
992.116	2513.49
992.413	2528.41
992.71	2500.16
993.006	2479.37
993.303	2477.34
993.6	2466.71
993.897	2462.2
994.193	2404.12
994.49	2415.64
994.787	2391.91
995.083	2393.27
995.379	2394.85
995.676	2344.68
995.972	2363.67
996.268	2344.23
996.565	2340.84
996.861	2339.26
997.157	2323.44
997.453	2332.93
997.749	2275.76
998.044	2293.39
998.34	2251.35
998.636	2285.7
998.932	2244.35
999.227	2229.88
999.523	2214.52
999.818	2222.43
1000.114	2217.46
1000.409	2182.2
1000.704	2180.85
1001	2194.41
1001.295	2138.14
1001.59	2156.89
1001.885	2153.73
1002.18	2105.14
1002.475	2117.8
1002.77	2103.56
1003.065	2082.54
1003.359	2066.95
1003.654	2108.98
1003.949	2035.54
1004.243	2021.53
1004.538	2018.82
1004.832	2019.27
1005.127	1976.11
1005.421	1997.57
1005.715	1990.8
1006.009	1980.4
1006.304	1956.45
1006.598	1938.37
1006.892	1951.02
1007.186	1915.99
1007.48	1938.59
1007.773	1904.47
1008.067	1918.71
1008.361	1878.93
1008.655	1876.67
1008.948	1871.02
1009.242	1840.97
1009.535	1847.75
1009.829	1816.79
1010.122	1817.01
1010.415	1829.67
1010.708	1796.45
1011.001	1793.29
1011.295	1814.75
1011.588	1796
1011.881	1757.81
1012.173	1757.35
1012.466	1748.09
1012.759	1718.94
1013.052	1708.09
1013.344	1703.57
1013.637	1683.91
1013.93	1715.55
1014.222	1684.14
1014.514	1668.77
1014.807	1678.71
1015.099	1619.73
1015.391	1628.77
1015.683	1640.3
1015.976	1648.43
1016.268	1594.65
1016.56	1578.38
1016.851	1574.76
1017.143	1576.57
1017.435	1583.57
1017.727	1553.97
1018.018	1551.26
1018.31	1564.14
1018.602	1546.29
1018.893	1532.28
1019.185	1471.71
1019.476	1523.69
1019.767	1489.57
1020.058	1483.24
1020.35	1490.02
1020.641	1456.35
1020.932	1419.51
1021.223	1458.38
1021.514	1428.1
1021.804	1398.27
1022.095	1419.74
1022.386	1401.88
1022.677	1372.96
1022.967	1428.78
1023.258	1378.16
1023.548	1348.78
1023.839	1353.07
1024.129	1353.3
1024.419	1365.5
1024.709	1360.53
1025	1322.11
1025.29	1333.41
1025.58	1303.36
1025.87	1291.83
1026.16	1292.51
1026.449	1303.81
1026.739	1242.79
1027.029	1305.16
1027.319	1281.89
1027.608	1240.31
1027.898	1218.84
1028.187	1229.91
1028.477	1239.18
1028.766	1224.49
1029.055	1193.3
1029.344	1202.34
1029.634	1193.08
1029.923	1206.63
1030.212	1193.98
1030.501	1176.13
1030.79	1177.94
1031.078	1162.79
1031.367	1164.83
1031.656	1148.56
1031.945	1152.85
1032.233	1111.04
1032.522	1123.93
1032.81	1110.14
1033.099	1125.73
1033.387	1094.32
1033.675	1092.74
1033.963	1095.45
1034.251	1070.82
1034.54	1050.93
1034.828	1023.59
1035.116	1063.36
1035.403	1062.68
1035.691	1037.6
1035.979	1040.31
1036.267	992.86
1036.554	1013.19
1036.842	1023.59
1037.129	1008.67
1037.417	983.14
1037.704	989.92
1037.992	983.14
1038.279	966.42
1038.566	966.42
1038.853	966.42
1039.14	966.42
