Data from hue_350_FLMS001491_56.txt Node
Date: Mon Feb 06 15:38:13 GMT 2017
User: dcchb
Spectrometer: FLMS00149
Trigger mode: 0
Integration Time (sec): 2.000000E-2
Scans to average: 10
Electric dark correction enabled: true
Nonlinearity correction enabled: false
Boxcar width: 0
XAxis mode: Wavelengths
Number of Pixels in Spectrum: 2048
>>>>>Begin Spectral Data<<<<<
341.393	-9.43
341.776	-9.43
342.16	-9.43
342.543	-69.09
342.927	-79.04
343.31	-54.41
343.693	-76.33
344.077	-67.51
344.46	-41.3
344.843	-47.17
345.226	-44.69
345.61	-35.42
345.993	-17.57
346.376	-14.18
346.759	27.85
347.142	33.95
347.525	37.57
347.908	59.94
348.291	62.65
348.674	84.8
349.057	91.81
349.44	113.27
349.823	149.66
350.206	155.98
350.588	176.55
350.971	197.34
351.354	217.68
351.737	237.79
352.119	246.15
352.502	251.35
352.884	280.95
353.267	277.11
353.65	292.93
354.032	305.36
354.414	321.86
354.797	307.85
355.179	315.75
355.562	317.11
355.944	353.49
356.326	314.85
356.709	328.18
357.091	327.28
357.473	314.62
357.855	333.83
358.238	329.54
358.62	334.28
359.002	322.08
359.384	338.58
359.766	357.56
360.148	334.51
360.53	336.54
360.912	317.34
361.294	346.26
361.676	335.41
362.057	337.9
362.439	332.93
362.821	329.31
363.203	316.66
363.584	324.34
363.966	327.73
364.348	319.82
364.729	322.99
365.111	321.86
365.493	329.31
365.874	311.91
366.256	307.39
366.637	320.73
367.019	304.23
367.4	311.23
367.781	310.33
368.163	311.46
368.544	316.43
368.925	327.28
369.306	305.81
369.688	306.72
370.069	308.3
370.45	293.83
370.831	329.09
371.212	300.61
371.593	319.37
371.974	295.42
372.355	316.88
372.736	325.25
373.117	322.53
373.498	310.33
373.879	304.46
374.26	306.94
374.641	299.94
375.021	329.31
375.402	314.85
375.783	326.83
376.163	338.35
376.544	324.79
376.925	319.14
377.305	320.05
377.686	318.69
378.066	315.53
378.447	329.31
378.827	324.12
379.208	282.99
379.588	314.85
379.968	323.21
380.349	318.24
380.729	332.48
381.109	331.12
381.489	337.9
381.87	314.62
382.25	342.42
382.63	338.58
383.01	345.13
383.39	332.03
383.77	321.86
384.15	324.57
384.53	327.96
384.91	355.98
385.29	342.42
385.67	336.32
386.049	362.08
386.429	326.6
386.809	350.78
387.189	340.16
387.568	352.82
387.948	345.58
388.328	327.96
388.707	342.42
389.087	350.56
389.466	354.85
389.846	353.95
390.225	367.05
390.605	338.8
390.984	359.82
391.363	339.03
391.743	343.78
392.122	332.93
392.501	367.05
392.881	355.98
393.26	369.76
393.639	384.23
394.018	358.47
394.397	374.74
394.776	359.14
395.155	355.98
395.534	338.58
395.913	374.06
396.292	376.09
396.671	358.69
397.05	376.32
397.429	359.6
397.808	381.97
398.186	366.6
398.565	373.38
398.944	359.82
399.323	383.1
399.701	386.71
400.08	393.49
400.458	369.76
400.837	392.14
401.215	381.29
401.594	400.5
401.972	391.68
402.351	395.07
402.729	388.07
403.107	392.81
403.486	379.71
403.864	412.02
404.242	402.53
404.62	405.92
404.999	414.06
405.377	388.07
405.755	387.39
406.133	409.54
406.511	411.8
406.889	426.26
407.267	421.97
407.645	412.25
408.023	411.8
408.401	409.09
408.779	432.59
409.156	420.16
409.534	416.99
409.912	442.3
410.29	416.09
410.667	446.6
411.045	447.5
411.422	447.05
411.8	434.17
412.178	446.82
412.555	459.71
412.933	468.97
413.31	472.36
413.687	473.04
414.065	477.11
414.442	463.1
414.819	447.95
415.197	474.85
415.574	466.03
415.951	465.81
416.328	494.73
416.705	491.79
417.082	509.2
417.46	499.03
417.837	500.38
418.214	481.4
418.591	510.55
418.967	482.76
419.344	487.73
419.721	515.3
420.098	502.64
420.475	509.87
420.852	519.14
421.228	498.8
421.605	520.27
421.982	515.3
422.358	530.44
422.735	550.1
423.111	559.14
423.488	553.94
423.864	541.06
424.241	550.55
424.617	541.74
424.994	529.53
425.37	569.76
425.746	549.65
426.123	553.94
426.499	571.34
426.875	566.82
427.251	594.17
427.627	587.39
428.003	565.92
428.379	577.44
428.756	603.66
429.132	579.02
429.507	597.1
429.883	597.78
430.259	594.39
430.635	614.05
431.011	620.83
431.387	619.48
431.763	644.79
432.138	622.64
432.514	616.76
432.89	631.68
433.265	651.79
433.641	645.46
434.016	662.64
434.392	662.86
434.767	662.19
435.143	686.82
435.518	689.53
435.894	681.17
436.269	671.9
436.644	699.93
437.02	689.98
437.395	699.93
437.77	724.11
438.145	708.06
438.52	701.73
438.895	714.16
439.271	727.49
439.646	730.43
440.021	729.75
440.395	711.68
440.77	711.68
441.145	722.52
441.52	739.47
441.895	720.49
442.27	746.25
442.645	720.94
443.019	782.18
443.394	758.45
443.769	778.12
444.143	784.44
444.518	787.15
444.892	755.06
445.267	775.63
445.641	770.88
446.016	781.5
446.39	806.14
446.764	769.08
447.139	795.29
447.513	812.01
447.887	800.04
448.262	817.66
448.636	815.18
449.01	809.98
449.384	819.7
449.758	805.46
450.132	826.7
450.506	835.29
450.88	850.88
451.254	852.46
451.628	847.27
452.002	833.48
452.376	845.01
452.75	868.73
453.123	831
453.497	853.37
453.871	873.48
454.244	908.06
454.618	902.63
454.992	887.49
455.365	894.5
455.739	920.03
456.112	942.4
456.486	919.35
456.859	918.22
457.232	942.18
457.606	921.61
457.979	939.24
458.352	968.39
458.725	970.43
459.099	958.68
459.472	989.18
459.845	985.34
460.218	1008.84
460.591	1009.75
460.964	1024.66
461.337	1021.5
461.71	1057.66
462.083	1040.48
462.456	1052.23
462.829	1079.58
463.201	1063.31
463.574	1050.2
463.947	1062.18
464.32	1114.15
464.692	1100.37
465.065	1123.42
465.438	1122.29
465.81	1137.88
466.183	1112.34
466.555	1183.08
466.928	1180.36
467.3	1198.44
467.672	1209.29
468.045	1221.95
468.417	1210.19
468.789	1215.84
469.161	1203.41
469.534	1249.06
469.906	1271.66
470.278	1266.69
470.65	1307.37
471.022	1310.76
471.394	1292.68
471.766	1358.66
472.138	1356.86
472.51	1395.27
472.882	1419.45
473.253	1407.03
473.625	1431.21
473.997	1429.85
474.369	1469.4
474.74	1484.76
475.112	1499.45
475.484	1559.34
475.855	1561.82
476.227	1581.26
476.598	1613.35
476.97	1632.1
477.341	1659.9
477.713	1659
478.084	1695.38
478.455	1717.3
478.827	1757.52
479.198	1788.48
479.569	1797.98
479.94	1825.09
480.311	1824.87
480.682	1893.57
481.053	1914.13
481.424	1945.09
481.795	1997.74
482.166	2014.69
482.537	2050.4
482.908	2071.87
483.279	2126.33
483.65	2117.29
484.021	2179.43
484.391	2220.79
484.762	2245.42
485.133	2269.38
485.503	2275.48
485.874	2362.25
486.244	2400.22
486.615	2367.23
486.985	2420.11
487.356	2455.36
487.726	2504.85
488.097	2530.61
488.467	2556.83
488.837	2614.23
489.207	2646.09
489.578	2691.29
489.948	2717.27
490.318	2738.52
490.688	2773.09
491.058	2794.79
491.428	2835.46
491.798	2857.61
492.168	2895.57
492.538	2920.43
492.908	2938.74
493.278	3003.14
493.648	2999.07
494.017	3043.59
494.387	3062.57
494.757	3071.39
495.126	3101.67
495.496	3158.62
495.866	3160.2
496.235	3176.47
496.605	3229.8
496.974	3232.74
497.344	3267.32
497.713	3288.56
498.082	3331.27
498.452	3315.68
498.821	3379.18
499.19	3397.93
499.559	3391.61
499.928	3403.13
500.298	3453.3
500.667	3492.17
501.036	3498.27
501.405	3514.31
501.774	3489.91
502.143	3538.27
502.512	3552.05
502.88	3573.97
503.249	3616.68
503.618	3636.12
503.987	3607.65
504.356	3668.21
504.724	3656.01
505.093	3712.05
505.462	3697.81
505.83	3708.21
506.199	3704.14
506.567	3734.87
506.936	3726.96
507.304	3794.76
507.672	3805.38
508.041	3818.94
508.409	3837.24
508.777	3862.55
509.145	3849.9
509.514	3881.31
509.882	3902.1
510.25	3904.13
510.618	3922.21
510.986	3932.38
511.354	3941.65
511.722	3971.7
512.09	3999.95
512.458	3993.4
512.826	4010.57
513.193	4043.57
513.561	4010.8
513.929	4053.74
514.297	4093.51
514.664	4156.56
515.032	4126.95
515.4	4138.25
515.767	4117.69
516.135	4175.31
516.502	4157.01
516.869	4198.82
517.237	4231.36
517.604	4214.63
517.972	4211.47
518.339	4211.7
518.706	4221.87
519.073	4229.32
519.44	4234.75
519.808	4294.63
520.175	4315.42
520.542	4326.27
520.909	4323.78
521.276	4327.17
521.643	4360.17
522.009	4375.53
522.376	4429.32
522.743	4432.93
523.11	4445.36
523.477	4501.41
523.843	4489.66
524.21	4554.29
524.577	4570.33
524.943	4567.17
525.31	4574.63
525.676	4618.24
526.043	4621.18
526.409	4650.78
526.776	4697.11
527.142	4702.31
527.508	4695.3
527.874	4776.65
528.241	4733.94
528.607	4768.74
528.973	4795.41
529.339	4825.92
529.705	4825.47
530.071	4856.43
530.437	4903.66
530.803	4936.2
531.169	4960.83
531.535	4900.27
531.901	4931.45
532.267	5010.77
532.632	5026.37
532.998	5032.24
533.364	5079.47
533.73	5074.5
534.095	5116.31
534.461	5094.61
534.826	5103.65
535.192	5187.72
535.557	5189.98
535.923	5233.14
536.288	5234.04
536.653	5221.61
537.019	5254.61
537.384	5272.69
537.749	5295.28
538.114	5332.12
538.479	5324.44
538.845	5391.78
539.21	5362.85
539.575	5411.44
539.94	5362.63
540.305	5453.02
540.67	5425.68
541.034	5455.96
541.399	5524.66
541.764	5527.14
542.129	5538.22
542.494	5534.83
542.858	5550.19
543.223	5603.75
543.587	5625.45
543.952	5643.3
544.316	5645.11
544.681	5660.25
545.045	5684.43
545.41	5765.78
545.774	5752.9
546.138	5749.06
546.503	5752.67
546.867	5791.09
547.231	5866.79
547.595	5891.43
547.959	5862.05
548.324	5883.74
548.688	5905.89
549.052	5900.92
549.416	5958.32
549.779	5950.63
550.143	5953.57
550.507	6000.8
550.871	6027.69
551.235	6005.55
551.599	6141.36
551.962	6056.17
552.326	6103.4
552.689	6102.72
553.053	6140.23
553.417	6142.49
553.78	6194.47
554.143	6200.35
554.507	6214.81
554.87	6277.41
555.234	6289.61
555.597	6293.45
555.96	6284.86
556.323	6328.93
556.686	6303.85
557.05	6399.66
557.413	6408.7
557.776	6404.18
558.139	6463.62
558.502	6401.92
558.865	6417.06
559.228	6469.72
559.59	6502.26
559.953	6476.04
560.316	6605.98
560.679	6629.94
561.041	6623.84
561.404	6592.43
561.767	6657.28
562.129	6591.75
562.492	6685.3
562.854	6674.23
563.217	6677.85
563.579	6769.37
563.941	6753.78
564.304	6787.45
564.666	6820.44
565.028	6848.01
565.39	6832.87
565.753	6868.8
566.115	6861.8
566.477	6893.66
566.839	6925.07
567.201	6931.4
567.563	7003.49
567.925	7016.37
568.287	7052.98
568.648	7050.27
569.01	7134.56
569.372	7153.09
569.734	7162.81
570.095	7202.35
570.457	7237.38
570.819	7209.36
571.18	7308.79
571.542	7305.4
571.903	7321.67
572.265	7395.12
572.626	7399.86
572.987	7481.89
573.349	7478.28
573.71	7564.38
574.071	7580.87
574.432	7623.81
574.794	7707.42
575.155	7813.41
575.516	7763.24
575.877	7802.56
576.238	7845.95
576.599	7979.96
576.96	8000.75
577.32	8111.48
577.681	8184.47
578.042	8273.51
578.403	8345.15
578.763	8424.47
579.124	8468.99
579.485	8613.16
579.845	8707.17
580.206	8730.45
580.566	8880.5
580.927	8959.82
581.287	9113.26
581.648	9219.48
582.008	9401.62
582.368	9459.47
582.728	9630.09
583.089	9691.55
583.449	9863.75
583.809	10101.94
584.169	10229.17
584.529	10307.58
584.889	10599.1
585.249	10716.16
585.609	10885.19
585.969	11154.57
586.329	11190.04
586.688	11510.94
587.048	11720.43
587.408	11845.85
587.768	12135.33
588.127	12334.2
588.487	12481.08
588.846	12780.51
589.206	13051.69
589.565	13235.19
589.925	13527.84
590.284	13751.33
590.643	13988.84
591.003	14372.11
591.362	14593.12
591.721	14881.25
592.08	15155.82
592.44	15382.93
592.799	15684.39
593.158	15864.5
593.517	16210.93
593.876	16528.21
594.235	16797.81
594.593	17090.23
594.952	17456.55
595.311	17635.07
595.67	17940.83
596.029	18341.95
596.387	18663.07
596.746	19007.01
597.104	19112.32
597.463	19441.35
597.822	19939.42
598.18	20054.9
598.538	20378.73
598.897	20745.05
599.255	20809.45
599.613	21450.79
599.972	21493.5
600.33	21927.16
600.688	22107.72
601.046	22371.22
601.404	22920.81
601.762	23013.91
602.12	23520.12
602.478	23759.88
602.836	23951.74
603.194	24067.67
603.552	24475.12
603.91	24616.58
604.268	25039.85
604.625	25152.16
604.983	25606.16
605.341	25690.91
605.698	26050.22
606.056	26244.79
606.413	26630.54
606.771	26930.87
607.128	27144.65
607.485	27226.23
607.843	27443.18
608.2	27884.75
608.557	28189.15
608.914	28326.32
609.272	28688.57
609.629	28891.73
609.986	29118.16
610.343	29069.57
610.7	29543.01
611.057	29737.13
611.414	29910.68
611.771	30066.38
612.127	30223.22
612.484	30526.49
612.841	30859.36
613.198	30908.17
613.554	31082.86
613.911	31318.78
614.267	31415.05
614.624	31688.26
614.98	31931.65
615.337	32183.39
615.693	32285.76
616.05	32357.62
616.406	32636.49
616.762	32666.99
617.118	32795.58
617.475	33050.94
617.831	33075.12
618.187	33459.29
618.543	33650.47
618.899	33709.9
619.255	33867.87
619.611	33984.47
619.967	34137.92
620.323	34259.04
620.678	34289.78
621.034	34411.36
621.39	34419.26
621.746	34558.7
622.101	34973.15
622.457	34911.68
622.812	35068.29
623.168	35200.71
623.523	35310.09
623.879	35449.07
624.234	35248.4
624.589	35547.6
624.945	35534.72
625.3	35744.43
625.655	35800.47
626.01	35913.69
626.365	35976.06
626.72	35990.52
627.075	36020.13
627.43	36058.09
627.785	36013.8
628.14	36216.96
628.495	36261.7
628.85	36300.34
629.205	36104.87
629.559	36569.72
629.914	36417.86
630.269	36577.63
630.623	36500.79
630.978	36391.87
631.332	36641.8
631.687	36740.33
632.041	36704.63
632.396	36795.02
632.75	36639.09
633.104	36698.3
633.459	36588.02
633.813	36682.93
634.167	36680.22
634.521	36689.71
634.875	36741.69
635.229	36737.62
635.583	36621.92
635.937	36640.9
636.291	36498.08
636.645	36660.56
636.999	36620.79
637.352	36738.98
637.706	36679.54
638.06	36880.22
638.413	36846.09
638.767	36687.45
639.121	36816.49
639.474	36559.32
639.828	36615.82
640.181	36780.33
640.534	36757.28
640.888	36615.82
641.241	36465.31
641.594	36670.96
641.947	36627.57
642.301	36652.43
642.654	36814.68
643.007	36627.12
643.36	36618.08
643.713	36592.31
644.066	36790.73
644.419	36541.92
644.771	36253.11
645.124	35981.26
645.477	35996.17
645.83	35735.84
646.182	35560.93
646.535	35523.19
646.888	35577.65
647.24	35409.29
647.593	35755.05
647.945	35521.61
648.298	35327.26
648.65	35358.9
649.002	35368.84
649.355	35466.02
649.707	35536.52
650.059	35629.63
650.411	35880.02
650.763	36077.53
651.115	36343.73
651.467	36289.95
651.819	36313.9
652.171	36157.3
652.523	36152.33
652.875	36196.39
653.227	35941.71
653.578	36185.77
653.93	36210.86
654.282	36042.05
654.633	35889.51
654.985	36001.82
655.337	35995.72
655.688	36051.76
656.039	36160.46
656.391	35796.63
656.742	35903.52
657.094	36045.44
657.445	36014.7
657.796	35990.75
658.147	35966.79
658.498	35830.3
658.849	35990.75
659.2	35883.63
659.551	35877.31
659.902	35941.71
660.253	35894.71
660.604	35991.2
660.955	35772.45
661.306	35884.08
661.656	35859.68
662.007	35924.76
662.358	35797.08
662.708	35849.96
663.059	35900.58
663.409	35595.73
663.76	35865.55
664.11	35852.67
664.461	35815.39
664.811	35811.09
665.161	35784.88
665.511	35807.25
665.862	35857.42
666.212	35866.91
666.562	35839.79
666.912	35781.94
667.262	35617.88
667.612	35652.9
667.962	35790.3
668.312	35778.78
668.662	35821.04
669.011	35776.29
669.361	35693.81
669.711	35668.95
670.06	35635.28
670.41	35558.44
670.76	35695.84
671.109	35771.77
671.459	35647.03
671.808	35650.87
672.157	35721.38
672.507	35510.99
672.856	35497.2
673.205	35482.74
673.554	35607.26
673.904	35434.61
674.253	35567.71
674.602	35405.45
674.951	35015.86
675.3	35002.98
675.649	35485.68
675.998	35347.15
676.346	35419.92
676.695	35503.98
677.044	35268.51
677.393	35244.78
677.741	35461.5
678.09	35220.83
678.438	35270.99
678.787	35154.16
679.135	35094.95
679.484	34947.39
679.832	35178.79
680.181	34954.84
680.529	35095.86
680.877	34882.98
681.225	34921.85
681.573	35075.74
681.922	34806.15
682.27	34690.22
682.618	34798.69
682.966	34640.5
683.314	34676.21
683.661	34629.43
684.009	34582.65
684.357	34390.11
684.705	34314.41
685.053	34405.93
685.4	34356.89
685.748	34227.86
686.095	34229.44
686.443	34126.84
686.79	34065.15
687.138	34092.49
687.485	34029.44
687.832	33897.7
688.18	33977.02
688.527	33757.81
688.874	33706.97
689.221	33798.49
689.568	33696.57
689.915	33588.78
690.262	33485.96
690.609	33437.37
690.956	33245.51
691.303	33402.57
691.65	33211.61
691.997	33184.04
692.344	32994.67
692.69	32980.21
693.037	33098.4
693.383	32952.41
693.73	32818.18
694.077	32614.11
694.423	32708.57
694.769	32601.46
695.116	32330.96
695.462	32430.84
695.808	32277.63
696.155	32344.74
696.501	32038.31
696.847	32186.55
697.193	31914.25
697.539	32034.47
697.885	31756.06
698.231	31707.25
698.577	31741.14
698.923	31613.24
699.269	31471.32
699.614	31355.84
699.96	31222.29
700.306	31233.36
700.651	31175.28
700.997	31055.96
701.342	31125.11
701.688	31064.1
702.033	30974.16
702.379	30899.13
702.724	30698.46
703.069	30966.47
703.415	30627.05
703.76	30384.79
704.105	30524.9
704.45	30504.57
704.795	30335.53
705.14	30154.29
705.485	30192.71
705.83	30137.8
706.175	30046.95
706.52	30011.7
706.865	29894.19
707.209	29807.18
707.554	29823.23
707.899	29788.2
708.243	29654.42
708.588	29634.31
708.932	29443.35
709.277	29339.62
709.621	29391.15
709.966	29138.5
710.31	29343.24
710.654	29177.37
710.998	29118.16
711.342	29186.86
711.687	29108.22
712.031	28977.6
712.375	28799.53
712.719	28978.96
713.063	28752.97
713.407	28824.61
713.75	28690.38
714.094	28655.57
714.438	28606.08
714.782	28589.59
715.125	28423.49
715.469	28481.12
715.812	28305.98
716.156	28166.32
716.499	28233.66
716.843	28207.68
717.186	28038.87
717.53	28171.52
717.873	28152.31
718.216	28098.98
718.559	27851.75
718.902	27665.09
719.246	27691.31
719.589	27734.24
719.932	27553
720.275	27564.76
720.617	27540.8
720.96	27473.68
721.303	27640.46
721.646	27480.46
721.989	27352.11
722.331	27384.87
722.674	27358.43
723.016	27407.7
723.359	27314.59
723.701	27352.33
724.044	27158.21
724.386	27075.5
724.729	27064.88
725.071	27012.68
725.413	27080.02
725.755	27071.21
726.097	26937.2
726.439	26845.23
726.782	26779.24
727.124	26987.6
727.465	26703.31
727.807	26771.56
728.149	26705.57
728.491	26587.83
728.833	26609.53
729.175	26534.05
729.516	26577.21
729.858	26527.27
730.199	26457.89
730.541	26320.04
730.882	26346.93
731.224	26366.82
731.565	26168.18
731.906	26270.33
732.248	26317.33
732.589	26079.6
732.93	26006.38
733.271	25988.3
733.612	26047.06
733.953	26130.44
734.294	25988.3
734.635	25973.16
734.976	25951.24
735.317	25811.13
735.658	25731.13
735.999	25790.11
736.339	25697.91
736.68	25720.96
737.021	25679.38
737.361	25595.09
737.702	25624.69
738.042	25521.87
738.383	25505.6
738.723	25601.64
739.063	25529.1
739.404	25519.84
739.744	25483.68
740.084	25269.22
740.424	25330.24
740.764	25317.58
741.104	25458.6
741.444	25199.39
741.784	25119.17
742.124	25156.01
742.464	25133.86
742.804	24935.22
743.143	25042.11
743.483	25097.25
743.823	24900.64
744.162	24984.71
744.502	24852.06
744.841	24745.17
745.181	24888.67
745.52	24832.85
745.86	24871.49
746.199	24819.52
746.538	24704.72
746.877	24901.1
747.216	24647.77
747.556	24643.7
747.895	24544.5
748.234	24491.16
748.573	24500.43
748.911	24450.04
749.25	24499.53
749.589	24384.95
749.928	24389.25
750.267	24503.59
750.605	24335.91
750.944	24336.37
751.283	24231.74
751.621	24104.96
751.96	24042.36
752.298	24076.49
752.636	24038.75
752.975	23807.79
753.313	23862.48
753.651	23922.37
753.989	23780.67
754.327	23817.74
754.666	23660.23
755.004	23689.15
755.342	23700.45
755.679	23541.58
756.017	23502.04
756.355	23576.61
756.693	23497.29
757.031	23458.42
757.368	23376.17
757.706	23406.67
758.044	23231.08
758.381	23296.39
758.719	23110.41
759.056	23106.57
759.394	23098.66
759.731	22839.68
760.068	22898.89
760.405	22763.53
760.743	22754.71
761.08	22778.21
761.417	22720.59
761.754	22664.09
762.091	22519.46
762.428	22559.01
762.765	22310.88
763.102	22420.26
763.438	22294.39
763.775	22182.3
764.112	22259.58
764.449	22076.31
764.785	22076.76
765.122	21965.13
765.458	21954.96
765.795	21818.24
766.131	21835.41
766.467	21728.3
766.804	21644.23
767.14	21531.92
767.476	21571.47
767.812	21570.11
768.148	21507.97
768.485	21371.92
768.821	21283.34
769.157	21207.63
769.492	21117.24
769.828	21086.06
770.164	20982.56
770.5	20932.39
770.836	20857.36
771.171	20780.98
771.507	20738.04
771.842	20507.09
772.178	20499.4
772.513	20531.49
772.849	20444.72
773.184	20386.19
773.519	20286.3
773.855	20205.63
774.19	20143.48
774.525	20112.97
774.86	19964.05
775.195	20033.65
775.53	19894.45
775.865	19836.37
776.2	19701.69
776.535	19525.42
776.87	19505.98
777.205	19502.82
777.539	19368.81
777.874	19466.89
778.209	19256.27
778.543	19245.43
778.878	19136.5
779.212	19160
779.547	18956.17
779.881	19026.67
780.215	18836.85
780.55	18922.04
780.884	18868.26
781.218	18679.11
781.552	18665.55
781.886	18579
782.22	18428.95
782.554	18425.56
782.888	18289.29
783.222	18226.02
783.556	18161.84
783.889	18195.28
784.223	17974.05
784.557	17984.89
784.89	18027.61
785.224	17892.92
785.557	17776.76
785.891	17748.06
786.224	17628.75
786.558	17648.18
786.891	17501.29
787.224	17503.55
787.557	17406.83
787.891	17441.41
788.224	17374.51
788.557	17351.69
788.89	17319.83
789.223	17282.99
789.556	17101.08
789.888	17041.64
790.221	17006.39
790.554	16885.71
790.887	16908.09
791.219	16768.2
791.552	16785.15
791.884	16631.94
792.217	16630.35
792.549	16562.78
792.882	16479.17
793.214	16492.73
793.546	16414.99
793.879	16312.85
794.211	16274.66
794.543	16266.52
794.875	16203.25
795.207	16238.27
795.539	16139.29
795.871	16150.37
796.203	16006.19
796.535	15902.46
796.867	15890.71
797.198	15883.48
797.53	15795.57
797.862	15708.12
798.193	15803.48
798.525	15612.98
798.856	15620.44
799.188	15447.56
799.519	15462.02
799.85	15292.08
800.182	15333.21
800.513	15346.55
800.844	15179.54
801.175	15251.41
801.506	15224.06
801.837	15180.22
802.168	15106.55
802.499	15109.72
802.83	14946.56
803.161	14870.85
803.491	14925.77
803.822	14863.17
804.153	14795.6
804.483	14784.75
804.814	14673.12
805.145	14584.76
805.475	14605.1
805.805	14563.97
806.136	14631.76
806.466	14481.03
806.796	14469.51
807.126	14391.99
807.457	14301.83
807.787	14421.37
808.117	14263.86
808.447	14192
808.777	14328.49
809.107	14216.18
809.436	14163.3
809.766	14209.17
810.096	14074.04
810.426	14056.64
810.755	14047.82
811.085	14002.4
811.414	14021.83
811.744	13950.2
812.073	13883.99
812.403	13788.17
812.732	13697.32
813.061	13690.09
813.39	13715.18
813.719	13674.27
814.049	13703.42
814.378	13715.4
814.707	13617.78
815.036	13597.44
815.365	13451.91
815.693	13375.3
816.022	13364.68
816.351	13349.31
816.68	13271.12
817.008	13293.94
817.337	13244.45
817.665	13204
817.994	13229.77
818.322	13203.33
818.651	13133.04
818.979	13111.8
819.307	13102.76
819.636	13092.37
819.964	13035.19
820.292	13007.4
820.62	13023.44
820.948	12964.46
821.276	12970.56
821.604	13011.24
821.932	12998.81
822.259	12958.81
822.587	13001.97
822.915	12830.45
823.243	12888.08
823.57	12968.53
823.898	12946.16
824.225	12873.39
824.553	12879.94
824.88	12890.57
825.207	12919.72
825.535	12879.04
825.862	12978.02
826.189	12886.72
826.516	12881.98
826.843	12985.25
827.17	12910.45
827.497	12833.84
827.824	12886.95
828.151	12849.44
828.478	12828.65
828.805	12886.27
829.131	12774.18
829.458	12777.8
829.785	12766.27
830.111	12825.03
830.438	12889.66
830.764	12764.69
831.09	12804.92
831.417	12787.06
831.743	12856.89
832.069	12733.06
832.395	12762.21
832.722	12791.81
833.048	12696.22
833.374	12785.93
833.7	12774.86
834.026	12755.2
834.351	12734.64
834.677	12708.42
835.003	12762.21
835.329	12663.45
835.654	12695.77
835.98	12556.56
836.306	12607.18
836.631	12463.91
836.956	12626.62
837.282	12542.1
837.607	12524.47
837.932	12523.57
838.258	12503.68
838.583	12474.53
838.908	12428.88
839.233	12491.71
839.558	12439.28
839.883	12376.91
840.208	12374.42
840.533	12317.02
840.858	12311.15
841.182	12291.26
841.507	12319.73
841.832	12193.86
842.156	12306.63
842.481	12203.58
842.805	12224.59
843.13	12186.18
843.454	12155.22
843.778	12098.5
844.103	12049.68
844.427	12012.17
844.751	12115.22
845.075	12011.27
845.399	11868.9
845.723	11882.68
846.047	11897.6
846.371	11812.63
846.695	11736.92
847.019	11658.28
847.343	11693.31
847.666	11551.84
847.99	11560.88
848.313	11548.91
848.637	11503.26
848.96	11407.21
849.284	11455.35
849.607	11341.45
849.931	11314.79
850.254	11265.3
850.577	11194.11
850.9	11115.47
851.223	11093.78
851.546	11053.33
851.869	10953.21
852.192	11038.18
852.515	10979.43
852.838	10882.03
853.161	10888.81
853.483	10846.78
853.806	10797.96
854.129	10711.64
854.451	10682.94
854.774	10620.79
855.096	10578.31
855.419	10558.87
855.741	10578.76
856.063	10480.91
856.385	10442.95
856.708	10420.8
857.03	10430.06
857.352	10414.25
857.674	10400.01
857.996	10398.65
858.318	10285.44
858.64	10227.13
858.961	10216.96
859.283	10256.74
859.605	10163.41
859.926	10218.09
860.248	10179.68
860.57	10117.3
860.891	10131.54
861.212	10046.57
861.534	10017.42
861.855	9986.01
862.176	10033.92
862.498	10024.65
862.819	9942.62
863.14	9942.85
863.461	9920.25
863.782	9933.35
864.103	9853.81
864.424	9847.03
864.745	9792.57
865.065	9827.59
865.386	9788.05
865.707	9786.47
866.027	9785.79
866.348	9782.85
866.668	9778.1
866.989	9678.45
867.309	9612.01
867.63	9731.1
867.95	9654.94
868.27	9681.16
868.59	9656.07
868.91	9580.6
869.23	9592.8
869.55	9599.13
869.87	9584.66
870.19	9619.24
870.51	9542.18
870.83	9564.1
871.15	9469.86
871.469	9489.75
871.789	9523.42
872.109	9492.91
872.428	9445.23
872.748	9513.93
873.067	9421.73
873.386	9455.63
873.706	9400.94
874.025	9372.92
874.344	9333.82
874.663	9448.17
874.982	9349.64
875.301	9296.31
875.62	9283.65
875.939	9248.17
876.258	9246.37
876.577	9258.8
876.896	9245.69
877.214	9166.82
877.533	9193.26
877.852	9188.97
878.17	9175.41
878.489	9144
878.807	9139.48
879.125	9143.54
879.444	9128.4
879.762	9111.91
880.08	9110.78
880.398	9034.62
880.716	9013.38
881.034	9006.6
881.352	9022.64
881.67	8998.24
881.988	8998.24
882.306	8960.95
882.624	8956.88
882.941	8877.56
883.259	8837.79
883.577	8843.44
883.894	8836.43
884.212	8887.28
884.529	8811.8
884.846	8786.72
885.164	8729.54
885.481	8739.94
885.798	8766.38
886.115	8672.37
886.432	8677.79
886.75	8706.95
887.067	8638.93
887.383	8612.26
887.7	8656.33
888.017	8591.47
888.334	8541.75
888.651	8557.57
888.967	8512.38
889.284	8513.73
889.6	8485.71
889.917	8394.64
890.233	8460.4
890.55	8436.22
890.866	8334.53
891.182	8400.74
891.498	8378.82
891.815	8415.88
892.131	8290.69
892.447	8257.69
892.763	8227.86
893.079	8224.47
893.395	8193.74
893.71	8150.8
894.026	8133.85
894.342	8120.29
894.657	8062.9
894.973	8069.22
895.289	8050.69
895.604	8050.92
895.92	7951.71
896.235	7922.79
896.55	7925.95
896.865	7941.54
897.181	7831.49
897.496	7885.05
897.811	7814.31
898.126	7749.23
898.441	7814.77
898.756	7784.03
899.071	7700.64
899.386	7672.85
899.7	7600.08
900.015	7647.77
900.33	7586.75
900.644	7556.47
900.959	7625.17
901.273	7494.55
901.588	7485.06
901.902	7464.94
902.216	7438.28
902.531	7364.83
902.845	7395.79
903.159	7302.24
903.473	7325.51
903.787	7264.05
904.101	7260.2
904.415	7297.49
904.729	7269.02
905.042	7239.41
905.356	7171.85
905.67	7186.08
905.984	7175.91
906.297	7108.8
906.611	7029.7
906.924	7024.28
907.237	7051.62
907.551	6997.84
907.864	6969.59
908.177	6918.07
908.491	6896.82
908.804	6905.19
909.117	6878.52
909.43	6836.71
909.743	6775.7
910.056	6768.01
910.368	6702.93
910.681	6694.12
910.994	6706.55
911.307	6672.2
911.619	6581.35
911.932	6664.97
912.244	6587.23
912.557	6588.81
912.869	6525.99
913.181	6511.07
913.494	6476.5
913.806	6464.97
914.118	6426.1
914.43	6356.05
914.742	6401.47
915.054	6440.11
915.366	6342.04
915.678	6297.29
915.99	6289.16
916.302	6217.07
916.613	6228.14
916.925	6237.18
917.236	6192.66
917.548	6150.4
917.859	6099.11
918.171	6117.18
918.482	6066.79
918.794	6035.83
919.105	6048.03
919.416	5984.08
919.727	6006.23
920.038	5944.76
920.349	5911.31
920.66	5922.39
920.971	5850.07
921.282	5872.9
921.593	5805.1
921.903	5811.2
922.214	5846.46
922.525	5737.31
922.835	5683.3
923.146	5667.25
923.456	5685.1
923.767	5682.84
924.077	5668.83
924.387	5620.47
924.697	5607.14
925.008	5587.03
925.318	5613.24
925.628	5548.61
925.938	5502.51
926.248	5413.47
926.558	5368.95
926.867	5438.11
927.177	5422.51
927.487	5441.27
927.796	5362.18
928.106	5362.4
928.416	5342.29
928.725	5281.05
929.034	5282.18
929.344	5290.54
929.653	5250.77
929.962	5201.73
930.271	5202.63
930.581	5162.63
930.89	5141.62
931.199	5051.9
931.508	5100.94
931.817	5087.61
932.125	5043.77
932.434	5021.85
932.743	4976.42
933.051	4980.04
933.36	4983.88
933.669	4944.56
933.977	4966.48
934.286	4961.96
934.594	4952.47
934.902	4864.34
935.21	4843.09
935.519	4837.9
935.827	4813.49
936.135	4795.41
936.443	4728.75
936.751	4736.43
937.059	4686.94
937.367	4660.95
937.674	4671.8
937.982	4700.05
938.29	4654.85
938.597	4640.84
938.905	4610.78
939.213	4599.94
939.52	4592.25
939.827	4566.04
940.135	4561.07
940.442	4487.62
940.749	4515.87
941.056	4469.09
941.363	4445.14
941.67	4433.16
941.977	4402.43
942.284	4398.58
942.591	4347.51
942.898	4360.62
943.205	4310.9
943.511	4329.89
943.818	4272.26
944.125	4307.06
944.431	4247.4
944.738	4252.37
945.044	4217.8
945.35	4162.66
945.657	4185.26
945.963	4189.32
946.269	4148.65
946.575	4164.69
946.881	4131.25
947.187	4096.67
947.493	4083.34
947.799	4059.16
948.105	4073.4
948.41	4002.44
948.716	4000.4
949.022	3991.14
949.327	3996.79
949.633	3936.68
949.938	3942.33
950.244	3942.33
950.549	3920.41
950.854	3859.84
951.16	3891.03
951.465	3873.63
951.77	3825.94
952.075	3829.11
952.38	3848.99
952.685	3837.92
952.99	3752.95
953.294	3776.23
953.599	3737.81
953.904	3729.45
954.209	3702.78
954.513	3656.46
954.818	3694.42
955.122	3638.15
955.426	3656.23
955.731	3638.15
956.035	3616.68
956.339	3584.37
956.643	3597.02
956.948	3585.95
957.252	3530.13
957.556	3600.87
957.86	3525.84
958.163	3481.09
958.467	3519.74
958.771	3497.14
959.075	3480.19
959.378	3445.39
959.682	3434.09
959.985	3416.24
960.289	3388.44
960.592	3424.37
960.896	3419.18
961.199	3371.04
961.502	3378.5
961.805	3341.21
962.108	3331.04
962.411	3349.12
962.714	3316.13
963.017	3229.58
963.32	3285.62
963.623	3241.78
963.926	3222.34
964.228	3204.94
964.531	3174.89
964.833	3169.24
965.136	3171.95
965.438	3176.92
965.741	3150.93
966.043	3150.71
966.345	3132.18
966.648	3113.19
966.95	3122.01
967.252	3087.88
967.554	3092.86
967.856	3053.08
968.158	3068.9
968.46	3031.39
968.761	3004.72
969.063	3038.85
969.365	3002.46
969.666	3001.56
969.968	2940.54
970.269	2977.61
970.571	2937.61
970.872	2899.87
971.174	2920.88
971.475	2910.26
971.776	2883.37
972.077	2867.78
972.378	2874.56
972.679	2858.96
972.98	2868.46
973.281	2841.56
973.582	2846.08
973.883	2808.34
974.183	2803.82
974.484	2756.14
974.785	2782.58
975.085	2768.57
975.386	2796.14
975.686	2757.95
975.986	2708.46
976.287	2667.78
976.587	2712.3
976.887	2705.3
977.187	2677.05
977.487	2688.12
977.787	2681.57
978.087	2639.08
978.387	2606.09
978.687	2639.54
978.987	2622.59
979.286	2598.18
979.586	2546.43
979.885	2541.23
980.185	2584.85
980.484	2554.79
980.784	2569.48
981.083	2484.74
981.382	2501.91
981.682	2512.31
981.981	2487.67
982.28	2484.06
982.579	2466.66
982.878	2502.82
983.177	2417.85
983.475	2459.88
983.774	2437.05
984.073	2433.44
984.372	2434.34
984.67	2406.09
984.969	2417.17
985.267	2378.53
985.566	2394.57
985.864	2361.58
986.162	2345.98
986.461	2348.7
986.759	2333.55
987.057	2303.72
987.355	2296.04
987.653	2322.26
987.951	2295.82
988.249	2282.93
988.547	2249.04
988.844	2227.34
989.142	2230.73
989.44	2231.41
989.737	2219.66
990.035	2230.28
990.332	2221.92
990.63	2178.08
990.927	2195.25
991.224	2165.42
991.521	2173.78
991.819	2141.92
992.116	2155.93
992.413	2148.47
992.71	2113.22
993.006	2120.68
993.303	2120.45
993.6	2126.1
993.897	2106.67
994.193	2096.5
994.49	2061.02
994.787	2076.16
995.083	2047.23
995.379	2052.43
995.676	2050.17
995.972	2065.31
996.268	2024.18
996.565	1996.61
996.861	1989.83
997.157	1988.48
997.453	1928.14
997.749	1957.75
998.044	1949.38
998.34	1944.19
998.636	1916.16
998.932	1936.95
999.227	1942.15
999.523	1918.88
999.818	1898.99
1000.114	1881.14
1000.409	1876.84
1000.704	1852.44
1001	1845.21
1001.295	1840.46
1001.59	1844.75
1001.885	1858.31
1002.18	1798.43
1002.475	1816.28
1002.77	1824.64
1003.065	1811.99
1003.359	1786.9
1003.654	1770.63
1003.949	1761.82
1004.243	1765.21
1004.538	1735.15
1004.832	1732.89
1005.127	1754.36
1005.421	1727.02
1005.715	1732.89
1006.009	1706.9
1006.304	1714.59
1006.598	1671.65
1006.892	1685.21
1007.186	1666.68
1007.48	1649.73
1007.773	1625.78
1008.067	1647.7
1008.361	1621.48
1008.655	1612.44
1008.948	1627.36
1009.242	1602.27
1009.535	1598.43
1009.829	1577.19
1010.122	1587.81
1010.415	1568.15
1010.708	1568.6
1011.001	1543.07
1011.295	1538.77
1011.588	1508.04
1011.881	1521.15
1012.173	1519.34
1012.466	1528.83
1012.759	1515.04
1013.052	1496.06
1013.344	1494.03
1013.637	1464.2
1013.93	1486.57
1014.222	1449.06
1014.514	1458.32
1014.807	1431.43
1015.099	1463.97
1015.391	1428.49
1015.683	1456.74
1015.976	1401.83
1016.268	1400.92
1016.56	1407.7
1016.851	1393.24
1017.143	1407.25
1017.435	1359.34
1017.727	1360.25
1018.018	1362.05
1018.31	1352.34
1018.602	1333.13
1018.893	1320.47
1019.185	1330.19
1019.476	1326.12
1019.767	1274.83
1020.058	1318.89
1020.35	1310.08
1020.641	1293.13
1020.932	1266.69
1021.223	1293.36
1021.514	1244.54
1021.804	1231.89
1022.095	1254.49
1022.386	1253.36
1022.677	1215.62
1022.967	1202.28
1023.258	1207.93
1023.548	1203.87
1023.839	1198.9
1024.129	1190.76
1024.419	1174.04
1024.709	1156.64
1025	1149.63
1025.29	1160.93
1025.58	1139.69
1025.87	1140.82
1026.16	1104.89
1026.449	1146.92
1026.739	1115.96
1027.029	1124.09
1027.319	1103.3
1027.608	1084.55
1027.898	1088.84
1028.187	1089.52
1028.477	1090.88
1028.766	1075.73
1029.055	1047.03
1029.344	1081.16
1029.634	1054.04
1029.923	1069.63
1030.212	1027.37
1030.501	1056.07
1030.79	1019.92
1031.078	1017.88
1031.367	1023.53
1031.656	1017.66
1031.945	1006.13
1032.233	994.38
1032.522	982.4
1032.81	996.41
1033.099	977.43
1033.387	974.95
1033.675	980.82
1033.963	954.16
1034.251	932.24
1034.54	949.18
1034.828	925
1035.116	950.31
1035.403	943.53
1035.691	940.6
1035.979	950.31
1036.267	929.98
1036.554	918.68
1036.842	923.42
1037.129	924.55
1037.417	890.2
1037.704	890.65
1037.992	866.25
1038.279	887.94
1038.566	866.02
1038.853	866.02
1039.14	866.02
