Data from hue_330_FLMS001491_52.txt Node
Date: Mon Feb 06 15:45:34 GMT 2017
User: dcchb
Spectrometer: FLMS00149
Trigger mode: 0
Integration Time (sec): 2.000000E-2
Scans to average: 10
Electric dark correction enabled: true
Nonlinearity correction enabled: false
Boxcar width: 0
XAxis mode: Wavelengths
Number of Pixels in Spectrum: 2048
>>>>>Begin Spectral Data<<<<<
341.393	-22.25
341.776	-22.25
342.16	-22.25
342.543	-62.7
342.927	-65.63
343.31	-66.09
343.693	-66.54
344.077	-55.01
344.46	-61.79
344.843	-62.24
345.226	-31.06
345.61	-45.52
345.993	-15.92
346.376	-15.92
346.759	21.82
347.142	26.79
347.525	38.32
347.908	48.26
348.291	72.67
348.674	93.91
349.057	118.32
349.44	124.87
349.823	145.66
350.206	162.83
350.588	182.04
350.971	224.98
351.354	224.75
351.737	255.26
352.119	251.19
352.502	246.67
352.884	283.74
353.267	269.72
353.65	297.97
354.032	291.19
354.414	323.96
354.797	310.4
355.179	305.66
355.562	329.84
355.944	319.67
356.326	342.94
356.709	330.74
357.091	333.23
357.473	324.64
357.855	333.45
358.238	337.97
358.62	337.52
359.002	331.19
359.384	346.11
359.766	336.84
360.148	347.69
360.53	336.39
360.912	339.33
361.294	303.4
361.676	320.57
362.057	339.33
362.439	328.03
362.821	318.76
363.203	340.23
363.584	323.28
363.966	313.34
364.348	321.7
364.729	321.25
365.111	314.24
365.493	326.45
365.874	336.62
366.256	322.38
366.637	298.2
367.019	314.92
367.4	318.31
367.781	293.45
368.163	311.31
368.544	300.46
368.925	315.83
369.306	325.77
369.688	314.24
370.069	292.55
370.45	307.92
370.831	312.21
371.212	302.94
371.593	306.11
371.974	330.74
372.355	331.42
372.736	322.83
373.117	315.37
373.498	312.44
373.879	291.87
374.26	317.41
374.641	307.92
375.021	330.74
375.402	318.31
375.783	304.75
376.163	337.97
376.544	324.64
376.925	336.62
377.305	326.22
377.686	318.76
378.066	309.5
378.447	326.67
378.827	327.58
379.208	345.2
379.588	331.42
379.968	330.97
380.349	326.9
380.729	338.65
381.109	326.9
381.489	333.23
381.87	321.02
382.25	352.89
382.63	340.23
383.01	341.81
383.39	338.2
383.77	357.63
384.15	336.84
384.53	342.27
384.91	356.73
385.29	346.56
385.67	352.66
386.049	344.52
386.429	350.4
386.809	341.81
387.189	337.52
387.568	355.82
387.948	347.91
388.328	365.54
388.707	365.99
389.087	353.11
389.466	341.81
389.846	357.63
390.225	352.66
390.605	351.53
390.984	370.51
391.363	364.41
391.743	370.51
392.122	369.16
392.501	383.39
392.881	375.71
393.26	382.94
393.639	383.17
394.018	384.3
394.397	365.77
394.776	370.96
395.155	366.67
395.534	386.78
395.913	386.11
396.292	369.61
396.671	401.92
397.05	374.58
397.429	391.3
397.808	394.47
398.186	397.63
398.565	401.02
398.944	391.3
399.323	402.15
399.701	410.96
400.08	405.09
400.458	411.87
400.837	400.57
401.215	396.27
401.594	405.31
401.972	413.45
402.351	411.42
402.729	427.69
403.107	439.89
403.486	422.26
403.864	416.16
404.242	431.08
404.62	430.62
404.999	439.21
405.377	411.64
405.755	425.88
406.133	440.12
406.511	429.95
406.889	428.82
407.267	448.48
407.645	459.32
408.023	456.61
408.401	468.59
408.779	449.15
409.156	455.26
409.534	478.08
409.912	488.02
410.29	469.04
410.667	480.34
411.045	478.98
411.422	489.83
411.8	463.84
412.178	496.16
412.555	495.71
412.933	517.4
413.31	520.79
413.687	517.18
414.065	517.85
414.442	541.13
414.819	516.95
415.197	536.38
415.574	560.34
415.951	555.14
416.328	558.98
416.705	569.83
417.082	575.25
417.46	569.6
417.837	582.71
418.214	572.32
418.591	616.83
418.967	618.42
419.344	592.2
419.721	610.28
420.098	595.59
420.475	632.88
420.852	627.46
421.228	648.47
421.605	652.54
421.982	628.13
422.358	620.68
422.735	645.99
423.111	651.18
423.488	675.36
423.864	672.43
424.241	684.18
424.617	698.41
424.994	697.51
425.37	711.29
425.746	697.74
426.123	698.19
426.499	696.83
426.875	728.02
427.251	723.27
427.627	760.33
428.003	760.56
428.379	761.91
428.756	783.38
429.132	789.71
429.507	776.15
429.883	792.65
430.259	798.07
430.635	796.72
431.011	814.79
431.387	834
431.763	808.69
432.138	819.31
432.514	831.74
432.89	849.37
433.265	855.92
433.641	862.93
434.016	902.48
434.392	879.88
434.767	893.21
435.143	919.42
435.518	904.74
435.894	925.07
436.269	930.72
436.644	943.61
437.02	942.48
437.395	915.13
437.77	962.59
438.145	965.3
438.52	955.36
438.895	985.19
439.271	983.15
439.646	1017.73
440.021	1021.34
440.395	1005.3
440.77	1015.24
441.145	1023.83
441.52	1041.46
441.895	1037.39
442.27	1071.51
442.645	1063.6
443.019	1064.05
443.394	1041.68
443.769	1074.45
444.143	1077.39
444.518	1100.21
444.892	1088.01
445.267	1095.47
445.641	1084.62
446.016	1101.57
446.39	1103.15
446.764	1106.09
447.139	1121
447.513	1104.96
447.887	1126.43
448.262	1122.36
448.636	1115.13
449.01	1124.84
449.384	1147.44
449.758	1152.19
450.132	1134.56
450.506	1156.93
450.88	1157.16
451.254	1164.39
451.628	1201.9
452.002	1171.62
452.376	1201.23
452.75	1166.42
453.123	1188.34
453.497	1203.26
453.871	1210.26
454.244	1243.48
454.618	1230.83
454.992	1236.93
455.365	1262.92
455.739	1292.75
456.112	1309.92
456.486	1281.9
456.859	1332.75
457.232	1316.93
457.606	1304.27
457.979	1322.58
458.352	1342.69
458.725	1349.7
459.099	1349.7
459.472	1395.8
459.845	1373.88
460.218	1412.97
460.591	1396.93
460.964	1406.87
461.337	1450.94
461.71	1476.47
462.083	1477.6
462.456	1458.62
462.829	1462.24
463.201	1503.36
463.574	1510.6
463.947	1524.61
464.32	1542.46
464.692	1532.29
465.065	1581.33
465.438	1541.1
465.81	1589.01
466.183	1565.51
466.555	1640.31
466.928	1663.59
467.3	1651.16
467.672	1703.81
468.045	1696.13
468.417	1691.83
468.789	1687.09
469.161	1723.47
469.534	1748.33
469.906	1762.79
470.278	1810.93
470.65	1800.76
471.022	1817.71
471.394	1862.68
471.766	1847.76
472.138	1873.98
472.51	1913.52
472.882	1924.6
473.253	1946.97
473.625	1979.28
473.997	2030.13
474.369	2032.16
474.74	2022.9
475.112	2055.21
475.484	2080.3
475.855	2111.94
476.227	2132.05
476.598	2176.34
476.97	2172.27
477.341	2248.43
477.713	2260.41
478.084	2298.6
478.455	2336.11
478.827	2344.92
479.198	2394.87
479.569	2363.68
479.94	2436.22
480.311	2468.54
480.682	2509.21
481.053	2551.02
481.424	2614.07
481.795	2616.78
482.166	2628.98
482.537	2683.67
482.908	2693.62
483.279	2695.42
483.65	2775.87
484.021	2801.86
484.391	2879.6
484.762	2856.32
485.133	2892.03
485.503	2910.11
485.874	3003.89
486.244	2988.3
486.615	3087.5
486.985	3086.6
487.356	3141.29
487.726	3132.7
488.097	3201.4
488.467	3185.13
488.837	3275.07
489.207	3248.86
489.578	3336.54
489.948	3366.82
490.318	3387.38
490.688	3407.5
491.058	3442.3
491.428	3464.89
491.798	3522.29
492.168	3581.28
492.538	3583.08
492.908	3628.51
493.278	3633.25
493.648	3658.56
494.017	3692.46
494.387	3771.78
494.757	3758.9
495.126	3836.41
495.496	3811.78
495.866	3832.79
496.235	3843.19
496.605	3816.07
496.974	3894.26
497.344	3932.23
497.713	3961.6
498.082	3970.64
498.452	4021.49
498.821	3976.52
499.19	3988.72
499.559	4081.6
499.928	4074.14
500.298	4123.63
500.667	4111.43
501.036	4126.57
501.405	4211.99
501.774	4206.57
502.143	4264.65
502.512	4202.28
502.88	4220.58
503.249	4256.96
503.618	4249.28
503.987	4309.39
504.356	4306.91
504.724	4287.7
505.093	4304.65
505.462	4341.71
505.83	4374.25
506.199	4376.51
506.567	4430.52
506.936	4456.96
507.304	4456.06
507.672	4559.1
508.041	4516.17
508.409	4508.71
508.777	4536.05
509.145	4554.58
509.514	4546.22
509.882	4584.19
510.25	4604.98
510.618	4578.76
510.986	4569.5
511.354	4629.61
511.722	4679.33
512.09	4691.3
512.458	4669.61
512.826	4715.48
513.193	4755.48
513.561	4744.41
513.929	4711.64
514.297	4784.18
514.664	4821.02
515.032	4824.41
515.4	4825.76
515.767	4860.79
516.135	4889.04
516.502	4807.01
516.869	4912.54
517.237	4964.52
517.604	4926.55
517.972	4946.66
518.339	4955.25
518.706	4980.34
519.073	4968.81
519.44	5021.24
519.808	5009.49
520.175	5055.59
520.542	5090.84
520.909	5104.63
521.276	5102.82
521.643	5139.65
522.009	5122.48
522.376	5169.48
522.743	5232.76
523.11	5247.67
523.477	5275.92
523.843	5263.72
524.21	5326.99
524.577	5299.2
524.943	5397.73
525.31	5358.63
525.676	5418.97
526.043	5419.87
526.409	5474.56
526.776	5492.41
527.142	5527.67
527.508	5538.06
527.874	5626.42
528.241	5631.17
528.607	5618.06
528.973	5704.61
529.339	5681.56
529.705	5735.57
530.071	5730.37
530.437	5776.47
530.803	5776.25
531.169	5874.32
531.535	5814.44
531.901	5887.66
532.267	5898.96
532.632	5929.24
532.998	5955.45
533.364	5967.43
533.73	5985.51
534.095	5982.79
534.461	5997.03
534.826	6020.53
535.192	6059.85
535.557	6143.47
535.923	6105.05
536.288	6149.12
536.653	6142.34
537.019	6169.91
537.384	6233.86
537.749	6266.63
538.114	6259.4
538.479	6301.43
538.845	6328.55
539.21	6357.25
539.575	6310.47
539.94	6401.09
540.305	6417.81
540.67	6440.18
541.034	6458.26
541.399	6533.51
541.764	6490.58
542.129	6540.29
542.494	6557.47
542.858	6589.56
543.223	6611.25
543.587	6644.92
543.952	6654.42
544.316	6665.94
544.681	6730.57
545.045	6721.98
545.41	6770.8
545.774	6810.34
546.138	6823
546.503	6833.62
546.867	6830.68
547.231	6911.81
547.595	6899.38
547.959	6961.98
548.324	6951.81
548.688	6962.2
549.052	6970.11
549.416	7024.12
549.779	7045.59
550.143	6991.81
550.507	7097.79
550.871	7152.03
551.235	7112.71
551.599	7114.74
551.962	7240.84
552.326	7267.28
552.689	7243.1
553.053	7215.08
553.417	7227.51
553.78	7350.67
554.143	7295.08
554.507	7365.36
554.87	7386.6
555.234	7491.68
555.597	7407.62
555.96	7445.58
556.323	7459.59
556.686	7493.26
557.05	7504.56
557.413	7465.24
557.776	7555.41
558.139	7592.7
558.502	7552.47
558.865	7674.28
559.228	7682.41
559.59	7663.43
559.953	7702.75
560.316	7782.97
560.679	7742.75
561.041	7792.01
561.404	7821.84
561.767	7905.46
562.129	7778.45
562.492	7957.43
562.854	7947.26
563.217	8003.98
563.579	8004.21
563.941	7987.94
564.304	8041.5
564.666	8051.21
565.028	8138.44
565.39	8084.66
565.753	8126.69
566.115	8157.2
566.477	8211.89
566.839	8191.55
567.201	8204.88
567.563	8305.22
567.925	8339.34
568.287	8361.72
568.648	8354.48
569.01	8445.33
569.372	8469.96
569.734	8464.54
570.095	8547.25
570.457	8534.14
570.819	8567.36
571.18	8608.26
571.542	8646
571.903	8736.17
572.265	8747.47
572.626	8810.74
572.987	8829.27
573.349	8846.67
573.71	8982.04
574.071	8911.31
574.432	9043.28
574.794	9174.35
575.155	9059.55
575.516	9107.46
575.877	9283.5
576.238	9298.41
576.599	9373.44
576.96	9534.57
577.32	9446.43
577.681	9649.82
578.042	9688.69
578.403	9758.06
578.763	9843.71
579.124	9915.35
579.485	10026.76
579.845	10179.52
580.206	10252.06
580.566	10318.73
580.927	10391.72
581.287	10578.61
581.648	10688.21
582.008	10874.19
582.368	10984.25
582.728	11170.68
583.089	11278.93
583.449	11515.76
583.809	11616.32
584.169	11812.47
584.529	11894.28
584.889	12207.94
585.249	12337.2
585.609	12489.97
585.969	12736.97
586.329	12900.35
586.688	13157.75
587.048	13321.58
587.408	13462.15
587.768	13760.22
588.127	13985.75
588.487	14254.22
588.846	14613.75
589.206	14674.32
589.565	15039.05
589.925	15286.28
590.284	15419.16
590.643	15739.15
591.003	16080.83
591.362	16324.67
591.721	16576.87
592.08	16885.78
592.44	17176.85
592.799	17507.46
593.158	17715.82
593.517	17936.83
593.876	18325.75
594.235	18593.08
594.593	18860.42
594.952	19212.96
595.311	19337.02
595.67	19803
596.029	20247.05
596.387	20430.1
596.746	20821.5
597.104	21023.08
597.463	21250.42
597.822	21609.5
598.18	21906.44
598.538	22164.97
598.897	22639.98
599.255	22647.44
599.613	23289.68
599.972	23356.35
600.33	23671.6
600.688	23942.1
601.046	24277.68
601.404	24625.24
601.762	24813.71
602.12	25176.87
602.478	25479.01
602.836	25813.69
603.194	25853.91
603.552	26235.14
603.91	26563.5
604.268	26838.52
604.625	27066.31
604.983	27393.31
605.341	27391.95
605.698	27729.79
606.056	28152.83
606.413	28258.59
606.771	28602.76
607.128	28760.73
607.485	28942.87
607.843	29100.38
608.2	29551.44
608.557	29938.1
608.914	29912.33
609.272	30205.43
609.629	30354.36
609.986	30761.58
610.343	30808.36
610.7	31277.27
611.057	31489.92
611.414	31578.51
611.771	31889.91
612.127	32113.86
612.484	32180.07
612.841	32623.9
613.198	32506.17
613.554	32806.04
613.911	33064.34
614.267	33240.61
614.624	33363.09
614.98	33669.3
615.337	33902.06
615.693	33939.57
616.05	34059.57
616.406	34329.17
616.762	34387.25
617.118	34453.91
617.475	34761.7
617.831	35049.15
618.187	35024.74
618.543	35226.77
618.899	35488.69
619.255	35633.54
619.611	35719.19
619.967	35902.23
620.323	36060.2
620.678	36103.13
621.034	35993.76
621.39	36209.8
621.746	36257.93
622.101	36673.97
622.457	36450.92
622.812	36717.13
623.168	36915.09
623.523	37026.27
623.879	37176.32
624.234	36942.88
624.589	37223.33
624.945	37213.84
625.3	37389.43
625.655	37408.64
626.01	37558.91
626.365	37706.71
626.72	37773.37
627.075	37720.72
627.43	37720.04
627.785	37839.13
628.14	37978.34
628.495	38034.16
628.85	37985.34
629.205	37965.68
629.559	38388.95
629.914	38105.79
630.269	38273.7
630.623	38183.08
630.978	38141.72
631.332	38434.37
631.687	38593.01
632.041	38389.85
632.396	38687.47
632.75	38321.83
633.104	38657.64
633.459	38440.7
633.813	38346.01
634.167	38574.93
634.521	38449.74
634.875	38568.6
635.229	38546.68
635.583	38410.64
635.937	38432.56
636.291	38415.39
636.645	38495.16
636.999	38473.69
637.352	38654.03
637.706	38344.66
638.06	38624.42
638.413	38444.54
638.767	38320.25
639.121	38418.78
639.474	38291.1
639.828	38475.95
640.181	38417.2
640.534	38475.95
640.888	38491.54
641.241	38339.46
641.594	38375.84
641.947	38608.83
642.301	38413.13
642.654	38499.23
643.007	38488.83
643.36	38444.09
643.713	38269.86
644.066	38520.47
644.419	38367.03
644.771	38064.66
645.124	37745.12
645.477	37676.88
645.83	37640.49
646.182	37380.61
646.535	37435.08
646.888	37374.51
647.24	37261.29
647.593	37442.98
647.945	37249.09
648.298	37328.41
648.65	37170.45
649.002	37162.54
649.355	37155.53
649.707	37323.67
650.059	37270.56
650.411	37786.7
650.763	37761.62
651.115	38297.65
651.467	37983.08
651.819	38035.74
652.171	37953.25
652.523	37886.14
652.875	37873.26
653.227	37707.16
653.578	38061.73
653.93	37952.35
654.282	37723.88
654.633	37653.6
654.985	37728.4
655.337	37762.52
655.688	37751.68
656.039	37866.93
656.391	37534.96
656.742	37602.53
657.094	37677.55
657.445	37757.33
657.796	37685.46
658.147	37655.41
658.498	37687.72
658.849	37710.1
659.2	37689.31
659.551	37602.08
659.902	37676.88
660.253	37697.89
660.604	37799.13
660.955	37569.53
661.306	37672.58
661.656	37649.31
662.007	37700.83
662.358	37571.12
662.708	37645.01
663.059	37616.54
663.409	37459.93
663.76	37696.54
664.11	37649.53
664.461	37708.97
664.811	37575.64
665.161	37685.92
665.511	37486.37
665.862	37749.64
666.212	37846.82
666.562	37650.89
666.912	37588.74
667.262	37544.22
667.612	37580.38
667.962	37616.31
668.312	37465.81
668.662	37599.36
669.011	37422.87
669.361	37402.76
669.711	37480.95
670.06	37483.66
670.41	37369.77
670.76	37498.58
671.109	37449.99
671.459	37398.92
671.808	37441.85
672.157	37423.32
672.507	37116.67
672.856	37259.03
673.205	37374.29
673.554	37429.2
673.904	37208.19
674.253	37380.39
674.602	37332.48
674.951	36897.91
675.3	36640.07
675.649	37209.09
675.998	37178.13
676.346	37048.64
676.695	37311.69
677.044	37012.26
677.393	37331.57
677.741	37047.97
678.09	37065.37
678.438	37066.72
678.787	36995.99
679.135	37033.96
679.484	36812.04
679.832	36920.74
680.181	36765.04
680.529	36778.14
680.877	36736.11
681.225	36797.58
681.573	36920.06
681.922	36715.32
682.27	36504.93
682.618	36589.67
682.966	36438.49
683.314	36537.92
683.661	36397.36
684.009	36332.28
684.357	36277.59
684.705	36248.67
685.053	36068.33
685.4	36172.06
685.748	36082.12
686.095	36071.95
686.443	35828.79
686.79	35647.33
687.138	35948.33
687.485	35894.1
687.832	35777.27
688.18	35770.94
688.527	35608.91
688.874	35498.4
689.221	35486.2
689.568	35382.25
689.915	35388.8
690.262	35413.89
690.609	35225.19
690.956	35044.63
691.303	35150.62
691.65	34878.76
691.997	34968.7
692.344	34762.15
692.69	34782.49
693.037	34757.86
693.383	34456.85
693.73	34553.34
694.077	34385.89
694.423	34487.81
694.769	34257.53
695.116	34298.66
695.462	34284.2
695.808	34076.29
696.155	34206.69
696.501	33855.96
696.847	33756.53
697.193	33656.87
697.539	33747.71
697.885	33441.51
698.231	33323.32
698.577	33396.54
698.923	33313.38
699.269	33105.02
699.614	33064.12
699.96	33030.45
700.306	32961.07
700.651	32952.71
700.997	32753.84
701.342	32791.58
701.688	32616.67
702.033	32601.53
702.379	32563.56
702.724	32449.44
703.069	32485.37
703.415	32109.57
703.76	32282.44
704.105	32297.81
704.45	32124.71
704.795	31961.55
705.14	31877.03
705.485	31838.39
705.83	31769.24
706.175	31603.82
706.52	31719.75
706.865	31534.67
707.209	31456.7
707.554	31398.17
707.899	31426.87
708.243	31213.54
708.588	31275.69
708.932	31119.31
709.277	31122.7
709.621	31014.9
709.966	30862.37
710.31	30966.54
710.654	30657.85
710.998	30810.39
711.342	30721.35
711.687	30543.5
712.031	30531.98
712.375	30393.9
712.719	30379.89
713.063	30405.88
713.407	30423.06
713.75	30355.26
714.094	30198.43
714.438	30116.4
714.782	30114.82
715.125	29992.78
715.469	30044.31
715.812	29831.66
716.156	29690.65
716.499	29820.13
716.843	29761.6
717.186	29532.01
717.53	29741.04
717.873	29720.7
718.216	29547.82
718.559	29518.9
718.902	29280.94
719.246	29275.29
719.589	29332.24
719.932	29139.47
720.275	29187.16
720.617	29092.7
720.96	29185.12
721.303	29062.19
721.646	29165.46
721.989	28932.93
722.331	28976.09
722.674	28948.52
723.016	28889.09
723.359	28762.08
723.701	28896.77
724.044	28651.58
724.386	28539.49
724.729	28600.96
725.071	28586.04
725.413	28574.52
725.755	28541.75
726.097	28384.69
726.439	28333.39
726.782	28328.42
727.124	28355.54
727.465	28273.73
727.807	28189.67
728.149	28093.85
728.491	28133.17
728.833	28076.45
729.175	27914.42
729.516	28085.72
729.858	27909.68
730.199	28008.88
730.541	27859.73
730.882	27807.98
731.224	27870.35
731.565	27753.3
731.906	27704.48
732.248	27855.44
732.589	27467.88
732.93	27526.86
733.271	27506.3
733.612	27562.11
733.953	27501.1
734.294	27390.59
734.635	27326.64
734.976	27290.71
735.317	27247.77
735.658	27265.4
735.999	27094.1
736.339	27153.09
736.68	27309.24
737.021	27078.29
737.361	26960.32
737.702	27004.61
738.042	26899.76
738.383	27000.55
738.723	26909.48
739.063	26789.25
739.404	27034.44
739.744	26690.05
740.084	26779.31
740.424	26679.2
740.764	26584.06
741.104	26717.39
741.444	26588.35
741.784	26590.61
742.124	26469.94
742.464	26440.34
742.804	26409.38
743.143	26460.22
743.483	26380.45
743.823	26225.2
744.162	26303.62
744.502	26380
744.841	26227.46
745.181	26350.62
745.52	26202.38
745.86	26206.9
746.199	26155.6
746.538	26009.61
746.877	26113.79
747.216	26071.53
747.556	25963.29
747.895	25998.09
748.234	25805.32
748.573	25812.33
748.911	25836.28
749.25	25770.52
749.589	25617.31
749.928	25642.62
750.267	25768.94
750.605	25673.8
750.944	25562.62
751.283	25435.62
751.621	25505.22
751.96	25249.18
752.298	25345.45
752.636	25404.66
752.975	25142.97
753.313	25173.02
753.651	25170.76
753.989	25046.47
754.327	25182.74
754.666	24937.78
755.004	24991.79
755.342	24933.71
755.679	24873.15
756.017	24741.62
756.355	24794.96
756.693	24720.83
757.031	24660.5
757.368	24602.64
757.706	24529.43
758.044	24475.87
758.381	24464.12
758.719	24443.1
759.056	24354.29
759.394	24249.66
759.731	24163.79
760.068	24129.89
760.405	24070.91
760.743	23953.17
761.08	23936.9
761.417	23704.59
761.754	23848.31
762.091	23725.38
762.428	23641.99
762.765	23405.61
763.102	23606.74
763.438	23405.84
763.775	23317.03
764.112	23354.09
764.449	23271.61
764.785	23249.91
765.122	23074.1
765.458	22973.76
765.795	22967.43
766.131	22989.81
766.467	22853.76
766.804	22768.12
767.14	22677.04
767.476	22570.16
767.812	22571.06
768.148	22558.18
768.485	22495.81
768.821	22256.04
769.157	22301.01
769.492	22122.94
769.828	22291.74
770.164	22011.07
770.5	22007.01
770.836	21965.88
771.171	21788.93
771.507	21806.56
771.842	21649.73
772.178	21658.99
772.513	21469.17
772.849	21574.25
773.184	21387.59
773.519	21290.64
773.855	21159.57
774.19	21132.68
774.525	21035.05
774.86	21056.52
775.195	21087.03
775.53	20744.44
775.865	20746.02
776.2	20646.82
776.535	20464.67
776.87	20536.54
777.205	20339.48
777.539	20332.02
777.874	20396.2
778.209	20156.89
778.543	20238.92
778.878	20009.77
779.212	20024.69
779.547	19894.52
779.881	19891.81
780.215	19798.93
780.55	19848.87
780.884	19687.75
781.218	19692.94
781.552	19624.02
781.886	19458.82
782.22	19459.95
782.554	19451.37
782.888	19234.88
783.222	19044.15
783.556	19095.22
783.889	18951.04
784.223	18873.98
784.557	18856.58
784.89	18940.87
785.224	18818.39
785.557	18687.55
785.891	18706.08
786.224	18606.19
786.558	18593.31
786.891	18491.39
787.224	18367.55
787.557	18393.09
787.891	18353.99
788.224	18174.79
788.557	18234.9
788.89	18055.47
789.223	18137.73
789.556	17956.04
789.888	17899.77
790.221	17967.79
790.554	17740.23
790.887	17713.56
791.219	17541.81
791.552	17617.52
791.884	17495.71
792.217	17441.25
792.549	17422.04
792.882	17290.97
793.214	17276.73
793.546	17196.74
793.879	17107.7
794.211	17054.14
794.543	17053.69
794.875	16935.73
795.207	17044.2
795.539	16973.47
795.871	16956.52
796.203	16743.42
796.535	16643.31
796.867	16620.71
797.198	16629.07
797.53	16583.65
797.862	16417.55
798.193	16454.84
798.525	16299.13
798.856	16391.33
799.188	16237.44
799.519	16088.52
799.85	16017.11
800.182	16158.8
800.513	16054.85
800.844	15913.61
801.175	16085.81
801.506	15919.93
801.837	15772.59
802.168	15890.56
802.499	15801.75
802.83	15658.25
803.161	15642.65
803.491	15740.05
803.822	15710.67
804.153	15559.49
804.483	15403.56
804.814	15337.58
805.145	15377.12
805.475	15334.64
805.805	15270.01
806.136	15251.7
806.466	15259.39
806.796	15218.26
807.126	14987.3
807.457	15148.2
807.787	15004.7
808.117	14929.9
808.447	14926.06
808.777	14975.78
809.107	14885.61
809.436	14829.57
809.766	14850.13
810.096	14785.28
810.426	14762.9
810.755	14711.38
811.085	14745.05
811.414	14669.12
811.744	14477.71
812.073	14477.71
812.403	14505.28
812.732	14312.29
813.061	14425.74
813.39	14311.39
813.719	14300.99
814.049	14358.39
814.378	14280.43
814.707	14154.33
815.036	14254.89
815.365	14072.98
815.693	13907.33
816.022	14094.67
816.351	13972.64
816.68	13980.1
817.008	13978.97
817.337	13866.43
817.665	13823.27
817.994	13807.67
818.322	13777.39
818.651	13776.71
818.979	13671.63
819.307	13711.18
819.636	13651.52
819.964	13630.5
820.292	13700.56
820.62	13639.09
820.948	13561.8
821.276	13639.54
821.604	13591.86
821.932	13636.15
822.259	13561.8
822.587	13560
822.915	13461.69
823.243	13590.96
823.57	13535.14
823.898	13544.18
824.225	13543.27
824.553	13456.04
824.88	13527.46
825.207	13510.28
825.535	13512.99
825.862	13514.8
826.189	13454.69
826.516	13439.1
826.843	13563.16
827.17	13536.49
827.497	13512.31
827.824	13516.38
828.151	13512.54
828.478	13436.61
828.805	13510.05
829.131	13443.16
829.458	13454.69
829.785	13384.86
830.111	13453.78
830.438	13533.56
830.764	13520.22
831.09	13424.63
831.417	13438.64
831.743	13472.77
832.069	13533.33
832.395	13453.33
832.722	13360.23
833.048	13299.66
833.374	13353.45
833.7	13266.9
834.026	13341.7
834.351	13411.75
834.677	13335.37
835.003	13324.75
835.329	13311.87
835.654	13321.13
835.98	13196.62
836.306	13217.18
836.631	13220.12
836.956	13276.16
837.282	13226.67
837.607	13193.68
837.932	13038.2
838.258	13190.06
838.583	13146.45
838.908	13036.17
839.233	13117.75
839.558	13015.6
839.883	12972.44
840.208	12957.98
840.533	12896.96
840.858	12956.4
841.182	13035.72
841.507	12929.05
841.832	12911.65
842.156	12874.14
842.481	12816.06
842.805	12818.1
843.13	12801.82
843.454	12654.94
843.778	12773.35
844.103	12626.69
844.427	12552.11
844.751	12648.61
845.075	12522.06
845.399	12503.3
845.723	12452.91
846.047	12502.62
846.371	12329.29
846.695	12406.35
847.019	12279.58
847.343	12269.86
847.666	12170.88
847.99	12140.6
848.313	12212.69
848.637	12006.59
848.96	11975.41
849.284	11980.15
849.607	11883.66
849.931	11852.92
850.254	11803.66
850.577	11771.34
850.9	11623.78
851.223	11661.97
851.546	11509.2
851.869	11487.28
852.192	11532.71
852.515	11497.68
852.838	11395.08
853.161	11467.4
853.483	11330.45
853.806	11324.12
854.129	11275.99
854.451	11287.74
854.774	11229.21
855.096	11144.47
855.419	11132.26
855.741	11072.6
856.063	11039.16
856.385	10986.73
856.708	10964.81
857.03	10917.81
857.352	10967.75
857.674	10874.19
857.996	10901.54
858.318	10800.52
858.64	10818.83
858.961	10830.58
859.283	10741.54
859.605	10593.52
859.926	10692.73
860.248	10669.45
860.57	10575.67
860.891	10647.98
861.212	10591.26
861.534	10490.92
861.855	10487.53
862.176	10468.1
862.498	10479.85
862.819	10478.27
863.14	10412.96
863.461	10429.68
863.782	10351.27
864.103	10414.99
864.424	10392.17
864.745	10327.31
865.065	10234.89
865.386	10226.3
865.707	10299.74
866.027	10295
866.348	10202.57
866.668	10218.39
866.989	10237.6
867.309	10072.86
867.63	10126.64
867.95	10168
868.27	10079.86
868.59	10107.21
868.91	10066.3
869.23	10085.51
869.55	10097.71
869.87	10191.27
870.19	10073.53
870.51	10027.89
870.83	10115.12
871.15	9990.15
871.469	9967.77
871.789	9996.25
872.109	9944.5
872.428	9942.92
872.748	9959.64
873.067	9911.28
873.386	9906.99
873.706	9869.7
874.025	9824.5
874.344	9835.8
874.663	9819.98
874.982	9766.65
875.301	9788.57
875.62	9755.8
875.939	9650.04
876.258	9730.27
876.577	9649.59
876.896	9663.38
877.214	9654.79
877.533	9620.89
877.852	9618.63
878.17	9697.73
878.489	9650.49
878.807	9573.66
879.125	9615.24
879.444	9571.4
879.762	9547.9
880.08	9581.57
880.398	9485.3
880.716	9546.99
881.034	9469.71
881.352	9457.73
881.67	9437.17
881.988	9457.96
882.306	9426.55
882.624	9368.47
882.941	9309.26
883.259	9267.68
883.577	9354.01
883.894	9265.65
884.212	9277.17
884.529	9242.14
884.846	9212.09
885.164	9179.55
885.481	9111.98
885.798	9186.55
886.115	9140.45
886.432	9104.52
886.75	9176.83
887.067	9077.63
887.383	8989.95
887.7	9075.59
888.017	8972.32
888.334	9000.57
888.651	8995.14
888.967	8958.99
889.284	8909.72
889.6	8844.64
889.917	8846.45
890.233	8849.84
890.55	8860.46
890.866	8782.5
891.182	8777.3
891.498	8791.53
891.815	8727.36
892.131	8695.04
892.447	8654.36
892.763	8674.93
893.079	8623.86
893.395	8585.44
893.71	8545.67
894.026	8513.35
894.342	8523.97
894.657	8434.26
894.973	8482.62
895.289	8441.71
895.604	8444.65
895.92	8362.17
896.235	8389.06
896.55	8346.57
896.865	8276.97
897.181	8313.81
897.496	8210.08
897.811	8178.22
898.126	8239.23
898.441	8139.35
898.756	8147.71
899.071	8048.73
899.386	8088.28
899.7	8008.05
900.015	8010.09
900.33	7938.22
900.644	7962.4
900.959	7984.32
901.273	7905
901.588	7895.74
901.902	7857.55
902.216	7898.22
902.531	7753.6
902.845	7747.95
903.159	7719.92
903.473	7689.87
903.787	7691
904.101	7614.62
904.415	7670.43
904.729	7625.46
905.042	7525.8
905.356	7486.26
905.67	7558.57
905.984	7470.89
906.297	7485.58
906.611	7368.07
906.924	7375.07
907.237	7363.55
907.551	7355.87
907.864	7306.6
908.177	7326.26
908.491	7306.83
908.804	7295.98
909.117	7204.46
909.43	7151.35
909.743	7167.17
910.056	7092.14
910.368	7127.17
910.681	7016.44
910.994	7036.78
911.307	6994.75
911.619	6940.06
911.932	6943
912.244	6830
912.557	6921.08
912.869	6865.26
913.181	6807.86
913.494	6772.6
913.806	6722.66
914.118	6728.09
914.43	6686.96
914.742	6699.84
915.054	6622.55
915.366	6654.19
915.678	6591.37
915.99	6647.41
916.302	6515.21
916.613	6481.76
916.925	6473.86
917.236	6476.57
917.548	6427.3
917.859	6386.63
918.171	6349.34
918.482	6298.72
918.794	6316.12
919.105	6295.78
919.416	6272.96
919.727	6235.9
920.038	6230.47
920.349	6176.01
920.66	6203.58
920.971	6148.89
921.282	6153.41
921.593	6100.08
921.903	6033.19
922.214	6070.25
922.525	6033.87
922.835	6081.32
923.146	5941.89
923.456	5962.23
923.767	5942.12
924.077	5909.35
924.387	5913.42
924.697	5845.4
925.008	5848.33
925.318	5842.01
925.628	5762.24
925.938	5768.79
926.248	5686.31
926.558	5678.85
926.867	5669.36
927.177	5672.07
927.487	5638.17
927.796	5565.4
928.106	5539.42
928.416	5523.15
928.725	5522.24
929.034	5572.86
929.344	5507.1
929.653	5522.92
929.962	5469.36
930.271	5430.72
930.581	5360.89
930.89	5376.26
931.199	5351.85
931.508	5311.63
931.817	5300.78
932.125	5328.35
932.434	5275.47
932.743	5239.31
933.051	5217.84
933.36	5201.57
933.669	5150.27
933.977	5099.88
934.286	5093.78
934.594	5117.73
934.902	5033.89
935.21	4986.44
935.519	5036.6
935.827	5035.02
936.135	4985.53
936.443	4986.44
936.751	4945.53
937.059	4918.42
937.367	4924.52
937.674	4863.73
937.982	4905.53
938.29	4873.67
938.597	4884.07
938.905	4762.04
939.213	4829.83
939.52	4766.1
939.827	4793
940.135	4723.39
940.442	4684.3
940.749	4707.8
941.056	4715.26
941.363	4648.59
941.67	4611.98
941.977	4575.15
942.284	4575.15
942.591	4604.53
942.898	4529.73
943.205	4555.94
943.511	4559.1
943.818	4484.75
944.125	4540.57
944.431	4455.15
944.738	4450.86
945.044	4423.29
945.35	4387.81
945.657	4368.6
945.963	4358.88
946.269	4315.49
946.575	4363.18
946.881	4251.99
947.187	4268.04
947.493	4271.43
947.799	4280.24
948.105	4244.08
948.41	4213.8
948.716	4173.58
949.022	4169.73
949.327	4148.49
949.633	4104.65
949.938	4106.46
950.244	4138.55
950.549	4051.32
950.854	4064.2
951.16	4023.52
951.465	4052.9
951.77	4035.5
952.075	4017.2
952.38	3954.83
952.685	4029.17
952.99	3979.23
953.294	3945.33
953.599	3911.66
953.904	3895.17
954.209	3876.64
954.513	3894.04
954.818	3798.45
955.122	3866.01
955.426	3837.31
955.731	3814.94
956.035	3801.84
956.339	3769.29
956.643	3765.45
956.948	3722.52
957.252	3700.82
957.556	3723.65
957.86	3654.04
958.163	3655.4
958.467	3662.18
958.771	3670.09
959.075	3629.41
959.378	3638.45
959.682	3642.07
959.985	3597.32
960.289	3571.56
960.592	3572.01
960.896	3527.27
961.199	3542.18
961.502	3524.1
961.805	3515.29
962.108	3480.49
962.411	3452.47
962.714	3443.65
963.017	3419.02
963.32	3417.21
963.623	3401.39
963.926	3410.88
964.228	3387.83
964.531	3298.8
964.833	3360.72
965.136	3336.54
965.438	3303.32
965.741	3311.45
966.043	3253.15
966.345	3281.4
966.648	3233.49
966.95	3268.29
967.252	3218.57
967.554	3213.15
967.856	3197.78
968.158	3165.24
968.46	3177.67
968.761	3154.17
969.063	3152.36
969.365	3094.06
969.666	3104.68
969.968	3099.71
970.269	3062.42
970.571	3064.91
970.872	3048.18
971.174	3035.98
971.475	3073.49
971.776	3037.11
972.077	3011.57
972.378	3005.7
972.679	2949.43
972.98	2969.77
973.281	2970.22
973.582	2905.59
973.883	2959.15
974.183	2939.71
974.484	2917.11
974.785	2871.92
975.085	2888.41
975.386	2900.62
975.686	2837.79
975.986	2852.93
976.287	2825.59
976.587	2761.86
976.887	2801.86
977.187	2782.43
977.487	2774.74
977.787	2792.6
978.087	2751.24
978.387	2754.18
978.687	2736.78
978.987	2696.1
979.286	2659.49
979.586	2690.9
979.885	2663.79
980.185	2698.81
980.484	2702.65
980.784	2663.33
981.083	2647.06
981.382	2602.54
981.682	2657.46
981.981	2600.96
982.28	2613.62
982.579	2581.08
982.878	2590.34
983.177	2578.59
983.475	2558.25
983.774	2505.6
984.073	2547.63
984.372	2525.94
984.67	2504.47
984.969	2530.46
985.267	2489.33
985.566	2485.94
985.864	2488.42
986.162	2464.92
986.461	2468.99
986.759	2431.7
987.057	2444.81
987.355	2391.93
987.653	2395.32
987.951	2400.74
988.249	2363.45
988.547	2382.89
988.844	2411.14
989.142	2336.34
989.44	2313.06
989.737	2352.38
990.035	2311.7
990.332	2318.48
990.63	2309.44
990.927	2295.89
991.224	2297.24
991.521	2243.23
991.819	2243.23
992.116	2258.6
992.413	2230.12
992.71	2205.27
993.006	2217.24
993.303	2214.53
993.6	2185.61
993.897	2186.96
994.193	2200.07
994.49	2185.61
994.787	2150.58
995.083	2129.56
995.379	2153.29
995.676	2132.95
995.972	2086.63
996.268	2109
996.565	2083.46
996.861	2061.99
997.157	2069.23
997.453	2062.45
997.749	2054.31
998.044	2045.05
998.34	2044.59
998.636	2048.21
998.932	1981.54
999.227	2014.54
999.523	1983.58
999.818	2001.2
1000.114	1982.22
1000.409	1962.56
1000.704	1934.99
1001	1946.29
1001.295	1911.26
1001.59	1935.9
1001.885	1910.36
1002.18	1887.54
1002.475	1903.35
1002.77	1909.68
1003.065	1872.85
1003.359	1867.87
1003.654	1845.05
1003.949	1842.11
1004.243	1830.14
1004.538	1858.84
1004.832	1817.71
1005.127	1788.33
1005.421	1802.79
1005.715	1777.03
1006.009	1772.28
1006.304	1748.1
1006.598	1742.23
1006.892	1766.18
1007.186	1732.74
1007.48	1746.75
1007.773	1685.73
1008.067	1727.99
1008.361	1692.96
1008.655	1666.75
1008.948	1680.99
1009.242	1672.63
1009.535	1665.85
1009.829	1632.85
1010.122	1674.21
1010.415	1651.16
1010.708	1619.29
1011.001	1596.7
1011.295	1597.83
1011.588	1619.75
1011.881	1593.76
1012.173	1558.05
1012.466	1583.59
1012.759	1544.49
1013.052	1558.5
1013.344	1547.43
1013.637	1535.91
1013.93	1475.79
1014.222	1506.08
1014.514	1532.97
1014.807	1524.15
1015.099	1507.88
1015.391	1481.67
1015.683	1517.83
1015.976	1466.3
1016.268	1491.39
1016.56	1426.76
1016.851	1445.74
1017.143	1455
1017.435	1425.4
1017.727	1404.84
1018.018	1420.65
1018.31	1418.62
1018.602	1394.89
1018.893	1396.25
1019.185	1384.05
1019.476	1344.27
1019.767	1340.2
1020.058	1342.92
1020.35	1330.26
1020.641	1337.27
1020.932	1316.93
1021.223	1328
1021.514	1295.01
1021.804	1290.26
1022.095	1309.02
1022.386	1269.25
1022.677	1264.5
1022.967	1244.61
1023.258	1243.26
1023.548	1253.65
1023.839	1212.75
1024.129	1227.44
1024.419	1222.24
1024.709	1210.04
1025	1208.23
1025.29	1207.78
1025.58	1187.67
1025.87	1210.94
1026.16	1168.01
1026.449	1200.1
1026.739	1153.54
1027.029	1134.33
1027.319	1114.9
1027.608	1152.64
1027.898	1130.27
1028.187	1151.28
1028.477	1135.46
1028.766	1131.85
1029.055	1103.37
1029.344	1052.53
1029.634	1102.25
1029.923	1082.58
1030.212	1066.09
1030.501	1090.72
1030.79	1082.81
1031.078	1067.67
1031.367	1064.73
1031.656	1047.78
1031.945	1044.85
1032.233	1032.42
1032.522	1056.37
1032.81	1033.09
1033.099	1031.06
1033.387	1037.61
1033.675	1015.47
1033.963	990.38
1034.251	996.71
1034.54	1004.17
1034.828	967.33
1035.116	967.56
1035.403	989.93
1035.691	965.3
1035.979	958.07
1036.267	953.77
1036.554	954.68
1036.842	919.2
1037.129	919.2
1037.417	916.04
1037.704	912.42
1037.992	916.49
1038.279	898.86
1038.566	907.9
1038.853	907.9
1039.14	907.9
