Data from hue_190_FLMS001491_00022.txt Node
Date: Tue Feb 07 16:45:03 GMT 2017
User: dcchb
Spectrometer: FLMS00149
Trigger mode: 0
Integration Time (sec): 2.000000E-2
Scans to average: 10
Electric dark correction enabled: true
Nonlinearity correction enabled: false
Boxcar width: 0
XAxis mode: Wavelengths
Number of Pixels in Spectrum: 2048
>>>>>Begin Spectral Data<<<<<
341.393	-2.67
341.776	-2.67
342.16	-2.67
342.543	-47.64
342.927	-64.36
343.31	-90.35
343.693	-59.62
344.077	-80.18
344.46	-58.71
344.843	-50.8
345.226	-45.61
345.61	-11.93
345.993	-39.96
346.376	9.08
346.759	11.34
347.142	15.86
347.525	58.8
347.908	60.15
348.291	68.52
348.674	107.84
349.057	105.58
349.44	113.03
349.823	144.67
350.206	165.01
350.588	179.92
350.971	213.82
351.354	233.03
351.737	245.91
352.119	252.24
352.502	244.33
352.884	276.42
353.267	267.61
353.65	305.12
354.032	296.08
354.414	298.11
354.797	293.14
355.179	328.62
355.562	308.28
355.944	339.69
356.326	303.54
356.709	311.9
357.091	326.81
357.473	320.94
357.855	335.85
358.238	327.27
358.62	329.07
359.002	332.46
359.384	347.83
359.766	333.59
360.148	337.89
360.53	345.12
360.912	321.16
361.294	329.53
361.676	329.3
362.057	321.84
362.439	308.73
362.821	329.53
363.203	338.56
363.584	317.1
363.966	328.17
364.348	300.37
364.729	300.6
365.111	303.99
365.493	313.71
365.874	294.27
366.256	289.07
366.637	297.66
367.019	308.96
367.4	304.67
367.781	304.67
368.163	310.77
368.544	314.38
368.925	297.66
369.306	304.22
369.688	313.25
370.069	307.6
370.45	297.44
370.831	282.75
371.212	311.9
371.593	291.33
371.974	301.96
372.355	301.73
372.736	299.7
373.117	317.77
373.498	310.54
373.879	329.98
374.26	287.72
374.641	305.8
375.021	307.38
375.402	323.2
375.783	310.09
376.163	307.83
376.544	304.44
376.925	308.28
377.305	322.29
377.686	327.27
378.066	327.27
378.447	315.29
378.827	304.44
379.208	313.25
379.588	321.39
379.968	320.94
380.349	332.24
380.729	320.03
381.109	310.99
381.489	318
381.87	313.25
382.25	319.36
382.63	319.58
383.01	330.88
383.39	331.11
383.77	339.92
384.15	333.14
384.53	338.34
384.91	328.62
385.29	332.01
385.67	340.6
386.049	362.97
386.429	330.66
386.809	348.06
387.189	339.02
387.568	331.11
387.948	349.86
388.328	346.25
388.707	331.56
389.087	327.49
389.466	340.15
389.846	334.95
390.225	341.05
390.605	365.68
390.984	350.77
391.363	364.1
391.743	359.13
392.122	360.03
392.501	369.07
392.881	362.74
393.26	363.2
393.639	368.85
394.018	350.54
394.397	381.73
394.776	368.17
395.155	381.5
395.534	363.2
395.913	364.55
396.292	383.99
396.671	383.08
397.05	368.62
397.429	351.67
397.808	370.65
398.186	375.63
398.565	386.7
398.944	371.56
399.323	384.89
399.701	381.28
400.08	387.38
400.458	384.67
400.837	399.81
401.215	403.42
401.594	411.11
401.972	413.59
402.351	407.04
402.729	407.49
403.107	411.78
403.486	398.22
403.864	418.34
404.242	405.68
404.62	409.52
404.999	445.45
405.377	395.74
405.755	429.86
406.133	424.44
406.511	430.31
406.889	447.04
407.267	439.58
407.645	462.4
408.023	470.76
408.401	457.66
408.779	467.83
409.156	478.9
409.534	478.22
409.912	493.59
410.29	516.19
410.667	492.91
411.045	498.33
411.422	517.77
411.8	530.65
412.178	531.33
412.555	542.85
412.933	539.01
413.31	553.02
413.687	544.89
414.065	575.17
414.442	562.29
414.819	593.47
415.197	581.04
415.574	589.41
415.951	606.81
416.328	619.69
416.705	611.33
417.082	615.39
417.46	627.6
417.837	641.38
418.214	655.17
418.591	686.58
418.967	662.17
419.344	661.27
419.721	681.15
420.098	710.08
420.475	720.25
420.852	726.35
421.228	723.64
421.605	727.03
421.982	767.48
422.358	782.62
422.735	771.55
423.111	792.79
423.488	801.15
423.864	819.23
424.241	833.92
424.617	848.83
424.994	864.2
425.37	851.77
425.746	872.79
426.123	891.77
426.499	907.82
426.875	934.71
427.251	948.04
427.627	935.61
428.003	942.62
428.379	960.24
428.756	987.59
429.132	991.43
429.507	1008.6
429.883	1002.73
430.259	1013.58
430.635	1002.5
431.011	1060.81
431.387	1077.3
431.763	1094.02
432.138	1080.69
432.514	1119.79
432.89	1129.05
433.265	1159.79
433.641	1181.48
434.016	1163.63
434.392	1197.07
434.767	1252.21
435.143	1236.39
435.518	1272.78
435.894	1299.9
436.269	1291.76
436.644	1330.4
437.02	1350.74
437.395	1395.49
437.77	1370.63
438.145	1426.9
438.52	1435.26
438.895	1445.88
439.271	1457.18
439.646	1501.7
440.021	1536.73
440.395	1555.48
440.77	1567.23
441.145	1580.11
441.52	1597.06
441.895	1600.9
442.27	1653.33
442.645	1651.07
443.019	1699.43
443.394	1678.87
443.769	1712.54
444.143	1716.61
444.518	1742.37
444.892	1771.75
445.267	1766.32
445.641	1772.2
446.016	1802.71
446.39	1824.63
446.764	1824.4
447.139	1850.39
447.513	1844.74
447.887	1862.37
448.262	1904.85
448.636	1881.12
449.01	1931.52
449.384	1922.93
449.758	1929.71
450.132	1985.98
450.506	1968.58
450.88	2010.84
451.254	2022.36
451.628	2040.21
452.002	2064.39
452.376	2119.08
452.75	2146.43
453.123	2119.08
453.497	2163.38
453.871	2175.13
454.244	2234.56
454.618	2238.4
454.992	2253.54
455.365	2296.93
455.739	2334.44
456.112	2325.63
456.486	2346.2
456.859	2399.53
457.232	2420.54
457.606	2411.5
457.979	2498.06
458.352	2529.69
458.725	2535.79
459.099	2538.73
459.472	2602.01
459.845	2643.59
460.218	2626.41
460.591	2692.63
460.964	2677.26
461.337	2745.96
461.71	2812.4
462.083	2816.24
462.456	2851.94
462.829	2887.88
463.201	2922.45
463.574	2900.08
463.947	2931.94
464.32	3042.67
464.692	3057.82
465.065	3105.27
465.438	3154.08
465.81	3154.76
466.183	3234.99
466.555	3280.86
466.928	3292.39
467.3	3298.71
467.672	3378.71
468.045	3415.55
468.417	3474.53
468.789	3486.96
469.161	3543.45
469.534	3577.8
469.906	3679.27
470.278	3688.53
470.65	3742.77
471.022	3816.67
471.394	3876.78
471.766	3905.93
472.138	3933.5
472.51	4068.86
472.882	4133.04
473.253	4141.85
473.625	4207.84
473.997	4304.11
474.369	4330.1
474.74	4427.04
475.112	4436.08
475.484	4571.45
475.855	4588.85
476.227	4666.13
476.598	4764.89
476.97	4803.08
477.341	4929.4
477.713	5022.74
478.084	5074.26
478.455	5185.67
478.827	5249.4
479.198	5391.31
479.569	5379.34
479.94	5554.92
480.311	5580.91
480.682	5718.99
481.053	5865.65
481.424	5947.68
481.795	5998.08
482.166	6067.68
482.537	6165.3
482.908	6321.91
483.279	6397.84
483.65	6494.56
484.021	6612.07
484.391	6689.36
484.762	6730.94
485.133	6844.83
485.503	6899.75
485.874	7061.55
486.244	7115.56
486.615	7262
486.985	7353.07
487.356	7480.07
487.726	7563.69
488.097	7700.86
488.467	7752.61
488.837	7869.67
489.207	7998.93
489.578	8013.39
489.948	8137.23
490.318	8211.58
490.688	8300.39
491.058	8398.01
491.428	8524.56
491.798	8521.4
492.168	8813.6
492.538	8743.09
492.908	8795.97
493.278	8932.01
493.648	8963.87
494.017	9123.42
494.387	9186.02
494.757	9255.84
495.126	9292.68
495.496	9289.74
495.866	9352.56
496.235	9449.29
496.605	9540.81
496.974	9604.99
497.344	9683.4
497.713	9659.68
498.082	9774.47
498.452	9802.72
498.821	9846.34
499.19	9886.11
499.559	9955.03
499.928	10005.43
500.298	10035.48
500.667	10160.68
501.036	10054.92
501.405	10134.69
501.774	10104.64
502.143	10240.68
502.512	10249.49
502.88	10324.06
503.249	10334.23
503.618	10363.61
503.987	10384.18
504.356	10405.19
504.724	10406.55
505.093	10436.83
505.462	10464.63
505.83	10555.02
506.199	10557.28
506.567	10679.76
506.936	10654.9
507.304	10762.92
507.672	10707.78
508.041	10720.44
508.409	10748.69
508.777	10893.09
509.145	10921.79
509.514	10799.76
509.882	10837.95
510.25	10822.58
510.618	10886.76
510.986	10952.97
511.354	11017.38
511.722	10963.82
512.09	10968.12
512.458	11031.39
512.826	11049.47
513.193	11052.41
513.561	11123.82
513.929	11166.3
514.297	11178.51
514.664	11174.66
515.032	11185.96
515.4	11188.22
515.767	11137.6
516.135	11209.47
516.502	11047.44
516.869	11283.59
517.237	11231.39
517.604	11106.42
517.972	11207.21
518.339	11254.89
518.706	11166.75
519.073	11190.71
519.44	11149.35
519.808	11258.5
520.175	11159.52
520.542	11320.2
520.909	11267.09
521.276	11187.09
521.643	11251.72
522.009	11296.02
522.376	11265.96
522.743	11256.7
523.11	11351.16
523.477	11310.03
523.843	11336.92
524.21	11384.83
524.577	11383.25
524.943	11373.08
525.31	11366.98
525.676	11382.79
526.043	11324.26
526.409	11316.58
526.776	11404.04
527.142	11337.6
527.508	11381.89
527.874	11382.12
528.241	11329.24
528.607	11322.46
528.973	11305.28
529.339	11263.25
529.705	11254.44
530.071	11278.62
530.437	11305.51
530.803	11222.57
531.169	11211.72
531.535	11138.73
531.901	11130.15
532.267	11017.61
532.632	11077.49
532.998	11000.66
533.364	11035.23
533.73	10962.69
534.095	10967.66
534.461	10889.7
534.826	10931.05
535.192	10862.13
535.557	10797.05
535.923	10776.71
536.288	10727.9
536.653	10633.44
537.019	10559.09
537.384	10513.89
537.749	10549.37
538.114	10533.78
538.479	10357.28
538.845	10443.61
539.21	10271.18
539.575	10249.94
539.94	10241.58
540.305	10167.91
540.67	10157.06
541.034	10120
541.399	10056.05
541.764	10017.18
542.129	9994.58
542.494	9924.53
542.858	9918.2
543.223	9815.38
543.587	9828.26
543.952	9700.13
544.316	9624.87
544.681	9596.4
545.045	9604.76
545.41	9523.41
545.774	9458.55
546.138	9415.61
546.503	9334.49
546.867	9278.67
547.231	9292.68
547.595	9231.44
547.959	9150.76
548.324	9129.75
548.688	9088.62
549.052	9032.8
549.416	8992.35
549.779	8947.6
550.143	8858.57
550.507	8892.24
550.871	8861.96
551.235	8732.47
551.599	8738.57
551.962	8790.32
552.326	8623.54
552.689	8667.61
553.053	8492.25
553.417	8491.12
553.78	8568.18
554.143	8364.57
554.507	8395.08
554.87	8367.51
555.234	8344.46
555.597	8242.76
555.96	8225.59
556.323	8241.18
556.686	8151.47
557.05	8181.3
557.413	8099.04
557.776	8133.84
558.139	8088.87
558.502	7988.98
558.865	8020.62
559.228	7992.83
559.59	8004.58
559.953	7921.19
560.316	7971.58
560.679	7942.66
561.041	7954.18
561.404	7855.43
561.767	7897.91
562.129	7858.82
562.492	7847.52
562.854	7778.59
563.217	7780.63
563.579	7817.92
563.941	7818.37
564.304	7703.79
564.666	7825.6
565.028	7775.43
565.39	7680.29
565.753	7751.03
566.115	7669.45
566.477	7719.16
566.839	7735.88
567.201	7720.97
567.563	7630.58
567.925	7715.77
568.287	7617.7
568.648	7573.85
569.01	7608.66
569.372	7646.62
569.734	7666.96
570.095	7614.08
570.457	7595.77
570.819	7661.99
571.18	7556.68
571.542	7660.41
571.903	7563.46
572.265	7553.97
572.626	7574.31
572.987	7621.76
573.349	7538.6
573.71	7610.46
574.071	7539.73
574.432	7563.46
574.794	7635.1
575.155	7517.81
575.516	7487.98
575.877	7546.51
576.238	7553.74
576.599	7525.72
576.96	7525.04
577.32	7519.62
577.681	7506.96
578.042	7578.37
578.403	7499.96
578.763	7514.65
579.124	7521.43
579.485	7545.83
579.845	7494.76
580.206	7538.6
580.566	7482.78
580.927	7490.69
581.287	7510.58
581.648	7441.43
582.008	7445.27
582.368	7473.52
582.728	7419.06
583.089	7481.88
583.449	7388.55
583.809	7382.22
584.169	7401.88
584.529	7382
584.889	7396.46
585.249	7337.25
585.609	7357.14
585.969	7361.88
586.329	7318.72
586.688	7354.2
587.048	7274.65
587.408	7252.73
587.768	7238.04
588.127	7244.82
588.487	7210.7
588.846	7321.21
589.206	7238.04
589.565	7257.25
589.925	7274.88
590.284	7142.68
590.643	7215.67
591.003	7272.85
591.362	7230.36
591.721	7231.49
592.08	7181.1
592.44	7233.3
592.799	7171.38
593.158	7145.84
593.517	7168.89
593.876	7168.22
594.235	7137.26
594.593	7156.92
594.952	7097.03
595.311	7072.62
595.67	7077.14
596.029	7113.75
596.387	7148.1
596.746	7083.47
597.104	7068.56
597.463	7040.54
597.822	7102.23
598.18	7072.17
598.538	7055
598.897	7077.37
599.255	6962.8
599.613	7057.26
599.972	7012.06
600.33	7025.85
600.688	7030.59
601.046	7030.14
601.404	7075.11
601.762	7019.29
602.12	6989.01
602.478	6985.62
602.836	7020.42
603.194	6957.83
603.552	7015
603.91	6967.77
604.268	7009.8
604.625	6978.62
604.983	7034.21
605.341	6989.92
605.698	6984.27
606.056	6996.69
606.413	6947.43
606.771	6977.71
607.128	6989.92
607.485	6933.42
607.843	6999.63
608.2	6964.38
608.557	6993.53
608.914	6943.36
609.272	7017.48
609.629	7012.06
609.986	7039.63
610.343	6985.4
610.7	7045.28
611.057	7017.48
611.414	6975.45
611.771	7050.25
612.127	7019.29
612.484	7077.82
612.841	7045.96
613.198	6973.64
613.554	7001.44
613.911	7062.68
614.267	7081.66
614.624	7022.23
614.98	7027.43
615.337	7069.91
615.693	7023.13
616.05	7029.46
616.406	7085.73
616.762	7057.48
617.118	7047.54
617.475	7009.8
617.831	7053.19
618.187	7101.1
618.543	7057.48
618.899	7019.29
619.255	7059.07
619.611	7075.79
619.967	7098.39
620.323	7122.57
620.678	7137.48
621.034	7066.75
621.39	7037.37
621.746	7033.3
622.101	7065.39
622.457	7052.74
622.812	7067.2
623.168	7059.07
623.523	7060.87
623.879	7093.64
624.234	7068.56
624.589	7080.76
624.945	6999.86
625.3	7058.16
625.655	7089.12
626.01	7045.73
626.365	7033.53
626.72	7075.79
627.075	7016.13
627.43	7071.49
627.785	7063.59
628.14	7049.8
628.495	7036.69
628.85	7049.12
629.205	7041.67
629.559	7080.99
629.914	7016.13
630.269	7056.81
630.623	6961.44
630.978	6954.21
631.332	7043.7
631.687	7007.32
632.041	6922.57
632.396	7004.83
632.75	6964.38
633.104	6968.22
633.459	6939.97
633.813	6895.68
634.167	6957.6
634.521	6924.61
634.875	6894.78
635.229	6919.41
635.583	6898.17
635.937	6870.82
636.291	6899.97
636.645	6821.33
636.999	6870.6
637.352	6824.5
637.706	6785.63
638.06	6834.66
638.413	6835.57
638.767	6810.48
639.121	6795.12
639.474	6833.76
639.828	6757.15
640.181	6778.4
640.534	6806.42
640.888	6765.74
641.241	6736.14
641.594	6799.64
641.947	6743.37
642.301	6730.94
642.654	6753.09
643.007	6741.11
643.36	6716.7
643.713	6734.1
644.066	6765.29
644.419	6730.03
644.771	6668.34
645.124	6637.38
645.477	6634.22
645.83	6558.06
646.182	6495.69
646.535	6546.99
646.888	6558.51
647.24	6476.93
647.593	6540.21
647.945	6513.09
648.298	6547.67
648.65	6498.63
649.002	6478.52
649.355	6532.98
649.707	6538.63
650.059	6551.73
650.411	6593.99
650.763	6634.22
651.115	6709.92
651.467	6669.92
651.819	6715.35
652.171	6703.59
652.523	6682.8
652.875	6659.53
653.227	6618.85
653.578	6728.23
653.93	6639.42
654.282	6665.4
654.633	6664.95
654.985	6681
655.337	6632.86
655.688	6708.57
656.039	6697.27
656.391	6664.05
656.742	6736.59
657.094	6715.35
657.445	6753.31
657.796	6711.96
658.147	6708.79
658.498	6760.54
658.849	6777.04
659.2	6688
659.551	6720.32
659.902	6723.71
660.253	6758.28
660.604	6773.2
660.955	6621.34
661.306	6802.12
661.656	6728.45
662.007	6760.32
662.358	6732.29
662.708	6783.82
663.059	6762.58
663.409	6723.03
663.76	6818.62
664.11	6801.9
664.461	6777.04
664.811	6798.73
665.161	6824.72
665.511	6771.39
665.862	6784.95
666.212	6849.35
666.562	6793.31
666.912	6859.75
667.262	6848
667.612	6771.62
667.962	6859.97
668.312	6824.5
668.662	6832.41
669.011	6778.85
669.361	6758.96
669.711	6785.85
670.06	6751.5
670.41	6777.27
670.76	6781.11
671.109	6778.17
671.459	6810.48
671.808	6792.86
672.157	6784.95
672.507	6756.25
672.856	6765.51
673.205	6780.88
673.554	6742.46
673.904	6731.16
674.253	6734.78
674.602	6747.89
674.951	6635.12
675.3	6611.17
675.649	6694.1
675.998	6685.29
676.346	6727.1
676.695	6664.27
677.044	6659.53
677.393	6704.72
677.741	6693.2
678.09	6680.09
678.438	6673.77
678.787	6658.62
679.135	6618.63
679.484	6596.25
679.832	6583.6
680.181	6580.43
680.529	6572.52
680.877	6573.2
681.225	6566.65
681.573	6596.71
681.922	6557.84
682.27	6547.44
682.618	6490.72
682.966	6492.08
683.314	6540.66
683.661	6530.72
684.009	6445.07
684.357	6452.08
684.705	6494.11
685.053	6379.08
685.4	6422.7
685.748	6389.48
686.095	6388.12
686.443	6315.81
686.79	6308.8
687.138	6354.68
687.485	6361.23
687.832	6312.19
688.18	6337.05
688.527	6264.96
688.874	6278.75
689.221	6259.76
689.568	6216.6
689.915	6172.08
690.262	6181.57
690.609	6142.71
690.956	6178.64
691.303	6171.63
691.65	6087.34
691.997	6108.13
692.344	6129.82
692.69	6045.31
693.037	6097.28
693.383	5976.38
693.73	5935.48
694.077	5931.64
694.423	5962.82
694.769	5954.01
695.116	5949.72
695.462	5873.79
695.808	5835.6
696.155	5842.83
696.501	5826.1
696.847	5821.13
697.193	5783.62
697.539	5768.25
697.885	5759.21
698.231	5669.05
698.577	5696.16
698.923	5705.43
699.269	5639.22
699.614	5569.84
699.96	5543.85
700.306	5531.42
700.651	5503.85
700.997	5584.98
701.342	5521.03
701.688	5518.99
702.033	5488.94
702.379	5488.94
702.724	5459.11
703.069	5425.66
703.415	5322.61
703.76	5362.61
704.105	5359.45
704.45	5332.56
704.795	5302.28
705.14	5312.67
705.485	5347.92
705.83	5265.44
706.175	5264.54
706.52	5239.9
706.865	5259.34
707.209	5232.9
707.554	5196.74
707.899	5217.98
708.243	5136.86
708.588	5113.81
708.932	5097.54
709.277	5073.36
709.621	5162.84
709.966	5045.56
710.31	5096.41
710.654	5042.85
710.998	5039.23
711.342	5066.58
711.687	5023.19
712.031	4990.42
712.375	4997.43
712.719	4960.36
713.063	4981.38
713.407	4953.13
713.75	4983.41
714.094	4951.55
714.438	4942.29
714.782	4961.95
715.125	4931.89
715.469	4938.22
715.812	4894.38
716.156	4903.87
716.499	4879.01
716.843	4856.41
717.186	4851.44
717.53	4862.06
717.873	4886.02
718.216	4890.76
718.559	4822.74
718.902	4799.69
719.246	4838.33
719.589	4798.33
719.932	4809.63
720.275	4827.71
720.617	4782.06
720.96	4795.62
721.303	4776.19
721.646	4815.06
721.989	4786.13
722.331	4782.74
722.674	4749.75
723.016	4760.37
723.359	4742.06
723.701	4763.98
724.044	4756.3
724.386	4733.25
724.729	4755.85
725.071	4707.26
725.413	4747.49
725.755	4815.06
726.097	4759.47
726.439	4693.03
726.782	4720.14
727.124	4759.92
727.465	4716.53
727.807	4717.66
728.149	4754.04
728.491	4707.49
728.833	4726.92
729.175	4724.66
729.516	4722.4
729.858	4717.21
730.199	4744.78
730.541	4727.83
730.882	4754.95
731.224	4764.21
731.565	4731.9
731.906	4754.27
732.248	4763.53
732.589	4690.54
732.93	4713.14
733.271	4741.39
733.612	4728.51
733.953	4750.2
734.294	4744.1
734.635	4761.27
734.976	4788.39
735.317	4721.27
735.658	4764.44
735.999	4785.68
736.339	4732.12
736.68	4790.65
737.021	4790.65
737.361	4820.25
737.702	4835.17
738.042	4804.66
738.383	4841.95
738.723	4891.89
739.063	4838.11
739.404	4901.16
739.744	4851.44
740.084	4848.73
740.424	4875.62
740.764	4862.51
741.104	4938.44
741.444	4946.58
741.784	4958.33
742.124	4957.65
742.464	4958.56
742.804	4985.67
743.143	4980.02
743.483	5040.59
743.823	5049.18
744.162	5070.87
744.502	5115.61
744.841	5123.75
745.181	5183.63
745.52	5218.21
745.86	5256.18
746.199	5203.97
746.538	5284.65
746.877	5405.32
747.216	5416.4
747.556	5448.03
747.895	5482.38
748.234	5514.02
748.573	5588.14
748.911	5601.48
749.25	5702.72
749.589	5723.73
749.928	5825.88
750.267	5896.38
750.605	5969.6
750.944	6017.96
751.283	6067.23
751.621	6199.88
751.96	6256.83
752.298	6319.2
752.636	6480.78
752.975	6541.57
753.313	6540.21
753.651	6716.93
753.989	6873.76
754.327	6909.47
754.666	6982.23
755.004	7138.84
755.342	7318.72
755.679	7449.56
756.017	7523.69
756.355	7792.38
756.693	7825.83
757.031	8034.41
757.368	8160.28
757.706	8292.25
758.044	8464.23
758.381	8624.22
758.719	8766.14
759.056	9004.55
759.394	9075.51
759.731	9174.94
760.068	9392.34
760.405	9538.55
760.743	9692.22
761.08	9899.9
761.417	10038.42
761.754	10289.26
762.091	10452.87
762.428	10670.95
762.765	10793.43
763.102	10972.18
763.438	11089.47
763.775	11297.15
764.112	11505.73
764.449	11677.7
764.785	11881.99
765.122	12004.47
765.458	12146.39
765.795	12296.67
766.131	12483.33
766.467	12680.39
766.804	12765.36
767.14	12896.43
767.476	13154.72
767.812	13292.8
768.148	13476.75
768.485	13546.58
768.821	13659.57
769.157	13866.12
769.492	13972.1
769.828	14181.36
770.164	14250.52
770.5	14343.85
770.836	14583.84
771.171	14581.81
771.507	14692.09
771.842	14749.49
772.178	14836.04
772.513	14988.57
772.849	15125.75
773.184	15225.86
773.519	15245.29
773.855	15377.27
774.19	15400.54
774.525	15584.49
774.86	15619.97
775.195	15694.32
775.53	15764.37
775.865	15850.7
776.2	15764.15
776.535	15789.01
776.87	15929.57
777.205	15909.68
777.539	16047.98
777.874	16186.74
778.209	16089.56
778.543	16096.12
778.878	16129.34
779.212	16283.91
779.547	16243.68
779.881	16440.97
780.215	16301.08
780.55	16429.44
780.884	16419.72
781.218	16337.69
781.552	16479.61
781.886	16455.65
782.22	16459.04
782.554	16473.51
782.888	16393.96
783.222	16444.81
783.556	16411.36
783.889	16434.41
784.223	16361.65
784.557	16337.92
784.89	16426.5
785.224	16388.09
785.557	16395.77
785.891	16429.89
786.224	16387.18
786.558	16446.39
786.891	16290.24
787.224	16246.85
787.557	16293.17
787.891	16275.09
788.224	16356.45
788.557	16418.82
788.89	16389.89
789.223	16392.38
789.556	16299.73
789.888	16275.77
790.221	16202.55
790.554	16221.54
790.887	16223.34
791.219	16216.57
791.552	16193.29
791.884	16065.61
792.217	16074.2
792.549	16090.01
792.882	16031.49
793.214	15993.75
793.546	16007.98
793.879	16009.34
794.211	15867.87
794.543	15879.85
794.875	15900.42
795.207	15998.72
795.539	15845.95
795.871	15907.19
796.203	15751.72
796.535	15696.35
796.867	15606.86
797.198	15666.52
797.53	15685.73
797.862	15650.48
798.193	15565.51
798.525	15450.26
798.856	15483.03
799.188	15433.08
799.519	15325.06
799.85	15373.2
800.182	15285.06
800.513	15330.49
800.844	15210.04
801.175	15358.51
801.506	15231.28
801.837	15263.82
802.168	15166.88
802.499	15067.22
802.83	15162.36
803.161	15098.18
803.491	15106.09
803.822	15068.35
804.153	14956.94
804.483	14916.26
804.814	14895.02
805.145	14904.96
805.475	14839.88
805.805	14846.88
806.136	14720.11
806.466	14791.29
806.796	14832.42
807.126	14615.93
807.457	14667.23
807.787	14636.72
808.117	14576.16
808.447	14533.9
808.777	14583.16
809.107	14492.09
809.436	14415.71
809.766	14463.62
810.096	14458.87
810.426	14256.62
810.755	14361.92
811.085	14323.51
811.414	14305.2
811.744	14281.47
812.073	14128.94
812.403	14226.79
812.732	14158.99
813.061	14107.24
813.39	14073.12
813.719	14001.03
814.049	14122.83
814.378	14075.6
814.707	13964.87
815.036	14011.65
815.365	14016.62
815.693	13824.99
816.022	13923.29
816.351	13767.59
816.68	13759.68
817.008	13812.56
817.337	13680.59
817.665	13707.93
817.994	13674.03
818.322	13822.5
818.651	13545.45
818.979	13544.77
819.307	13752.9
819.636	13617.76
819.964	13617.99
820.292	13648.27
820.62	13590.42
820.948	13557.2
821.276	13556.75
821.604	13499.35
821.932	13577.76
822.259	13633.81
822.587	13524.21
822.915	13554.04
823.243	13568.95
823.57	13556.52
823.898	13622.28
824.225	13457.54
824.553	13493.92
824.88	13591.1
825.207	13520.14
825.535	13501.38
825.862	13628.16
826.189	13500.48
826.516	13627.93
826.843	13640.14
827.17	13589.52
827.497	13583.87
827.824	13633.13
828.151	13630.42
828.478	13590.19
828.805	13673.36
829.131	13529.63
829.458	13551.78
829.785	13509.07
830.111	13510.65
830.438	13665.22
830.764	13598.33
831.09	13567.37
831.417	13503.42
831.743	13589.74
832.069	13680.36
832.395	13434.27
832.722	13532.34
833.048	13460.71
833.374	13564.43
833.7	13506.81
834.026	13557.2
834.351	13511.33
834.677	13484.43
835.003	13565.34
835.329	13521.95
835.654	13429.97
835.98	13420.93
836.306	13411.44
836.631	13397.88
836.956	13478.56
837.282	13490.08
837.607	13392.91
837.932	13280.15
838.258	13391.78
838.583	13389.29
838.908	13185.01
839.233	13342.74
839.558	13164.22
839.883	13281.28
840.208	13192.69
840.533	13147.95
840.858	13131.45
841.182	13176.65
841.507	13151.79
841.832	13093.03
842.156	12991.11
842.481	13045.12
842.805	13018.91
843.13	12951.57
843.454	12939.82
843.778	12884
844.103	12848.07
844.427	12810.33
844.751	12860.5
845.075	12804
845.399	12729.2
845.723	12692.36
846.047	12687.62
846.371	12617.56
846.695	12624.57
847.019	12514.74
847.343	12465.03
847.666	12447.85
847.99	12339.15
848.313	12412.37
848.637	12260.96
848.96	12248.53
849.284	12273.17
849.607	12117.01
849.931	12078.14
850.254	11987.98
850.577	12000.4
850.9	11917.92
851.223	11904.14
851.546	11879.5
851.869	11786.17
852.192	11766.96
852.515	11718.6
852.838	11628.89
853.161	11664.82
853.483	11675.44
853.806	11530.36
854.129	11439.74
854.451	11446.07
854.774	11443.13
855.096	11387.31
855.419	11401.32
855.741	11354.32
856.063	11372.4
856.385	11218.96
856.708	11278.84
857.03	11114.55
857.352	11212.18
857.674	11128.56
857.996	11135.12
858.318	11009.02
858.64	11056.47
858.961	11028.45
859.283	10956.59
859.605	10912.98
859.926	10981.22
860.248	10850.15
860.57	10887.44
860.891	10856.48
861.212	10786.88
861.534	10833.66
861.855	10713.66
862.176	10829.36
862.498	10692.87
862.819	10716.6
863.14	10615.13
863.461	10581.91
863.782	10647.67
864.103	10618.52
864.424	10592.08
864.745	10609.93
865.065	10557.05
865.386	10522.25
865.707	10520.9
866.027	10529.71
866.348	10528.35
866.668	10490.61
866.989	10484.29
867.309	10359.54
867.63	10335.14
867.95	10417.17
868.27	10381.46
868.59	10308.7
868.91	10355.25
869.23	10277.06
869.55	10250.17
869.87	10337.4
870.19	10289.72
870.51	10313.9
870.83	10298.08
871.15	10228.02
871.469	10205.42
871.789	10282.26
872.109	10248.13
872.428	10135.37
872.748	10174.92
873.067	10139.89
873.386	10194.58
873.706	10076.39
874.025	10049.95
874.344	10048.14
874.663	10041.13
874.982	10047.24
875.301	10049.95
875.62	10018.31
875.939	10023.96
876.258	10016.28
876.577	9917.52
876.896	10007.91
877.214	9905.54
877.533	9884.75
877.852	9854.92
878.17	9866.9
878.489	9897.86
878.807	9864.42
879.125	9863.74
879.444	9782.16
879.762	9766.11
880.08	9771.99
880.398	9714.36
880.716	9731.09
881.034	9774.47
881.352	9681.82
881.67	9710.75
881.988	9635.27
882.306	9618.09
882.624	9647.25
882.941	9524.31
883.259	9557.31
883.577	9532.67
883.894	9561.82
884.212	9515.5
884.529	9568.6
884.846	9437.53
885.164	9547.81
885.481	9393.92
885.798	9445.44
886.115	9361.83
886.432	9298.55
886.75	9370.19
887.067	9276.86
887.383	9261.49
887.7	9327.25
888.017	9212.46
888.334	9241.61
888.651	9169.29
888.967	9175.17
889.284	9176.98
889.6	9143.3
889.917	9033.93
890.233	9054.72
890.55	9094.04
890.866	9049.07
891.182	8985.57
891.498	8967.04
891.815	8952.8
892.131	8901.96
892.447	8883.42
892.763	8892.92
893.079	8870.77
893.395	8792.35
893.71	8755.97
894.026	8737.21
894.342	8733.6
894.657	8683.43
894.973	8702.64
895.289	8705.58
895.604	8616.76
895.92	8554.85
896.235	8527.5
896.55	8511.46
896.865	8506.94
897.181	8498.8
897.496	8489.99
897.811	8402.99
898.126	8384.23
898.441	8397.79
898.756	8331.8
899.071	8302.42
899.386	8292.48
899.7	8244.35
900.015	8187.62
900.33	8168.87
900.644	8088.64
900.959	8187.4
901.273	8083.22
901.588	8080.73
901.902	8094.74
902.216	8022.66
902.531	7949.21
902.845	7921.87
903.159	7893.39
903.473	7845.94
903.787	7834.64
904.101	7828.54
904.415	7778.37
904.729	7747.86
905.042	7701.53
905.356	7678.26
905.67	7646.39
905.984	7709.44
906.297	7617.24
906.611	7612.5
906.924	7487.53
907.237	7525.72
907.551	7510.81
907.864	7439.85
908.177	7461.54
908.491	7462.45
908.804	7339.28
909.117	7353.3
909.43	7282.34
909.743	7235.56
910.056	7256.12
910.368	7189.91
910.681	7238.5
910.994	7164.6
911.307	7153.75
911.619	7095.22
911.932	7127.76
912.244	7059.74
912.557	7025.85
912.869	6963.48
913.181	7010.25
913.494	6918.96
913.806	6877.83
914.118	6873.53
914.43	6797.38
914.742	6864.95
915.054	6789.24
915.366	6766.19
915.678	6700.43
915.99	6643.03
916.302	6661.56
916.613	6515.13
916.925	6620.21
917.236	6603.71
917.548	6616.37
917.859	6605.97
918.171	6547.44
918.482	6448.46
918.794	6461.79
919.105	6499.08
919.416	6386.32
919.727	6396.26
920.038	6344.28
920.349	6340.21
920.66	6287.33
920.971	6267
921.282	6306.54
921.593	6225.42
921.903	6210.95
922.214	6163.27
922.525	6207.11
922.835	6147.23
923.146	6132.76
923.456	6084.18
923.767	6039.21
924.077	6020.9
924.387	6031.3
924.697	5993.56
925.008	5969.6
925.318	5933.45
925.628	5914.69
925.938	5889.38
926.248	5875.59
926.558	5812.09
926.867	5794.24
927.177	5768.7
927.487	5759.21
927.796	5743.39
928.106	5725.54
928.416	5718.08
928.725	5695.94
929.034	5643.51
929.344	5646
929.653	5632.66
929.962	5537.98
930.271	5592.44
930.581	5563.51
930.89	5495.04
931.199	5497.07
931.508	5458.2
931.817	5458.43
932.125	5432.22
932.434	5435.83
932.743	5377.08
933.051	5323.97
933.36	5299.11
933.669	5313.35
933.977	5320.13
934.286	5261.15
934.594	5285.78
934.902	5198.1
935.21	5211.88
935.519	5231.77
935.827	5165.1
936.135	5104.09
936.443	5097.54
936.751	5076.52
937.059	5073.81
937.367	5081.26
937.674	5067.71
937.982	5068.16
938.29	4996.3
938.597	5024.77
938.905	4933.7
939.213	4930.99
939.52	4905
939.827	4893.02
940.135	4829.75
940.442	4872
940.749	4812.57
941.056	4843.08
941.363	4772.57
941.67	4764.89
941.977	4714.72
942.284	4727.6
942.591	4704.78
942.898	4698.68
943.205	4655.97
943.511	4673.14
943.818	4616.19
944.125	4651.9
944.431	4594.27
944.738	4604.67
945.044	4527.15
945.35	4516.31
945.657	4546.36
945.963	4514.73
946.269	4473.37
946.575	4515.86
946.881	4447.16
947.187	4405.12
947.493	4371.23
947.799	4365.13
948.105	4335.07
948.41	4362.87
948.716	4347.72
949.022	4293.26
949.327	4278.57
949.633	4250.78
949.938	4285.58
950.244	4247.39
950.549	4223.21
950.854	4162.42
951.16	4187.05
951.465	4143.21
951.77	4145.24
952.075	4113.38
952.38	4117.22
952.685	4052.82
952.99	4067.96
953.294	4056.43
953.599	4048.75
953.904	3992.03
954.209	3997.45
954.513	3976.89
954.818	3970.79
955.122	3985.93
955.426	3944.35
955.731	3936.66
956.035	3879.71
956.339	3910
956.643	3917
956.948	3840.62
957.252	3858.7
957.556	3800.17
957.86	3781.19
958.163	3817.12
958.467	3765.59
958.771	3752.94
959.075	3726.5
959.378	3726.95
959.682	3747.74
959.985	3688.53
960.289	3655.31
960.592	3674.3
960.896	3669.1
961.199	3680.17
961.502	3632.26
961.805	3577.8
962.108	3588.42
962.411	3566.95
962.714	3556.79
963.017	3578.48
963.32	3555.2
963.623	3488.31
963.926	3479.72
964.228	3506.84
964.531	3467.52
964.833	3477.69
965.136	3415.55
965.438	3417.35
965.741	3386.62
966.043	3392.04
966.345	3373.96
966.648	3405.38
966.95	3380.29
967.252	3353.17
967.554	3304.14
967.856	3316.79
968.158	3274.31
968.46	3275.66
968.761	3262.1
969.063	3265.49
969.365	3242.89
969.666	3243.12
969.968	3208.32
970.269	3206.29
970.571	3151.15
970.872	3182.56
971.174	3172.61
971.475	3124.93
971.776	3145.04
972.077	3143.69
972.378	3109.57
972.679	3099.4
972.98	3042.45
973.281	3054.88
973.582	3061.43
973.883	3060.98
974.183	3026.18
974.484	2995.67
974.785	2984.37
975.085	2966.52
975.386	2969.68
975.686	2986.18
975.986	2936.91
976.287	2928.55
976.587	2890.36
976.887	2938.95
977.187	2890.36
977.487	2863.47
977.787	2851.94
978.087	2837.71
978.387	2835.45
978.687	2810.14
978.987	2812.4
979.286	2802.91
979.586	2779.86
979.885	2795.68
980.185	2759.52
980.484	2769.01
980.784	2738.05
981.083	2749.35
981.382	2755.68
981.682	2727.88
981.981	2681.55
982.28	2712.06
982.579	2645.85
982.878	2667.77
983.177	2640.2
983.475	2645.4
983.774	2608.79
984.073	2615.11
984.372	2583.48
984.67	2607.43
984.969	2596.36
985.267	2589.35
985.566	2551.61
985.864	2558.85
986.162	2494.21
986.461	2553.42
986.759	2470.71
987.057	2513.65
987.355	2465.06
987.653	2497.6
987.951	2436.14
988.249	2469.13
988.547	2450.83
988.844	2456.02
989.142	2425.74
989.44	2411.73
989.737	2416.93
990.035	2356.36
990.332	2380.09
990.63	2354.78
990.927	2377.61
991.224	2347.78
991.521	2311.85
991.819	2308.46
992.116	2328.12
992.413	2282.24
992.71	2291.06
993.006	2282.69
993.303	2264.62
993.6	2276.37
993.897	2249.93
994.193	2260.32
994.49	2220.55
994.787	2234.79
995.083	2206.99
995.379	2147.1
995.676	2168.8
995.972	2178.97
996.268	2173.09
996.565	2138.29
996.861	2129.48
997.157	2141.91
997.453	2127.67
997.749	2090.83
998.044	2093.77
998.34	2089.7
998.636	2070.04
998.932	2058.29
999.227	2037.5
999.523	2036.15
999.818	2057.62
1000.114	2005.87
1000.409	1996.37
1000.704	2009.03
1001	2004.06
1001.295	1976.04
1001.59	1986.66
1001.885	1979.65
1002.18	1955.47
1002.475	1942.82
1002.77	1915.92
1003.065	1919.09
1003.359	1921.8
1003.654	1903.5
1003.949	1866.66
1004.243	1894.68
1004.538	1848.58
1004.832	1858.75
1005.127	1846.55
1005.421	1818.3
1005.715	1830.5
1006.009	1815.81
1006.304	1828.69
1006.598	1768.36
1006.892	1814.01
1007.186	1780.33
1007.48	1780.56
1007.773	1770.17
1008.067	1751.86
1008.361	1734.01
1008.655	1743.73
1008.948	1731.75
1009.242	1705.99
1009.535	1726.55
1009.829	1688.13
1010.122	1661.47
1010.415	1679.77
1010.708	1649.49
1011.001	1647.46
1011.295	1641.58
1011.588	1592.77
1011.881	1618.76
1012.173	1609.94
1012.466	1616.95
1012.759	1612.43
1013.052	1569.72
1013.344	1556.39
1013.637	1555.48
1013.93	1551.87
1014.222	1547.35
1014.514	1546.89
1014.807	1547.8
1015.099	1508.25
1015.391	1531.3
1015.683	1514.35
1015.976	1499.89
1016.268	1487.46
1016.56	1473.9
1016.851	1471.64
1017.143	1463.05
1017.435	1449.27
1017.727	1432.32
1018.018	1454.92
1018.31	1416.05
1018.602	1463.28
1018.893	1397.97
1019.185	1406.79
1019.476	1387.35
1019.767	1371.08
1020.058	1380.12
1020.35	1332.44
1020.641	1362.49
1020.932	1342.61
1021.223	1363.85
1021.514	1301.25
1021.804	1326.56
1022.095	1305.54
1022.386	1313.91
1022.677	1282.95
1022.967	1259.22
1023.258	1267.35
1023.548	1291.53
1023.839	1264.64
1024.129	1241.37
1024.419	1238.2
1024.709	1203.63
1025	1214.93
1025.29	1249.95
1025.58	1231.2
1025.87	1223.74
1026.16	1176.51
1026.449	1179.9
1026.739	1173.34
1027.029	1204.3
1027.319	1176.73
1027.608	1161.14
1027.898	1175.6
1028.187	1136.74
1028.477	1137.41
1028.766	1143.74
1029.055	1129.05
1029.344	1141.71
1029.634	1112.56
1029.923	1120.69
1030.212	1091.77
1030.501	1095.15
1030.79	1067.81
1031.078	1075.49
1031.367	1078.88
1031.656	1049.73
1031.945	1044.31
1032.233	1025.55
1032.522	1046.79
1032.81	1025.1
1033.099	1052.67
1033.387	1028.26
1033.675	1042.5
1033.963	1014.93
1034.251	1000.69
1034.54	1006.57
1034.828	968.15
1035.116	1003.41
1035.403	987.36
1035.691	963.18
1035.979	981.03
1036.267	937.87
1036.554	961.37
1036.842	969.96
1037.129	943.97
1037.417	928.15
1037.704	909.62
1037.992	916.85
1038.279	901.04
1038.566	918.66
1038.853	918.66
1039.14	918.66
