Data from hue_330_FLMS001491_62.txt Node
Date: Mon Feb 06 15:45:43 GMT 2017
User: dcchb
Spectrometer: FLMS00149
Trigger mode: 0
Integration Time (sec): 2.000000E-2
Scans to average: 10
Electric dark correction enabled: true
Nonlinearity correction enabled: false
Boxcar width: 0
XAxis mode: Wavelengths
Number of Pixels in Spectrum: 2048
>>>>>Begin Spectral Data<<<<<
341.393	-24.26
341.776	-24.26
342.16	-24.26
342.543	-53.19
342.927	-87.77
343.31	-77.37
343.693	-69.24
344.077	-37.37
344.46	-64.72
344.843	-69.91
345.226	-54.77
345.61	-17.71
345.993	-19.52
346.376	-22.68
346.759	5.79
347.142	21.84
347.525	42.4
347.908	44.66
348.291	81.5
348.674	104.32
349.057	132.79
349.44	129.63
349.823	152.91
350.206	156.07
350.588	211.66
350.971	211.44
351.354	205.79
351.737	222.06
352.119	234.26
352.502	264.54
352.884	278.78
353.267	301.15
353.65	260.02
354.032	296.86
354.414	296.18
354.797	305.44
355.179	312.22
355.562	316.07
355.944	312.68
356.326	326.23
356.709	320.81
357.091	332.56
357.473	361.49
357.855	329.17
358.238	333.69
358.62	340.02
359.002	340.02
359.384	332.79
359.766	339.34
360.148	327.14
360.53	327.36
360.912	325.78
361.294	331.43
361.676	328.95
362.057	328.04
362.439	322.62
362.821	293.24
363.203	300.7
363.584	311.77
363.966	322.17
364.348	319.91
364.729	312.22
365.111	319.68
365.493	328.04
365.874	313.58
366.256	308.38
366.637	318.78
367.019	308.83
367.4	315.84
367.781	306.35
368.163	302.51
368.544	317.87
368.925	298.66
369.306	324.88
369.688	293.01
370.069	311.09
370.45	294.6
370.831	302.96
371.212	304.54
371.593	319.23
371.974	322.17
372.355	277.42
372.736	314.26
373.117	291.88
373.498	313.81
373.879	276.97
374.26	300.92
374.641	309.51
375.021	302.96
375.402	309.74
375.783	315.61
376.163	320.58
376.544	319.91
376.925	310.64
377.305	319.91
377.686	324.65
378.066	321.26
378.447	333.24
378.827	324.43
379.208	323.52
379.588	321.94
379.968	317.87
380.349	363.52
380.729	329.4
381.109	330.3
381.489	331.66
381.87	345.44
382.25	322.39
382.63	343.86
383.01	344.54
383.39	347.7
383.77	333.69
384.15	302.05
384.53	340.7
384.91	340.92
385.29	351.09
385.67	331.43
386.049	343.18
386.429	306.12
386.809	352.22
387.189	340.02
387.568	352.9
387.948	329.85
388.328	358.1
388.707	344.09
389.087	330.98
389.466	363.07
389.846	340.02
390.225	358.55
390.605	348.61
390.984	357.87
391.363	346.57
391.743	347.93
392.122	376.63
392.501	370.53
392.881	365.33
393.26	357.87
393.639	370.75
394.018	343.64
394.397	357.42
394.776	354.03
395.155	355.16
395.534	375.05
395.913	369.85
396.292	363.07
396.671	368.72
397.05	369.85
397.429	359
397.808	363.75
398.186	384.09
398.565	378.21
398.944	393.13
399.323	396.06
399.701	399.23
400.08	392.45
400.458	381.6
400.837	413.46
401.215	397.87
401.594	384.76
401.972	385.67
402.351	380.92
402.729	383.63
403.107	397.19
403.486	426.34
403.864	413.01
404.242	408.49
404.62	403.75
404.999	391.32
405.377	412.56
405.755	431.99
406.133	399.9
406.511	434.48
406.889	445.78
407.267	427.47
407.645	428.15
408.023	445.78
408.401	425.44
408.779	425.67
409.156	451.65
409.534	429.73
409.912	440.58
410.29	472.9
410.667	467.47
411.045	470.19
411.422	443.07
411.8	485.1
412.178	471.77
412.555	485.78
412.933	508.38
413.31	484.42
413.687	488.94
414.065	502.73
414.442	501.15
414.819	504.53
415.197	502.73
415.574	521.94
415.951	534.14
416.328	521.03
416.705	525.33
417.082	533.01
417.46	554.48
417.837	544.31
418.214	558.54
418.591	574.36
418.967	569.17
419.344	589.96
419.721	576.17
420.098	571.2
420.475	590.86
420.852	615.27
421.228	605.32
421.605	585.66
421.982	622.27
422.358	618.88
422.735	634.93
423.111	630.63
423.488	624.98
423.864	617.75
424.241	653.68
424.617	641.48
424.994	658.2
425.37	653.68
425.746	664.76
426.123	694.13
426.499	686.22
426.875	687.81
427.251	677.41
427.627	691.65
428.003	698.65
428.379	729.61
428.756	715.83
429.132	721.03
429.507	736.85
429.883	732.33
430.259	754.92
430.635	738.88
431.011	759.22
431.387	778.88
431.763	785.66
432.138	798.99
432.514	789.95
432.89	806
433.265	834.92
433.641	816.16
434.016	810.97
434.392	854.81
434.767	844.64
435.143	829.72
435.518	829.27
435.894	862.72
436.269	874.02
436.644	881.47
437.02	879.67
437.395	874.24
437.77	891.19
438.145	926.67
438.52	913.79
438.895	921.7
439.271	912.66
439.646	937.74
440.021	949.27
440.395	924.64
440.77	951.53
441.145	946.78
441.52	984.52
441.895	971.19
442.27	960.79
442.645	977.52
443.019	963.05
443.394	994.92
443.769	987.23
444.143	984.3
444.518	999.66
444.892	1007.12
445.267	997.63
445.641	998.08
446.016	986.33
446.39	1049.83
446.764	1060.45
447.139	1034.24
447.513	1022.26
447.887	1030.4
448.262	1059.32
448.636	1045.54
449.01	1031.07
449.384	1047.8
449.758	1073.56
450.132	1062.71
450.506	1073.33
450.88	1066.78
451.254	1049.38
451.628	1054.58
452.002	1091.19
452.376	1104.52
452.75	1106.55
453.123	1092.32
453.497	1139.55
453.871	1108.81
454.244	1134.35
454.618	1143.61
454.992	1153.78
455.365	1158.3
455.739	1173.22
456.112	1165.76
456.486	1176.16
456.859	1175.25
457.232	1208.25
457.606	1212.76
457.979	1202.14
458.352	1245.53
458.725	1204.63
459.099	1241.92
459.472	1276.49
459.845	1259.77
460.218	1287.11
460.591	1291.18
460.964	1290.28
461.337	1310.39
461.71	1295.93
462.083	1311.07
462.456	1323.72
462.829	1315.59
463.201	1342.93
463.574	1333.67
463.947	1360.56
464.32	1370.05
464.692	1394.91
465.065	1392.65
465.438	1369.82
465.81	1404.62
466.183	1434.68
466.555	1465.87
466.928	1493.21
467.3	1474.68
467.672	1462.25
468.045	1509.48
468.417	1477.84
468.789	1535.92
469.161	1508.35
469.534	1543.6
469.906	1561.23
470.278	1578.18
470.65	1601.91
471.022	1614.11
471.394	1641.68
471.766	1621.12
472.138	1635.8
472.51	1699.31
472.882	1701.34
473.253	1729.59
473.625	1757.84
473.997	1766.42
474.369	1755.35
474.74	1788.12
475.112	1784.28
475.484	1822.92
475.855	1851.62
476.227	1869.24
476.598	1903.14
476.97	1908.57
477.341	1923.71
477.713	1986.53
478.084	1984.04
478.455	2029.92
478.827	1994.44
479.198	2047.77
479.569	2083.25
479.94	2157.82
480.311	2128.67
480.682	2183.59
481.053	2224.72
481.424	2223.36
481.795	2241.89
482.166	2269.23
482.537	2285.96
482.908	2353.75
483.279	2367.99
483.65	2410.02
484.021	2455.67
484.391	2444.14
484.762	2455.67
485.133	2475.78
485.503	2525.27
485.874	2580.41
486.244	2597.81
486.615	2596.01
486.985	2615.67
487.356	2685.49
487.726	2684.59
488.097	2730.46
488.467	2735.21
488.837	2786.28
489.207	2783.57
489.578	2849.33
489.948	2875.32
490.318	2903.57
490.688	2883.23
491.058	2929.78
491.428	2995.77
491.798	3038.71
492.168	3055.43
492.538	3039.16
492.908	3035.77
493.278	3104.69
493.648	3117.8
494.017	3174.97
494.387	3156.44
494.757	3167.06
495.126	3204.8
495.496	3221.07
495.866	3219.27
496.235	3240.96
496.605	3263.11
496.974	3295.2
497.344	3313.05
497.713	3306.27
498.082	3373.39
498.452	3401.63
498.821	3400.05
499.19	3427.85
499.559	3384.69
499.928	3479.15
500.298	3461.52
500.667	3482.31
501.036	3471.69
501.405	3517.11
501.774	3508.52
502.143	3548.75
502.512	3586.94
502.88	3564.12
503.249	3574.51
503.618	3601.18
503.987	3597.79
504.356	3601.63
504.724	3622.42
505.093	3650.44
505.462	3647.5
505.83	3666.03
506.199	3705.13
506.567	3708.29
506.936	3685.47
507.304	3717.56
507.672	3740.16
508.041	3785.13
508.409	3761.85
508.777	3812.24
509.145	3808.4
509.514	3829.87
509.882	3846.14
510.25	3863.09
510.618	3821.96
510.986	3829.42
511.354	3853.83
511.722	3905.58
512.09	3896.08
512.458	3919.36
512.826	3932.02
513.193	3931.34
513.561	3957.1
513.929	3978.79
514.297	4015.63
514.664	4007.27
515.032	4001.17
515.4	4042.97
515.767	4009.08
516.135	4053.82
516.502	3995.29
516.869	4057.89
517.237	4106.25
517.604	4061.5
517.972	4080.71
518.339	4133.14
518.706	4156.42
519.073	4130.43
519.44	4142.86
519.808	4161.16
520.175	4129.3
520.542	4176.53
520.909	4206.13
521.276	4204.1
521.643	4218.79
522.009	4222.4
522.376	4266.24
522.743	4292.68
523.11	4220.6
523.477	4265.79
523.843	4337.88
524.21	4400.48
524.577	4340.82
524.943	4396.18
525.31	4415.62
525.676	4402.29
526.043	4423.08
526.409	4454.26
526.776	4515.95
527.142	4494.71
527.508	4555.5
527.874	4582.62
528.241	4597.53
528.607	4558.67
528.973	4623.3
529.339	4637.76
529.705	4650.87
530.071	4689.96
530.437	4666.23
530.803	4712.79
531.169	4707.59
531.535	4755.95
531.901	4810.18
532.267	4746.91
532.632	4813.35
532.998	4844.99
533.364	4859.67
533.73	4848.15
534.095	4876.85
534.461	4875.49
534.826	4904.87
535.192	4960.91
535.557	4928.6
535.923	4984.42
536.288	4998.43
536.653	5071.42
537.019	4996.85
537.384	5038.43
537.749	5076.84
538.114	5121.36
538.479	5126.11
538.845	5146.9
539.21	5132.44
539.575	5142.15
539.94	5204.98
540.305	5197.52
540.67	5202.49
541.034	5268.48
541.399	5288.14
541.764	5300.57
542.129	5287.69
542.494	5273
542.858	5320.68
543.223	5306.44
543.587	5374.46
543.952	5389.15
544.316	5408.13
544.681	5345.76
545.045	5434.57
545.41	5509.15
545.774	5527
546.138	5501.01
546.503	5551.86
546.867	5582.59
547.231	5593.21
547.595	5549.83
547.959	5633.89
548.324	5621.91
548.688	5700.78
549.052	5716.15
549.416	5721.12
549.779	5738.52
550.143	5708.92
550.507	5821.46
550.871	5782.59
551.235	5795.24
551.599	5799.76
551.962	5810.61
552.326	5865.98
552.689	5838.63
553.053	5839.08
553.417	5899.65
553.78	5954.56
554.143	5944.62
554.507	6025.29
554.87	5950.95
555.234	6067.55
555.597	5987.33
555.96	6037.04
556.323	6040.21
556.686	6015.58
557.05	6129.92
557.413	6133.31
557.776	6102.58
558.139	6101
558.502	6123.6
558.865	6163.59
559.228	6249.69
559.59	6207.21
559.953	6249.24
560.316	6281.56
560.679	6257.83
561.041	6305.74
561.404	6309.58
561.767	6326.3
562.129	6357.04
562.492	6398.84
562.854	6413.31
563.217	6400.2
563.579	6459.41
563.941	6427.54
564.304	6424.83
564.666	6529.69
565.028	6503.47
565.39	6519.97
565.753	6603.36
566.115	6597.26
566.477	6620.98
566.839	6627.99
567.201	6675.45
567.563	6628.44
567.925	6733.07
568.287	6703.24
568.648	6726.52
569.01	6820.07
569.372	6771.71
569.734	6754.31
570.095	6806.74
570.457	6878.15
570.819	6923.8
571.18	6928.77
571.542	6978.71
571.903	6954.08
572.265	7076.57
572.626	7076.11
572.987	7095.32
573.349	7153.85
573.71	7174.42
574.071	7220.29
574.432	7235.21
574.794	7345.03
575.155	7315.88
575.516	7367.63
575.877	7450.79
576.238	7587.29
576.599	7570.34
576.96	7652.37
577.32	7725.59
577.681	7836.77
578.042	7905.02
578.403	7903.21
578.763	7986.6
579.124	8158.34
579.485	8222.3
579.845	8323.31
580.206	8371.67
580.566	8474.95
580.927	8606.02
581.287	8765.33
581.648	8833.81
582.008	8925.56
582.368	9116.96
582.728	9196.74
583.089	9354.02
583.449	9546.33
583.809	9655.25
584.169	9803.27
584.529	10005.75
584.889	10260.89
585.249	10340.43
585.609	10553.54
585.969	10817.71
586.329	10909.46
586.688	11100.41
587.048	11364.36
587.408	11483
587.768	11697.69
588.127	11976.1
588.487	12188.52
588.846	12575.63
589.206	12593.48
589.565	12932.91
589.925	13171.09
590.284	13359.11
590.643	13689.5
591.003	13888.36
591.362	14224.17
591.721	14510.95
592.08	14627.78
592.44	15061.89
592.799	15313.41
593.158	15527.42
593.517	15869.33
593.876	16103.9
594.235	16295.98
594.593	16627.73
594.952	16974.16
595.311	17270.87
595.67	17640.81
596.029	17893.91
596.387	18101.59
596.746	18512.65
597.104	18716.71
597.463	19028.57
597.822	19499.74
598.18	19601.66
598.538	19810.47
598.897	20143.11
599.255	20419.27
599.613	21017.89
599.972	20970.66
600.33	21434.15
600.688	21608.16
601.046	22070.52
601.404	22305.09
601.762	22598.64
602.12	22895.36
602.478	23124.28
602.836	23411.05
603.194	23467.77
603.552	23793.87
603.91	23916.57
604.268	24304.36
604.625	24509.55
604.983	24889.43
605.341	24927.62
605.698	25418
606.056	25713.14
606.413	25927.37
606.771	26206.91
607.128	26316.51
607.485	26461.82
607.843	26748.59
608.2	27057.06
608.557	27296.37
608.914	27522.58
609.272	27849.58
609.629	28090.7
609.986	28373.41
610.343	28350.58
610.7	28802.1
611.057	28796.67
611.414	29063.78
611.771	29292.48
612.127	29579.7
612.484	29753.94
612.841	30032.35
613.198	29949.41
613.554	30207.48
613.911	30528.15
614.267	30588.49
614.624	30786.22
614.98	30973.11
615.337	31332.65
615.693	31367.45
616.05	31383.27
616.406	31698.74
616.762	31822.58
617.118	31866.42
617.475	32125.4
617.831	32227.99
618.187	32526.74
618.543	32489
618.899	32756.34
619.255	32929.22
619.611	32920.63
619.967	33236.33
620.323	33325.14
620.678	33348.19
621.034	33454.4
621.39	33502.09
621.746	33603.1
622.101	34026.59
622.457	33843.32
622.812	33974.39
623.168	34156.53
623.523	34131.9
623.879	34396.98
624.234	34208.28
624.589	34471.33
624.945	34585.67
625.3	34604.2
625.655	34675.16
626.01	34840.13
626.365	34892.78
626.72	34891.2
627.075	34968.71
627.43	34944.53
627.785	35049.84
628.14	35183.17
628.495	35334.58
628.85	35289.61
629.205	35121.03
629.559	35449.38
629.914	35325.99
630.269	35464.75
630.623	35465.88
630.978	35356.05
631.332	35558.98
631.687	35636.04
632.041	35651.63
632.396	35809.14
632.75	35651.18
633.104	35693.89
633.459	35581.35
633.813	35633.78
634.167	35787.67
634.521	35605.76
634.875	35798.52
635.229	35839.65
635.583	35531.64
635.937	35633.55
636.291	35684.4
636.645	35726.21
636.999	35610.05
637.352	35866.09
637.706	35672.42
638.06	35822.02
638.413	35774.12
638.767	35575.25
639.121	35767.34
639.474	35691.41
639.828	35706.55
640.181	35803.04
640.534	35708.13
640.888	35660.67
641.241	35520.34
641.594	35739.31
641.947	35728.47
642.301	35542.03
642.654	35717.17
643.007	35632.88
643.36	35709.71
643.713	35536.61
644.066	35785.87
644.419	35394.01
644.771	35352.66
645.124	34962.61
645.477	34936.4
645.83	34882.61
646.182	34627.93
646.535	34662.51
646.888	34567.59
647.24	34567.59
647.593	34680.36
647.945	34622.28
648.298	34453.25
648.65	34337.77
649.002	34314.27
649.355	34521.95
649.707	34309.07
650.059	34600.14
650.411	34983.85
650.763	35003.51
651.115	35365.77
651.467	35236.28
651.819	35255.26
652.171	35192.44
652.523	35204.41
652.875	35192.44
653.227	34950.18
653.578	35396.5
653.93	35388.14
654.282	34958.09
654.633	35071.54
654.985	35032.44
655.337	35142.72
655.688	35059.78
656.039	35165.09
656.391	34847.81
656.742	34945.66
657.094	35014.14
657.445	35093.46
657.796	34964.19
658.147	34972.56
658.498	35042.38
658.849	35041.25
659.2	35003.51
659.551	34844.2
659.902	35013.01
660.253	34970.97
660.604	35053.91
660.955	34901.14
661.306	34898.88
661.656	34828.38
662.007	34854.37
662.358	34782.73
662.708	34871.31
663.059	34924.42
663.409	34651.21
663.76	34943.86
664.11	34834.93
664.461	35026.11
664.811	34937.75
665.161	34903.63
665.511	34784.99
665.862	34964.42
666.212	34881.26
666.562	34974.59
666.912	34773.92
667.262	34909.51
667.612	34783.86
667.962	34973.46
668.312	34815.72
668.662	35035.6
669.011	34863.86
669.361	34892.56
669.711	34800.13
670.06	34764.2
670.41	34682.85
670.76	34656.63
671.109	34729.85
671.459	34787.02
671.808	34743.41
672.157	34788.83
672.507	34489.63
672.856	34541.83
673.205	34598.55
673.554	34795.38
673.904	34527.14
674.253	34705.22
674.602	34571.89
674.951	34076.08
675.3	34056.87
675.649	34490.08
675.998	34403.76
676.346	34297.32
676.695	34513.13
677.044	34357.43
677.393	34340.71
677.741	34477.43
678.09	34278.79
678.438	34197.66
678.787	34205.12
679.135	34373.02
679.484	34041.51
679.832	34336.41
680.181	34072.24
680.529	34313.14
680.877	34143.65
681.225	34214.38
681.573	34222.07
681.922	34004.44
682.27	33951.34
682.618	33859.82
682.966	33851.45
683.314	33919.02
683.661	33801.06
684.009	33661.4
684.357	33559.26
684.705	33419.83
685.053	33654.17
685.4	33477.91
685.748	33399.72
686.095	33386.83
686.443	33285.14
686.79	33290.57
687.138	33270.23
687.485	33237.69
687.832	33111.14
688.18	33114.07
688.527	32966.05
688.874	32984.58
689.221	32934.42
689.568	32870.46
689.915	32778.26
690.262	32798.37
690.609	32702.56
690.956	32571.04
691.303	32435.22
691.65	32422.79
691.997	32461.43
692.344	32314.77
692.69	32233.19
693.037	32263.02
693.383	32092.86
693.73	32113.2
694.077	31946.42
694.423	31959.07
694.769	31807.89
695.116	31772.64
695.462	31737.39
695.808	31633.21
696.155	31792.07
696.501	31363.61
696.847	31422.14
697.193	31281.13
697.539	31290.17
697.885	31117.74
698.231	30944.41
698.577	31035.71
698.923	30914.13
699.269	30863.74
699.614	30650.63
699.96	30572.44
700.306	30650.63
700.651	30519.79
700.997	30328.61
701.342	30392.11
701.688	30342.39
702.033	30260.36
702.379	30232.11
702.724	30052.23
703.069	30139.91
703.415	29833.03
703.76	29787.61
704.105	29882.52
704.45	29760.49
704.795	29711.9
705.14	29619.25
705.485	29514.39
705.83	29337.9
706.175	29547.16
706.52	29344.91
706.865	29284.79
707.209	29155.31
707.554	29078.02
707.899	29172.71
708.243	29030.34
708.588	29003.67
708.932	28794.64
709.277	28805.71
709.621	28850.23
709.966	28598.03
710.31	28685.71
710.654	28469.9
710.998	28504.93
711.342	28504.7
711.687	28308.55
712.031	28232.17
712.375	28189.68
712.719	28206.41
713.063	28163.92
713.407	28175.22
713.75	28078.05
714.094	28043.47
714.438	27890.93
714.782	28052.96
715.125	27784.27
715.469	27784.5
715.812	27705.18
716.156	27544.73
716.499	27653.65
716.843	27692.75
717.186	27429.02
717.53	27518.29
717.873	27651.84
718.216	27496.82
718.559	27340.21
718.902	27222.48
719.246	27266.54
719.589	27142.93
719.932	27071.29
720.275	27152.2
720.617	27050.5
720.96	26914.91
721.303	26946.55
721.646	26932.77
721.989	26720.57
722.331	26886.21
722.674	26794.92
723.016	26777.29
723.359	26781.81
723.701	26763.51
724.044	26445.55
724.386	26410.29
724.729	26622.49
725.071	26493
725.413	26457.75
725.755	26366.68
726.097	26316.51
726.439	26236.51
726.782	26187.02
727.124	26292.33
727.465	26232.22
727.807	26127.14
728.149	26167.14
728.491	26094.14
728.833	25910.65
729.175	25857.99
729.516	25880.82
729.858	25951.55
730.199	25915.62
730.541	25793.36
730.882	25745.23
731.224	25910.42
731.565	25586.59
731.906	25666.13
732.248	25684.66
732.589	25614.61
732.93	25501.62
733.271	25498.91
733.612	25561.95
733.953	25467.95
734.294	25415.07
734.635	25401.06
734.976	25432.24
735.317	25251
735.658	25206.03
735.999	25282.64
736.339	25217.33
736.68	25177.11
737.021	25102.08
737.361	25054.85
737.702	25054.85
738.042	25097.33
738.383	25063.44
738.723	25021.86
739.063	24931.01
739.404	24834.06
739.744	24850.11
740.084	24716.1
740.424	24874.29
740.764	24696.22
741.104	24855.98
741.444	24676.55
741.784	24560.85
742.124	24668.65
742.464	24662.32
742.804	24436.33
743.143	24550
743.483	24471.14
743.823	24305.04
744.162	24337.35
744.502	24440.18
744.841	24210.58
745.181	24369.67
745.52	24285.6
745.86	24259.62
746.199	24240.18
746.538	24252.84
746.877	24173.06
747.216	24210.35
747.556	24059.62
747.895	24147.08
748.234	23929
748.573	23949.79
748.911	23979.17
749.25	23918.61
749.589	23813.75
749.928	23819.63
750.267	23908.21
750.605	23773.08
750.944	23587.09
751.283	23646.98
751.621	23685.85
751.96	23597.71
752.298	23478.17
752.636	23437.72
752.975	23401.33
753.313	23395.23
753.651	23447.21
753.989	23253.32
754.327	23248.8
754.666	23131.06
755.004	23118.18
755.342	23158.4
755.679	22983.94
756.017	22973.77
756.355	22969.03
756.693	22893.78
757.031	22933.55
757.368	22811.52
757.706	22691.75
758.044	22734.68
758.381	22714.12
758.719	22599.55
759.056	22550.28
759.394	22568.14
759.731	22359.33
760.068	22354.13
760.405	22222.83
760.743	22190.74
761.08	22219.9
761.417	22033.01
761.754	22113.23
762.091	22031.65
762.428	21955.95
762.765	21764.31
763.102	21833.24
763.438	21727.48
763.775	21729.51
764.112	21597.77
764.449	21703.3
764.785	21508.73
765.122	21452.46
765.458	21326.81
765.795	21262.41
766.131	21254.95
766.467	21163.2
766.804	21089.08
767.14	20975.41
767.476	20933.6
767.812	20889.31
768.148	20847.28
768.485	20787.17
768.821	20699.03
769.157	20687.96
769.492	20612.93
769.828	20535.19
770.164	20419.72
770.5	20288.65
770.836	20325.03
771.171	20149.44
771.507	20174.3
771.842	20027.64
772.178	20009.11
772.513	19996.45
772.849	19902.22
773.184	19877.81
773.519	19856.57
773.855	19639.17
774.19	19679.17
774.525	19605.5
774.86	19520.76
775.195	19478.73
775.53	19376.35
775.865	19284.38
776.2	19218.84
776.535	19106.08
776.87	19083.93
777.205	19034.22
777.539	18896.82
777.874	18988.57
778.209	18769.14
778.543	18683.72
778.878	18595.13
779.212	18634.45
779.547	18449.83
779.881	18519.43
780.215	18357.17
780.55	18461.12
780.884	18218.42
781.218	18187.91
781.552	18329.15
781.886	18121.25
782.22	18006.22
782.554	17930.97
782.888	17835.38
783.222	17736.85
783.556	17686.23
783.889	17615.27
784.223	17425.67
784.557	17430.19
784.89	17459.34
785.224	17418.21
785.557	17272.46
785.891	17275.62
786.224	17177.09
786.558	17220.71
786.891	17071.78
787.224	17015.74
787.557	16960.6
787.891	16895.29
788.224	17010.54
788.557	16986.36
788.89	16800.38
789.223	16864.56
789.556	16644.9
789.888	16585.24
790.221	16571.91
790.554	16412.59
790.887	16490.56
791.219	16356.1
791.552	16227.96
791.884	16211.69
792.217	16178.92
792.549	16155.2
792.882	16042.88
793.214	15895.77
793.546	16027.74
793.879	15933.73
794.211	15815.09
794.543	15838.59
794.875	15799.5
795.207	15786.84
795.539	15704.59
795.871	15674.98
796.203	15480.64
796.535	15521.77
796.867	15424.37
797.198	15401.54
797.53	15409.45
797.862	15288.55
798.193	15256.24
798.525	15136.92
798.856	15151.38
799.188	15039.52
799.519	15076.58
799.85	14984.83
800.182	15033.42
800.513	14987.32
800.844	14792.75
801.175	14849.02
801.506	14906.87
801.837	14720.21
802.168	14724.05
802.499	14608.57
802.83	14608.57
803.161	14592.75
803.491	14530.83
803.822	14403.38
804.153	14476.6
804.483	14275.25
804.814	14303.49
805.145	14266.43
805.475	14238.86
805.805	14198.86
806.136	14186.43
806.466	14188.24
806.796	14068.92
807.126	14017.85
807.457	13985.76
807.787	14027.79
808.117	13917.74
808.447	13945.76
808.777	13971.07
809.107	13859.66
809.436	13789.61
809.766	13778.99
810.096	13764.53
810.426	13777.41
810.755	13633.46
811.085	13659.67
811.414	13533.12
811.744	13513.91
812.073	13531.76
812.403	13550.29
812.732	13424.42
813.061	13406.79
813.39	13203.18
813.719	13306.23
814.049	13274.37
814.378	13251.09
814.707	13203.18
815.036	13176.97
815.365	13136.52
815.693	13010.42
816.022	13045.67
816.351	12990.08
816.68	12920.93
817.008	13005.22
817.337	12875.28
817.665	12826.7
817.994	12889.52
818.322	12871.44
818.651	12722.07
818.979	12710.77
819.307	12793.7
819.636	12664.44
819.964	12613.37
820.292	12699.92
820.62	12678.45
820.948	12629.41
821.276	12709.64
821.604	12647.72
821.932	12632.8
822.259	12609.53
822.587	12567.49
822.915	12558.91
823.243	12580.6
823.57	12511.22
823.898	12512.58
824.225	12468.51
824.553	12575.4
824.88	12538.12
825.207	12586.25
825.535	12522.3
825.862	12603.2
826.189	12449.08
826.516	12546.48
826.843	12574.73
827.17	12537.66
827.497	12554.39
827.824	12439.81
828.151	12614.5
828.478	12545.35
828.805	12518
829.131	12511.9
829.458	12541.28
829.785	12445.46
830.111	12517.33
830.438	12534.73
830.764	12521.39
831.09	12542.18
831.417	12452.47
831.743	12486.82
832.069	12462.64
832.395	12442.3
832.722	12518.68
833.048	12454.28
833.374	12478.46
833.7	12320.72
834.026	12409.53
834.351	12391.45
834.677	12313.04
835.003	12461.28
835.329	12408.63
835.654	12405.46
835.98	12279.82
836.306	12287.95
836.631	12293.38
836.956	12315.75
837.282	12278.91
837.607	12214.51
837.932	12201.63
838.258	12228.75
838.583	12122.53
838.908	12134.96
839.233	12096.77
839.558	12144.45
839.883	12026.04
840.208	12031.46
840.533	12048.86
840.858	12040.73
841.182	12038.47
841.507	11967.28
841.832	11862.65
842.156	11927.96
842.481	11859.94
842.805	11910.34
843.13	11833.05
843.454	11811.58
843.778	11764.13
844.103	11772.49
844.427	11683.22
844.751	11752.15
845.075	11639.61
845.399	11593.73
845.723	11567.29
846.047	11558.26
846.371	11453.17
846.695	11476.45
847.019	11371.82
847.343	11288.43
847.666	11315.1
847.99	11228.32
848.313	11263.12
848.637	11217.47
848.96	11187.42
849.284	11054.31
849.607	11006.41
849.931	11027.65
850.254	10964.15
850.577	10912.62
850.9	10771.84
851.223	10818.16
851.546	10801.89
851.869	10677.83
852.192	10718.28
852.515	10605.29
852.838	10635.12
853.161	10606.64
853.483	10536.14
853.806	10491.39
854.129	10434.22
854.451	10416.59
854.774	10394.22
855.096	10314.45
855.419	10331.85
855.741	10260.44
856.063	10226.76
856.385	10164.62
856.708	10125.3
857.03	10138.18
857.352	10192.87
857.674	10145.41
857.996	10018.18
858.318	9976.15
858.64	10032.65
858.961	10020.44
859.283	9968.92
859.605	9903.84
859.926	9944.74
860.248	9846.44
860.57	9836.94
860.891	9855.48
861.212	9776.61
861.534	9712.43
861.855	9742.48
862.176	9725.76
862.498	9775.7
862.819	9700.9
863.14	9673.33
863.461	9632.66
863.782	9597.4
864.103	9603.73
864.424	9604.41
864.745	9574.58
865.065	9571.87
865.386	9573.67
865.707	9510.4
866.027	9531.42
866.348	9470.85
866.668	9459.1
866.989	9448.03
867.309	9440.57
867.63	9429.72
867.95	9398.76
868.27	9397.86
868.59	9421.81
868.91	9339.78
869.23	9383.4
869.55	9293.23
869.87	9382.72
870.19	9319.44
870.51	9337.75
870.83	9288.71
871.15	9262.04
871.469	9208.49
871.789	9246.9
872.109	9224.31
872.428	9213.68
872.748	9255.72
873.067	9190.41
873.386	9202.16
873.706	9157.41
874.025	9183.18
874.344	9064.99
874.663	9087.59
874.982	9084.87
875.301	9041.26
875.62	9029.96
875.939	9055.72
876.258	9060.47
876.577	8982.96
876.896	9021.15
877.214	8973.01
877.533	8969.85
877.852	8960.13
878.17	8937.08
878.489	8947.48
878.807	8914.71
879.125	8931.88
879.444	8909.29
879.762	8872.22
880.08	8884.65
880.398	8761.04
880.716	8860.47
881.034	8776.18
881.352	8708.61
881.67	8819.34
881.988	8746.58
882.306	8714.04
882.624	8700.48
882.941	8629.97
883.259	8653.92
883.577	8593.14
883.894	8637.2
884.212	8589.29
884.529	8563.76
884.846	8569.63
885.164	8485.34
885.481	8526.02
885.798	8521.95
886.115	8455.51
886.432	8485.79
886.75	8400.6
887.067	8447.38
887.383	8385.23
887.7	8438.11
888.017	8387.04
888.334	8316.98
888.651	8327.83
888.967	8302.75
889.284	8281.28
889.6	8247.38
889.917	8195.41
890.233	8207.61
890.55	8177.55
890.866	8167.84
891.182	8144.33
891.498	8135.75
891.815	8107.5
892.131	8049.87
892.447	8012.59
892.763	8013.49
893.079	7957.22
893.395	7951.34
893.71	7888.75
894.026	7908.41
894.342	7904.57
894.657	7816.21
894.973	7852.59
895.289	7879.03
895.604	7789.09
895.92	7754.06
896.235	7726.27
896.55	7754.74
896.865	7742.31
897.181	7683.33
897.496	7703.44
897.811	7624.57
898.126	7585.25
898.441	7590.45
898.756	7566.5
899.071	7464.13
899.386	7472.94
899.7	7482.2
900.015	7449.66
900.33	7362.21
900.644	7422.09
900.959	7400.85
901.273	7377.57
901.588	7350
901.902	7251.48
902.216	7262.32
902.531	7218.26
902.845	7193.85
903.159	7110.24
903.473	7117.92
903.787	7105.72
904.101	7037.02
904.415	7078.83
904.729	7053.97
905.042	7018.49
905.356	7056.9
905.67	6973.97
905.984	6953.4
906.297	6898.72
906.611	6889.45
906.924	6865.27
907.237	6858.94
907.551	6790.25
907.864	6806.97
908.177	6755.9
908.491	6740.3
908.804	6718.61
909.117	6666.86
909.43	6563.58
909.743	6644.03
910.056	6651.27
910.368	6568.33
910.681	6523.13
910.994	6515.9
911.307	6429.8
911.619	6486.75
911.932	6423.7
912.244	6432.06
912.557	6428.22
912.869	6345.06
913.181	6371.73
913.494	6383.02
913.806	6289.47
914.118	6275
914.43	6260.32
914.742	6246.08
915.054	6196.81
915.366	6119.75
915.678	6153.65
915.99	6101.9
916.302	6025.97
916.613	6036.82
916.925	6049.25
917.236	5976.03
917.548	6007.67
917.859	5975.13
918.171	5946.65
918.482	5929.48
918.794	5916.6
919.105	5885.41
919.416	5858.52
919.727	5808.12
920.038	5796.15
920.349	5785.07
920.66	5773.32
920.971	5748.46
921.282	5684.06
921.593	5639.99
921.903	5659.43
922.214	5621.46
922.525	5595.02
922.835	5516.15
923.146	5551.63
923.456	5575.14
923.767	5491.52
924.077	5486.1
924.387	5509.6
924.697	5471.41
925.008	5461.47
925.318	5396.84
925.628	5377.17
925.938	5377.63
926.248	5341.24
926.558	5362.94
926.867	5302.6
927.177	5265.09
927.487	5285.2
927.796	5224.41
928.106	5195.03
928.416	5176.73
928.725	5183.51
929.034	5113.23
929.344	5109.16
929.653	5103.51
929.962	5054.92
930.271	5029.84
930.581	5030.52
930.89	4981.03
931.199	5012.66
931.508	5026.9
931.817	4977.64
932.125	4920.69
932.434	4929.28
932.743	4823.07
933.051	4880.69
933.36	4859.22
933.669	4813.35
933.977	4794.14
934.286	4764.54
934.594	4782.61
934.902	4746.91
935.21	4706.68
935.519	4710.07
935.827	4683.63
936.135	4619.68
936.443	4612.22
936.751	4657.42
937.059	4580.36
937.367	4599.34
937.674	4564.54
937.982	4527.25
938.29	4483.87
938.597	4515.73
938.905	4469.63
939.213	4427.37
939.52	4459.46
939.827	4433.02
940.135	4430.53
940.442	4410.87
940.749	4407.26
941.056	4379.24
941.363	4308.05
941.67	4314.6
941.977	4329.74
942.284	4280.71
942.591	4290.42
942.898	4232.35
943.205	4262.63
943.511	4198.67
943.818	4171.56
944.125	4159.13
944.431	4130.2
944.738	4203.87
945.044	4142.86
945.35	4104.21
945.657	4087.72
945.963	4110.54
946.269	4039.36
946.575	4017.44
946.881	4022.41
947.187	4030.77
947.493	4008.85
947.799	3989.19
948.105	3937.66
948.41	3935.18
948.716	3961.17
949.022	3845.92
949.327	3893.37
949.633	3848.18
949.938	3808.63
950.244	3855.18
950.549	3793.49
950.854	3822.64
951.16	3762.75
951.465	3768.63
951.77	3740.38
952.075	3763.21
952.38	3707.39
952.685	3699.93
952.99	3667.84
953.294	3694.06
953.599	3635.53
953.904	3650.44
954.209	3615.19
954.513	3581.06
954.818	3617
955.122	3592.59
955.426	3575.87
955.731	3521.63
956.035	3539.03
956.339	3510.78
956.643	3525.92
956.948	3442.31
957.252	3492.25
957.556	3451.58
957.86	3420.62
958.163	3464.23
958.467	3423.55
958.771	3427.17
959.075	3397.11
959.378	3311.24
959.682	3381.07
959.985	3350.56
960.289	3326.61
960.592	3295.87
960.896	3303.11
961.199	3277.8
961.502	3305.59
961.805	3256.33
962.108	3236.21
962.411	3249.1
962.714	3200.06
963.017	3204.35
963.32	3202.77
963.623	3147.4
963.926	3143.34
964.228	3141.75
964.531	3116.67
964.833	3139.72
965.136	3098.14
965.438	3112.83
965.741	3050.91
966.043	3087.97
966.345	3025.37
966.648	3020.4
966.95	3042.55
967.252	3032.83
967.554	3014.98
967.856	3017.24
968.158	2965.04
968.46	2968.65
968.761	2964.81
969.063	2937.24
969.365	2904.47
969.666	2933.85
969.968	2913.96
970.269	2884.13
970.571	2907.86
970.872	2883
971.174	2844.59
971.475	2818.37
971.776	2855.21
972.077	2796
972.378	2791.48
972.679	2798.26
972.98	2769.33
973.281	2748.54
973.582	2775.66
973.883	2756.68
974.183	2718.04
974.484	2746.51
974.785	2730.69
975.085	2686.17
975.386	2681.88
975.686	2706.51
975.986	2649.34
976.287	2645.5
976.587	2622.9
976.887	2616.34
977.187	2625.16
977.487	2625.61
977.787	2574.08
978.087	2572.05
978.387	2599.39
978.687	2559.17
978.987	2544.26
979.286	2529.11
979.586	2526.4
979.885	2497.02
980.185	2512.84
980.484	2529.11
980.784	2451.6
981.083	2443.92
981.382	2447.99
981.682	2459.74
981.981	2439.63
982.28	2433.52
982.579	2433.52
982.878	2421.77
983.177	2411.6
983.475	2378.16
983.774	2379.97
984.073	2370.02
984.372	2345.84
984.67	2363.02
984.969	2344.71
985.267	2335.22
985.566	2353.07
985.864	2329.12
986.162	2310.59
986.461	2294.77
986.759	2292.28
987.057	2254.32
987.355	2242.34
987.653	2238.27
987.951	2231.04
988.249	2243.02
988.547	2228.78
988.844	2219.52
989.142	2181.55
989.44	2162.34
989.737	2176.36
990.035	2205.73
990.332	2154.66
990.63	2146.3
990.927	2154.66
991.224	2123.48
991.521	2140.88
991.819	2087.77
992.116	2080.31
992.413	2093.65
992.71	2080.99
993.006	2061.78
993.303	2054.78
993.6	2066.53
993.897	2028.34
994.193	2060.65
994.49	2004.16
994.787	2010.48
995.083	2031.5
995.379	1977.04
995.676	2017.49
995.972	1956.47
996.268	1963.48
996.565	1957.15
996.861	1945.17
997.157	1939.07
997.453	1932.07
997.749	1934.33
998.044	1882.35
998.34	1888.68
998.636	1899.3
998.932	1868.57
999.227	1881.9
999.523	1876.93
999.818	1849.36
1000.114	1858.4
1000.409	1821.34
1000.704	1862.01
1001	1787.89
1001.295	1783.6
1001.59	1805.74
1001.885	1786.99
1002.18	1762.35
1002.475	1770.72
1002.77	1767.1
1003.065	1727.55
1003.359	1736.82
1003.654	1762.13
1003.949	1720.32
1004.243	1718.29
1004.538	1695.46
1004.832	1717.84
1005.127	1704.5
1005.421	1715.35
1005.715	1673.54
1006.009	1681.9
1006.304	1671.51
1006.598	1655.92
1006.892	1631.96
1007.186	1650.49
1007.48	1606.65
1007.773	1601.46
1008.067	1598.74
1008.361	1595.35
1008.655	1577.27
1008.948	1593.77
1009.242	1598.97
1009.535	1533.43
1009.829	1537.95
1010.122	1544.73
1010.415	1521.23
1010.708	1530.72
1011.001	1508.35
1011.295	1521.91
1011.588	1484.4
1011.881	1506.77
1012.173	1500.44
1012.466	1445.75
1012.759	1485.53
1013.052	1468.35
1013.344	1474.45
1013.637	1450.05
1013.93	1443.95
1014.222	1435.13
1014.514	1442.82
1014.807	1425.41
1015.099	1424.74
1015.391	1400.56
1015.683	1403.72
1015.976	1385.19
1016.268	1362.37
1016.56	1366.66
1016.851	1340.9
1017.143	1374.34
1017.435	1323.95
1017.727	1349.71
1018.018	1319.88
1018.31	1341.12
1018.602	1317.62
1018.893	1303.16
1019.185	1305.19
1019.476	1304.29
1019.767	1279.66
1020.058	1271.07
1020.35	1293.44
1020.641	1269.94
1020.932	1230.62
1021.223	1252.76
1021.514	1220.67
1021.804	1235.81
1022.095	1221.58
1022.386	1183.39
1022.677	1199.21
1022.967	1178.19
1023.258	1187.68
1023.548	1177.96
1023.839	1179.77
1024.129	1169.38
1024.419	1140.45
1024.709	1159.21
1025	1127.57
1025.29	1116.27
1025.58	1125.54
1025.87	1140.45
1026.16	1122.6
1026.449	1110.17
1026.739	1106.78
1027.029	1098.87
1027.319	1090.73
1027.608	1090.06
1027.898	1069.72
1028.187	1055.48
1028.477	1031.3
1028.766	1047.8
1029.055	1043.05
1029.344	1042.6
1029.634	1038.31
1029.923	1045.31
1030.212	1037.4
1030.501	1026.55
1030.79	1002.83
1031.078	986.78
1031.367	999.89
1031.656	998.08
1031.945	1012.09
1032.233	963.73
1032.522	965.77
1032.81	979.78
1033.099	976.39
1033.387	963.28
1033.675	948.14
1033.963	960.79
1034.251	933.45
1034.54	938.2
1034.828	921.92
1035.116	938.42
1035.403	929.83
1035.691	914.69
1035.979	915.6
1036.267	902.94
1036.554	887.8
1036.842	880.8
1037.129	884.86
1037.417	878.99
1037.704	870.4
1037.992	870.63
1038.279	859.55
1038.566	891.64
1038.853	891.64
1039.14	891.64
