Data from hue_20_FLMS001491_50.txt Node
Date: Mon Feb 06 15:34:12 GMT 2017
User: dcchb
Spectrometer: FLMS00149
Trigger mode: 0
Integration Time (sec): 2.000000E-2
Scans to average: 10
Electric dark correction enabled: true
Nonlinearity correction enabled: false
Boxcar width: 0
XAxis mode: Wavelengths
Number of Pixels in Spectrum: 2048
>>>>>Begin Spectral Data<<<<<
341.393	-13.29
341.776	-13.29
342.16	-13.29
342.543	-60.97
342.927	-82.89
343.31	-53.06
343.693	-76.34
344.077	-76.79
344.46	-54.42
344.843	-42.44
345.226	-41.99
345.61	-28.66
345.993	-25.72
346.376	-14.87
346.759	28.52
347.142	21.74
347.525	40.04
347.908	54.28
348.291	73.94
348.674	89.98
349.057	105.8
349.44	101.06
349.823	124.78
350.206	139.7
350.588	203.43
350.971	207.04
351.354	243.65
351.737	253.14
352.119	239.36
352.502	264.89
352.884	273.26
353.267	280.49
353.65	280.04
354.032	291.79
354.414	303.99
354.797	313.93
355.179	296.98
355.562	315.29
355.944	319.13
356.326	326.14
356.709	326.81
357.091	346.7
357.473	327.04
357.855	341.05
358.238	338.79
358.62	347.38
359.002	348.06
359.384	332.91
359.766	322.52
360.148	323.88
360.53	360.26
360.912	343.31
361.294	341.28
361.676	330.2
362.057	331.79
362.439	336.98
362.821	325.68
363.203	344.21
363.584	324.1
363.966	341.95
364.348	325.46
364.729	321.84
365.111	335.85
365.493	315.29
365.874	332.91
366.256	325.01
366.637	304.67
367.019	351.45
367.4	328.62
367.781	311.22
368.163	315.29
368.544	319.58
368.925	325.46
369.306	316.64
369.688	313.25
370.069	306.93
370.45	314.16
370.831	319.58
371.212	322.07
371.593	314.16
371.974	323.65
372.355	298.57
372.736	321.39
373.117	320.26
373.498	305.57
373.879	326.36
374.26	327.72
374.641	303.54
375.021	313.71
375.402	319.36
375.783	338.79
376.163	332.24
376.544	344.21
376.925	309.86
377.305	324.1
377.686	327.04
378.066	323.88
378.447	332.46
378.827	334.95
379.208	340.15
379.588	343.99
379.968	332.46
380.349	348.28
380.729	337.89
381.109	341.5
381.489	329.53
381.87	324.1
382.25	357.32
382.63	346.25
383.01	354.38
383.39	355.06
383.77	335.85
384.15	348.73
384.53	349.64
384.91	347.83
385.29	360.48
385.67	361.84
386.049	343.31
386.429	350.54
386.809	348.96
387.189	353.93
387.568	344.67
387.948	361.16
388.328	370.2
388.707	369.98
389.087	359.81
389.466	379.92
389.846	381.95
390.225	367.04
390.605	361.84
390.984	368.17
391.363	368.62
391.743	354.61
392.122	379.92
392.501	390.54
392.881	386.25
393.26	367.04
393.639	398
394.018	398.45
394.397	384.89
394.776	393.93
395.155	395.06
395.534	389.18
395.913	386.7
396.292	400.26
396.671	388.05
397.05	408.39
397.429	409.3
397.808	411.33
398.186	403.65
398.565	417.43
398.944	413.36
399.323	400.48
399.701	423.99
400.08	408.85
400.458	429.64
400.837	437.54
401.215	403.87
401.594	395.06
401.972	425.34
402.351	442.74
402.729	419.47
403.107	408.39
403.486	420.37
403.864	431.67
404.242	430.99
404.62	419.47
404.999	430.31
405.377	424.21
405.755	429.18
406.133	427.6
406.511	432.57
406.889	446.81
407.267	458.34
407.645	447.26
408.023	458.34
408.401	465.34
408.779	464.66
409.156	472.57
409.534	450.43
409.912	486.36
410.29	471.22
410.667	459.01
411.045	482.06
411.422	463.76
411.8	484.55
412.178	470.76
412.555	493.81
412.933	501.5
413.31	502.4
413.687	485.68
414.065	508.05
414.442	492.46
414.819	499.46
415.197	514.61
415.574	519.58
415.951	533.81
416.328	531.55
416.705	532.01
417.082	526.13
417.46	528.84
417.837	525.9
418.214	524.1
418.591	535.85
418.967	541.27
419.344	555.06
419.721	546.47
420.098	557.77
420.475	551.67
420.852	569.97
421.228	555.96
421.605	545.79
421.982	555.28
422.358	564.55
422.735	578.33
423.111	580.37
423.488	586.69
423.864	577.88
424.241	583.76
424.617	575.39
424.994	588.05
425.37	596.41
425.746	604.55
426.123	583.98
426.499	607.48
426.875	606.58
427.251	612.23
427.627	623.75
428.003	620.14
428.379	642.29
428.756	646.35
429.132	628.95
429.507	673.25
429.883	655.17
430.259	653.58
430.635	687.26
431.011	663.3
431.387	677.54
431.763	707.59
432.138	675.05
432.514	688.84
432.89	678.22
433.265	716.41
433.641	716.63
434.016	719.57
434.392	728.84
434.767	744.88
435.143	737.2
435.518	715.05
435.894	732
436.269	765.9
436.644	778.78
437.02	751.44
437.395	781.49
437.77	757.08
438.145	777.88
438.52	797.31
438.895	776.29
439.271	806.57
439.646	813.35
440.021	814.71
440.395	816.52
440.77	801.15
441.145	826.46
441.52	810.42
441.895	843.86
442.27	845.67
442.645	818.55
443.019	850.64
443.394	845.9
443.769	859.68
444.143	861.94
444.518	892.22
444.892	859
445.267	875.73
445.641	894.48
446.016	856.74
446.39	895.84
446.764	906.01
447.139	888.61
447.513	907.14
447.887	910.3
448.262	918.21
448.636	922.28
449.01	924.54
449.384	935.84
449.758	922.96
450.132	946.46
450.506	941.03
450.88	950.75
451.254	957.98
451.628	988.49
452.002	975.61
452.376	974.71
452.75	997.98
453.123	995.27
453.497	1016.96
453.871	1012.67
454.244	1009.96
454.618	1063.07
454.992	1059.45
455.365	1036.4
455.739	1071.43
456.112	1090.18
456.486	1095.15
456.859	1099.22
457.232	1106.45
457.606	1111.65
457.979	1124.08
458.352	1148.03
458.725	1166.57
459.099	1191.42
459.472	1173.34
459.845	1190.75
460.218	1178.09
460.591	1212.89
460.964	1230.52
461.337	1233.46
461.71	1243.4
462.083	1248.82
462.456	1264.19
462.829	1282.49
463.201	1282.27
463.574	1293.57
463.947	1331.53
464.32	1343.51
464.692	1368.37
465.065	1385.32
465.438	1378.76
465.81	1399.33
466.183	1400.01
466.555	1423.06
466.928	1424.64
467.3	1456.95
467.672	1480.46
468.045	1528.14
468.417	1498.76
468.789	1565.65
469.161	1560.91
469.534	1590.06
469.906	1608.59
470.278	1622.6
470.65	1629.15
471.022	1664.18
471.394	1680.68
471.766	1705.99
472.138	1700.79
472.51	1777.17
472.882	1792.99
473.253	1805.42
473.625	1816.72
473.997	1874.8
474.369	1878.41
474.74	1914.79
475.112	1922.03
475.484	1975.36
475.855	2008.8
476.227	2047.67
476.598	2049.25
476.97	2091.29
477.341	2145.97
477.713	2195.01
478.084	2225.75
478.455	2244.5
478.827	2294.22
479.198	2335.12
479.569	2327.66
479.94	2410.6
480.311	2453.54
480.682	2507.55
481.053	2551.39
481.424	2602.46
481.795	2630.93
482.166	2675
482.537	2717.71
482.908	2781.66
483.279	2799.97
483.65	2867.31
484.021	2907.76
484.391	2944.82
484.762	3021.43
485.133	3054.43
485.503	3084.26
485.874	3169.68
486.244	3181.88
486.615	3223.69
486.985	3289
487.356	3353.4
487.726	3367.41
488.097	3420.52
488.467	3470.01
488.837	3571.25
489.207	3599.5
489.578	3670.91
489.948	3677.46
490.318	3782.99
490.688	3780.51
491.058	3822.77
491.428	3919.49
491.798	3952.25
492.168	4018.24
492.538	4087.17
492.908	4102.31
493.278	4153.15
493.648	4159.48
494.017	4233.83
494.387	4275.86
494.757	4300.95
495.126	4368.06
495.496	4356.99
495.866	4405.12
496.235	4493.71
496.605	4521.73
496.974	4556.53
497.344	4592.24
497.713	4606.02
498.082	4611.67
498.452	4718.34
498.821	4764.66
499.19	4722.18
499.559	4822.29
499.928	4802.4
500.298	4895.73
500.667	4935.73
501.036	4978.67
501.405	4951.78
501.774	4966.92
502.143	5022.06
502.512	5029.97
502.88	5126.01
503.249	5030.64
503.618	5105.9
503.987	5165.1
504.356	5221.37
504.724	5191.77
505.093	5230.87
505.462	5242.16
505.83	5288.94
506.199	5351.54
506.567	5388.15
506.936	5387.25
507.304	5506.79
507.672	5500.69
508.041	5525.32
508.409	5573.46
508.777	5534.13
509.145	5610.06
509.514	5584.75
509.882	5613.23
510.25	5637.63
510.618	5743.85
510.986	5732.55
511.354	5770.96
511.722	5801.7
512.09	5864.75
512.458	5862.71
512.826	5897.51
513.193	5931.19
513.561	5953.11
513.929	5976.16
514.297	6025.87
514.664	6056.61
515.032	6042.82
515.4	6143.16
515.767	6122.59
516.135	6159.88
516.502	6158.98
516.869	6207.11
517.237	6238.07
517.604	6224.74
517.972	6255.47
518.339	6317.84
518.706	6290.27
519.073	6364.85
519.44	6392.87
519.808	6456.14
520.175	6447.78
520.542	6514.9
520.909	6546.08
521.276	6479.65
521.643	6569.14
522.009	6633.31
522.376	6658.4
522.743	6705.63
523.11	6757.38
523.477	6783.14
523.843	6802.35
524.21	6890.03
524.577	6891.39
524.943	6918.96
525.31	6998.95
525.676	7006.86
526.043	7093.42
526.409	7170.48
526.776	7184.71
527.142	7136.35
527.508	7229.46
527.874	7231.26
528.241	7335.89
528.607	7298.16
528.973	7380.87
529.339	7394.2
529.705	7460.41
530.071	7514.65
530.437	7562.78
530.803	7602.78
531.169	7622.44
531.535	7677.35
531.901	7643.91
532.267	7765.71
532.632	7775.66
532.998	7816.56
533.364	7830.57
533.73	7810.01
534.095	7854.98
534.461	7965.48
534.826	7960.06
535.192	8033.96
535.557	8026.95
535.923	7998.7
536.288	8055.88
536.653	8148.75
537.019	8088.64
537.384	8177.68
537.749	8212.03
538.114	8267.17
538.479	8298.36
538.845	8245.02
539.21	8269.2
539.575	8354.17
539.94	8382.42
540.305	8413.15
540.67	8448.18
541.034	8512.59
541.399	8509.2
541.764	8501.29
542.129	8561.85
542.494	8641.62
542.858	8611.12
543.223	8675.29
543.587	8748.06
543.952	8730.66
544.316	8747.83
544.681	8771.34
545.045	8823.99
545.41	8859.02
545.774	8898.57
546.138	8948.73
546.503	9031.44
546.867	8978.56
547.231	9035.29
547.595	9079.58
547.959	9125.9
548.324	9128.39
548.688	9165.23
549.052	9187.82
549.416	9209.29
549.779	9192.12
550.143	9319.35
550.507	9360.47
550.871	9373.58
551.235	9412
551.599	9395.5
551.962	9515.27
552.326	9508.04
552.689	9514.82
553.053	9518.89
553.417	9514.59
553.78	9700.58
554.143	9624.42
554.507	9711.43
554.87	9663.29
555.234	9746.23
555.597	9763.85
555.96	9804.76
556.323	9852.66
556.686	9874.13
557.05	9922.72
557.413	9965.2
557.776	9945.54
558.139	10057.41
558.502	10013.79
558.865	10046.33
559.228	10084.52
559.59	10124.97
559.953	10167.91
560.316	10283.61
560.679	10218.3
561.041	10297.4
561.404	10445.42
561.767	10471.86
562.129	10400.67
562.492	10490.16
562.854	10481.12
563.217	10465.76
563.579	10561.8
563.941	10628.69
564.304	10698.07
564.666	10666.65
565.028	10767.44
565.39	10690.61
565.753	10723.15
566.115	10817.16
566.477	10922.24
566.839	10861.45
567.201	11001.11
567.563	10979.41
567.925	11039.53
568.287	11064.61
568.648	11115.68
569.01	11132.41
569.372	11256.02
569.734	11218.5
570.095	11296.92
570.457	11366.3
570.819	11415.34
571.18	11335.11
571.542	11465.5
571.903	11522.45
572.265	11518.16
572.626	11611.71
572.987	11665.95
573.349	11697.81
573.71	11849
574.071	11864.82
574.432	11836.57
574.794	11937.13
575.155	12012.61
575.516	12042.66
575.877	12145.03
576.238	12129.89
576.599	12227.52
576.96	12357.68
577.32	12356.33
577.681	12510.9
578.042	12568.53
578.403	12685.13
578.763	12654.62
579.124	12804.23
579.485	12880.16
579.845	13013.26
580.206	13151.56
580.566	13258
580.927	13360.6
581.287	13507.94
581.648	13592.23
582.008	13717.87
582.368	13800.58
582.728	14006.23
583.089	14183.4
583.449	14246.67
583.809	14416.61
584.169	14638.3
584.529	14759.65
584.889	14982.7
585.249	15090.49
585.609	15252.75
585.969	15469.01
586.329	15686.86
586.688	15892.28
587.048	16109.9
587.408	16280.29
587.768	16571.81
588.127	16735.42
588.487	16977.45
588.846	17286.82
589.206	17417.89
589.565	17697.2
589.925	18075.95
590.284	18203.86
590.643	18517.3
591.003	18827.8
591.362	19173.1
591.721	19338.52
592.08	19626.64
592.44	19969.91
592.799	20239.06
593.158	20545.94
593.517	20877.01
593.876	21014.86
594.235	21318.8
594.593	21686.48
594.952	22018.22
595.311	22236.97
595.67	22683.74
596.029	22979.1
596.387	23371.63
596.746	23675.13
597.104	23889.81
597.463	24163.02
597.822	24640.07
598.18	24783.8
598.538	25067.86
598.897	25522.99
599.255	25737.67
599.613	26365.68
599.972	26495.16
600.33	26829.85
600.688	27051.53
601.046	27393.9
601.404	27814.23
601.762	28055.35
602.12	28471.38
602.478	28710.02
602.836	28948.66
603.194	29142.78
603.552	29587.06
603.91	29733.27
604.268	30064.34
604.625	30399.7
604.983	30668.39
605.341	30923.75
605.698	31278.99
606.056	31526.22
606.413	31815.48
606.771	32213.43
607.128	32518.51
607.485	32496.36
607.843	32916.92
608.2	33287.3
608.557	33610.46
608.914	33736.56
609.272	34082.99
609.629	34303.1
609.986	34746.93
610.343	34662.86
610.7	35239.79
611.057	35376.29
611.414	35443.18
611.771	35607.47
612.127	36155.25
612.484	36354.11
612.841	36604.96
613.198	36674.78
613.554	36879.52
613.911	37338.95
614.267	37299.17
614.624	37493.29
614.98	37778.94
615.337	38192.48
615.693	38215.53
616.05	38307.96
616.406	38722.87
616.762	38672.02
617.118	38829.3
617.475	39035.4
617.831	39354.04
618.187	39535.5
618.543	39650.53
618.899	39928.03
619.255	40040.12
619.611	40087.58
619.967	40396.27
620.323	40524.63
620.678	40475.59
621.034	40528.69
621.39	40797.61
621.746	40622.48
622.101	41120.32
622.457	41135.01
622.812	41297.49
623.168	41495
623.523	41506.52
623.879	41674.43
624.234	41501.78
624.589	41760.07
624.945	41834.42
625.3	41954.65
625.655	42075.55
626.01	42138.14
626.365	42392.83
626.72	42260.85
627.075	42287.74
627.43	42515.76
627.785	42599.37
628.14	42646.38
628.495	42713.5
628.85	42588.98
629.205	42720.5
629.559	42998.91
629.914	42706.04
630.269	42836.43
630.623	43049.31
630.978	42805.92
631.332	43088.85
631.687	43211.34
632.041	42958.23
632.396	43183.31
632.75	43006.14
633.104	43067.16
633.459	42994.39
633.813	43044.11
634.167	43100.38
634.521	43146.7
634.875	43175.18
635.229	43176.99
635.583	43049.08
635.937	43194.39
636.291	43199.36
636.645	43139.93
636.999	43057.22
637.352	43247.72
637.706	43040.49
638.06	43292.92
638.413	43075.52
638.767	43168.85
639.121	43197.1
639.474	43016.76
639.828	43102.41
640.181	43210.88
640.534	43219.02
640.888	43106.48
641.241	42967.73
641.594	43026.48
641.947	43124.78
642.301	42992.13
642.654	43093.82
643.007	43190.32
643.36	42920.27
643.713	42972.47
644.066	43166.36
644.419	42895.86
644.771	42639.37
645.124	42330
645.477	42352.6
645.83	41981.31
646.182	41933.63
646.535	41779.06
646.888	41872.61
647.24	41614.09
647.593	41863.12
647.945	41848.89
648.298	41593.52
648.65	41602.79
649.002	41489.8
649.355	41777.25
649.707	41692.96
650.059	41838.26
650.411	42262.66
650.763	42504.01
651.115	42729.09
651.467	42635.76
651.819	42810.44
652.171	42507.63
652.523	42455.2
652.875	42619.49
653.227	42420.85
653.578	42568.19
653.93	42555.99
654.282	42449.32
654.633	42307.63
654.985	42438.93
655.337	42320.51
655.688	42412.49
656.039	42512.82
656.391	42179.5
656.742	42042.78
657.094	42201.87
657.445	42393.5
657.796	42341.75
658.147	42223.34
658.498	42285.48
658.849	42474.18
659.2	42261.53
659.551	42268.54
659.902	42238.71
660.253	42111.48
660.604	42183.34
660.955	42186.28
661.306	42263.11
661.656	42043.68
662.007	42113.96
662.358	42211.36
662.708	42138.37
663.059	42145.6
663.409	41852.73
663.76	42162.1
664.11	42146.96
664.461	42050.24
664.811	42102.21
665.161	42066.28
665.511	41852.5
665.862	42179.72
666.212	42185.37
666.562	42249.1
666.912	42030.58
667.262	42126.84
667.612	42057.92
667.962	42112.61
668.312	42005.72
668.662	42128.43
669.011	42107.41
669.361	41925.04
669.711	41918.26
670.06	41921.65
670.41	41904.03
670.76	41786.74
671.109	42006.62
671.459	41899.05
671.808	41834.2
672.157	41890.24
672.507	41660.87
672.856	41716.01
673.205	41911.71
673.554	41902.67
673.904	41769.34
674.253	42053.17
674.602	41784.03
674.951	41208
675.3	41168.9
675.649	41672.17
675.998	41628.1
676.346	41671.04
676.695	41662.22
677.044	41483.25
677.393	41577.93
677.741	41564.37
678.09	41507.2
678.438	41407.99
678.787	41596.46
679.135	41443.25
679.484	41122.8
679.832	41401.44
680.181	41130.49
680.529	41323.7
680.877	41142.46
681.225	41118.28
681.573	41343.81
681.922	41135.01
682.27	41025.86
682.618	40924.39
682.966	40857.27
683.314	40971.17
683.661	40799.87
684.009	40734.11
684.357	40605.75
684.705	40630.84
685.053	40528.92
685.4	40568.47
685.748	40462.93
686.095	40243.73
686.443	40253.22
686.79	40132.32
687.138	40257.29
687.485	40229.95
687.832	40021.36
688.18	40169.38
688.527	39965.77
688.874	39937.75
689.221	39730.98
689.568	39697.08
689.915	39668.15
690.262	39445.56
690.609	39405.11
690.956	39301.83
691.303	39368.95
691.65	39175.06
691.997	39114.95
692.344	38956.08
692.69	38806.03
693.037	38837.44
693.383	38571.68
693.73	38655.98
694.077	38452.36
694.423	38524.23
694.769	38423.66
695.116	38265.25
695.462	38409.88
695.808	38096.22
696.155	38078.14
696.501	37838.82
696.847	37909.78
697.193	37716.56
697.539	37752.72
697.885	37631.6
698.231	37466.85
698.577	37590.92
698.923	37414.65
699.269	37228.22
699.614	37121.78
699.96	37033.19
700.306	37077.03
700.651	36887.89
700.997	36817.61
701.342	36673.2
701.688	36720.21
702.033	36564.73
702.379	36466.65
702.724	36417.84
703.069	36390.72
703.415	36040.68
703.76	36102.82
704.105	36112.99
704.45	36155.48
704.795	35735.83
705.14	35641.14
705.485	35747.8
705.83	35592.78
706.175	35585.77
706.52	35492.22
706.865	35430.3
707.209	35360.69
707.554	35223.75
707.899	35387.59
708.243	35112.34
708.588	35023.98
708.932	34811.78
709.277	34775.4
709.621	34762.07
709.966	34690.88
710.31	34645.23
710.654	34357.33
710.998	34438.46
711.342	34484.79
711.687	34196.66
712.031	34246.15
712.375	34123.21
712.719	34087.06
713.063	34101.97
713.407	34112.59
713.75	33902.43
714.094	33947.62
714.438	33836.44
714.782	33924.8
715.125	33738.59
715.469	33675.09
715.812	33572.04
716.156	33354.87
716.499	33388.77
716.843	33303.12
717.186	33189.68
717.53	33358.71
717.873	33388.32
718.216	33265.61
718.559	33119.17
718.902	32908.33
719.246	33003.92
719.589	32933.87
719.932	32825.17
720.275	32794.21
720.617	32574.33
720.96	32646.87
721.303	32575.91
721.646	32635.57
721.989	32407.1
722.331	32575.01
722.674	32406.42
723.016	32385.41
723.359	32377.5
723.701	32320.32
724.044	32119.42
724.386	32025.64
724.729	32161.46
725.071	32054.34
725.413	32001.46
725.755	32096.15
726.097	31950.16
726.439	31730.06
726.782	31710.17
727.124	31976.38
727.465	31571.87
727.807	31641.02
728.149	31411.19
728.491	31503.39
728.833	31586.78
729.175	31454.13
729.516	31281.93
729.858	31363.51
730.199	31231.09
730.541	31270.41
730.882	31165.1
731.224	31434.7
731.565	31060.92
731.906	31142.73
732.248	31208.71
732.589	31001.49
732.93	30862.51
733.271	30893.69
733.612	30886.01
733.953	30972.34
734.294	30785.45
734.635	30544.1
734.976	30812.11
735.317	30534.61
735.658	30493.7
735.999	30660.03
736.339	30552.69
736.68	30535.96
737.021	30456.87
737.361	30271.11
737.702	30451.67
738.042	30429.52
738.383	30241.28
738.723	30331.9
739.063	30108.63
739.404	30198.12
739.744	30101.17
740.084	29922.42
740.424	30040.61
740.764	29985.47
741.104	30085.58
741.444	29839.48
741.784	29793.61
742.124	29844.23
742.464	29657.12
742.804	29588.64
743.143	29749.32
743.483	29604.69
743.823	29490.11
744.162	29574.41
744.502	29563.56
744.841	29381.19
745.181	29526.95
745.52	29412.15
745.86	29489.66
746.199	29353.17
746.538	29318.82
746.877	29350.23
747.216	29236.79
747.556	29225.26
747.895	29210.12
748.234	29176.9
748.573	29080.63
748.911	29024.14
749.25	29054.65
749.589	28930.13
749.928	28921.32
750.267	28888.32
750.605	28639.06
750.944	28721.32
751.283	28710.93
751.621	28729.91
751.96	28491.72
752.298	28507.09
752.636	28492.17
752.975	28338.51
753.313	28340.31
753.651	28385.74
753.989	28239.75
754.327	28178.74
754.666	28159.3
755.004	28060.1
755.342	28235.91
755.679	28139.42
756.017	28009.93
756.355	28009.7
756.693	27912.53
757.031	27901
757.368	27735.81
757.706	27669.15
758.044	27538.53
758.381	27576.72
758.719	27582.59
759.056	27504.63
759.394	27481.13
759.731	27343.28
760.068	27291.3
760.405	27166.56
760.743	27079.78
761.08	27103.51
761.417	26960.24
761.754	26882.05
762.091	26861.03
762.428	26739.68
762.765	26627.14
763.102	26748.04
763.438	26479.12
763.775	26456.3
764.112	26503.53
764.449	26429.86
764.785	26174.5
765.122	26199.58
765.458	25954.39
765.795	25974.27
766.131	26015.63
766.467	25836.88
766.804	25676.2
767.14	25624.68
767.476	25608.63
767.812	25534.96
768.148	25567.05
768.485	25289.32
768.821	25301.07
769.157	25227.85
769.492	25249.55
769.828	25098.37
770.164	25035.09
770.5	24699.73
770.836	24844.59
771.171	24684.37
771.507	24714.65
771.842	24522.56
772.178	24443.69
772.513	24372.28
772.849	24408.67
773.184	24118.96
773.519	24175.9
773.855	23945.4
774.19	23953.31
774.525	23829.7
774.86	23841.9
775.195	23790.6
775.53	23725.52
775.865	23605.3
776.2	23388.35
776.535	23257.74
776.87	23205.99
777.205	23150.17
777.539	23067.91
777.874	23145.65
778.209	22934.58
778.543	22882.38
778.878	22781.14
779.212	22733.91
779.547	22591.54
779.881	22634.48
780.215	22452.11
780.55	22380.47
780.884	22325.78
781.218	22280.36
781.552	22175.73
781.886	22114.49
782.22	21948.17
782.554	21947.71
782.888	21791.56
783.222	21751.79
783.556	21685.57
783.889	21702.3
784.223	21261.86
784.557	21490.78
784.89	21426.15
785.224	21246.49
785.557	21060.96
785.891	21188.19
786.224	21143.89
786.558	21074.97
786.891	20795.43
787.224	20715.43
787.557	20666.62
787.891	20740.51
788.224	20625.71
788.557	20638.82
788.89	20588.65
789.223	20496.23
789.556	20363.12
789.888	20224.6
790.221	20202.45
790.554	20038.39
790.887	20138.95
791.219	19971.95
791.552	19966.75
791.884	19728.11
792.217	19886.3
792.549	19853.31
792.882	19552.75
793.214	19525.4
793.546	19625.52
793.879	19496.25
794.211	19280.67
794.543	19478.17
794.875	19234.34
795.207	19319.76
795.539	19201.35
795.871	19274.56
796.203	18997.28
796.535	18967.23
796.867	18794.8
797.198	18889.94
797.53	18830.06
797.862	18674.81
798.193	18730.4
798.525	18661.92
798.856	18614.69
799.188	18451.76
799.519	18339.45
799.85	18379.9
800.182	18264.19
800.513	18244.99
800.844	18082.96
801.175	18225.33
801.506	18053.35
801.837	18069.85
802.168	17995.5
802.499	17920.02
802.83	17821.04
803.161	17730.88
803.491	17770.87
803.822	17748.95
804.153	17534.95
804.483	17479.81
804.814	17459.92
805.145	17498.79
805.475	17392.35
805.805	17370.66
806.136	17322.75
806.466	17313.49
806.796	17282.75
807.126	17132.7
807.457	17079.59
807.787	17128.41
808.117	17009.54
808.447	16925.93
808.777	16994.17
809.107	16883.89
809.436	16874.63
809.766	16809.32
810.096	16727.29
810.426	16694.74
810.755	16690.45
811.085	16647.74
811.414	16645.93
811.744	16510.12
812.073	16439.84
812.403	16473.51
812.732	16327.75
813.061	16341.76
813.39	16224.7
813.719	16153.29
814.049	16217.47
814.378	16193.06
814.707	16155.1
815.036	16127.98
815.365	15977.48
815.693	15868.78
816.022	15960.98
816.351	15880.08
816.68	15769.57
817.008	15833.07
817.337	15705.39
817.665	15687.99
817.994	15703.81
818.322	15744.94
818.651	15614.32
818.979	15413.2
819.307	15638.73
819.636	15553.98
819.964	15492.97
820.292	15533.42
820.62	15465.4
820.948	15410.03
821.276	15430.37
821.604	15446.19
821.932	15403.71
822.259	15433.53
822.587	15412.29
822.915	15360.54
823.243	15330.71
823.57	15365.97
823.898	15407.55
824.225	15291.17
824.553	15345.18
824.88	15327.55
825.207	15368.9
825.535	15304.5
825.862	15323.71
826.189	15145.18
826.516	15321.9
826.843	15402.58
827.17	15299.53
827.497	15332.29
827.824	15330.49
828.151	15375.46
828.478	15286.65
828.805	15417.04
829.131	15253.65
829.458	15228.79
829.785	15237.83
830.111	15313.54
830.438	15262.01
830.764	15294.1
831.09	15411.84
831.417	15188.8
831.743	15278.96
832.069	15363.48
832.395	15195.8
832.722	15218.85
833.048	15188.34
833.374	15210.26
833.7	15059.53
834.026	15162.58
834.351	15166.2
834.677	15068.35
835.003	15131.4
835.329	15138.4
835.654	15054.79
835.98	14999.42
836.306	15037.84
836.631	14896.6
836.956	15050.95
837.282	14990.38
837.607	14867.9
837.932	14830.84
838.258	14922.59
838.583	14826.55
838.908	14890.05
839.233	14848.24
839.558	14710.62
839.883	14657.06
840.208	14723.72
840.533	14666.1
840.858	14636.49
841.182	14678.3
841.507	14619.77
841.832	14592.2
842.156	14526.89
842.481	14558.76
842.805	14525.99
843.13	14511.07
843.454	14455.26
843.778	14331.19
844.103	14344.3
844.427	14321.25
844.751	14294.81
845.075	14292.32
845.399	14195.15
845.723	14118.54
846.047	14111.08
846.371	14087.36
846.695	14017.3
847.019	13975.72
847.343	13835.61
847.666	13827.93
847.99	13695.5
848.313	13678.33
848.637	13688.72
848.96	13528.95
849.284	13557.43
849.607	13542.06
849.931	13476.75
850.254	13382.52
850.577	13265
850.9	13238.34
851.223	13180.03
851.546	13091.22
851.869	13009.87
852.192	13217.55
852.515	12946.82
852.838	12971.23
853.161	13021.85
853.483	12850.33
853.806	12830.67
854.129	12763.1
854.451	12745.24
854.774	12547.28
855.096	12634.96
855.419	12611.01
855.741	12546.38
856.063	12519.94
856.385	12497.79
856.708	12495.53
857.03	12394.29
857.352	12409.43
857.674	12357.91
857.996	12336.89
858.318	12254.41
858.64	12231.59
858.961	12194.98
859.283	12121.53
859.605	12072.95
859.926	12128.54
860.248	12144.58
860.57	11974.87
860.891	12045.15
861.212	11950.91
861.534	11943.68
861.855	11928.09
862.176	11904.81
862.498	11904.14
862.819	11889.22
863.14	11836.57
863.461	11733.52
863.782	11761.99
864.103	11763.57
864.424	11646.29
864.745	11691.49
865.065	11709.34
865.386	11612.62
865.707	11642.22
866.027	11640.19
866.348	11609.91
866.668	11599.96
866.989	11522.68
867.309	11490.59
867.63	11507.76
867.95	11455.56
868.27	11455.11
868.59	11465.28
868.91	11355.9
869.23	11405.62
869.55	11369.23
869.87	11402.45
870.19	11323.36
870.51	11357.48
870.83	11293.3
871.15	11232.74
871.469	11298.5
871.789	11288.11
872.109	11244.27
872.428	11217.37
872.748	11331.5
873.067	11202.23
873.386	11165.62
873.706	11128.79
874.025	11016.93
874.344	11057.15
874.663	11081.56
874.982	11046.98
875.301	11033.42
875.62	10997.49
875.939	10906.42
876.258	11026.65
876.577	10943.03
876.896	10956.82
877.214	10942.35
877.533	10951.84
877.852	10893.77
878.17	10887.44
878.489	10897.38
878.807	10881.11
879.125	10818.29
879.444	10864.84
879.762	10793.2
880.08	10781.91
880.398	10746.88
880.716	10744.17
881.034	10711.85
881.352	10739.87
881.67	10667.33
881.988	10614.9
882.306	10703.49
882.624	10571.29
882.941	10583.04
883.259	10508.01
883.577	10525.42
883.894	10477.06
884.212	10407.9
884.529	10387.57
884.846	10423.72
885.164	10395.25
885.481	10397.06
885.798	10342.6
886.115	10326.32
886.432	10248.59
886.75	10263.73
887.067	10235.71
887.383	10183.5
887.7	10251.07
888.017	10143.73
888.334	10174.69
888.651	10139.21
888.967	10062.15
889.284	10068.93
889.6	10022.83
889.917	9941.02
890.233	9988.48
890.55	9977.18
890.866	9914.81
891.182	9884.98
891.498	9871.65
891.815	9829.16
892.131	9802.95
892.447	9777.64
892.763	9753.01
893.079	9714.59
893.395	9707.81
893.71	9644.08
894.026	9669.84
894.342	9671.88
894.657	9592.78
894.973	9599.79
895.289	9426.24
895.604	9484.09
895.92	9452.9
896.235	9435.95
896.55	9414.94
896.865	9446.8
897.181	9346.46
897.496	9385.33
897.811	9274.15
898.126	9284.54
898.441	9202.96
898.756	9230.99
899.071	9213.81
899.386	9122.29
899.7	9070.09
900.015	9005
900.33	9009.07
900.644	8891.33
900.959	8969.07
901.273	8923.2
901.588	8854.05
901.902	8828.51
902.216	8816.08
902.531	8771.79
902.845	8780.15
903.159	8695.41
903.473	8674.39
903.787	8642.08
904.101	8613.38
904.415	8655.18
904.729	8599.36
905.042	8489.08
905.356	8577.9
905.67	8513.26
905.984	8476.2
906.297	8462.19
906.611	8432.59
906.924	8367.51
907.237	8335.64
907.551	8283.21
907.864	8288.64
908.177	8249.99
908.491	8210.45
908.804	8158.7
909.117	8168.64
909.43	8046.16
909.743	8065.59
910.056	8086.84
910.368	7965.48
910.681	7948.76
910.994	7870.57
911.307	7895.88
911.619	7860.17
911.932	7873.96
912.244	7686.85
912.557	7808.2
912.869	7782.89
913.181	7688.2
913.494	7671.71
913.806	7623.34
914.118	7572.5
914.43	7551.03
914.742	7624.25
915.054	7537.02
915.366	7476.68
915.678	7444.82
915.99	7406.63
916.302	7371.6
916.613	7367.31
916.925	7314.88
917.236	7337.7
917.548	7290.25
917.859	7212.96
918.171	7146.75
918.482	7211.38
918.794	7126.63
919.105	7096.35
919.416	7090.25
919.727	7041.67
920.038	6989.46
920.349	7030.14
920.66	6965.06
920.971	6984.49
921.282	6903.14
921.593	6866.08
921.903	6860.43
922.214	6831.95
922.525	6783.82
922.835	6692.75
923.146	6742.46
923.456	6684.61
923.767	6661.79
924.077	6676.25
924.387	6665.18
924.697	6559.42
925.008	6558.97
925.318	6528.68
925.628	6565.97
925.938	6531.4
926.248	6446.2
926.558	6411.85
926.867	6399.42
927.177	6359.88
927.487	6316.26
927.796	6320.1
928.106	6318.29
928.416	6213.44
928.725	6238.07
929.034	6199.2
929.344	6203.04
929.653	6185.42
929.962	6168.24
930.271	6123.72
930.581	6100.22
930.89	6076.27
931.199	6049.37
931.508	6033.78
931.817	5970.96
932.125	5960.34
932.434	5967.8
932.743	5903.84
933.051	5903.16
933.36	5827.01
933.669	5844.63
933.977	5776.84
934.286	5771.19
934.594	5740
934.902	5671.53
935.21	5671.31
935.519	5687.58
935.827	5630.18
936.135	5635.37
936.443	5589.95
936.751	5590.4
937.059	5587.24
937.367	5501.37
937.674	5528.48
937.982	5506.79
938.29	5460.46
938.597	5489.84
938.905	5386.79
939.213	5374.14
939.52	5379.34
939.827	5331.88
940.135	5281.26
940.442	5284.2
940.749	5295.27
941.056	5280.81
941.363	5228.83
941.67	5212.33
941.977	5152.68
942.284	5121.94
942.591	5171.43
942.898	5111.32
943.205	5112.9
943.511	5055.5
943.818	5074.26
944.125	5015.28
944.431	5044.2
944.738	5032.9
945.044	4985.67
945.35	4991.55
945.657	4932.34
945.963	4940.7
946.269	4866.81
946.575	4890.31
946.881	4828.84
947.187	4814.38
947.493	4822.29
947.799	4764.44
948.105	4763.76
948.41	4723.53
948.716	4697.32
949.022	4671.11
949.327	4687.38
949.633	4608.28
949.938	4641.95
950.244	4570.32
950.549	4560.6
950.854	4569.64
951.16	4528.51
951.465	4529.64
951.77	4501.17
952.075	4463.2
952.38	4459.59
952.685	4450.09
952.99	4414.16
953.294	4414.16
953.599	4405.8
953.904	4382.98
954.209	4352.47
954.513	4342.53
954.818	4285.81
955.122	4317.67
955.426	4290.1
955.731	4257.33
956.035	4259.14
956.339	4245.58
956.643	4213.26
956.948	4150.67
957.252	4185.7
957.556	4176.43
957.86	4133.27
958.163	4128.3
958.467	4099.82
958.771	4137.33
959.075	4021.86
959.378	4061.18
959.682	4025.25
959.985	3985.47
960.289	3982.54
960.592	3940.5
960.896	3930.79
961.199	3976.66
961.502	3929.2
961.805	3897.57
962.108	3867.29
962.411	3929.2
962.714	3828.64
963.017	3853.05
963.32	3813.28
963.623	3807.17
963.926	3789.77
964.228	3775.31
964.531	3762.66
964.833	3742.09
965.136	3709.78
965.438	3730.79
965.741	3685.37
966.043	3628.42
966.345	3663.9
966.648	3632.04
966.95	3660.29
967.252	3599.04
967.554	3570.34
967.856	3574.86
968.158	3569.44
968.46	3556.56
968.761	3514.75
969.063	3539.61
969.365	3513.17
969.666	3474.3
969.968	3453.51
970.269	3481.53
970.571	3482.21
970.872	3434.3
971.174	3399.73
971.475	3371.71
971.776	3408.99
972.077	3364.02
972.378	3323.8
972.679	3340.75
972.98	3314.08
973.281	3272.5
973.582	3284.02
973.883	3277.7
974.183	3283.57
974.484	3244.48
974.785	3255.55
975.085	3232.05
975.386	3229.11
975.686	3169.45
975.986	3162.67
976.287	3208.09
976.587	3149.79
976.887	3119.73
977.187	3120.86
977.487	3157.02
977.787	3093.97
978.087	3079.28
978.387	3048.78
978.687	3058.72
978.987	3050.58
979.286	2994.54
979.586	3029.57
979.885	2984.37
980.185	2981.66
980.484	2954.54
980.784	2991.15
981.083	2950.47
981.382	2897.82
981.682	2915.9
981.981	2877.03
982.28	2911.6
982.579	2904.82
982.878	2860.53
983.177	2882.23
983.475	2835
983.774	2850.36
984.073	2832.28
984.372	2799.74
984.67	2756.35
984.969	2778.27
985.267	2763.13
985.566	2751.61
985.864	2731.5
986.162	2747.99
986.461	2701.44
986.759	2721.78
987.057	2671.38
987.355	2693.98
987.653	2677.26
987.951	2656.7
988.249	2639.52
988.547	2621.44
988.844	2633.65
989.142	2645.4
989.44	2621.44
989.737	2572.4
990.035	2550.03
990.332	2561.33
990.63	2558.62
990.927	2540.31
991.224	2516.81
991.521	2550.48
991.819	2524.04
992.116	2501.22
992.413	2468.68
992.71	2474.55
993.006	2471.62
993.303	2440.66
993.6	2457.83
993.897	2414.89
994.193	2429.81
994.49	2373.77
994.787	2391.84
995.083	2358.4
995.379	2337.38
995.676	2331.96
995.972	2358.62
996.268	2319.98
996.565	2303.48
996.861	2294.45
997.157	2303.71
997.453	2268.01
997.749	2296.03
998.044	2293.54
998.34	2275.01
998.636	2229.59
998.932	2243.83
999.227	2177.16
999.523	2223.71
999.818	2164.28
1000.114	2194.11
1000.409	2158.18
1000.704	2144.84
1001	2141.23
1001.295	2171.06
1001.59	2108.24
1001.885	2112.53
1002.18	2082.7
1002.475	2095.35
1002.77	2091.29
1003.065	2062.14
1003.359	2061.68
1003.654	2046.32
1003.949	2053.32
1004.243	2051.51
1004.538	1997.28
1004.832	2006.77
1005.127	1996.6
1005.421	1961.8
1005.715	1972.87
1006.009	1964.51
1006.304	1949.14
1006.598	1957.51
1006.892	1908.47
1007.186	1926.09
1007.48	1921.57
1007.773	1898.3
1008.067	1882.25
1008.361	1855.81
1008.655	1860.78
1008.948	1855.81
1009.242	1861.01
1009.535	1834.57
1009.829	1839.54
1010.122	1777.17
1010.415	1802.48
1010.708	1771.75
1011.001	1791.18
1011.295	1768.36
1011.588	1764.06
1011.881	1727.91
1012.173	1744.4
1012.466	1705.53
1012.759	1713.22
1013.052	1716.38
1013.344	1701.92
1013.637	1696.49
1013.93	1666.89
1014.222	1656.5
1014.514	1677.06
1014.807	1660.56
1015.099	1635.48
1015.391	1642.94
1015.683	1627.57
1015.976	1596.61
1016.268	1594.8
1016.56	1588.25
1016.851	1596.61
1017.143	1574.01
1017.435	1575.37
1017.727	1542.15
1018.018	1517.52
1018.31	1534.24
1018.602	1550.06
1018.893	1523.62
1019.185	1514.13
1019.476	1480.46
1019.767	1520.68
1020.058	1476.84
1020.35	1475.71
1020.641	1454.02
1020.932	1451.08
1021.223	1442.94
1021.514	1433.68
1021.804	1404.3
1022.095	1416.73
1022.386	1422.15
1022.677	1375.83
1022.967	1380.57
1023.258	1379.22
1023.548	1373.79
1023.839	1355.94
1024.129	1357.75
1024.419	1371.98
1024.709	1315.49
1025	1308.03
1025.29	1318.43
1025.58	1290.4
1025.87	1301.48
1026.16	1284.53
1026.449	1283.17
1026.739	1280.01
1027.029	1264.19
1027.319	1253.12
1027.608	1254.25
1027.898	1230.52
1028.187	1217.19
1028.477	1190.29
1028.766	1232.1
1029.055	1226
1029.344	1181.25
1029.634	1173.12
1029.923	1180.12
1030.212	1135.38
1030.501	1176.51
1030.79	1157.3
1031.078	1134.93
1031.367	1139.22
1031.656	1103.29
1031.945	1133.12
1032.233	1119.11
1032.522	1116.62
1032.81	1115.27
1033.099	1094.7
1033.387	1104.42
1033.675	1077.08
1033.963	1087.25
1034.251	1089.28
1034.54	1071.65
1034.828	1080.24
1035.116	1040.02
1035.403	1025.55
1035.691	1034.82
1035.979	1055.38
1036.267	1044.99
1036.554	1034.14
1036.842	985.78
1037.129	983.07
1037.417	1038.43
1037.704	983.52
1037.992	1002.95
1038.279	980.13
1038.566	988.94
1038.853	988.94
1039.14	988.94
