Data from hue_32_FLMS001491_00091.txt Node
Date: Tue Feb 07 17:24:16 GMT 2017
User: dcchb
Spectrometer: FLMS00149
Trigger mode: 0
Integration Time (sec): 2.000000E-2
Scans to average: 10
Electric dark correction enabled: true
Nonlinearity correction enabled: false
Boxcar width: 0
XAxis mode: Wavelengths
Number of Pixels in Spectrum: 2048
>>>>>Begin Spectral Data<<<<<
341.393	-23.12
341.776	-23.12
342.16	-23.12
342.543	-60.63
342.927	-73.97
343.31	-79.16
343.693	-72.61
344.077	-60.18
344.46	-67.19
344.843	-55.44
345.226	-45.27
345.61	-29.45
345.993	-11.14
346.376	-17.25
346.759	4.9
347.142	32.24
347.525	50.32
347.908	62.07
348.291	97.33
348.674	92.81
349.057	98.01
349.44	137.1
349.823	130.77
350.206	170.77
350.588	184.78
350.971	195.86
351.354	223.43
351.737	247.83
352.119	238.12
352.502	248.06
352.884	288.28
353.267	265.91
353.65	280.37
354.032	300.03
354.414	302.52
354.797	306.59
355.179	332.8
355.562	302.52
355.944	346.13
356.326	350.65
356.709	333.71
357.091	322.41
357.473	342.97
357.855	322.86
358.238	333.25
358.62	351.33
359.002	341.16
359.384	346.81
359.766	342.97
360.148	348.85
360.53	322.18
360.912	332.12
361.294	332.12
361.676	334.38
362.057	327.15
362.439	340.49
362.821	323.76
363.203	330.54
363.584	328.96
363.966	318.79
364.348	311.79
364.729	321.73
365.111	315.63
365.493	330.32
365.874	307.94
366.256	328.28
366.637	324.67
367.019	302.75
367.4	335.74
367.781	317.89
368.163	310.88
368.544	330.09
368.925	300.94
369.306	304.33
369.688	293.48
370.069	298.9
370.45	321.5
370.831	323.99
371.212	322.63
371.593	344.78
371.974	313.59
372.355	310.2
372.736	322.18
373.117	300.71
373.498	321.05
373.879	316.08
374.26	302.75
374.641	310.66
375.021	329.41
375.402	318.57
375.783	333.48
376.163	332.35
376.544	309.3
376.925	313.14
377.305	319.92
377.686	331.22
378.066	307.94
378.447	311.79
378.827	332.8
379.208	338
379.588	338.9
379.968	333.03
380.349	349.52
380.729	329.41
381.109	335.06
381.489	332.12
381.87	337.77
382.25	334.38
382.63	341.16
383.01	340.94
383.39	342.97
383.77	342.75
384.15	351.56
384.53	356.08
384.91	362.86
385.29	342.75
385.67	355.63
386.049	365.12
386.429	356.08
386.809	354.5
387.189	367.38
387.568	352.91
387.948	367.6
388.328	358.79
388.707	350.2
389.087	361.28
389.466	362.86
389.846	331.67
390.225	364.21
390.605	361.05
390.984	371.22
391.363	363.08
391.743	359.47
392.122	366.47
392.501	379.58
392.881	390.65
393.26	371.9
393.639	370.09
394.018	378.45
394.397	369.86
394.776	380.94
395.155	407.15
395.534	365.8
395.913	387.04
396.292	375.29
396.671	402.86
397.05	375.29
397.429	414.16
397.808	385.68
398.186	408.28
398.565	399.01
398.944	402.4
399.323	411.67
399.701	377.77
400.08	413.93
400.458	389.07
400.837	389.98
401.215	423.65
401.594	410.99
401.972	395.63
402.351	390.65
402.729	415.74
403.107	403.76
403.486	418
403.864	413.25
404.242	417.55
404.62	409.41
404.999	424.1
405.377	422.74
405.755	434.04
406.133	440.82
406.511	443.53
406.889	447.38
407.267	415.51
407.645	427.94
408.023	445.34
408.401	448.73
408.779	440.37
409.156	460.71
409.534	448.28
409.912	445.12
410.29	441.95
410.667	450.76
411.045	472.23
411.422	462.06
411.8	451.89
412.178	460.03
412.555	465
412.933	482.85
413.31	484.66
413.687	469.07
414.065	498.45
414.442	500.03
414.819	499.13
415.197	480.37
415.574	495.96
415.951	507.94
416.328	507.49
416.705	500.26
417.082	495.74
417.46	514.49
417.837	525.34
418.214	519.69
418.591	512.46
418.967	511.1
419.344	529.86
419.721	525.11
420.098	539.58
420.475	523.53
420.852	522.4
421.228	549.07
421.605	536.41
421.982	521.72
422.358	531.89
422.735	540.71
423.111	568.05
423.488	565.56
423.864	558.33
424.241	547.26
424.617	558.33
424.994	575.28
425.37	551.55
425.746	588.39
426.123	578.9
426.499	580.93
426.875	585.22
427.251	590.2
427.627	588.84
428.003	584.55
428.379	591.33
428.756	608.5
429.132	590.42
429.507	591.78
429.883	610.53
430.259	609.18
430.635	632.46
431.011	625.9
431.387	652.12
431.763	634.04
432.138	638.33
432.514	648.27
432.89	660.48
433.265	665.22
433.641	647.14
434.016	651.66
434.392	691.66
434.767	685.34
435.143	695.73
435.518	716.52
435.894	709.06
436.269	737.99
436.644	715.84
437.02	723.53
437.395	719.23
437.77	704.77
438.145	723.07
438.52	736.18
438.895	759.91
439.271	751.77
439.646	753.58
440.021	784.09
440.395	734.83
440.77	764.2
441.145	789.06
441.52	807.14
441.895	802.17
442.27	793.13
442.645	780.93
443.019	813.92
443.394	781.38
443.769	791.1
444.143	827.03
444.518	800.81
444.892	805.33
445.267	820.92
445.641	817.54
446.016	840.13
446.39	833.58
446.764	829.29
447.139	838.1
447.513	860.47
447.887	874.03
448.262	847.82
448.636	874.03
449.01	866.35
449.384	852.56
449.758	881.94
450.132	874.71
450.506	897.31
450.88	879.68
451.254	901.83
451.628	924.88
452.002	930.53
452.376	941.15
452.75	931.2
453.123	943.63
453.497	937.76
453.871	943.86
454.244	966.01
454.618	969.62
454.992	987.7
455.365	987.02
455.739	990.19
456.112	1012.11
456.486	999.68
456.859	1036.96
457.232	1055.95
457.606	1063.4
457.979	1068.83
458.352	1096.4
458.725	1068.6
459.099	1094.82
459.472	1076.29
459.845	1089.39
460.218	1094.14
460.591	1120.13
460.964	1134.59
461.337	1137.3
461.71	1173.68
462.083	1182.95
462.456	1179.11
462.829	1184.53
463.201	1224.08
463.574	1228.82
463.947	1252.33
464.32	1243.51
464.692	1278.31
465.065	1245.09
465.438	1298.2
465.81	1329.84
466.183	1318.76
466.555	1330.97
466.928	1370.74
467.3	1391.98
467.672	1391.53
468.045	1422.49
468.417	1416.84
468.789	1480.34
469.161	1474.92
469.534	1490.96
469.906	1520.79
470.278	1520.12
470.65	1528.48
471.022	1551.75
471.394	1577.52
471.766	1622.26
472.138	1683.73
472.51	1685.53
472.882	1727.34
473.253	1732.99
473.625	1769.15
473.997	1803.05
474.369	1804.4
474.74	1857.06
475.112	1890.5
475.484	1912.87
475.855	1950.84
476.227	1975.92
476.598	2056.6
476.97	2063.15
477.341	2118.52
477.713	2128.46
478.084	2174.79
478.455	2271.73
478.827	2288
479.198	2385.4
479.569	2379.3
479.94	2445.51
480.311	2493.2
480.682	2547.43
481.053	2673.76
481.424	2709.24
481.795	2754.43
482.166	2773.19
482.537	2855.67
482.908	2957.59
483.279	3011.38
483.65	3063.58
484.021	3119.85
484.391	3200.07
484.762	3277.81
485.133	3341.76
485.503	3379.28
485.874	3497.92
486.244	3528.2
486.615	3623.11
486.985	3708.53
487.356	3803.9
487.726	3845.93
488.097	3932.03
488.467	3964.12
488.837	4112.14
489.207	4189.88
489.578	4197.56
489.948	4291.57
490.318	4367.05
490.688	4479.59
491.058	4525.46
491.428	4659.02
491.798	4705.12
492.168	4814.94
492.538	4913.7
492.908	4960.48
493.278	5090.64
493.648	5095.39
494.017	5209.51
494.387	5260.81
494.757	5315.95
495.126	5430.52
495.496	5480.24
495.866	5548.94
496.235	5602.49
496.605	5732.21
496.974	5757.29
497.344	5864.63
497.713	5924.29
498.082	5983.73
498.452	6080
498.821	6117.06
499.19	6133.55
499.559	6227.79
499.928	6290.61
500.298	6385.3
500.667	6421
501.036	6468.23
501.405	6607.44
501.774	6585.29
502.143	6703.71
502.512	6708.91
502.88	6756.59
503.249	6808.11
503.618	6874.78
503.987	6863.48
504.356	7002.68
504.724	7066.41
505.093	7057.14
505.462	7128.56
505.83	7169.68
506.199	7286.29
506.567	7338.95
506.936	7391.83
507.304	7444.71
507.672	7485.16
508.041	7558.37
508.409	7550.24
508.777	7670.24
509.145	7752.72
509.514	7685.6
509.882	7795.88
510.25	7839.5
510.618	7896.22
510.986	7953.39
511.354	7988.65
511.722	8069.1
512.09	8157.46
512.458	8090.56
512.826	8184.8
513.193	8273.61
513.561	8287.62
513.929	8374.4
514.297	8405.36
514.664	8439.03
515.032	8519.48
515.4	8552.92
515.767	8609.42
516.135	8556.54
516.502	8611.68
516.869	8735.07
517.237	8747.04
517.604	8767.16
517.972	8856.42
518.339	8944.55
518.706	8894.38
519.073	8949.3
519.44	9043.53
519.808	9039.24
520.175	9057.32
520.542	9192.91
520.909	9252.79
521.276	9223.87
521.643	9397.42
522.009	9402.17
522.376	9408.95
522.743	9494.14
523.11	9620.69
523.477	9587.47
523.843	9648.72
524.21	9810.52
524.577	9834.02
524.943	9854.81
525.31	9888.48
525.676	9998.99
526.043	10037.18
526.409	10019.78
526.776	10177.29
527.142	10238.76
527.508	10307.23
527.874	10303.39
528.241	10363.72
528.607	10408.24
528.973	10473.33
529.339	10535.25
529.705	10541.12
530.071	10604.4
530.437	10706.99
530.803	10766.43
531.169	10815.46
531.535	10741.12
531.901	10901.56
532.267	10900.21
532.632	10950.6
532.998	11054.78
533.364	11091.16
533.73	11169.13
534.095	11258.84
534.461	11287.77
534.826	11320.31
535.192	11341.33
535.557	11444.37
535.923	11430.36
536.288	11558.95
536.653	11527.31
537.019	11533.41
537.384	11550.36
537.749	11625.16
538.114	11659.51
538.479	11692.5
538.845	11821.09
539.21	11847.98
539.575	11854.08
539.94	11863.35
540.305	11977.47
540.67	11931.82
541.034	11985.38
541.399	12040.29
541.764	12058.37
542.129	12152.38
542.494	12290.45
542.858	12235.99
543.223	12275.31
543.587	12372.94
543.952	12278.02
544.316	12392.82
544.681	12517.11
545.045	12579.26
545.41	12671.46
545.774	12635.08
546.138	12718.01
546.503	12634.63
546.867	12695.64
547.231	12797.56
547.595	12885.01
547.959	12903.54
548.324	12974.96
548.688	13064.67
549.052	13033.48
549.416	13167.27
549.779	13104.44
550.143	13190.54
550.507	13230.77
550.871	13229.64
551.235	13308.73
551.599	13412.01
551.962	13418.11
552.326	13489.07
552.689	13551.44
553.053	13512.34
553.417	13601.38
553.78	13743.07
554.143	13684.32
554.507	13675.05
554.87	13777.42
555.234	13830.75
555.597	13775.61
555.96	13898.1
556.323	13862.62
556.686	13999.56
557.05	14078.2
557.413	14098.09
557.776	13976.29
558.139	14241.81
558.502	14183.96
558.865	14164.75
559.228	14367.46
559.59	14318.87
559.953	14397.06
560.316	14557.06
560.679	14561.35
561.041	14652.65
561.404	14658.53
561.767	14791.63
562.129	14785.08
562.492	14862.14
562.854	14877.96
563.217	14844.06
563.579	14974.45
563.941	15060.55
564.304	15001.57
564.666	15117.27
565.028	15197.27
565.39	15237.72
565.753	15292.63
566.115	15365.63
566.477	15424.83
566.839	15459.18
567.201	15501.22
567.563	15543.48
567.925	15639.07
568.287	15652.4
568.648	15717.48
569.01	15838.16
569.372	15943.92
569.734	15857.59
570.095	15983.01
570.457	16042.45
570.819	16074.76
571.18	16129.22
571.542	16172.61
571.903	16233.4
572.265	16367.41
572.626	16425.94
572.987	16438.82
573.349	16539.16
573.71	16634.29
574.071	16696.44
574.432	16836.32
574.794	16982.99
575.155	17089.88
575.516	17014.17
575.877	17065.47
576.238	17290.77
576.599	17386.36
576.96	17458
577.32	17613.7
577.681	17705.45
578.042	17870.65
578.403	17900.7
578.763	17973.24
579.124	18100.7
579.485	18434.47
579.845	18551.98
580.206	18656.39
580.566	18681.92
580.927	18886.21
581.287	19071.74
581.648	19135.47
582.008	19467.67
582.368	19545.18
582.728	19688.45
583.089	19871.95
583.449	20022.45
583.809	20315.78
584.169	20409.34
584.529	20558.48
584.889	20885.26
585.249	20924.58
585.609	21228.07
585.969	21510.1
586.329	21714.84
586.688	21988.05
587.048	22061.5
587.408	22316.4
587.768	22565.21
588.127	22785.32
588.487	22929.04
588.846	23473.21
589.206	23384.85
589.565	23772.86
589.925	23965.85
590.284	24309.8
590.643	24615.33
591.003	24902.78
591.362	25151.58
591.721	25282.65
592.08	25605.36
592.44	26061.84
592.799	26153.59
593.158	26509.29
593.517	26627.03
593.876	27120.12
594.235	27189.27
594.593	27470.39
594.952	27846.2
595.311	27938.86
595.67	28262.46
596.029	28709.23
596.387	28939.28
596.746	29175.43
597.104	29387.18
597.463	29614.29
597.822	29930.22
598.18	30171.79
598.538	30342.86
598.897	30789.85
599.255	30682.06
599.613	31496.05
599.972	31418.76
600.33	31726.33
600.688	31898.98
601.046	32201.34
601.404	32511.16
601.762	32733.53
602.12	32994.77
602.478	33288.32
602.836	33547.97
603.194	33510.46
603.552	33844.46
603.91	33858.02
604.268	34212.82
604.625	34351.34
604.983	34677.21
605.341	34647.61
605.698	35091.21
606.056	35222.28
606.413	35585.21
606.771	35609.61
607.128	35867.69
607.485	35877.4
607.843	36139.09
608.2	36511.06
608.557	36745.63
608.914	36801.22
609.272	36906.08
609.629	37286.18
609.986	37472.84
610.343	37520.75
610.7	37928.2
611.057	37972.49
611.414	38111.02
611.771	38363.44
612.127	38491.8
612.484	38702.19
612.841	38879.36
613.198	38819.02
613.554	38932.47
613.911	39380.36
614.267	39425.79
614.624	39548.49
614.98	39665.1
615.337	39781.48
615.693	39883.63
616.05	39972.66
616.406	40403.16
616.762	40369.26
617.118	40373.78
617.475	40415.82
617.831	40657.17
618.187	40799.99
618.543	41018.51
618.899	41263.93
619.255	41322.91
619.611	41285.85
619.967	41520.42
620.323	41710.25
620.678	41580.31
621.034	41531.72
621.39	41766.97
621.746	41754.76
622.101	42146.17
622.457	41983.68
622.812	42104.81
623.168	42256.22
623.523	42350
623.879	42484.69
624.234	42404.69
624.589	42500.96
624.945	42461.64
625.3	42576.66
625.655	42707.28
626.01	42651.69
626.365	42733.72
626.72	42717.9
627.075	42838.8
627.43	42810.56
627.785	42853.49
628.14	42961.29
628.495	43114.73
628.85	42998.35
629.205	42817.79
629.559	43253.71
629.914	42937.11
630.269	43142.75
630.623	43009.87
630.978	42978.69
631.332	43183.43
631.687	43355.17
632.041	43274.72
632.396	43181.39
632.75	43094.16
633.104	43308.62
633.459	43022.98
633.813	43149.08
634.167	43253.48
634.521	43111.11
634.875	43116.31
635.229	43149.76
635.583	43098.23
635.937	43134.84
636.291	43031.79
636.645	43015.75
636.999	42929.42
637.352	43134.61
637.706	42891.91
638.06	43266.81
638.413	42987.73
638.767	43017.78
639.121	43064.79
639.474	42796.32
639.828	42877.22
640.181	42942.08
640.534	43034.73
640.888	42855.07
641.241	42709.31
641.594	43017.1
641.947	42973.94
642.301	42885.81
642.654	42863.89
643.007	42905.47
643.36	42797.9
643.713	42793.15
644.066	43057.1
644.419	42779.37
644.771	42561.07
645.124	42147.97
645.477	42117.92
645.83	41752.5
646.182	41712.96
646.535	41655.78
646.888	41655.11
647.24	41450.59
647.593	41739.17
647.945	41692.84
648.298	41399.97
648.65	41363.14
649.002	41340.09
649.355	41575.11
649.707	41418.73
650.059	41688.32
650.411	42199.72
650.763	42085.15
651.115	42569.66
651.467	42373.05
651.819	42502.77
652.171	42366.5
652.523	42225.26
652.875	42334.64
653.227	42150.69
653.578	42416.67
653.93	42232.94
654.282	42030.46
654.633	42030.46
654.985	42115.88
655.337	42203.11
655.688	42110.46
656.039	42215.09
656.391	42047.86
656.742	41983.46
657.094	42048.54
657.445	42338.48
657.796	42194.07
658.147	42016.68
658.498	41960.86
658.849	42077.69
659.2	42008.32
659.551	41946.62
659.902	42120.4
660.253	41971.03
660.604	42112.95
660.955	41868.66
661.306	41983.46
661.656	41844.03
662.007	41937.13
662.358	41985.27
662.708	41958.83
663.059	41924.48
663.409	41669.12
663.76	41878.15
664.11	42009.22
664.461	41976
664.811	41884.93
665.161	41860.75
665.511	41696.69
665.862	41882.67
666.212	42028.65
666.562	41810.81
666.912	41781.43
667.262	41669.79
667.612	41781.43
667.962	41766.97
668.312	41611.72
668.662	41924.93
669.011	41766.51
669.361	41791.15
669.711	41664.82
670.06	41677.25
670.41	41553.87
670.76	41607.65
671.109	41747.53
671.459	41635.44
671.808	41545.05
672.157	41850.81
672.507	41402.46
672.856	41445.62
673.205	41571.04
673.554	41685.39
673.904	41586.63
674.253	41504.83
674.602	41571.04
674.951	41143.03
675.3	40773.77
675.649	41538.5
675.998	41439.29
676.346	41451.04
676.695	41591.83
677.044	41316.13
677.393	41336.24
677.741	41427.99
678.09	41437.26
678.438	41330.82
678.787	41410.37
679.135	41327.2
679.484	41065.97
679.832	41230.94
680.181	40896.48
680.529	41006.99
680.877	40897.16
681.225	40896.71
681.573	41217.6
681.922	40827.78
682.27	40783.72
682.618	40909.14
682.966	40576.04
683.314	40719.08
683.661	40646.09
684.009	40417.4
684.357	40428.02
684.705	40250.62
685.053	40389.15
685.4	40377.62
685.748	40183.51
686.095	40114.81
686.443	40031.65
686.79	39918.43
687.138	40079.1
687.485	40068.25
687.832	39888.82
688.18	39974.92
688.527	39698.32
688.874	39801.37
689.221	39672.78
689.568	39386.46
689.915	39466.69
690.262	39524.77
690.609	39317.99
690.956	39139.92
691.303	39070.31
691.65	39007.49
691.997	38880.49
692.344	38771.11
692.69	38685.92
693.037	38722.08
693.383	38391.24
693.73	38483.66
694.077	38388.98
694.423	38409.31
694.769	38222.88
695.116	38186.72
695.462	38114.18
695.808	38166.16
696.155	38064.01
696.501	37816.34
696.847	37737.69
697.193	37513.29
697.539	37659.05
697.885	37352.62
698.231	37402.34
698.577	37176.58
698.923	37299.29
699.269	37150.36
699.614	36924.83
699.96	36903.59
700.306	36871.73
700.651	36768.68
700.997	36608.23
701.342	36583.83
701.688	36610.27
702.033	36454.34
702.379	36415.47
702.724	36254.34
703.069	36329.6
703.415	35858.87
703.76	35986.78
704.105	35914.69
704.45	35869.49
704.795	35769.38
705.14	35668.82
705.485	35613.68
705.83	35532.1
706.175	35547.92
706.52	35406.23
706.865	35147.93
707.209	35140.47
707.554	34910.2
707.899	35091.44
708.243	35053.47
708.588	34971.67
708.932	34740.94
709.277	34795.85
709.621	34708.62
709.966	34589.75
710.31	34755.17
710.654	34268.18
710.998	34449.19
711.342	34239.71
711.687	34235.64
712.031	34130.11
712.375	33888.08
712.719	34119.48
713.063	34015.08
713.407	34034.97
713.75	33853.05
714.094	33757.91
714.438	33766.95
714.782	33835.42
715.125	33598.59
715.469	33507.52
715.812	33581.42
716.156	33197.93
716.499	33169.23
716.843	33307.3
717.186	33077.25
717.53	33238.83
717.873	33304.14
718.216	33273.63
718.559	33038.83
718.902	32790.93
719.246	32845.85
719.589	32866.18
719.932	32661.44
720.275	32724.72
720.617	32555.46
720.96	32653.76
721.303	32575.34
721.646	32537.15
721.989	32341.9
722.331	32358.17
722.674	32310.49
723.016	32361.34
723.359	32346.88
723.701	32261.23
724.044	31965.64
724.386	31970.16
724.729	32081.12
725.071	31918.86
725.413	31883.61
725.755	31991.86
726.097	31664.63
726.439	31714.35
726.782	31787.12
727.124	31762.03
727.465	31578.31
727.807	31701.02
728.149	31444.98
728.491	31504.86
728.833	31504.64
729.175	31370.86
729.516	31310.52
729.858	31087.93
730.199	31244.31
730.541	31182.61
730.882	31231.42
731.224	31140.13
731.565	31053.58
731.906	31036.4
732.248	31058.1
732.589	30782.4
732.93	30851.55
733.271	30854.71
733.612	30821.27
733.953	30926.12
734.294	30712.12
734.635	30641.38
734.976	30817.42
735.317	30493.59
735.658	30527.04
735.999	30518
736.339	30381.96
736.68	30422.86
737.021	30482.52
737.361	30153.03
737.702	30447.26
738.042	30207.72
738.383	30301.96
738.723	30270.77
739.063	30219.7
739.404	30189.42
739.744	30027.16
740.084	30066.26
740.424	29978.58
740.764	29981.74
741.104	29960.05
741.444	29876.88
741.784	29731.58
742.124	29863.32
742.464	29679.6
742.804	29693.61
743.143	29622.88
743.483	29703.1
743.823	29586.72
744.162	29620.39
744.502	29484.8
744.841	29453.17
745.181	29444.8
745.52	29380.63
745.86	29435.99
746.199	29333.4
746.538	29272.38
746.877	29359.84
747.216	29376.11
747.556	29123.23
747.895	29206.85
748.234	29049.56
748.573	29011.37
748.911	29063.35
749.25	28862
749.589	28827.87
749.928	28865.61
750.267	28974.76
750.605	28877.14
750.944	28715.33
751.283	28640.98
751.621	28714.2
751.96	28495.68
752.298	28520.31
752.636	28486.86
752.975	28462.46
753.313	28257.94
753.651	28450.71
753.989	28168.23
754.327	28269.92
754.666	27993.77
755.004	28111.51
755.342	28143.82
755.679	28060.21
756.017	27948.57
756.355	27988.35
756.693	27809.59
757.031	27834.9
757.368	27712.2
757.706	27693.66
758.044	27609.82
758.381	27699.99
758.719	27492.99
759.056	27498.42
759.394	27461.13
759.731	27285.77
760.068	27272.66
760.405	27189.27
760.743	27016.17
761.08	27176.39
761.417	26949.5
761.754	26844.87
762.091	26846
762.428	26675.39
762.765	26578.89
763.102	26662.96
763.438	26559.68
763.775	26404.88
764.112	26466.58
764.449	26439.91
764.785	26330.31
765.122	25997.89
765.458	26069.98
765.795	25918.57
766.131	25961.51
766.467	25832.47
766.804	25667.05
767.14	25707.28
767.476	25648.07
767.812	25582.08
768.148	25565.36
768.485	25388.41
768.821	25323.56
769.157	25189.55
769.492	25069.78
769.828	25201.53
770.164	24817.36
770.5	24910.23
770.836	24765.61
771.171	24688.77
771.507	24642.9
771.842	24514.77
772.178	24496.69
772.513	24364.71
772.849	24394.77
773.184	24164.04
773.519	24239.74
773.855	24044.04
774.19	24036.81
774.525	23931.05
774.86	23896.93
775.195	23840.88
775.53	23727.44
775.865	23555.02
776.2	23544.85
776.535	23237.74
776.87	23300.79
777.205	23200.9
777.539	23118.42
777.874	23095.59
778.209	22826.9
778.543	22863.06
778.878	22730.63
779.212	22752.1
779.547	22645.89
779.881	22665.1
780.215	22529.96
780.55	22517.53
780.884	22337.42
781.218	22367.02
781.552	22208.16
781.886	22100.37
782.22	22066.24
782.554	21911.67
782.888	21791.45
783.222	21715.06
783.556	21579.25
783.889	21600.27
784.223	21369.31
784.557	21324.34
784.89	21439.59
785.224	21209.09
785.557	21113.05
785.891	21017.91
786.224	21108.98
786.558	21018.13
786.891	20747.86
787.224	20670.35
787.557	20701.31
787.891	20663.57
788.224	20591.25
788.557	20719.84
788.89	20518.26
789.223	20510.12
789.556	20302.22
789.888	20310.13
790.221	20205.95
790.554	19995.56
790.887	20102.45
791.219	19969.35
791.552	19938.16
791.884	19812.52
792.217	19772.52
792.549	19719.18
792.882	19573.65
793.214	19513.77
793.546	19499.08
793.879	19415.69
794.211	19241.01
794.543	19318.74
794.875	19207.79
795.207	19255.02
795.539	19138.64
795.871	19114.68
796.203	18947.68
796.535	18879.43
796.867	18869.72
797.198	18848.25
797.53	18738.65
797.862	18590.18
798.193	18784.52
798.525	18580.23
798.856	18622.04
799.188	18341.59
799.519	18328.04
799.85	18297.75
800.182	18263.86
800.513	18253.01
800.844	18133.01
801.175	18183.86
801.506	18087.14
801.837	18001.04
802.168	18018.21
802.499	17919.68
802.83	17825
803.161	17787.26
803.491	17708.62
803.822	17821.83
804.153	17631.33
804.483	17455.52
804.814	17517.21
805.145	17449.87
805.475	17529.64
805.805	17326.48
806.136	17290.77
806.466	17361.51
806.796	17305.46
807.126	17164.22
807.457	17076.32
807.787	17157.67
808.117	17134.85
808.447	17022.53
808.777	16975.08
809.107	16851.24
809.436	16750.22
809.766	16821.18
810.096	16772.82
810.426	16688.98
810.755	16740.96
811.085	16618.48
811.414	16550.68
811.744	16491.47
812.073	16561.98
812.403	16418.03
812.732	16371.7
813.061	16426.84
813.39	16329.22
813.719	16219.84
814.049	16313.17
814.378	16185.49
814.707	16138.94
815.036	16141.65
815.365	16033.63
815.693	15925.16
816.022	15943.24
816.351	15886.97
816.68	15832.28
817.008	15860.3
817.337	15764.49
817.665	15686.3
817.994	15686.3
818.322	15669.12
818.651	15545.06
818.979	15512.97
819.307	15615.11
819.636	15531.72
819.964	15449.24
820.292	15529.24
820.62	15520.43
820.948	15343.48
821.276	15444.95
821.604	15377.38
821.932	15425.29
822.259	15427.32
822.587	15351.16
822.915	15352.07
823.243	15326.76
823.57	15327.44
823.898	15357.72
824.225	15306.19
824.553	15324.95
824.88	15260.77
825.207	15381.9
825.535	15289.24
825.862	15330.15
826.189	15378.96
826.516	15350.94
826.843	15378.51
827.17	15378.28
827.497	15378.28
827.824	15335.35
828.151	15332.63
828.478	15303.48
828.805	15410.6
829.131	15238.17
829.458	15319.53
829.785	15256.25
830.111	15270.26
830.438	15348.68
830.764	15333.76
831.09	15246.08
831.417	15228
831.743	15414.67
832.069	15220.32
832.395	15144.39
832.722	15262.13
833.048	15165.63
833.374	15143.94
833.7	15154.33
834.026	15137.38
834.351	15251.51
834.677	15093.32
835.003	15128.12
835.329	15123.37
835.654	15071.17
835.98	15047.67
836.306	14981.91
836.631	14859.2
836.956	15013.32
837.282	14976.03
837.607	14926.99
837.932	14956.37
838.258	14849.71
838.583	14837.28
838.908	14831.4
839.233	14715.25
839.558	14729.26
839.883	14686.55
840.208	14814.68
840.533	14666.44
840.858	14763.38
841.182	14685.64
841.507	14555.25
841.832	14613.56
842.156	14445.65
842.481	14506.21
842.805	14487.91
843.13	14508.25
843.454	14434.13
843.778	14427.8
844.103	14359.55
844.427	14343.28
844.751	14275.49
845.075	14186
845.399	14262.15
845.723	14110.74
846.047	14084.98
846.371	14029.84
846.695	14047.7
847.019	13933.57
847.343	13833.92
847.666	13759.34
847.99	13793.24
848.313	13700.81
848.637	13714.6
848.96	13658.78
849.284	13622.85
849.607	13491.55
849.931	13400.48
850.254	13377.66
850.577	13297.66
850.9	13249.98
851.223	13262.18
851.546	13196.19
851.869	13042.07
852.192	13148.28
852.515	13021.06
852.838	12924.79
853.161	13001.62
853.483	12796.2
853.806	12762.08
854.129	12725.24
854.451	12777.45
854.774	12697.22
855.096	12652.7
855.419	12607.96
855.741	12577.9
856.063	12510.33
856.385	12577.68
856.708	12433.05
857.03	12463.33
857.352	12391.47
857.674	12422.43
857.996	12269.66
858.318	12248.19
858.64	12285.26
858.961	12158.93
859.283	12187.41
859.605	12201.19
859.926	12180.4
860.248	12109.89
860.57	12059.73
860.891	12030.12
861.212	12014.08
861.534	11899.73
861.855	11905.15
862.176	11905.61
862.498	11961.87
862.819	11860.18
863.14	11796
863.461	11788.32
863.782	11696.35
864.103	11755.33
864.424	11629.23
864.745	11736.57
865.065	11657.02
865.386	11655.44
865.707	11613.64
866.027	11628.32
866.348	11593.3
866.668	11606.18
866.989	11581.09
867.309	11460.87
867.63	11507.65
867.95	11515.56
868.27	11425.84
868.59	11462.9
868.91	11314.89
869.23	11326.86
869.55	11333.87
869.87	11385.84
870.19	11369.12
870.51	11349.01
870.83	11262.46
871.15	11235.57
871.469	11299.29
871.789	11268.56
872.109	11293.19
872.428	11188.11
872.748	11250.48
873.067	11171.61
873.386	11227.66
873.706	11167.55
874.025	11139.07
874.344	11065.18
874.663	11108.11
874.982	11045.29
875.301	11092.97
875.62	11038.96
875.939	11043.03
876.258	11069.24
876.577	10918.06
876.896	10862.24
877.214	10896.82
877.533	10943.37
877.852	10939.53
878.17	10901.34
878.489	10892.07
878.807	10862.47
879.125	10840.32
879.444	10871.73
879.762	10799.42
880.08	10805.75
880.398	10776.6
880.716	10738.63
881.034	10716.71
881.352	10706.09
881.67	10702.92
881.988	10740.89
882.306	10620.67
882.624	10587
882.941	10548.13
883.259	10463.84
883.577	10463.38
883.894	10495.25
884.212	10421.35
884.529	10423.84
884.846	10439.65
885.164	10374.57
885.481	10446.66
885.798	10391.97
886.115	10304.07
886.432	10358.3
886.75	10271.75
887.067	10275.82
887.383	10241.47
887.7	10258.19
888.017	10204.18
888.334	10235.82
888.651	10158.98
888.967	10153.79
889.284	10083.51
889.6	10034.02
889.917	9996.5
890.233	10052.77
890.55	9938.2
890.866	9950.18
891.182	9956.05
891.498	9918.76
891.815	9938.88
892.131	9774.59
892.447	9854.13
892.763	9750.63
893.079	9695.72
893.395	9721.26
893.71	9684.42
894.026	9731.2
894.342	9623.63
894.657	9580.92
894.973	9603.29
895.289	9518.32
895.604	9612.78
895.92	9516.52
896.235	9430.87
896.55	9399.46
896.865	9359.46
897.181	9335.96
897.496	9321.94
897.811	9255.73
898.126	9247.37
898.441	9227.03
898.756	9208.05
899.071	9137.32
899.386	9105.45
899.7	9079.46
900.015	9020.26
900.33	9010.99
900.644	8990.43
900.959	9003.53
901.273	8977.55
901.588	8894.38
901.902	8867.72
902.216	8815.29
902.531	8819.13
902.845	8766.48
903.159	8655.52
903.473	8676.99
903.787	8651.45
904.101	8593.38
904.415	8628.4
904.729	8596.31
905.042	8566.71
905.356	8502.53
905.67	8532.13
905.984	8541.17
906.297	8422.08
906.611	8397.45
906.924	8399.48
907.237	8426.6
907.551	8316.32
907.864	8292.37
908.177	8199.71
908.491	8231.13
908.804	8170.56
909.117	8084.46
909.43	8104.12
909.743	8051.02
910.056	8016.89
910.368	8042.66
910.681	7946.84
910.994	7914.75
911.307	7928.76
911.619	7907.29
911.932	7839.05
912.244	7768.31
912.557	7844.47
912.869	7763.34
913.181	7743.23
913.494	7626.17
913.806	7670.24
914.118	7666.85
914.43	7556.34
914.742	7505.04
915.054	7519.51
915.366	7479.51
915.678	7484.93
915.99	7413.29
916.302	7318.83
916.613	7338.49
916.925	7353.86
917.236	7316.12
917.548	7254.43
917.859	7227.54
918.171	7241.09
918.482	7157.71
918.794	7109.8
919.105	7147.54
919.416	7085.17
919.727	7015.79
920.038	7068.67
920.349	6948.67
920.66	6959.52
920.971	6911.61
921.282	6972.85
921.593	6872.07
921.903	6816.7
922.214	6799.07
922.525	6813.31
922.835	6726.31
923.146	6749.58
923.456	6705.97
923.767	6698.06
924.077	6724.95
924.387	6620.09
924.697	6621.22
925.008	6506.2
925.318	6479.08
925.628	6507.33
925.938	6468.69
926.248	6421.91
926.558	6448.8
926.867	6370.38
927.177	6343.94
927.487	6334.23
927.796	6272.31
928.106	6286.77
928.416	6258.3
928.725	6225.53
929.034	6198.18
929.344	6215.13
929.653	6232.76
929.962	6088.36
930.271	6071.63
930.581	6056.72
930.89	6006.55
931.199	5983.73
931.508	5937.63
931.817	5977.4
932.125	5976.04
932.434	5944.86
932.743	5887.91
933.051	5828.02
933.36	5828.93
933.669	5837.06
933.977	5773.79
934.286	5729.5
934.594	5797.97
934.902	5689.27
935.21	5687.69
935.519	5671.19
935.827	5642.94
936.135	5657.18
936.443	5606.79
936.751	5474.36
937.059	5541.03
937.367	5523.4
937.674	5510.52
937.982	5482.27
938.29	5433.91
938.597	5478.2
938.905	5402.05
939.213	5368.6
939.52	5303.97
939.827	5316.85
940.135	5299.23
940.442	5260.36
940.749	5238.44
941.056	5255.16
941.363	5214.26
941.67	5204.99
941.977	5159.12
942.284	5163.18
942.591	5127.93
942.898	5117.08
943.205	5121.15
943.511	5076.18
943.818	5062.62
944.125	5000.48
944.431	5020.14
944.738	4969.52
945.044	4974.94
945.35	4906.92
945.657	4947.6
945.963	4883.87
946.269	4916.86
946.575	4861.72
946.881	4818.79
947.187	4781.72
947.493	4745.57
947.799	4803.42
948.105	4767.49
948.41	4741.27
948.716	4724.78
949.022	4709.64
949.327	4700.37
949.633	4616.98
949.938	4628.73
950.244	4628.06
950.549	4600.03
950.854	4557.32
951.16	4571.79
951.465	4560.94
951.77	4558
952.075	4497.44
952.38	4506.93
952.685	4512.81
952.99	4438
953.294	4407.27
953.599	4380.61
953.904	4362.53
954.209	4333.6
954.513	4330.44
954.818	4309.87
955.122	4301.74
955.426	4284.34
955.731	4281.62
956.035	4250.67
956.339	4214.51
956.643	4238.69
956.948	4186.71
957.252	4142.65
957.556	4177.67
957.86	4125.47
958.163	4111.01
958.467	4054.51
958.771	4074.85
959.075	4075.3
959.378	4016.77
959.682	4005.25
959.985	4011.58
960.289	3998.92
960.592	3962.54
960.896	3966.6
961.199	3967.06
961.502	3896.78
961.805	3886.38
962.108	3882.54
962.411	3902.2
962.714	3856.33
963.017	3871.92
963.32	3817.46
963.623	3865.14
963.926	3801.64
964.228	3792.15
964.531	3790.56
964.833	3751.47
965.136	3704.69
965.438	3712.6
965.741	3718.02
966.043	3650.91
966.345	3666.05
966.648	3647.97
966.95	3654.52
967.252	3612.04
967.554	3611.59
967.856	3557.35
968.158	3569.55
968.46	3531.14
968.761	3511.93
969.063	3502.44
969.365	3496.79
969.666	3537.92
969.968	3438.03
970.269	3449.78
970.571	3437.13
970.872	3428.77
971.174	3437.81
971.475	3417.47
971.776	3347.19
972.077	3370.24
972.378	3376.34
972.679	3369.56
972.98	3372.27
973.281	3343.8
973.582	3313.97
973.883	3314.19
974.183	3275.78
974.484	3265.61
974.785	3261.54
975.085	3270.58
975.386	3219.28
975.686	3178.6
975.986	3222.22
976.287	3172.73
976.587	3142.45
976.887	3122.33
977.187	3101.54
977.487	3110.81
977.787	3123.46
978.087	3062
978.387	3055.22
978.687	3081.43
978.987	2995.33
979.286	3020.41
979.586	3036.23
979.885	3018.83
980.185	2980.42
980.484	2978.38
980.784	2988.33
981.083	2943.81
981.382	2944.94
981.682	2930.93
981.981	2892.96
982.28	2877.14
982.579	2901.77
982.878	2880.98
983.177	2887.31
983.475	2881.44
983.774	2813.41
984.073	2811.83
984.372	2789.46
984.67	2810.7
984.969	2765.28
985.267	2769.8
985.566	2769.57
985.864	2733.19
986.162	2753.98
986.461	2707.43
986.759	2707.65
987.057	2668.56
987.355	2708.11
987.653	2671.72
987.951	2680.31
988.249	2639.63
988.547	2646.64
988.844	2610.26
989.142	2628.56
989.44	2586.53
989.737	2572.07
990.035	2565.51
990.332	2581.1
990.63	2546.98
990.927	2566.64
991.224	2546.08
991.521	2517.6
991.819	2537.26
992.116	2497.72
992.413	2478.28
992.71	2477.83
993.006	2447.77
993.303	2441.45
993.6	2448
993.897	2407.1
994.193	2429.24
994.49	2386.99
994.787	2377.72
995.083	2398.06
995.379	2353.09
995.676	2361
995.972	2363.94
996.268	2351.05
996.565	2310.38
996.861	2320.09
997.157	2283.26
997.453	2293.65
997.749	2237.61
998.044	2276.25
998.34	2300.21
998.636	2241.9
998.932	2217.05
999.227	2185.63
999.523	2218.18
999.818	2205.52
1000.114	2175.92
1000.409	2184.96
1000.704	2148.35
1001	2177.73
1001.295	2157.39
1001.59	2134.34
1001.885	2107.67
1002.18	2081.91
1002.475	2093.43
1002.77	2064.96
1003.065	2058.41
1003.359	2063.38
1003.654	2051.63
1003.949	2029.03
1004.243	2031.51
1004.538	2007.11
1004.832	2000.33
1005.127	1980.44
1005.421	1958.07
1005.715	2002.59
1006.009	1950.16
1006.304	1951.06
1006.598	1951.52
1006.892	1938.86
1007.186	1909.94
1007.48	1899.31
1007.773	1913.33
1008.067	1903.38
1008.361	1865.87
1008.655	1865.42
1008.948	1847.11
1009.242	1850.28
1009.535	1825.19
1009.829	1834.01
1010.122	1829.03
1010.415	1810.28
1010.708	1793.78
1011.001	1786.55
1011.295	1769.37
1011.588	1766.44
1011.881	1727.34
1012.173	1729.38
1012.466	1748.81
1012.759	1737.74
1013.052	1751.07
1013.344	1710.84
1013.637	1717.62
1013.93	1684.86
1014.222	1643.28
1014.514	1675.82
1014.807	1651.64
1015.099	1653.9
1015.391	1637.4
1015.683	1639.21
1015.976	1607.34
1016.268	1600.57
1016.56	1582.94
1016.851	1568.48
1017.143	1582.03
1017.435	1570.74
1017.727	1561.47
1018.018	1575.03
1018.31	1528.25
1018.602	1523.51
1018.893	1493
1019.185	1519.66
1019.476	1496.16
1019.767	1510.62
1020.058	1460.68
1020.35	1490.06
1020.641	1443.51
1020.932	1450.74
1021.223	1436.28
1021.514	1442.15
1021.804	1401.25
1022.095	1400.12
1022.386	1372.32
1022.677	1378.42
1022.967	1368.48
1023.258	1366.9
1023.548	1370.97
1023.839	1351.08
1024.129	1365.32
1024.419	1351.31
1024.709	1327.13
1025	1320.35
1025.29	1320.12
1025.58	1290.52
1025.87	1292.55
1026.16	1303.17
1026.449	1299.78
1026.739	1263.62
1027.029	1270.86
1027.319	1259.33
1027.608	1261.59
1027.898	1253
1028.187	1223.85
1028.477	1213.68
1028.766	1222.04
1029.055	1208.03
1029.344	1184.76
1029.634	1180.24
1029.923	1189.95
1030.212	1182.72
1030.501	1181.82
1030.79	1180.92
1031.078	1140.46
1031.367	1132.1
1031.656	1128.71
1031.945	1137.3
1032.233	1114.48
1032.522	1116.74
1032.81	1092.33
1033.099	1097.08
1033.387	1097.75
1033.675	1073.35
1033.963	1080.13
1034.251	1075.61
1034.54	1081.93
1034.828	1036.51
1035.116	1063.86
1035.403	1061.37
1035.691	1050.07
1035.979	1031.31
1036.267	1019.34
1036.554	1014.59
1036.842	1020.02
1037.129	1024.76
1037.417	990.19
1037.704	992.67
1037.992	984.76
1038.279	991.77
1038.566	985.44
1038.853	985.44
1039.14	985.44
