Data from hue_250_FLMS001491_00060.txt Node
Date: Tue Feb 07 16:01:11 GMT 2017
User: dcchb
Spectrometer: FLMS00149
Trigger mode: 0
Integration Time (sec): 2.000000E-2
Scans to average: 10
Electric dark correction enabled: true
Nonlinearity correction enabled: false
Boxcar width: 0
XAxis mode: Wavelengths
Number of Pixels in Spectrum: 2048
>>>>>Begin Spectral Data<<<<<
341.393	-25.47
341.776	-25.47
342.16	-25.47
342.543	-68.85
342.927	-74.05
343.31	-61.85
343.693	-71.34
344.077	-88.74
344.46	-59.36
344.843	-55.3
345.226	-40.61
345.61	-13.94
345.993	-20.95
346.376	3.01
346.759	2.1
347.142	24.25
347.525	45.49
347.908	59.5
348.291	80.97
348.674	86.4
349.057	110.35
349.44	151.71
349.823	146.51
350.206	139.28
350.588	169.33
350.971	182.89
351.354	223.57
351.737	220.18
352.119	241.87
352.502	275.77
352.884	264.92
353.267	269.44
353.65	293.85
354.032	280.74
354.414	304.02
354.797	306.05
355.179	318.25
355.562	296.33
355.944	302.21
356.326	307.18
356.709	312.83
357.091	324.58
357.473	322.77
357.855	331.81
358.238	333.4
358.62	343.79
359.002	330.23
359.384	338.14
359.766	336.33
360.148	323.68
360.53	331.36
360.912	344.02
361.294	332.04
361.676	311.7
362.057	323.9
362.439	322.55
362.821	332.72
363.203	315.32
363.584	335.66
363.966	333.4
364.348	335.43
364.729	308.31
365.111	306.5
365.493	303.79
365.874	316.45
366.256	319.38
366.637	319.16
367.019	300.18
367.4	302.44
367.781	320.06
368.163	322.77
368.544	309.67
368.925	277.8
369.306	337.46
369.688	306.5
370.069	306.5
370.45	325.94
370.831	300.4
371.212	305.15
371.593	306.28
371.974	317.58
372.355	302.89
372.736	301.53
373.117	313.73
373.498	303.34
373.879	319.38
374.26	318.93
374.641	297.01
375.021	311.7
375.402	337.91
375.783	320.51
376.163	327.52
376.544	334.75
376.925	342.43
377.305	310.57
377.686	306.5
378.066	300.85
378.447	306.5
378.827	335.88
379.208	315.09
379.588	327.97
379.968	323.23
380.349	336.11
380.729	328.42
381.109	323.68
381.489	305.6
381.87	339.27
382.25	338.59
382.63	331.36
383.01	333.85
383.39	338.82
383.77	328.88
384.15	346.05
384.53	333.4
384.91	369.1
385.29	343.56
385.67	347.63
386.049	362.55
386.429	340.17
386.809	341.98
387.189	345.6
387.568	335.43
387.948	343.56
388.328	365.03
388.707	354.41
389.087	370.46
389.466	354.64
389.846	360.29
390.225	381.3
390.605	379.04
390.984	357.35
391.363	370.91
391.743	357.12
392.122	378.37
392.501	377.24
392.881	360.97
393.26	381.3
393.639	389.66
394.018	376.56
394.397	374.75
394.776	364.81
395.155	376.11
395.534	371.59
395.913	389.66
396.292	387.86
396.671	370.91
397.05	392.15
397.429	385.6
397.808	418.36
398.186	414.3
398.565	370
398.944	423.34
399.323	418.59
399.701	410.68
400.08	394.64
400.458	410.46
400.837	432.38
401.215	430.34
401.594	413.62
401.972	428.99
402.351	427.18
402.729	446.61
403.107	412.94
403.486	420.62
403.864	463.56
404.242	426.5
404.62	438.7
404.999	452.94
405.377	448.87
405.755	446.84
406.133	471.24
406.511	458.59
406.889	443.45
407.267	480.28
407.645	482.77
408.023	448.19
408.401	483.22
408.779	466.27
409.156	472.15
409.534	483.45
409.912	498.81
410.29	519.83
410.667	512.37
411.045	498.81
411.422	554.63
411.8	524.8
412.178	539.27
412.555	579.72
412.933	548.53
413.31	556.89
413.687	564.12
414.065	568.87
414.442	571.36
414.819	584.01
415.197	589.89
415.574	577.91
415.951	599.38
416.328	601.18
416.705	602.54
417.082	623.33
417.46	631.24
417.837	629.21
418.214	630.79
418.591	669.88
418.967	645.25
419.344	661.52
419.721	653.39
420.098	670.34
420.475	681.63
420.852	696.55
421.228	699.71
421.605	711.24
421.982	730.9
422.358	729.77
422.735	735.19
423.111	726.15
423.488	751.69
423.864	777.9
424.241	782.65
424.617	778.13
424.994	788.3
425.37	842.31
425.746	812.25
426.123	797.56
426.499	805.02
426.875	833.04
427.251	862.42
427.627	873.49
428.003	871.91
428.379	884.57
428.756	879.14
429.132	910.33
429.507	915.07
429.883	918.92
430.259	937.67
430.635	933.83
431.011	953.49
431.387	948.75
431.763	991.68
432.138	963.66
432.514	1008.63
432.89	1023.77
433.265	1049.76
433.641	1049.31
434.016	1050.89
434.392	1084.79
434.767	1090.66
435.143	1120.72
435.518	1176.08
435.894	1140.83
436.269	1141.96
436.644	1151.45
437.02	1178.34
437.395	1186.25
437.77	1223.54
438.145	1236.87
438.52	1205.91
438.895	1277.78
439.271	1271.9
439.646	1312.58
440.021	1280.26
440.395	1304.44
440.77	1309.41
441.145	1322.75
441.52	1367.72
441.895	1349.41
442.27	1356.65
442.645	1340.6
443.019	1405.68
443.394	1371.33
443.769	1444.33
444.143	1401.39
444.518	1465.12
444.892	1432.35
445.267	1465.12
445.641	1479.13
446.016	1491.56
446.39	1492.91
446.764	1514.16
447.139	1505.79
447.513	1532.69
447.887	1535.17
448.262	1533.59
448.636	1565.91
449.01	1592.57
449.384	1590.76
449.758	1583.08
450.132	1593.7
450.506	1630.99
450.88	1631.89
451.254	1625.34
451.628	1667.82
452.002	1659.24
452.376	1705.79
452.75	1685.45
453.123	1754.15
453.497	1723.64
453.871	1774.26
454.244	1791.44
454.618	1804.77
454.992	1816.52
455.365	1802.96
455.739	1846.58
456.112	1839.12
456.486	1898.78
456.859	1904.2
457.232	1915.73
457.606	1900.13
457.979	1945.56
458.352	1980.58
458.725	2008.38
459.099	1998.44
459.472	2040.02
459.845	2045.67
460.218	2078.21
460.591	2124.53
460.964	2096.96
461.337	2150.3
461.71	2175.83
462.083	2225.1
462.456	2210.18
462.829	2207.47
463.201	2277.52
463.574	2252.21
463.947	2281.14
464.32	2354.58
464.692	2359.56
465.065	2369.73
465.438	2405.88
465.81	2422.83
466.183	2433.45
466.555	2486.78
466.928	2532.43
467.3	2499.67
467.672	2538.76
468.045	2625.54
468.417	2588.93
468.789	2648.81
469.161	2668.48
469.534	2701.02
469.906	2744.41
470.278	2759.32
470.65	2790.96
471.022	2858.07
471.394	2899.66
471.766	2942.14
472.138	2942.59
472.51	3031.86
472.882	3044.96
473.253	3057.39
473.625	3124.96
473.997	3160.44
474.369	3163.15
474.74	3230.95
475.112	3249.25
475.484	3315.69
475.855	3343.03
476.227	3397.72
476.598	3445.86
476.97	3501
477.341	3539.19
477.713	3572.63
478.084	3614.89
478.455	3708.22
478.827	3721.33
479.198	3799.29
479.569	3859.86
479.94	3914.54
480.311	3945.05
480.682	4003.13
481.053	4118.38
481.424	4129.45
481.795	4175.55
482.166	4274.76
482.537	4305.72
482.908	4352.95
483.279	4408.09
483.65	4456.45
484.021	4562.89
484.391	4592.04
484.762	4678.59
485.133	4686.5
485.503	4723.34
485.874	4772.83
486.244	4861.19
486.615	4919.94
486.985	5019.37
487.356	5069.09
487.726	5059.37
488.097	5162.42
488.467	5190.44
488.837	5290.1
489.207	5311.34
489.578	5410.78
489.948	5432.24
490.318	5490.77
490.688	5539.13
491.058	5627.95
491.428	5639.92
491.798	5712.01
492.168	5772.57
492.538	5831.56
492.908	5889.63
493.278	5881.95
493.648	5940.25
494.017	6036.52
494.387	6040.14
494.757	6087.82
495.126	6126.92
495.496	6179.57
495.866	6178.44
496.235	6245.78
496.605	6311.32
496.974	6288.72
497.344	6407.59
497.713	6428.38
498.082	6399.9
498.452	6469.73
498.821	6502.72
499.19	6527.58
499.559	6614.81
499.928	6578.88
500.298	6661.82
500.667	6705.66
501.036	6628.82
501.405	6719.22
501.774	6807.58
502.143	6797.86
502.512	6834.92
502.88	6834.69
503.249	6833.11
503.618	6928.25
503.987	6937.29
504.356	6951.98
504.724	6954.01
505.093	6962.37
505.462	7020.23
505.83	6998.53
506.199	7088.92
506.567	7111.3
506.936	7144.74
507.304	7186.77
507.672	7209.6
508.041	7189.03
508.409	7250.28
508.777	7260.67
509.145	7338.18
509.514	7355.13
509.882	7400.1
510.25	7414.34
510.618	7464.06
510.986	7404.4
511.354	7441
511.722	7481.46
512.09	7544.51
512.458	7548.57
512.826	7664.73
513.193	7621.11
513.561	7616.82
513.929	7610.72
514.297	7724.84
514.664	7718.29
515.032	7743.6
515.4	7743.14
515.767	7773.88
516.135	7829.24
516.502	7735.01
516.869	7843.71
517.237	7825.18
517.604	7785.4
517.972	7895.91
518.339	7932.07
518.706	7949.01
519.073	7899.07
519.44	7955.34
519.808	7992.63
520.175	7984.27
520.542	8102.23
520.909	8071.27
521.276	8052.29
521.643	8097.26
522.009	8111.04
522.376	8154.43
522.743	8156.24
523.11	8202.11
523.477	8164.38
523.843	8276.69
524.21	8324.37
524.577	8367.08
524.943	8341.55
525.31	8388.32
525.676	8399.85
526.043	8426.52
526.409	8427.87
526.776	8501.77
527.142	8483.24
527.508	8470.81
527.874	8545.83
528.241	8497.47
528.607	8556.46
528.973	8580.41
529.339	8609.11
529.705	8683.91
530.071	8728.65
530.437	8643.69
530.803	8668.77
531.169	8708.99
531.535	8624.7
531.901	8732.95
532.267	8707.64
532.632	8848.65
532.998	8737.47
533.364	8773.63
533.73	8785.38
534.095	8850.69
534.461	8769.56
534.826	8740.63
535.192	8751.03
535.557	8814.98
535.923	8809.33
536.288	8757.81
536.653	8834.19
537.019	8757.35
537.384	8828.09
537.749	8800.52
538.114	8773.85
538.479	8779.5
538.845	8786.28
539.21	8822.44
539.575	8799.61
539.94	8800.07
540.305	8821.76
540.67	8751.03
541.034	8811.82
541.399	8760.74
541.764	8788.31
542.129	8803
542.494	8800.07
542.858	8850.69
543.223	8767.3
543.587	8892.04
543.952	8810.91
544.316	8816.79
544.681	8760.07
545.045	8756.68
545.41	8812.04
545.774	8869.89
546.138	8817.01
546.503	8830.57
546.867	8748.32
547.231	8760.07
547.595	8752.38
547.959	8736.11
548.324	8791.7
548.688	8779.95
549.052	8840.29
549.416	8733.63
549.779	8756.45
550.143	8692.27
550.507	8711.03
550.871	8720.52
551.235	8712.84
551.599	8817.47
551.962	8770.24
552.326	8758.71
552.689	8727.75
553.053	8736.34
553.417	8844.13
553.78	8802.78
554.143	8783.57
554.507	8743.57
554.87	8831.25
555.234	8798.26
555.597	8776.56
555.96	8776.56
556.323	8815.43
556.686	8840.74
557.05	8855.43
557.413	8834.19
557.776	8838.48
558.139	8894.3
558.502	8853.4
558.865	8922.77
559.228	8944.92
559.59	8953.06
559.953	8900.4
560.316	8974.75
560.679	9021.75
561.041	9039.15
561.404	9054.97
561.767	9037.35
562.129	8990.57
562.492	9062.88
562.854	9059.49
563.217	9068.31
563.579	9076.22
563.941	9159.83
564.304	9148.98
564.666	9166.61
565.028	9161.41
565.39	9213.39
565.753	9252.48
566.115	9281.86
566.477	9254.97
566.839	9345.36
567.201	9299.49
567.563	9348.53
567.925	9409.54
568.287	9449.99
568.648	9428.75
569.01	9404.34
569.372	9451.57
569.734	9454.74
570.095	9574.06
570.457	9581.74
570.819	9570.21
571.18	9550.33
571.542	9603.43
571.903	9609.08
572.265	9609.31
572.626	9722.07
572.987	9668.06
573.349	9720.04
573.71	9756.42
574.071	9777.89
574.432	9807.04
574.794	9889.98
575.155	9848.17
575.516	9821.96
575.877	9908.74
576.238	9911
576.599	9906.25
576.96	9935.63
577.32	9937.44
577.681	10006.59
578.042	10007.94
578.403	10037.09
578.763	10058.56
579.124	10056.3
579.485	10135.17
579.845	10054.72
580.206	10120.03
580.566	10101.95
580.927	10162.52
581.287	10227.82
581.648	10136.98
582.008	10212.91
582.368	10185.57
582.728	10251.55
583.089	10168.39
583.449	10294.72
583.809	10266.92
584.169	10288.84
584.529	10316.18
584.889	10459.46
585.249	10351.89
585.609	10310.08
585.969	10338.1
586.329	10399.35
586.688	10343.08
587.048	10299.69
587.408	10386.92
587.768	10449.51
588.127	10433.02
588.487	10394.37
588.846	10462.62
589.206	10436.41
589.565	10432.79
589.925	10471.66
590.284	10470.3
590.643	10436.41
591.003	10556.18
591.362	10573.8
591.721	10551.43
592.08	10559.34
592.44	10559.34
592.799	10510.3
593.158	10530.87
593.517	10519.57
593.876	10569.74
594.235	10586.23
594.593	10560.92
594.952	10587.14
595.311	10619.45
595.67	10647.93
596.029	10660.81
596.387	10707.59
596.746	10669.85
597.104	10614.03
597.463	10575.84
597.822	10731.31
598.18	10654.93
598.538	10689.28
598.897	10684.31
599.255	10647.25
599.613	10779.9
599.972	10701.94
600.33	10787.36
600.688	10709.17
601.046	10737.64
601.404	10748.94
601.762	10751.88
602.12	10839.11
602.478	10797.53
602.836	10810.63
603.194	10749.17
603.552	10758.66
603.91	10809.05
604.268	10799.11
604.625	10775.38
604.983	10813.8
605.341	10815.61
605.698	10906.22
606.056	10846.34
606.413	10813.57
606.771	10936.05
607.128	10908.94
607.485	10896.96
607.843	10874.13
608.2	10844.76
608.557	10950.74
608.914	10889.5
609.272	11006.11
609.629	10939.44
609.986	11038.42
610.343	10983.74
610.7	11030.52
611.057	11040.91
611.414	10930.63
611.771	10986
612.127	10982.38
612.484	10982.15
612.841	11061.02
613.198	10990.52
613.554	10964.75
613.911	11128.59
614.267	11065.09
614.624	11005.66
614.98	11085.88
615.337	11200.68
615.693	11062.6
616.05	11077.52
616.406	11209.95
616.762	11146.67
617.118	11112.77
617.475	11154.81
617.831	11211.98
618.187	11166.78
618.543	11193.45
618.899	11217.4
619.255	11210.62
619.611	11192.09
619.967	11284.75
620.323	11328.36
620.678	11256.5
621.034	11205.43
621.39	11184.41
621.746	11209.72
622.101	11289.49
622.457	11225.54
622.812	11229.61
623.168	11276.84
623.523	11300.34
623.879	11310.96
624.234	11199.32
624.589	11237.52
624.945	11287.68
625.3	11263.28
625.655	11299.21
626.01	11221.92
626.365	11301.02
626.72	11230.74
627.075	11246.1
627.43	11285.42
627.785	11219.44
628.14	11263.96
628.495	11200.23
628.85	11160
629.205	11193
629.559	11212.43
629.914	11167.91
630.269	11185.54
630.623	11121.36
630.978	11081.59
631.332	11193
631.687	11151.64
632.041	11132.89
632.396	11097.41
632.75	11090.4
633.104	11059.21
633.459	11023.06
633.813	11038.42
634.167	10997.75
634.521	11024.41
634.875	11012.21
635.229	11043.4
635.583	11012.89
635.937	10987.8
636.291	10975.6
636.645	10979.67
636.999	10929.73
637.352	10994.81
637.706	10902.38
638.06	10971.99
638.413	10845.89
638.767	10838.88
639.121	10872.1
639.474	10890.86
639.828	10864.87
640.181	10902.83
640.534	10916.85
640.888	10829.39
641.241	10736.06
641.594	10716.4
641.947	10869.62
642.301	10785.55
642.654	10698.32
643.007	10783.29
643.36	10726.57
643.713	10813.57
644.066	10714.14
644.419	10702.61
644.771	10618.55
645.124	10493.81
645.477	10506.24
645.83	10521.38
646.182	10426.46
646.535	10414.71
646.888	10423.98
647.24	10323.41
647.593	10423.75
647.945	10301.04
648.298	10282.74
648.65	10336.52
649.002	10287.94
649.355	10326.13
649.707	10324.09
650.059	10313.02
650.411	10490.42
650.763	10488.16
651.115	10598.66
651.467	10620.58
651.819	10551.43
652.171	10492.22
652.523	10497.87
652.875	10495.61
653.227	10501.94
653.578	10523.86
653.93	10550.98
654.282	10572.45
654.633	10465.78
654.985	10523.41
655.337	10461.49
655.688	10442.51
656.039	10567.25
656.391	10453.36
656.742	10440.7
657.094	10523.86
657.445	10529.51
657.796	10488.38
658.147	10469.85
658.498	10461.49
658.849	10504.88
659.2	10420.36
659.551	10435.73
659.902	10420.14
660.253	10522.28
660.604	10535.84
660.955	10468.95
661.306	10526.35
661.656	10428.27
662.007	10541.49
662.358	10505.11
662.708	10379.68
663.059	10485.67
663.409	10412
663.76	10547.36
664.11	10457.87
664.461	10547.82
664.811	10527.48
665.161	10523.18
665.511	10511.88
665.862	10482.96
666.212	10562.96
666.562	10573.35
666.912	10440.47
667.262	10471.43
667.612	10459
667.962	10491.09
668.312	10476.63
668.662	10564.09
669.011	10494.94
669.361	10452.45
669.711	10413.81
670.06	10576.74
670.41	10410.19
670.76	10429.63
671.109	10477.31
671.459	10479.57
671.808	10428.72
672.157	10434.15
672.507	10352.11
672.856	10392.11
673.205	10397.54
673.554	10483.86
673.904	10397.31
674.253	10421.72
674.602	10395.5
674.951	10240.71
675.3	10200.71
675.649	10331.32
675.998	10368.16
676.346	10342.4
676.695	10303.08
677.044	10344.66
677.393	10243.87
677.741	10294.72
678.09	10247.03
678.438	10286.13
678.787	10254.04
679.135	10247.94
679.484	10172.23
679.832	10180.59
680.181	10222.85
680.529	10152.35
680.877	10106.25
681.225	10176.53
681.573	10220.37
681.922	10103.31
682.27	10067.15
682.618	10112.8
682.966	10033.48
683.314	9942.18
683.661	10040.71
684.009	10005.68
684.357	10012.01
684.705	9933.59
685.053	9925.46
685.4	9916.65
685.748	9921.39
686.095	9974.05
686.443	9782.19
686.79	9834.61
687.138	9789.87
687.485	9898.12
687.832	9663.55
688.18	9742.87
688.527	9756.65
688.874	9780.15
689.221	9630.55
689.568	9662.19
689.915	9583.77
690.262	9656.09
690.609	9577.22
690.956	9569.54
691.303	9557.33
691.65	9408.18
691.997	9479.14
692.344	9455.42
692.69	9451.12
693.037	9409.77
693.383	9323.44
693.73	9386.04
694.077	9381.07
694.423	9306.72
694.769	9280.28
695.116	9246.38
695.462	9225.14
695.808	9219.04
696.155	9177
696.501	9158.47
696.847	9055.2
697.193	9064.01
697.539	9091.81
697.885	8951.7
698.231	8939.27
698.577	8906.05
698.923	8861.31
699.269	8863.34
699.614	8791.03
699.96	8815.21
700.306	8804.58
700.651	8791.25
700.997	8681.65
701.342	8717.81
701.688	8640.3
702.033	8650.01
702.379	8655.44
702.724	8610.24
703.069	8621.76
703.415	8508.77
703.76	8442.79
704.105	8516.46
704.45	8502.45
704.795	8377.93
705.14	8413.86
705.485	8377.93
705.83	8346.29
706.175	8317.37
706.52	8344.94
706.865	8319.17
707.209	8261.55
707.554	8233.3
707.899	8285.73
708.243	8167.09
708.588	8160.76
708.932	8118.95
709.277	8142.91
709.621	8112.17
709.966	8046.64
710.31	8106.07
710.654	8065.4
710.998	8073.08
711.342	8080.76
711.687	7918.28
712.031	8029.92
712.375	7980.88
712.719	7952.63
713.063	7952.4
713.407	7936.36
713.75	7887.32
714.094	7913.76
714.438	7864.5
714.782	7871.5
715.125	7830.6
715.469	7821.56
715.812	7828.79
716.156	7815.91
716.499	7790.37
716.843	7803.71
717.186	7805.06
717.53	7812.97
717.873	7797.83
718.216	7750.83
718.559	7718.74
718.902	7663.37
719.246	7701.56
719.589	7657.72
719.932	7579.76
720.275	7623.15
720.617	7680.32
720.96	7612.53
721.303	7669.93
721.646	7648.23
721.989	7570.72
722.331	7620.44
722.674	7592.41
723.016	7552.19
723.359	7526.65
723.701	7554.67
724.044	7531.4
724.386	7432.64
724.729	7530.95
725.071	7541.34
725.413	7494.34
725.755	7480.78
726.097	7461.57
726.439	7434
726.782	7409.37
727.124	7480.33
727.465	7486.2
727.807	7472.42
728.149	7428.35
728.491	7429.48
728.833	7444.39
729.175	7395.81
729.516	7430.84
729.858	7370.27
730.199	7353.55
730.541	7359.65
730.882	7360.78
731.224	7406.88
731.565	7338.41
731.906	7350.61
732.248	7378.86
732.589	7308.58
732.93	7338.18
733.271	7365.98
733.612	7354
733.953	7312.87
734.294	7313.1
734.635	7273.1
734.976	7342.25
735.317	7302.03
735.658	7340.67
735.999	7288.92
736.339	7301.35
736.68	7294.12
737.021	7366.43
737.361	7337.05
737.702	7346.32
738.042	7303.83
738.383	7271.07
738.723	7372.31
739.063	7320.78
739.404	7369.82
739.744	7324.4
740.084	7317.62
740.424	7336.37
740.764	7348.58
741.104	7409.59
741.444	7358.75
741.784	7371.4
742.124	7363.72
742.464	7376.83
742.804	7431.74
743.143	7358.97
743.483	7361.91
743.823	7373.44
744.162	7350.16
744.502	7481.46
744.841	7428.8
745.181	7415.02
745.52	7420.44
745.86	7519.19
746.199	7453.89
746.538	7524.84
746.877	7531.17
747.216	7572.07
747.556	7612.3
747.895	7653.88
748.234	7713.77
748.573	7650.04
748.911	7692.07
749.25	7759.87
749.589	7775.69
749.928	7864.95
750.267	7918.05
750.605	7962.35
750.944	7997.83
751.283	8001.44
751.621	8001.67
751.96	8168.44
752.298	8100.65
752.636	8210.93
752.975	8278.95
753.313	8332.28
753.651	8438.49
753.989	8387.87
754.327	8513.75
754.666	8582.9
755.004	8654.76
755.342	8797.13
755.679	8843.68
756.017	8829.67
756.355	9039.38
756.693	9081.64
757.031	9186.04
757.368	9254.97
757.706	9330.67
758.044	9430.56
758.381	9559.82
758.719	9578.12
759.056	9764.11
759.394	9918
759.731	9895.4
760.068	10009.07
760.405	10112.8
760.743	10158
761.08	10352.79
761.417	10357.54
761.754	10510.53
762.091	10636.18
762.428	10721.14
762.765	10757.98
763.102	10942.38
763.438	10962.72
763.775	11086.56
764.112	11328.59
764.449	11377.85
764.785	11311.64
765.122	11452.65
765.458	11504.63
765.795	11643.61
766.131	11731.29
766.467	11803.38
766.804	11884.96
767.14	11958.85
767.476	12065.52
767.812	12086.76
768.148	12277.94
768.485	12249.24
768.821	12313.87
769.157	12433.42
769.492	12500.31
769.828	12581.43
770.164	12673.18
770.5	12733.75
770.836	12745.5
771.171	12742.56
771.507	12885.16
771.842	12858.94
772.178	12904.36
772.513	12941.65
772.849	12979.62
773.184	12995.44
773.519	12990.01
773.855	13058.03
774.19	13091.03
774.525	13133.28
774.86	13116.79
775.195	13312.71
775.53	13192.72
775.865	13270.68
776.2	13196.56
776.535	13137.58
776.87	13349.32
777.205	13279.5
777.539	13261.64
777.874	13302.32
778.209	13227.52
778.543	13332.15
778.878	13217.58
779.212	13298.48
779.547	13240.17
779.881	13326.05
780.215	13248.31
780.55	13410.79
780.884	13299.83
781.218	13279.27
781.552	13361.98
781.886	13305.26
782.22	13348.65
782.554	13378.7
782.888	13121.99
783.222	13185.71
783.556	13143.91
783.889	13153.85
784.223	13072.95
784.557	13138.26
784.89	13183.45
785.224	13109.1
785.557	13064.81
785.891	13053.06
786.224	13003.57
786.558	13126.28
786.891	13023.91
787.224	12947.75
787.557	12979.39
787.891	12944.81
788.224	12923.35
788.557	12954.31
788.89	12903.91
789.223	12936.91
789.556	12892.84
789.888	12806.29
790.221	12820.98
790.554	12669.57
790.887	12787.53
791.219	12768.55
791.552	12749.11
791.884	12656.01
792.217	12653.75
792.549	12626.41
792.882	12561.55
793.214	12512.74
793.546	12571.04
793.879	12557.25
794.211	12428.22
794.543	12452.17
794.875	12497.14
795.207	12495.79
795.539	12358.39
795.871	12420.08
796.203	12300.31
796.535	12132.86
796.867	12234.55
797.198	12271.16
797.53	12213.08
797.862	12159.98
798.193	12227.09
798.525	12055.57
798.856	12156.36
799.188	11938.97
799.519	11988.23
799.85	11911.17
800.182	11918.18
800.513	11891.06
800.844	11832.53
801.175	11915.24
801.506	11824.17
801.837	11846.31
802.168	11759.99
802.499	11757.95
802.83	11694.68
803.161	11715.02
803.491	11631.4
803.822	11722.47
804.153	11600.67
804.483	11574
804.814	11522.48
805.145	11543.04
805.475	11564.51
805.805	11453.78
806.136	11478.41
806.466	11450.17
806.796	11448.58
807.126	11306.89
807.457	11379.43
807.787	11357.74
808.117	11266.89
808.447	11257.63
808.777	11322.03
809.107	11202.49
809.436	11242.26
809.766	11185.31
810.096	11227.35
810.426	11131.98
810.755	11125.43
811.085	11115.26
811.414	11110.51
811.744	10967.24
812.073	10992.78
812.403	10997.75
812.732	10957.75
813.061	10980.8
813.39	10954.58
813.719	10906.68
814.049	10941.7
814.378	10825.55
814.707	10835.04
815.036	10797.3
815.365	10832.78
815.693	10637.08
816.022	10709.17
816.351	10647.93
816.68	10665.78
817.008	10651.99
817.337	10605.67
817.665	10525.67
817.994	10574.71
818.322	10583.97
818.651	10500.13
818.979	10541.94
819.307	10536.52
819.636	10484.31
819.964	10470.53
820.292	10484.31
820.62	10508.72
820.948	10428.5
821.276	10455.84
821.604	10388.05
821.932	10374.04
822.259	10464.43
822.587	10403.19
822.915	10347.6
823.243	10433.92
823.57	10386.01
823.898	10397.09
824.225	10408.38
824.553	10360.02
824.88	10386.46
825.207	10449.74
825.535	10406.35
825.862	10508.27
826.189	10389.4
826.516	10433.47
826.843	10470.53
827.17	10404.54
827.497	10446.8
827.824	10466.91
828.151	10511.66
828.478	10489.96
828.805	10433.92
829.131	10392.11
829.458	10426.24
829.785	10355.96
830.111	10440.47
830.438	10444.99
830.764	10449.74
831.09	10426.92
831.417	10391.21
831.743	10455.39
832.069	10398.44
832.395	10373.13
832.722	10382.17
833.048	10408.38
833.374	10450.42
833.7	10360.7
834.026	10397.09
834.351	10340.59
834.677	10296.75
835.003	10385.11
835.329	10362.96
835.654	10305.79
835.98	10285.22
836.306	10309.86
836.631	10304.66
836.956	10291.33
837.282	10332.68
837.607	10274.15
837.932	10246.13
838.258	10248.61
838.583	10230.54
838.908	10184.66
839.233	10131.56
839.558	10161.84
839.883	10167.71
840.208	10111.22
840.533	10065.57
840.858	10073.48
841.182	10077.32
841.507	10094.95
841.832	10039.13
842.156	10028.28
842.481	9983.99
842.805	9972.46
843.13	9924.1
843.454	9932.92
843.778	9849.76
844.103	9838.46
844.427	9755.75
844.751	9861.96
845.075	9816.99
845.399	9796.2
845.723	9735.41
846.047	9755.07
846.371	9640.72
846.695	9624.45
847.019	9609.76
847.343	9523.21
847.666	9499.26
847.99	9414.06
848.313	9476.66
848.637	9459.03
848.96	9385.81
849.284	9372.93
849.607	9233.27
849.931	9251.8
850.254	9276.66
850.577	9190.56
850.9	9101.75
851.223	9052.04
851.546	9043.22
851.869	8969.1
852.192	9060.17
852.515	8948.54
852.838	8932.49
853.161	8931.59
853.483	8918.93
853.806	8884.36
854.129	8853.17
854.451	8898.14
854.774	8818.14
855.096	8795.55
855.419	8756.22
855.741	8730.01
856.063	8732.95
856.385	8647.07
856.708	8631.26
857.03	8619.05
857.352	8645.04
857.674	8540.41
857.996	8637.81
858.318	8470.13
858.64	8570.47
858.961	8505.16
859.283	8473.75
859.605	8392.62
859.926	8403.69
860.248	8409.34
860.57	8327.08
860.891	8327.08
861.212	8351.49
861.534	8249.12
861.855	8297.71
862.176	8293.64
862.498	8234.2
862.819	8250.02
863.14	8200.08
863.461	8160.31
863.782	8168.44
864.103	8139.29
864.424	8188.33
864.745	8204.83
865.065	8157.6
865.386	8103.13
865.707	8069.91
866.027	8144.04
866.348	8071.5
866.668	8056.81
866.989	8067.66
867.309	7973.65
867.63	8033.08
867.95	8107.88
868.27	8006.41
868.59	7972.74
868.91	7977.04
869.23	7997.83
869.55	7886.19
869.87	7969.58
870.19	7931.84
870.51	7997.6
870.83	7902.69
871.15	7880.54
871.469	7902.91
871.789	7912.63
872.109	7871.5
872.428	7825.85
872.748	7795.57
873.067	7846.87
873.386	7812.97
873.706	7756.93
874.025	7786.31
874.344	7766.19
874.663	7772.97
874.982	7738.4
875.301	7735.46
875.62	7693.88
875.939	7713.77
876.258	7694.11
876.577	7655.46
876.896	7697.95
877.214	7655.24
877.533	7690.72
877.852	7591.51
878.17	7629.25
878.489	7620.21
878.807	7622.24
879.125	7590.61
879.444	7565.52
879.762	7521.91
880.08	7571.85
880.398	7566.88
880.716	7472.87
881.034	7495.24
881.352	7499.53
881.67	7449.37
881.988	7463.6
882.306	7413.44
882.624	7419.31
882.941	7373.44
883.259	7325.08
883.577	7322.14
883.894	7355.58
884.212	7342.48
884.529	7285.53
884.846	7288.92
885.164	7256.83
885.481	7239.88
885.798	7214.12
886.115	7261.8
886.432	7213.21
886.75	7257.05
887.067	7203.95
887.383	7132.76
887.7	7146.55
888.017	7127.11
888.334	7146.32
888.651	7113.33
888.967	7077.62
889.284	7064.29
889.6	7012.32
889.917	7014.12
890.233	7015.03
890.55	7011.19
890.866	6987.46
891.182	6917.4
891.498	6937.52
891.815	6882.15
892.131	6929.61
892.447	6912.21
892.763	6846.44
893.079	6810.06
893.395	6844.86
893.71	6834.47
894.026	6761.25
894.342	6758.09
894.657	6716.73
894.973	6694.36
895.289	6697.07
895.604	6630.4
895.92	6584.76
896.235	6556.28
896.55	6626.34
896.865	6588.37
897.181	6564.19
897.496	6542.27
897.811	6542.05
898.126	6543.85
898.441	6486.45
898.756	6413.69
899.071	6387.47
899.386	6451.2
899.7	6405.1
900.015	6355.16
900.33	6385.21
900.644	6331.2
900.959	6297.98
901.273	6309.74
901.588	6249.85
901.902	6234.71
902.216	6198.1
902.531	6180.47
902.845	6163.98
903.159	6141.38
903.473	6062.51
903.787	6129.4
904.101	6005.79
904.415	6055.28
904.729	5985.9
905.042	6014.6
905.356	5939.8
905.67	5949.97
905.984	5915.17
906.297	5873.14
906.611	5863.65
906.924	5865.68
907.237	5819.8
907.551	5798.34
907.864	5805.12
908.177	5809.86
908.491	5803.53
908.804	5733.93
909.117	5682.86
909.43	5681.73
909.743	5625.23
910.056	5675.85
910.368	5611.45
910.681	5573.26
910.994	5616.87
911.307	5561.28
911.619	5528.51
911.932	5563.31
912.244	5436.76
912.557	5451.23
912.869	5463.66
913.181	5425.92
913.494	5418.46
913.806	5376.65
914.118	5356.99
914.43	5312.93
914.742	5366.48
915.054	5299.59
915.366	5313.83
915.678	5250.55
915.99	5205.58
916.302	5185.47
916.613	5177.79
916.925	5189.99
917.236	5216.66
917.548	5118.81
917.859	5113.61
918.171	5146.38
918.482	5072.71
918.794	5053.05
919.105	5075.19
919.416	5003.1
919.727	4992.48
920.038	5001.75
920.349	4947.74
920.66	4968.08
920.971	4929.21
921.282	4918.36
921.593	4907.51
921.903	4849.43
922.214	4826.84
922.525	4851.92
922.835	4812.37
923.146	4760.4
923.456	4757.69
923.767	4764.69
924.077	4715.65
924.387	4695.54
924.697	4678.14
925.008	4668.42
925.318	4653.73
925.628	4666.84
925.938	4606.96
926.248	4572.38
926.558	4564.24
926.867	4581.19
927.177	4524.7
927.487	4549.33
927.796	4488.09
928.106	4491.03
928.416	4477.92
928.725	4437.47
929.034	4422.1
929.344	4423.23
929.653	4405.6
929.962	4346.85
930.271	4318.6
930.581	4355.66
930.89	4321.99
931.199	4275.66
931.508	4281.99
931.817	4294.19
932.125	4246.29
932.434	4246.96
932.743	4190.47
933.051	4173.75
933.36	4159.74
933.669	4167.42
933.977	4171.71
934.286	4181.88
934.594	4138.04
934.902	4106.18
935.21	4121.77
935.519	4101.88
935.827	4061.43
936.135	4025.05
936.443	3998.61
936.751	4047.87
937.059	3996.8
937.367	3958.38
937.674	3970.81
937.982	3943.24
938.29	3911.61
938.597	3985.95
938.905	3885.84
939.213	3883.36
939.52	3877.48
939.827	3835.45
940.135	3820.76
940.442	3828.9
940.749	3797.03
941.056	3785.06
941.363	3752.06
941.67	3737.15
941.977	3730.37
942.284	3726.3
942.591	3701.44
942.898	3716.36
943.205	3675.91
943.511	3666.64
943.818	3644.72
944.125	3642.69
944.431	3644.27
944.738	3611.28
945.044	3577.38
945.35	3552.52
945.657	3544.61
945.963	3557.49
946.269	3544.61
946.575	3523.59
946.881	3506.87
947.187	3446.31
947.493	3446.99
947.799	3479.98
948.105	3451.51
948.41	3416.48
948.716	3428
949.022	3381.45
949.327	3409.47
949.633	3377.38
949.938	3342.81
950.244	3338.97
950.549	3284.96
950.854	3341
951.16	3305.75
951.465	3333.09
951.77	3271.85
952.075	3277.95
952.38	3243.38
952.685	3214.22
952.99	3198.63
953.294	3192.3
953.599	3191.17
953.904	3176.48
954.209	3154.34
954.513	3209.48
954.818	3134.9
955.122	3131.74
955.426	3127.45
955.731	3069.59
956.035	3080.22
956.339	3078.18
956.643	3050.39
956.948	3065.53
957.252	3001.12
957.556	3038.86
957.86	3005.19
958.163	2998.41
958.467	2985.08
958.771	2988.92
959.075	2997.51
959.378	2978.98
959.682	2962.7
959.985	2972.87
960.289	2881.58
960.592	2914.12
960.896	2888.81
961.199	2894.46
961.502	2872.99
961.805	2843.61
962.108	2834.35
962.411	2839.32
962.714	2828.24
963.017	2777.17
963.32	2812.65
963.623	2787.79
963.926	2797.29
964.228	2767
964.531	2772.88
964.833	2775.82
965.136	2717.06
965.438	2711.64
965.741	2666.89
966.043	2690.62
966.345	2670.51
966.648	2668.93
966.95	2684.29
967.252	2642.26
967.554	2653.79
967.856	2636.39
968.158	2633
968.46	2617.18
968.761	2616.72
969.063	2553.22
969.365	2575.14
969.666	2591.19
969.968	2560.23
970.269	2548.25
970.571	2513.45
970.872	2561.59
971.174	2505.09
971.475	2513
971.776	2475.49
972.077	2454.24
972.378	2454.02
972.679	2456.05
972.98	2418.76
973.281	2439.78
973.582	2456.73
973.883	2429.84
974.183	2390.52
974.484	2396.62
974.785	2403.17
975.085	2417.41
975.386	2375.15
975.686	2387.35
975.986	2355.49
976.287	2327.69
976.587	2299.67
976.887	2345.32
977.187	2335.6
977.487	2267.36
977.787	2280.24
978.087	2267.81
978.387	2300.12
978.687	2234.14
978.987	2258.99
979.286	2238.43
979.586	2251.76
979.885	2236.4
980.185	2230.07
980.484	2193.91
980.784	2186.45
981.083	2180.13
981.382	2165.66
981.682	2164.99
981.981	2133.8
982.28	2152.56
982.579	2114.59
982.878	2126.34
983.177	2116.85
983.475	2093.12
983.774	2086.8
984.073	2080.02
984.372	2048.15
984.67	2064.42
984.969	2067.36
985.267	2083.41
985.566	2055.61
985.864	2000.02
986.162	2051.32
986.461	2054.03
986.759	2036.63
987.057	1973.58
987.355	1998.66
987.653	2000.02
987.951	2002.28
988.249	2019.45
988.547	1972
988.844	1960.47
989.142	1942.62
989.44	1933.13
989.737	1928.83
990.035	1935.84
990.332	1874.82
990.63	1899.23
990.927	1889.29
991.224	1875.28
991.521	1867.37
991.819	1884.09
992.116	1882.96
992.413	1870.53
992.71	1859.23
993.006	1809.29
993.303	1795.05
993.6	1827.59
993.897	1819.68
994.193	1835.28
994.49	1802.06
994.787	1792.34
995.083	1805.9
995.379	1815.62
995.676	1729.52
995.972	1743.53
996.268	1774.26
996.565	1741.72
996.861	1738.56
997.157	1699.91
997.453	1724.09
997.749	1720.03
998.044	1709.86
998.34	1674.15
998.636	1692.91
998.932	1680.25
999.227	1665.79
999.523	1645
999.818	1646.36
1000.114	1659.91
1000.409	1635.96
1000.704	1632.34
1001	1627.6
1001.295	1636.19
1001.59	1607.49
1001.885	1586.7
1002.18	1579.92
1002.475	1545.57
1002.77	1574.72
1003.065	1554.15
1003.359	1550.99
1003.654	1529.97
1003.949	1522.52
1004.243	1552.35
1004.538	1524.32
1004.832	1514.61
1005.127	1506.25
1005.421	1473.93
1005.715	1487.94
1006.009	1508.05
1006.304	1476.87
1006.598	1502.18
1006.892	1469.64
1007.186	1446.13
1007.48	1448.17
1007.773	1441.84
1008.067	1428.51
1008.361	1416.08
1008.655	1436.42
1008.948	1414.04
1009.242	1409.3
1009.535	1409.07
1009.829	1376.53
1010.122	1372.01
1010.415	1371.56
1010.708	1383.31
1011.001	1368.62
1011.295	1350.54
1011.588	1360.26
1011.881	1334.27
1012.173	1307.83
1012.466	1313.26
1012.759	1314.39
1013.052	1341.05
1013.344	1306.48
1013.637	1283.88
1013.93	1283.2
1014.222	1288.17
1014.514	1283.43
1014.807	1225.58
1015.099	1255.86
1015.391	1249.53
1015.683	1262.18
1015.976	1217.67
1016.268	1243.2
1016.56	1218.57
1016.851	1227.38
1017.143	1213.82
1017.435	1214.95
1017.727	1190.55
1018.018	1178.57
1018.31	1193.03
1018.602	1181.96
1018.893	1163.66
1019.185	1183.99
1019.476	1139.93
1019.767	1117.56
1020.058	1138.57
1020.35	1127.5
1020.641	1100.15
1020.932	1102.64
1021.223	1099.7
1021.514	1086.6
1021.804	1089.53
1022.095	1086.37
1022.386	1089.76
1022.677	1061.06
1022.967	1097.44
1023.258	1070.32
1023.548	1053.83
1023.839	1056.09
1024.129	1059.93
1024.419	1019.93
1024.709	1026.94
1025	1037.11
1025.29	1032.13
1025.58	993.26
1025.87	987.39
1026.16	1018.12
1026.449	973.6
1026.739	1003.89
1027.029	975.41
1027.319	970.44
1027.608	976.77
1027.898	977.45
1028.187	957.11
1028.477	972.25
1028.766	965.69
1029.055	947.16
1029.344	938.8
1029.634	932.25
1029.923	917.79
1030.212	898.58
1030.501	899.71
1030.79	931.35
1031.078	921.18
1031.367	928.86
1031.656	904.23
1031.945	890.44
1032.233	885.25
1032.522	894.28
1032.81	876.43
1033.099	889.99
1033.387	872.82
1033.675	846.38
1033.963	862.19
1034.251	867.39
1034.54	862.87
1034.828	870.78
1035.116	835.53
1035.403	832.37
1035.691	831.46
1035.979	845.02
1036.267	823.78
1036.554	793.95
1036.842	849.54
1037.129	804.8
1037.417	823.33
1037.704	810.44
1037.992	793.5
1038.279	794.85
1038.566	794.63
1038.853	794.63
1039.14	794.63
