Data from hue_20_FLMS001491_98.txt Node
Date: Mon Feb 06 15:35:00 GMT 2017
User: dcchb
Spectrometer: FLMS00149
Trigger mode: 0
Integration Time (sec): 2.000000E-2
Scans to average: 10
Electric dark correction enabled: true
Nonlinearity correction enabled: false
Boxcar width: 0
XAxis mode: Wavelengths
Number of Pixels in Spectrum: 2048
>>>>>Begin Spectral Data<<<<<
341.393	-23.94
341.776	-23.94
342.16	-23.94
342.543	-82.24
342.927	-80.44
343.31	-53.09
343.693	-71.85
344.077	-65.29
344.46	-57.16
344.843	-40.44
345.226	-54.45
345.61	-27.78
345.993	-8.57
346.376	-24.84
346.759	-12.41
347.142	14.93
347.525	58.09
347.908	47.24
348.291	75.94
348.674	115.94
349.057	103.74
349.44	131.31
349.823	113.91
350.206	160.69
350.588	193.68
350.971	220.8
351.354	211.53
351.737	239.56
352.119	240.23
352.502	263.51
352.884	270.52
353.267	290.18
353.65	301.7
354.032	280.91
354.414	301.48
354.797	316.39
355.179	326.11
355.562	317.07
355.944	320.91
356.326	343.73
356.709	344.64
357.091	334.24
357.473	337.86
357.855	342.6
358.238	349.38
358.62	349.16
359.002	343.28
359.384	349.84
359.766	348.03
360.148	328.14
360.53	357.74
360.912	325.66
361.294	331.3
361.676	332.66
362.057	336.73
362.439	318.88
362.821	340.12
363.203	327.69
363.584	335.15
363.966	298.31
364.348	327.01
364.729	329.27
365.111	324.3
365.493	353.45
365.874	319.33
366.256	313.68
366.637	310.51
367.019	327.46
367.4	318.2
367.781	319.78
368.163	298.76
368.544	317.29
368.925	321.81
369.306	317.29
369.688	327.92
370.069	320.01
370.45	324.53
370.831	311.87
371.212	320.46
371.593	310.74
371.974	311.19
372.355	312.77
372.736	318.2
373.117	319.78
373.498	304.64
373.879	322.27
374.26	315.71
374.641	318.2
375.021	315.71
375.402	310.74
375.783	336.5
376.163	341.7
376.544	332.66
376.925	329.72
377.305	330.4
377.686	329.72
378.066	319.1
378.447	355.94
378.827	333.34
379.208	343.96
379.588	325.66
379.968	331.76
380.349	344.41
380.729	360.46
381.109	356.61
381.489	371.3
381.87	348.25
382.25	348.71
382.63	358.2
383.01	352.77
383.39	333.11
383.77	353.68
384.15	360.23
384.53	336.28
384.91	355.71
385.29	363.17
385.67	355.49
386.049	357.52
386.429	373.34
386.809	345.77
387.189	368.14
387.568	365.88
387.948	360.91
388.328	381.92
388.707	359.55
389.087	369.04
389.466	374.02
389.846	352.1
390.225	367.69
390.605	390.51
390.984	360.91
391.363	377.18
391.743	400
392.122	379.44
392.501	377.41
392.881	395.71
393.26	395.48
393.639	391.87
394.018	396.84
394.397	392.55
394.776	389.61
395.155	410.85
395.534	394.58
395.913	392.77
396.292	398.2
396.671	405.43
397.05	399.33
397.429	402.49
397.808	412.21
398.186	417.63
398.565	420.12
398.944	387.8
399.323	428.48
399.701	428.7
400.08	423.73
400.458	437.29
400.837	441.58
401.215	421.7
401.594	416.73
401.972	402.04
402.351	441.58
402.729	424.41
403.107	431.87
403.486	459.44
403.864	421.7
404.242	438.19
404.62	429.16
404.999	444.97
405.377	453.34
405.755	451.98
406.133	454.92
406.511	445.65
406.889	460.34
407.267	458.08
407.645	482.04
408.023	476.16
408.401	476.39
408.779	477.29
409.156	510.28
409.534	473.22
409.912	477.29
410.29	487.23
410.667	484.75
411.045	473
411.422	501.02
411.8	496.72
412.178	499.21
412.555	502.37
412.933	514.58
413.31	498.98
413.687	524.75
414.065	533.33
414.442	534.46
414.819	534.01
415.197	542.37
415.574	530.4
415.951	525.65
416.328	534.92
416.705	560.45
417.082	554.58
417.46	548.25
417.837	552.54
418.214	557.97
418.591	566.55
418.967	575.82
419.344	572.65
419.721	563.62
420.098	570.85
420.475	579.21
420.852	590.51
421.228	580.34
421.605	574.46
421.982	597.96
422.358	586.21
422.735	601.13
423.111	609.26
423.488	608.13
423.864	581.02
424.241	617.4
424.617	637.29
424.994	626.44
425.37	621.69
425.746	629.15
426.123	649.04
426.499	642.71
426.875	650.84
427.251	663.05
427.627	682.48
428.003	668.02
428.379	696.27
428.756	664.86
429.132	676.61
429.507	686.78
429.883	687
430.259	696.49
430.635	684.52
431.011	717.51
431.387	739.2
431.763	724.06
432.138	717.74
432.514	728.36
432.89	748.47
433.265	744.4
433.641	769.71
434.016	763.16
434.392	771.29
434.767	781.01
435.143	775.36
435.518	799.77
435.894	800.67
436.269	808.81
436.644	780.56
437.02	790.28
437.395	795.25
437.77	829.14
438.145	838.18
438.52	837.73
438.895	871.18
439.271	838.41
439.646	857.84
440.021	902.14
440.395	861.01
440.77	867.11
441.145	892.87
441.52	888.35
441.895	873.21
442.27	934.23
442.645	882.25
443.019	918.63
443.394	912.76
443.769	925.41
444.143	893.55
444.518	915.47
444.892	909.37
445.267	946.66
445.641	919.99
446.016	901.69
446.39	948.92
446.764	955.24
447.139	959.31
447.513	965.86
447.887	962.7
448.262	974.45
448.636	985.07
449.01	1004.73
449.384	1013.32
449.758	1004.28
450.132	1012.87
450.506	1004.28
450.88	1011.96
451.254	1057.16
451.628	1025.07
452.002	1049.03
452.376	1055.81
452.75	1033.89
453.123	1038.18
453.497	1071.62
453.871	1095.8
454.244	1078.63
454.618	1123.83
454.992	1137.39
455.365	1138.52
455.739	1162.92
456.112	1176.48
456.486	1181.9
456.859	1179.64
457.232	1197.04
457.606	1199.3
457.979	1234.33
458.352	1246.76
458.725	1263.94
459.099	1234.56
459.472	1287.89
459.845	1304.61
460.218	1310.04
460.591	1294.67
460.964	1285.86
461.337	1352.07
461.71	1351.62
462.083	1373.76
462.456	1360.43
462.829	1402.46
463.201	1405.4
463.574	1395.68
463.947	1424.16
464.32	1446.76
464.692	1473.65
465.065	1464.16
465.438	1505.51
465.81	1498.28
466.183	1539.18
466.555	1558.62
466.928	1586.19
467.3	1571.5
467.672	1583.48
468.045	1619.63
468.417	1619.63
468.789	1652.63
469.161	1686.75
469.534	1697.82
469.906	1729.01
470.278	1759.52
470.65	1765.84
471.022	1798.84
471.394	1828.89
471.766	1833.41
472.138	1851.49
472.51	1906.4
472.882	1926.29
473.253	1942.56
473.625	1983.46
473.997	2020.75
474.369	2050.81
474.74	2067.3
475.112	2061.88
475.484	2145.04
475.855	2187.3
476.227	2208.09
476.598	2234.08
476.97	2291.71
477.341	2330.8
477.713	2364.02
478.084	2320.18
478.455	2420.97
478.827	2442.89
479.198	2511.59
479.569	2516.11
479.94	2595.65
480.311	2620.51
480.682	2695.08
481.053	2771.47
481.424	2804.91
481.795	2828.87
482.166	2893.27
482.537	2900.28
482.908	2965.81
483.279	3046.04
483.65	3033.61
484.021	3135.3
484.391	3185.47
484.762	3211
485.133	3257.56
485.503	3315.18
485.874	3394.28
486.244	3381.39
486.615	3470.21
486.985	3544.78
487.356	3603.99
487.726	3659.13
488.097	3748.84
488.467	3747.94
488.837	3845.56
489.207	3865
489.578	3947.25
489.948	3963.98
490.318	4056.86
490.688	4056.18
491.058	4128.95
491.428	4170.07
491.798	4207.14
492.168	4307.02
492.538	4310.41
492.908	4347.92
493.278	4441.48
493.648	4460.69
494.017	4508.82
494.387	4537.52
494.757	4615.71
495.126	4693
495.496	4692.77
495.866	4724.64
496.235	4769.15
496.605	4823.39
496.974	4864.97
497.344	4885.99
497.713	4933.9
498.082	4974.12
498.452	5016.38
498.821	5034.23
499.19	5048.24
499.559	5147
499.928	5207.79
500.298	5208.24
500.667	5246.43
501.036	5267.22
501.405	5256.83
501.774	5278.07
502.143	5344.28
502.512	5427.67
502.88	5385.86
503.249	5444.39
503.618	5528
503.987	5493.43
504.356	5542.47
504.724	5567.1
505.093	5602.13
505.462	5641.9
505.83	5684.38
506.199	5704.27
506.567	5805.96
506.936	5793.99
507.304	5834.21
507.672	5818.39
508.041	5859.97
508.409	5966.64
508.777	5940.87
509.145	6007.09
509.514	6034.66
509.882	6062
510.25	6073.07
510.618	6128.89
510.986	6122.79
511.354	6188.33
511.722	6234.2
512.09	6246.4
512.458	6272.17
512.826	6292.73
513.193	6327.08
513.561	6358.04
513.929	6435.1
514.297	6462.9
514.664	6469.22
515.032	6484.36
515.4	6602.33
515.767	6562.55
516.135	6604.81
516.502	6541.09
516.869	6734.53
517.237	6735.66
517.604	6737.92
517.972	6833.51
518.339	6852.04
518.706	6865.37
519.073	6892.04
519.44	6899.04
519.808	6964.12
520.175	6979.27
520.542	7040.28
520.909	7069.66
521.276	7083.22
521.643	7155.31
522.009	7194.63
522.376	7242.31
522.743	7238.92
523.11	7307.17
523.477	7375.64
523.843	7396.88
524.21	7473.26
524.577	7562.75
524.943	7589.42
525.31	7524.79
525.676	7654.05
526.043	7673.71
526.409	7735.4
526.776	7796.19
527.142	7780.15
527.508	7878.45
527.874	7946.47
528.241	7949.86
528.607	7987.6
528.973	8082.97
529.339	8025.34
529.705	8201.83
530.071	8238.44
530.437	8244.09
530.803	8293.81
531.169	8318.67
531.535	8378.78
531.901	8415.16
532.267	8416.06
532.632	8496.74
532.998	8494.03
533.364	8548.26
533.73	8629.17
534.095	8649.28
534.461	8752.1
534.826	8681.82
535.192	8728.37
535.557	8832.32
535.923	8898.31
536.288	8792.55
536.653	8863.06
537.019	8848.82
537.384	8923.4
537.749	9021.02
538.114	9049.49
538.479	9107.8
538.845	9065.09
539.21	9071.41
539.575	9125.88
539.94	9183.05
540.305	9195.7
540.67	9213.56
541.034	9271.63
541.399	9364.74
541.764	9385.76
542.129	9368.36
542.494	9417.85
542.858	9473.21
543.223	9505.53
543.587	9526.54
543.952	9543.94
544.316	9654.22
544.681	9589.14
545.045	9665.75
545.41	9751.62
545.774	9801.79
546.138	9764.5
546.503	9796.59
546.867	9861
547.231	9901.22
547.595	9977.38
547.959	9991.84
548.324	9969.24
548.688	10027.55
549.052	10060.54
549.416	10059.18
549.779	10056.02
550.143	10112.06
550.507	10235.68
550.871	10217.15
551.235	10270.48
551.599	10324.71
551.962	10375.79
552.326	10421.21
552.689	10458.5
553.053	10404.26
553.417	10453.07
553.78	10618.04
554.143	10501.88
554.507	10598.15
554.87	10597.02
555.234	10765.83
555.597	10683.8
555.96	10747.3
556.323	10760.41
556.686	10888.54
557.05	10935.09
557.413	10848.77
557.776	10861.42
558.139	10975.32
558.502	10930.35
558.865	10965.6
559.228	11117.91
559.59	11135.31
559.953	11156.1
560.316	11305.03
560.679	11275.88
561.041	11377.57
561.404	11418.02
561.767	11471.12
562.129	11345.03
562.492	11560.61
562.854	11550.44
563.217	11556.09
563.579	11649.88
563.941	11765.58
564.304	11737.33
564.666	11789.31
565.028	11839.25
565.39	11885.35
565.753	11923.99
566.115	12020.72
566.477	12031.79
566.839	12017.78
567.201	12202.18
567.563	12152.01
567.925	12225.68
568.287	12199.24
568.648	12283.76
569.01	12355.62
569.372	12286.92
569.734	12385
570.095	12483.98
570.457	12429.07
570.819	12542.96
571.18	12597.87
571.542	12603.98
571.903	12735.27
572.265	12712.67
572.626	12857.98
572.987	12857.3
573.349	12910.41
573.71	12965.32
574.071	13069.5
574.432	13050.74
574.794	13217.75
575.155	13184.3
575.516	13213
575.877	13350.85
576.238	13353.34
576.599	13473.11
576.96	13532.31
577.32	13587.68
577.681	13737.28
578.042	13716.94
578.403	13757.84
578.763	13895.69
579.124	14010.72
579.485	14082.58
579.845	14177.27
580.206	14326.19
580.566	14379.07
580.927	14486.64
581.287	14661.32
581.648	14644.6
582.008	14925.72
582.368	14903.58
582.728	15120.52
583.089	15227.86
583.449	15320.06
583.809	15485.71
584.169	15673.5
584.529	15780.39
584.889	16035.75
585.249	16085.92
585.609	16269.42
585.969	16521.61
586.329	16602.06
586.688	16844.77
587.048	17033.01
587.408	17220.35
587.768	17421.7
588.127	17723.62
588.487	17864.63
588.846	18140.1
589.206	18252.64
589.565	18504.84
589.925	18801.78
590.284	18973.75
590.643	19236.34
591.003	19534.87
591.362	19822.77
591.721	20063.44
592.08	20327.84
592.44	20542.3
592.799	20852.12
593.158	21034.04
593.517	21240.36
593.876	21639.9
594.235	21942.71
594.593	22124.86
594.952	22452.31
595.311	22650.49
595.67	23025.85
596.029	23416.57
596.387	23690.24
596.746	23998.48
597.104	24167.06
597.463	24532.25
597.822	24973.14
598.18	25014.95
598.538	25285.68
598.897	25808.38
599.255	25743.97
599.613	26484.52
599.972	26581.91
600.33	26975.8
600.688	27005.18
601.046	27578.05
601.404	27848.32
601.762	28062.33
602.12	28416.89
602.478	28734.85
602.836	28934.39
603.194	29145.24
603.552	29435.62
603.91	29530.99
604.268	30027.25
604.625	30012.56
604.983	30603.5
605.341	30579.78
605.698	31213.2
606.056	31572.74
606.413	31639.63
606.771	31943.81
607.128	32235.32
607.485	32311.48
607.843	32525.71
608.2	32990.33
608.557	33227.84
608.914	33375.18
609.272	33683.2
609.629	34022.4
609.986	34261.49
610.343	34320.02
610.7	34836.61
611.057	34896.27
611.414	35071.63
611.771	35385.07
612.127	35533.09
612.484	35869.35
612.841	35932.85
613.198	36018.05
613.554	36196.58
613.911	36711.82
614.267	36619.39
614.624	36789.56
614.98	37162.2
615.337	37431.35
615.693	37504.56
616.05	37448.07
616.406	38008.96
616.762	37890.09
617.118	38194.49
617.475	38217.54
617.831	38476.06
618.187	38840.35
618.543	38857.3
618.899	39137.97
619.255	39169.83
619.611	39360.79
619.967	39534.12
620.323	39869.47
620.678	39682.36
621.034	39736.14
621.39	39905.18
621.746	39857.05
622.101	40424.71
622.457	40114.44
622.812	40363.7
623.168	40693.63
623.523	40668.55
623.879	40824.25
624.234	40602.11
624.589	40919.39
624.945	40991.03
625.3	41071.93
625.655	41224.69
626.01	41239.38
626.365	41327.29
626.72	41479.15
627.075	41504.69
627.43	41622.65
627.785	41567.28
628.14	41647.05
628.495	41767.5
628.85	41699.03
629.205	41804.79
629.559	42045.46
629.914	41665.81
630.269	41903.77
630.623	41799.82
630.978	41821.06
631.332	42118.91
631.687	42142.41
632.041	41939.7
632.396	42172.69
632.75	42055.18
633.104	42063.09
633.459	41920.27
633.813	41934.28
634.167	42094.95
634.521	42052.92
634.875	42092.24
635.229	42205.91
635.583	41929.99
635.937	42152.35
636.291	41960.94
636.645	42162.52
636.999	42083.2
637.352	42240.94
637.706	41998.01
638.06	42159.13
638.413	42131.34
638.767	42059.47
639.121	42037.1
639.474	41974.28
639.828	42023.77
640.181	42056.08
640.534	42047.04
640.888	41946.71
641.241	41942.41
641.594	41982.64
641.947	42092.47
642.301	42085.24
642.654	41967.72
643.007	41997.1
643.36	41964.79
643.713	41862.19
644.066	42047.5
644.419	41788.75
644.771	41474.4
645.124	41265.82
645.477	41314.86
645.83	40953.29
646.182	40696.8
646.535	40635.1
646.888	40797.81
647.24	40652.96
647.593	40902.67
647.945	40654.09
648.298	40596.23
648.65	40441.44
649.002	40394.43
649.355	40563.02
649.707	40611.83
650.059	40665.39
650.411	41228.99
650.763	41249.33
651.115	41678.01
651.467	41496.78
651.819	41692.48
652.171	41423.56
652.523	41425.59
652.875	41318.7
653.227	41286.61
653.578	41464.01
653.93	41441.86
654.282	41167.97
654.633	41261.98
654.985	41292.26
655.337	41280.96
655.688	41275.99
656.039	41355.31
656.391	41120.29
656.742	41077.35
657.094	41137.01
657.445	41114.19
657.796	41159.61
658.147	41112.61
658.498	41240.96
658.849	41235.99
659.2	41141.53
659.551	41076.45
659.902	41168.88
660.253	41067.41
660.604	41111.48
660.955	41028.77
661.306	41106.5
661.656	41036.68
662.007	41130.68
662.358	40976.34
662.708	40975.89
663.059	41006.62
663.409	40690.24
663.76	41106.73
664.11	41055.66
664.461	41054.75
664.811	40983.12
665.161	41017.69
665.511	40974.98
665.862	40995.32
666.212	41024.47
666.562	41024.7
666.912	40840.75
667.262	40901.76
667.612	40969.33
667.962	41015.66
668.312	40952.61
668.662	41044.13
669.011	41035.77
669.361	40869
669.711	40913.74
670.06	40871.48
670.41	40875.78
670.76	40811.6
671.109	40952.38
671.459	40813.4
671.808	40710.81
672.157	40799.85
672.507	40535.45
672.856	40711.03
673.205	40627.19
673.554	40850.69
673.904	40573.18
674.253	40885.04
674.602	40722.33
674.951	40228.11
675.3	40064.05
675.649	40625.61
675.998	40649.34
676.346	40582
676.695	40734.76
677.044	40512.62
677.393	40439.63
677.741	40591.04
678.09	40436.69
678.438	40342.68
678.787	40515.78
679.135	40367.99
679.484	40185.4
679.832	40317.6
680.181	40059.75
680.529	40123.7
680.877	40057.04
681.225	40007.55
681.573	40297.94
681.922	39936.14
682.27	39934.56
682.618	39845.29
682.966	39710.16
683.314	39956.25
683.661	39671.51
684.009	39488.92
684.357	39518.52
684.705	39520.78
685.053	39465.42
685.4	39480.33
685.748	39290.05
686.095	39286.66
686.443	39212.99
686.79	39103.39
687.138	39234.91
687.485	39149.72
687.832	38946.56
688.18	38953.57
688.527	38774.14
688.874	38761.93
689.221	38755.61
689.568	38624.08
689.915	38385.9
690.262	38531.88
690.609	38404.65
690.956	38259.57
691.303	38323.98
691.65	37982.74
691.997	38037.43
692.344	37836.31
692.69	37870.43
693.037	37863.88
693.383	37563.77
693.73	37637.44
694.077	37496.88
694.423	37499.37
694.769	37225.7
695.116	37262.54
695.462	37210.56
695.808	37181.41
696.155	37119.72
696.501	36874.07
696.847	37031.13
697.193	36580.52
697.539	36933.96
697.885	36508.66
698.231	36404.48
698.577	36361.09
698.923	36311.6
699.269	36166.29
699.614	35945.74
699.96	35869.58
700.306	35976.92
700.651	35855.12
700.997	35780.99
701.342	35742.8
701.688	35531.96
702.033	35376.26
702.379	35383.26
702.724	35296.71
703.069	35322.7
703.415	35054.69
703.76	35174
704.105	34978.08
704.45	34888.14
704.795	34794.81
705.14	34671.19
705.485	34627.13
705.83	34563.17
706.175	34529.28
706.52	34426.45
706.865	34369.05
707.209	34411.09
707.554	34244.76
707.899	34279.11
708.243	34096.29
708.588	34092
708.932	33754.83
709.277	33685.23
709.621	33896.52
709.966	33619.02
710.31	33917.31
710.654	33402.53
710.998	33492.69
711.342	33379.02
711.687	33396.2
712.031	33187.39
712.375	33142.42
712.719	33155.98
713.063	33050.9
713.407	33139.93
713.75	32921.41
714.094	32907.4
714.438	32771.58
714.782	32809.55
715.125	32660.17
715.469	32752.83
715.812	32697.01
716.156	32342.89
716.499	32481.19
716.843	32503.57
717.186	32307.41
717.53	32353.51
717.873	32461.99
718.216	32292.72
718.559	32118.04
718.902	31893.19
719.246	31957.82
719.589	31922.79
719.932	31779.97
720.275	31884.83
720.617	31769.8
720.96	31682.8
721.303	31650.48
721.646	31587.88
721.989	31435.35
722.331	31555.34
722.674	31419.53
723.016	31377.72
723.359	31413.2
723.701	31388.79
724.044	31117.16
724.386	31040.33
724.729	31098.86
725.071	31085.3
725.413	31060.67
725.755	31011.63
726.097	30911.97
726.439	30763.5
726.782	30816.15
727.124	30879.88
727.465	30754.01
727.807	30749.94
728.149	30633.33
728.491	30650.73
728.833	30697.96
729.175	30471.98
729.516	30443.06
729.858	30459.78
730.199	30450.29
730.541	30354.02
730.882	30227.47
731.224	30346.11
731.565	30180.01
731.906	30218.65
732.248	30235.6
732.589	30122.61
732.93	30048.26
733.271	29910.87
733.612	29915.61
733.953	29978.43
734.294	30012.33
734.635	29761.27
734.976	29907.7
735.317	29742.06
735.658	29662.06
735.999	29671.1
736.339	29669.06
736.68	29649.18
737.021	29574.83
737.361	29489.18
737.702	29578.67
738.042	29481.5
738.383	29408.73
738.723	29508.39
739.063	29321.5
739.404	29402.18
739.744	29351.11
740.084	29335.51
740.424	29181.39
740.764	29264.33
741.104	29188.17
741.444	29018.46
741.784	29029.76
742.124	29040.15
742.464	28933.94
742.804	29017.33
743.143	28849.43
743.483	28751.8
743.823	28709.32
744.162	28880.16
744.502	28734.85
744.841	28589.32
745.181	28657.57
745.52	28562.43
745.86	28601.07
746.199	28687.62
746.538	28564.91
746.877	28537.57
747.216	28527.4
747.556	28361.08
747.895	28395.2
748.234	28373.28
748.573	28328.99
748.911	28188.65
749.25	28221.42
749.589	28023.23
749.928	28113.85
750.267	28160.18
750.605	28013.06
750.944	28015.32
751.283	27993.4
751.621	28018.03
751.96	27809.45
752.298	27958.6
752.636	27933.29
752.975	27748.89
753.313	27696.69
753.651	27649
753.989	27524.26
754.327	27564.94
754.666	27507.54
755.004	27467.09
755.342	27576.46
755.679	27418.28
756.017	27260.99
756.355	27312.97
756.693	27115.01
757.031	27245.4
757.368	27078.17
757.706	27116.59
758.044	26924.05
758.381	26932.41
758.719	26775.13
759.056	26884.5
759.394	26694.91
759.731	26688.8
760.068	26610.39
760.405	26589.37
760.743	26338.76
761.08	26533.78
761.417	26350.73
761.754	26279.55
762.091	26237.29
762.428	26096.5
762.765	26149.84
763.102	26146.22
763.438	25968.82
763.775	25797.08
764.112	25859.45
764.449	25879.56
764.785	25814.93
765.122	25574.48
765.458	25416.07
765.795	25443.41
766.131	25409.52
766.467	25327.71
766.804	25183.98
767.14	24988.06
767.476	25089.52
767.812	24849.53
768.148	25076.87
768.485	24940.83
768.821	24732.7
769.157	24650.44
769.492	24619.25
769.828	24605.02
770.164	24428.98
770.5	24359.6
770.836	24301.75
771.171	24145.82
771.507	24125.93
771.842	24004.35
772.178	24004.35
772.513	23772.04
772.849	23849.78
773.184	23704.48
773.519	23743.8
773.855	23503.12
774.19	23514.65
774.525	23376.12
774.86	23297.25
775.195	23281.89
775.53	23212.06
775.865	23159.41
776.2	22984.72
776.535	22769.13
776.87	22858.17
777.205	22641.23
777.539	22720.09
777.874	22679.19
778.209	22479.2
778.543	22410.72
778.878	22197.62
779.212	22243.72
779.547	22174.57
779.881	22157.4
780.215	21975.71
780.55	21970.06
780.884	21814.58
781.218	21827.46
781.552	21776.84
781.886	21659.56
782.22	21478.77
782.554	21455.95
782.888	21371.88
783.222	21246.69
783.556	21124.88
783.889	21257.99
784.223	20929.63
784.557	20960.14
784.89	20924.21
785.224	20866.13
785.557	20766.02
785.891	20720.37
786.224	20667.49
786.558	20791.11
786.891	20546.82
787.224	20342.3
787.557	20318.35
787.891	20289.65
788.224	20257.11
788.557	20224.34
788.89	20207.84
789.223	20056.21
789.556	19986.83
789.888	19965.36
790.221	19807.85
790.554	19647.86
790.887	19674.07
791.219	19648.54
791.552	19569.67
791.884	19478.82
792.217	19453.97
792.549	19318.38
792.882	19193.18
793.214	19127.42
793.546	19174.65
793.879	18964.49
794.211	18928.56
794.543	18942.34
794.875	18909.12
795.207	18980.08
795.539	18804.04
795.871	18785.73
796.203	18674.1
796.535	18569.47
796.867	18609.24
797.198	18529.24
797.53	18381.9
797.862	18319.76
798.193	18280.66
798.525	18152.31
798.856	18239.31
799.188	18025.98
799.519	18008.58
799.85	17920.67
800.182	17934.68
800.513	17909.15
800.844	17716.38
801.175	17776.5
801.506	17816.27
801.837	17731.3
802.168	17687.23
802.499	17634.13
802.83	17480.91
803.161	17360.69
803.491	17556.39
803.822	17412.66
804.153	17378.54
804.483	17121.82
804.814	17150.52
805.145	17109.17
805.475	17138.77
805.805	17009.51
806.136	16978.32
806.466	16922.96
806.796	16959.79
807.126	16812.45
807.457	16801.61
807.787	16778.1
808.117	16697.65
808.447	16645.68
808.777	16681.16
809.107	16600.03
809.436	16495.4
809.766	16509.18
810.096	16378.57
810.426	16313.71
810.755	16415.63
811.085	16333.37
811.414	16229.19
811.744	16115.3
812.073	16096.54
812.403	16157.1
812.732	16000.05
813.061	16037.78
813.39	15892.48
813.719	15888.41
814.049	15998.92
814.378	15858.35
814.707	15886.6
815.036	15934.74
815.365	15695.19
815.693	15629.66
816.022	15679.15
816.351	15546.05
816.68	15511.02
817.008	15546.27
817.337	15485.03
817.665	15410.46
817.994	15389.21
818.322	15364.81
818.651	15305.15
818.979	15207.3
819.307	15230.12
819.636	15188.32
819.964	15102.67
820.292	15140.18
820.62	15219.05
820.948	15146.51
821.276	15182.21
821.604	15117.81
821.932	15050.24
822.259	15056.57
822.587	15050.24
822.915	15032.39
823.243	15087.98
823.57	15079.17
823.898	15030.13
824.225	14989.22
824.553	14987.42
824.88	15042.33
825.207	15040.97
825.535	15002.33
825.862	15071.48
826.189	15028.32
826.516	14973.86
826.843	15169.78
827.17	15152.61
827.497	15047.98
827.824	14953.07
828.151	15148.77
828.478	15070.58
828.805	15117.58
829.131	15043.46
829.458	14987.87
829.785	14870.13
830.111	14932.95
830.438	15104.25
830.764	14982.45
831.09	15034.87
831.417	14956.91
831.743	14949
832.069	14999.62
832.395	14819.51
832.722	14976.57
833.048	14868.32
833.374	14935.89
833.7	14833.75
834.026	14833.52
834.351	14916.91
834.677	14894.76
835.003	14837.14
835.329	14731.83
835.654	14823.35
835.98	14731.15
836.306	14737.48
836.631	14662.91
836.956	14677.59
837.282	14772.96
837.607	14584.94
837.932	14562.8
838.258	14601.66
838.583	14586.98
838.908	14449.13
839.233	14427.88
839.558	14488.9
839.883	14432.4
840.208	14398.28
840.533	14426.3
840.858	14429.69
841.182	14414.32
841.507	14435.11
841.832	14262.01
842.156	14285.06
842.481	14221.11
842.805	14253.88
843.13	14280.77
843.454	14175.91
843.778	14088.91
844.103	14104.95
844.427	14018.63
844.751	14050.27
845.075	14038.29
845.399	13961.91
845.723	13903.38
846.047	13903.38
846.371	13836.03
846.695	13827.67
847.019	13684.4
847.343	13660.22
847.666	13635.36
847.99	13495.48
848.313	13488.02
848.637	13453.67
848.96	13392.88
849.284	13452.09
849.607	13251.19
849.931	13181.81
850.254	13114.7
850.577	13044.87
850.9	12955.38
851.223	12915.15
851.546	12900.69
851.869	12835.38
852.192	12876.96
852.515	12784.31
852.838	12764.2
853.161	12755.84
853.483	12660.47
853.806	12557.88
854.129	12520.81
854.451	12505.67
854.774	12491.89
855.096	12428.39
855.419	12353.36
855.741	12334.38
856.063	12242.18
856.385	12276.3
856.708	12237.66
857.03	12219.58
857.352	12213.03
857.674	12138
857.996	12071.34
858.318	12040.38
858.64	11952.47
858.961	11963.99
859.283	11913.37
859.605	11860.95
859.926	11826.14
860.248	11839.48
860.57	11801.06
860.891	11832.47
861.212	11735.98
861.534	11729.42
861.855	11679.48
862.176	11703.21
862.498	11697.11
862.819	11665.7
863.14	11639.71
863.461	11576.66
863.782	11527.62
864.103	11494.63
864.424	11477.45
864.745	11480.84
865.065	11503.21
865.386	11464.35
865.707	11424.8
866.027	11432.03
866.348	11401.52
866.668	11368.75
866.989	11388.42
867.309	11272.49
867.63	11352.94
867.95	11229.78
868.27	11255.09
868.59	11312.26
868.91	11274.75
869.23	11178.03
869.55	11132.38
869.87	11195.65
870.19	11131.92
870.51	11094.86
870.83	11150.91
871.15	11006.05
871.469	11064.13
871.789	11098.93
872.109	11016.45
872.428	11037.24
872.748	10996.11
873.067	11027.52
873.386	10992.49
873.706	10997.47
874.025	10944.81
874.344	10891.93
874.663	10923.79
874.982	10854.19
875.301	10891.93
875.62	10671.15
875.939	10824.14
876.258	10823.68
876.577	10825.27
876.896	10734.87
877.214	10743.91
877.533	10696
877.852	10788.21
878.17	10763.12
878.489	10735.78
878.807	10678.83
879.125	10640.41
879.444	10636.57
879.762	10637.02
880.08	10624.37
880.398	10592.96
880.716	10576.23
881.034	10526.07
881.352	10542.11
881.67	10482.68
881.988	10506.4
882.306	10509.34
882.624	10451.49
882.941	10390.7
883.259	10342.57
883.577	10384.6
883.894	10357.26
884.212	10344.15
884.529	10263.47
884.846	10301.44
885.164	10260.99
885.481	10178.05
885.798	10227.77
886.115	10162.91
886.432	10143.93
886.75	10135.34
887.067	10082.46
887.383	10051.28
887.7	10099.64
888.017	10071.61
888.334	10006.53
888.651	9938.06
888.967	9986.64
889.284	9897.16
889.6	9964.72
889.917	9782.13
890.233	9802.02
890.55	9851.73
890.866	9830.04
891.182	9791.85
891.498	9752.3
891.815	9673.88
892.131	9653.32
892.447	9617.16
892.763	9576.49
893.079	9551.63
893.395	9536.49
893.71	9579.88
894.026	9510.5
894.342	9442.25
894.657	9346.89
894.973	9333.33
895.289	9356.38
895.604	9377.85
895.92	9294.46
896.235	9262.82
896.55	9249.71
896.865	9224.18
897.181	9153.67
897.496	9140.34
897.811	9113.22
898.126	9139.66
898.441	9020.57
898.756	9064.18
899.071	8967.91
899.386	8964.07
899.7	8938.99
900.015	8928.37
900.33	8836.84
900.644	8873
900.959	8832.55
901.273	8808.82
901.588	8755.94
901.902	8720.91
902.216	8773.34
902.531	8668.26
902.845	8649.96
903.159	8630.97
903.473	8604.53
903.787	8553.46
904.101	8475.72
904.415	8533.35
904.729	8426.46
905.042	8388.72
905.356	8400.02
905.67	8346.91
905.984	8367.03
906.297	8326.35
906.611	8249.97
906.924	8250.19
907.237	8172.45
907.551	8131.55
907.864	8134.72
908.177	8144.21
908.491	8135.62
908.804	8042.97
909.117	7991.22
909.43	7993.25
909.743	8006.81
910.056	7944.44
910.368	7915.96
910.681	7836.64
910.994	7828.96
911.307	7815.85
911.619	7777.66
911.932	7760.26
912.244	7664.22
912.557	7649.3
912.869	7569.76
913.181	7544.45
913.494	7582.19
913.806	7518.46
914.118	7488.63
914.43	7463.55
914.742	7438.46
915.054	7380.16
915.366	7373.15
915.678	7325.7
915.99	7266.72
916.302	7248.86
916.613	7205.02
916.925	7207.51
917.236	7199.6
917.548	7127.06
917.859	7174.06
918.171	7113.5
918.482	7066.49
918.794	6960.06
919.105	7018.13
919.416	6982.66
919.727	6996.44
920.038	6946.5
920.349	6878.93
920.66	6863.11
920.971	6845.48
921.282	6810.68
921.593	6716.9
921.903	6733.62
922.214	6683.45
922.525	6711.7
922.835	6675.32
923.146	6666.73
923.456	6625.6
923.767	6537.47
924.077	6581.31
924.387	6553.51
924.697	6473.29
925.008	6567.53
925.318	6465.61
925.628	6496.57
925.938	6400.98
926.248	6393.97
926.558	6374.08
926.867	6304.93
927.177	6336.12
927.487	6221.55
927.796	6202.34
928.106	6199.4
928.416	6183.35
928.725	6160.3
929.034	6158.04
929.344	6139.51
929.653	6066.52
929.962	6071.04
930.271	5997.14
930.581	5945.39
930.89	5930.03
931.199	5901.33
931.508	5896.13
931.817	5969.57
932.125	5872.4
932.434	5927.09
932.743	5770.26
933.051	5835.34
933.36	5763.7
933.669	5758.05
933.977	5729.36
934.286	5704.27
934.594	5690.49
934.902	5709.69
935.21	5660.43
935.519	5591.96
935.827	5542.47
936.135	5554.9
936.443	5485.52
936.751	5483.26
937.059	5464.05
937.367	5428.35
937.674	5421.57
937.982	5431.96
938.29	5382.25
938.597	5387.44
938.905	5356.03
939.213	5339.53
939.52	5337.05
939.827	5292.76
940.135	5279.88
940.442	5200.56
940.749	5218.41
941.056	5140.67
941.363	5174.12
941.67	5117.17
941.977	5104.29
942.284	5083.95
942.591	5078.52
942.898	5062.93
943.205	5079.2
943.511	4984.06
943.818	4981.35
944.125	4970.28
944.431	4894.35
944.738	4892.31
945.044	4942.03
945.35	4875.37
945.657	4855.71
945.963	4874.01
946.269	4807.57
946.575	4758.53
946.881	4769.38
947.187	4739.1
947.493	4702.72
947.799	4716.05
948.105	4714.01
948.41	4674.02
948.716	4647.58
949.022	4636.73
949.327	4633.11
949.633	4527.35
949.938	4595.15
950.244	4558.76
950.549	4517.41
950.854	4513.12
951.16	4461.82
951.465	4517.64
951.77	4451.42
952.075	4438.54
952.38	4387.47
952.685	4446.9
952.99	4376.62
953.294	4382.5
953.599	4376.4
953.904	4319
954.209	4295.49
954.513	4299.34
954.818	4280.58
955.122	4252.56
955.426	4201.03
955.731	4183.63
956.035	4182.95
956.339	4184.08
956.643	4180.02
956.948	4123.3
957.252	4113.13
957.556	4097.99
957.86	4074.94
958.163	4072.68
958.467	4063.64
958.771	4055.05
959.075	4040.36
959.378	3964.88
959.682	3971.66
959.985	3996.52
960.289	3961.27
960.592	3903.64
960.896	3956.97
961.199	3918.56
961.502	3898.44
961.805	3851.89
962.108	3796.98
962.411	3833.13
962.714	3792.23
963.017	3786.58
963.32	3811.67
963.623	3738.9
963.926	3773.7
964.228	3727.37
964.531	3720.82
964.833	3743.64
965.136	3650.31
965.438	3673.82
965.741	3669.52
966.043	3619.35
966.345	3628.85
966.648	3630.88
966.95	3584.78
967.252	3593.59
967.554	3549.3
967.856	3566.47
968.158	3517.66
968.46	3532.58
968.761	3479.02
969.063	3492.8
969.365	3468.62
969.666	3445.57
969.968	3373.48
970.269	3381.85
970.571	3396.08
970.872	3435.4
971.174	3361.51
971.475	3356.76
971.776	3330.1
972.077	3295.97
972.378	3338.01
972.679	3304.33
972.98	3280.83
973.281	3268.18
973.582	3266.82
973.883	3250.32
974.183	3220.72
974.484	3243.32
974.785	3225.92
975.085	3180.72
975.386	3170.55
975.686	3156.77
975.986	3140.27
976.287	3130.1
976.587	3120.61
976.887	3077.22
977.187	3121.74
977.487	3072.25
977.787	3036.09
978.087	3057.33
978.387	3035.19
978.687	3044.68
978.987	3006.49
979.286	2992.7
979.586	3031.8
979.885	3009.2
980.185	2981.4
980.484	2951.35
980.784	2940.28
981.083	2917.23
981.382	2914.97
981.682	2907.06
981.981	2893.72
982.28	2865.7
982.579	2855.53
982.878	2854.18
983.177	2868.87
983.475	2825.25
983.774	2805.36
984.073	2782.54
984.372	2744.12
984.67	2775.99
984.969	2751.81
985.267	2743.22
985.566	2753.39
985.864	2705.71
986.162	2692.37
986.461	2666.38
986.759	2668.19
987.057	2656.44
987.355	2657.12
987.653	2643.79
987.951	2634.97
988.249	2646.27
988.547	2595.43
988.844	2613.05
989.142	2590
989.44	2565.37
989.737	2547.07
990.035	2552.94
990.332	2534.41
990.63	2522.21
990.927	2515.2
991.224	2489.67
991.521	2477.01
991.819	2487.41
992.116	2452.15
992.413	2441.76
992.71	2446.5
993.006	2417.13
993.303	2436.33
993.6	2407.18
993.897	2390.01
994.193	2389.33
994.49	2360.18
994.787	2363.12
995.083	2336.45
995.379	2292.38
995.676	2326.73
995.972	2333.96
996.268	2308.88
996.565	2286.73
996.861	2264.81
997.157	2246.96
997.453	2277.47
997.749	2274.53
998.044	2238.37
998.34	2216.45
998.636	2244.7
998.932	2223.01
999.227	2226.85
999.523	2196.57
999.818	2166.06
1000.114	2177.81
1000.409	2161.54
1000.704	2094.65
1001	2131.26
1001.295	2106.17
1001.59	2114.08
1001.885	2104.14
1002.18	2081.77
1002.475	2046.06
1002.77	2067.3
1003.065	2045.61
1003.359	2036.34
1003.654	2046.29
1003.949	2007.19
1004.243	1982.33
1004.538	1985.27
1004.832	1969
1005.127	1985.72
1005.421	1961.32
1005.715	1928.78
1006.009	1939.85
1006.304	1959.96
1006.598	1919.96
1006.892	1896.46
1007.186	1887.2
1007.48	1903.92
1007.773	1874.77
1008.067	1891.72
1008.361	1840.19
1008.655	1829.34
1008.948	1867.54
1009.242	1833.19
1009.535	1789.57
1009.829	1808.78
1010.122	1788.89
1010.415	1773.3
1010.708	1763.13
1011.001	1761.1
1011.295	1730.59
1011.588	1731.04
1011.881	1743.02
1012.173	1725.84
1012.466	1716.13
1012.759	1710.93
1013.052	1697.6
1013.344	1675.68
1013.637	1682
1013.93	1656.47
1014.222	1639.07
1014.514	1676.13
1014.807	1635.45
1015.099	1628.9
1015.391	1616.69
1015.683	1637.03
1015.976	1578.05
1016.268	1614.66
1016.56	1591.61
1016.851	1585.74
1017.143	1545.06
1017.435	1558.39
1017.727	1530.37
1018.018	1547.32
1018.31	1500.77
1018.602	1519.52
1018.893	1499.41
1019.185	1529.24
1019.476	1472.07
1019.767	1474.78
1020.058	1457.38
1020.35	1447.89
1020.641	1414.89
1020.932	1432.52
1021.223	1424.61
1021.514	1423.71
1021.804	1398.85
1022.095	1396.59
1022.386	1392.07
1022.677	1392.07
1022.967	1378.51
1023.258	1358.85
1023.548	1360.66
1023.839	1354.1
1024.129	1333.76
1024.419	1329.02
1024.709	1346.87
1025	1308.68
1025.29	1308.23
1025.58	1286.53
1025.87	1268.46
1026.16	1298.96
1026.449	1283.82
1026.739	1236.14
1027.029	1281.34
1027.319	1237.72
1027.608	1246.99
1027.898	1216.71
1028.187	1217.61
1028.477	1195.24
1028.766	1203.37
1029.055	1192.98
1029.344	1183.49
1029.634	1194.11
1029.923	1163.83
1030.212	1185.75
1030.501	1163.83
1030.79	1151.4
1031.078	1175.8
1031.367	1108.69
1031.656	1136.03
1031.945	1120.89
1032.233	1124.28
1032.522	1118.63
1032.81	1084.51
1033.099	1088.8
1033.387	1083.6
1033.675	1091.74
1033.963	1068.69
1034.251	1046.09
1034.54	1041.34
1034.828	1048.12
1035.116	1072.98
1035.403	1048.12
1035.691	1023.04
1035.979	1049.48
1036.267	1007.45
1036.554	1002.7
1036.842	1021.68
1037.129	1010.16
1037.417	983.27
1037.704	987.33
1037.992	984.17
1038.279	983.49
1038.566	949.14
1038.853	949.14
1039.14	949.14
