Data from hue_120_FLMS001491_00047.txt Node
Date: Tue Feb 07 16:59:27 GMT 2017
User: dcchb
Spectrometer: FLMS00149
Trigger mode: 0
Integration Time (sec): 2.000000E-2
Scans to average: 10
Electric dark correction enabled: true
Nonlinearity correction enabled: false
Boxcar width: 0
XAxis mode: Wavelengths
Number of Pixels in Spectrum: 2048
>>>>>Begin Spectral Data<<<<<
341.393	-7.03
341.776	-7.03
342.16	-7.03
342.543	-54.94
342.927	-77.54
343.31	-63.76
343.693	-72.57
344.077	-62.63
344.46	-52.91
344.843	-55.85
345.226	-32.12
345.61	-33.02
345.993	-17.88
346.376	5.17
346.759	14.89
347.142	26.19
347.525	32.29
347.908	51.27
348.291	67.31
348.674	81.33
349.057	112.29
349.44	115.22
349.823	151.15
350.206	150.93
350.588	198.38
350.971	215.11
351.354	226.63
351.737	237.48
352.119	263.92
352.502	244.94
352.884	271.6
353.267	286.97
353.65	306.18
354.032	286.52
354.414	301.43
354.797	316.12
355.179	329.45
355.562	306.18
355.944	316.35
356.326	322.9
356.709	337.59
357.091	334.2
357.473	332.62
357.855	340.3
358.238	336.46
358.62	347.76
359.002	330.81
359.384	361.77
359.766	342.79
360.148	347.76
360.53	336.23
360.912	340.98
361.294	337.36
361.676	328.1
362.057	350.02
362.439	341.21
362.821	330.36
363.203	324.93
363.584	308.21
363.966	354.09
364.348	325.16
364.729	330.58
365.111	317.93
365.493	309.34
365.874	319.74
366.256	313.18
366.637	295.11
367.019	309.34
367.4	334.43
367.781	312.73
368.163	311.38
368.544	322.45
368.925	316.12
369.306	325.39
369.688	315.44
370.069	290.13
370.45	336.23
370.831	324.71
371.212	316.35
371.593	313.86
371.974	304.6
372.355	312.51
372.736	326.06
373.117	337.36
373.498	317.7
373.879	347.08
374.26	334.88
374.641	310.7
375.021	319.74
375.402	319.06
375.783	333.97
376.163	322.22
376.544	332.84
376.925	332.39
377.305	322.45
377.686	339.4
378.066	350.02
378.447	353.18
378.827	361.54
379.208	329.23
379.588	360.64
379.968	335.1
380.349	359.06
380.729	347.76
381.109	349.34
381.489	323.35
381.87	340.53
382.25	364.48
382.63	346.4
383.01	347.31
383.39	359.06
383.77	358.38
384.15	345.95
384.53	342.79
384.91	346.86
385.29	351.37
385.67	350.47
386.049	359.06
386.429	360.19
386.809	351.15
387.189	370.13
387.568	362.45
387.948	363.58
388.328	370.81
388.707	362.9
389.087	373.52
389.466	380.75
389.846	367.87
390.225	378.27
390.605	402
390.984	395.89
391.363	385.05
391.743	389.11
392.122	379.85
392.501	382.33
392.881	396.35
393.26	386.63
393.639	407.64
394.018	394.09
394.397	394.54
394.776	384.82
395.155	386.18
395.534	422.79
395.913	415.78
396.292	398.83
396.671	417.36
397.05	397.25
397.429	413.52
397.808	421.2
398.186	399.96
398.565	421.88
398.944	402.67
399.323	417.14
399.701	405.84
400.08	417.36
400.458	448.1
400.837	425.72
401.215	427.53
401.594	438.83
401.972	409.45
402.351	445.16
402.729	440.86
403.107	438.6
403.486	469.34
403.864	442.67
404.242	442.22
404.62	463.69
404.999	450.58
405.377	457.81
405.755	452.62
406.133	461.65
406.511	470.92
406.889	462.56
407.267	477.25
407.645	475.89
408.023	475.21
408.401	496.46
408.779	477.47
409.156	498.04
409.534	474.76
409.912	480.19
410.29	503.91
410.667	505.72
411.045	524.03
411.422	512.73
411.8	511.82
412.178	512.5
412.555	527.87
412.933	524.93
413.31	526.74
413.687	538.94
414.065	535.78
414.442	537.58
414.819	526.96
415.197	526.96
415.574	538.04
415.951	555.44
416.328	559.05
416.705	541.65
417.082	548.88
417.46	554.31
417.837	556.79
418.214	563.57
418.591	566.74
418.967	593.18
419.344	569.9
419.721	613.97
420.098	591.37
420.475	573.74
420.852	590.46
421.228	616.45
421.605	614.42
421.982	609
422.358	601.54
422.735	630.46
423.111	631.59
423.488	620.29
423.864	618.26
424.241	637.24
424.617	630.92
424.994	649.9
425.37	640.18
425.746	643.34
426.123	692.16
426.499	643.8
426.875	667.75
427.251	672.72
427.627	684.25
428.003	685.83
428.379	723.57
428.756	730.57
429.132	696.9
429.507	704.36
429.883	732.61
430.259	737.13
430.635	739.84
431.011	742.78
431.387	749.33
431.763	732.38
432.138	748.88
432.514	790.23
432.89	769.9
433.265	772.38
433.641	804.7
434.016	803.34
434.392	796.11
434.767	816.67
435.143	827.07
435.518	850.12
435.894	849.89
436.269	837.01
436.644	853.06
437.02	858.03
437.395	880.63
437.77	895.99
438.145	898.71
438.52	882.21
438.895	907.29
439.271	925.37
439.646	922.89
440.021	923.11
440.395	916.33
440.77	924.92
441.145	923.34
441.52	938.7
441.895	949.1
442.27	957.23
442.645	942.55
443.019	991.36
443.394	973.28
443.769	979.61
444.143	971.47
444.518	1007.4
444.892	998.14
445.267	993.39
445.641	1015.31
446.016	1024.13
446.39	1017.35
446.764	1034.29
447.139	1026.84
447.513	1053.5
447.887	1041.3
448.262	1037.68
448.636	1066.61
449.01	1087.17
449.384	1082.2
449.758	1072.26
450.132	1086.27
450.506	1109.1
450.88	1116.1
451.254	1113.39
451.628	1118.81
452.002	1147.96
452.376	1174.18
452.75	1150.45
453.123	1183.67
453.497	1186.61
453.871	1202.43
454.244	1202.43
454.618	1229.32
454.992	1229.77
455.365	1256.44
455.739	1287.17
456.112	1307.28
456.486	1293.05
456.859	1310.67
457.232	1314.51
457.606	1312.25
457.979	1352.48
458.352	1382.53
458.725	1384.57
459.099	1432.25
459.472	1435.41
459.845	1461.4
460.218	1487.16
460.591	1483.1
460.964	1476.54
461.337	1528.97
461.71	1515.19
462.083	1543.89
462.456	1559.93
462.829	1568.97
463.201	1572.59
463.574	1626.82
463.947	1618.01
464.32	1691.9
464.692	1662.75
465.065	1724.22
465.438	1719.7
465.81	1795.86
466.183	1803.54
466.555	1831.56
466.928	1850.77
467.3	1839.7
467.672	1917.66
468.045	1948.85
468.417	1950.43
468.789	1990.65
469.161	2002.4
469.534	2061.16
469.906	2119.24
470.278	2149.07
470.65	2187.71
471.022	2184.77
471.394	2252.34
471.766	2256.18
472.138	2265.45
472.51	2360.14
472.882	2420.47
473.253	2444.2
473.625	2503.18
473.997	2567.81
474.369	2584.08
474.74	2651.43
475.112	2726.91
475.484	2782.27
475.855	2851.65
476.227	2932.32
476.598	2976.62
476.97	3067.69
477.341	3144.97
477.713	3235.59
478.084	3240.79
478.455	3387.23
478.827	3443.5
479.198	3576.37
479.569	3617.73
479.94	3736.14
480.311	3796.71
480.682	3910.15
481.053	4018.17
481.424	4112.18
481.795	4218.84
482.166	4297.26
482.537	4443.92
482.908	4600.08
483.279	4658.83
483.65	4758.94
484.021	4958.94
484.391	5018.37
484.762	5169.1
485.133	5286.16
485.503	5380.85
485.874	5545.59
486.244	5644.57
486.615	5838.01
486.985	5955.97
487.356	6071
487.726	6256.53
488.097	6437.99
488.467	6499.46
488.837	6701.72
489.207	6855.84
489.578	6948.04
489.948	7104.87
490.318	7281.81
490.688	7356.61
491.058	7543.05
491.428	7769.26
491.798	7889.93
492.168	8127.22
492.538	8161.79
492.908	8386.87
493.278	8523.14
493.648	8634.77
494.017	8777.59
494.387	8925.39
494.757	9184.14
495.126	9280.18
495.496	9322.44
495.866	9465.94
496.235	9628.87
496.605	9847.4
496.974	9876.32
497.344	10054.62
497.713	10202.87
498.082	10324.67
498.452	10462.75
498.821	10553.82
499.19	10701.84
499.559	10887.14
499.928	10936.18
500.298	11013.69
500.667	11156.51
501.036	11259.56
501.405	11395.38
501.774	11436.73
502.143	11600.8
502.512	11656.61
502.88	11787.91
503.249	11896.16
503.618	11973.22
503.987	12033.33
504.356	12169.82
504.724	12310.83
505.093	12425.41
505.462	12466.54
505.83	12552.18
506.199	12646.87
506.567	12869.69
506.936	12756.02
507.304	12992.4
507.672	13011.16
508.041	13142.23
508.409	13240.3
508.777	13259.28
509.145	13405.95
509.514	13337.25
509.882	13436.45
510.25	13487.53
510.618	13659.27
510.986	13644.36
511.354	13702.89
511.722	13918.93
512.09	14033.5
512.458	13946.95
512.826	14087.28
513.193	14081.18
513.561	14231.24
513.929	14263.55
514.297	14435.75
514.664	14509.87
515.032	14446.6
515.4	14487.05
515.767	14580.83
516.135	14617.67
516.502	14513.71
516.869	14817.66
517.237	14754.16
517.604	14772.69
517.972	14828.51
518.339	14935.4
518.706	15089.97
519.073	14971.78
519.44	15118.9
519.808	15144.66
520.175	15135.39
520.542	15182.4
520.909	15299.23
521.276	15309.63
521.643	15388.95
522.009	15424.65
522.376	15442.96
522.743	15598.43
523.11	15632.1
523.477	15768.82
523.843	15727.47
524.21	15771.08
524.577	15922.26
524.943	15797.52
525.31	15838.2
525.676	16045.65
526.043	16035.71
526.409	16016.73
526.776	16092.2
527.142	16128.81
527.508	16199.32
527.874	16254.46
528.241	16274.35
528.607	16256.04
528.973	16395.47
529.339	16316.6
529.705	16446.09
530.071	16438.64
530.437	16475.02
530.803	16514.57
531.169	16578.97
531.535	16464.17
531.901	16477.5
532.267	16432.76
532.632	16498.75
532.998	16495.36
533.364	16585.07
533.73	16563.6
534.095	16562.7
534.461	16541.91
534.826	16594.79
535.192	16578.07
535.557	16587.11
535.923	16574.45
536.288	16603.38
536.653	16557.5
537.019	16556.37
537.384	16521.35
537.749	16456.26
538.114	16423.72
538.479	16489.26
538.845	16368.13
539.21	16324.29
539.575	16357.96
539.94	16401.8
540.305	16432.76
540.67	16326.1
541.034	16363.16
541.399	16381.01
541.764	16319.32
542.129	16268.92
542.494	16250.17
542.858	16334.91
543.223	16215.14
543.587	16188.02
543.952	16214.69
544.316	16106.67
544.681	16104.18
545.045	16140.11
545.41	16083.84
545.774	16103.05
546.138	16005.2
546.503	16024.41
546.867	15945.77
547.231	15994.58
547.595	15982.15
547.959	15957.74
548.324	15908.25
548.688	15844.3
549.052	15788.26
549.416	15815.83
549.779	15863.96
550.143	15818.99
550.507	15892.66
550.871	15785.09
551.235	15686.79
551.599	15841.59
551.962	15709.84
552.326	15713.91
552.689	15801.82
553.053	15662.38
553.417	15566.34
553.78	15731.76
554.143	15622.39
554.507	15627.81
554.87	15589.62
555.234	15739.44
555.597	15566.34
555.96	15561.37
556.323	15600.47
556.686	15623.52
557.05	15605.44
557.413	15592.1
557.776	15637.75
558.139	15628.04
558.502	15600.92
558.865	15595.27
559.228	15653.12
559.59	15552.11
559.953	15665.32
560.316	15751.87
560.679	15648.83
561.041	15724.76
561.404	15761.14
561.767	15829.61
562.129	15811.76
562.492	15784.87
562.854	15799.1
563.217	15803.85
563.579	15765.43
563.941	15842.49
564.304	15829.84
564.666	16034.58
565.028	15979.89
565.39	15830.74
565.753	15951.42
566.115	15963.85
566.477	15952.32
566.839	15970.17
567.201	16105.54
567.563	16007.23
567.925	16135.59
568.287	16145.31
568.648	16122.94
569.01	16124.07
569.372	16236.16
569.734	16130.62
570.095	16238.87
570.457	16211.3
570.819	16246.55
571.18	16280
571.542	16240.45
571.903	16247.68
572.265	16298.98
572.626	16410.61
572.987	16406.32
573.349	16448.8
573.71	16547.33
574.071	16426.88
574.432	16420.78
574.794	16580.55
575.155	16477.05
575.516	16444.51
575.877	16526.09
576.238	16530.16
576.599	16531.97
576.96	16554.79
577.32	16525.19
577.681	16676.6
578.042	16594.34
578.403	16598.41
578.763	16527.22
579.124	16602.47
579.485	16700.32
579.845	16713.43
580.206	16657.61
580.566	16639.31
580.927	16628.69
581.287	16645.64
581.648	16652.42
582.008	16717.95
582.368	16615.58
582.728	16741
583.089	16596.15
583.449	16696.26
583.809	16740.1
584.169	16675.01
584.529	16584.62
584.889	16680.89
585.249	16608.35
585.609	16495.36
585.969	16620.33
586.329	16543.27
586.688	16608.57
587.048	16517.5
587.408	16629.82
587.768	16483.15
588.127	16471.4
588.487	16527.45
588.846	16650.61
589.206	16367.68
589.565	16451.97
589.925	16580.1
590.284	16539.42
590.643	16469.14
591.003	16581
591.362	16544.85
591.721	16518.41
592.08	16424.17
592.44	16502.14
592.799	16481.8
593.158	16514.11
593.517	16382.14
593.876	16502.14
594.235	16462.82
594.593	16515.02
594.952	16469.82
595.311	16345.08
595.67	16506.88
596.029	16536.49
596.387	16430.5
596.746	16529.03
597.104	16388.47
597.463	16392.31
597.822	16347.11
598.18	16314.12
598.538	16294.68
598.897	16472.76
599.255	16277.96
599.613	16441.12
599.972	16451.97
600.33	16394.79
600.688	16308.7
601.046	16438.41
601.404	16469.37
601.762	16443.38
602.12	16499.65
602.478	16345.3
602.836	16521.35
603.194	16427.79
603.552	16429.82
603.91	16302.59
604.268	16501.68
604.625	16423.95
604.983	16477.5
605.341	16296.27
605.698	16457.17
606.056	16501.91
606.413	16512.53
606.771	16477.28
607.128	16554.11
607.485	16435.7
607.843	16457.39
608.2	16594.56
608.557	16589.37
608.914	16481.8
609.272	16595.24
609.629	16625.98
609.986	16623.49
610.343	16543.49
610.7	16760.89
611.057	16597.5
611.414	16588.01
611.771	16614.68
612.127	16792.98
612.484	16706.88
612.841	16738.97
613.198	16637.95
613.554	16710.72
613.911	16745.75
614.267	16715.69
614.624	16716.14
614.98	16704.39
615.337	16826.2
615.693	16795.01
616.05	16763.15
616.406	16841.56
616.762	16810.83
617.118	16837.27
617.475	16773.77
617.831	16870.26
618.187	16825.97
618.543	16915.01
618.899	16923.14
619.255	16896.02
619.611	16904.61
619.967	16968.34
620.323	17073.42
620.678	16940.09
621.034	16917.94
621.39	16931.73
621.746	16920.2
622.101	17119.97
622.457	17021.9
622.812	17050.14
623.168	16958.85
623.523	17017.15
623.879	17053.53
624.234	16898.06
624.589	16997.94
624.945	17056.25
625.3	16983.03
625.655	17059.18
626.01	17004.72
626.365	16995.01
626.72	16976.25
627.075	16865.52
627.43	16931.5
627.785	16913.88
628.14	16980.54
628.495	16956.14
628.85	16877.49
629.205	16865.74
629.559	16951.84
629.914	16867.78
630.269	16892.86
630.623	16858.96
630.978	16796.59
631.332	16930.83
631.687	16922.24
632.041	16874.78
632.396	16876.59
632.75	16806.76
633.104	16816.7
633.459	16812.86
633.813	16817.61
634.167	16718.85
634.521	16685.41
634.875	16756.14
635.229	16708.46
635.583	16632.3
635.937	16713.43
636.291	16569.71
636.645	16597.28
636.999	16534.68
637.352	16573.77
637.706	16496.04
638.06	16625.52
638.413	16507.79
638.767	16496.49
639.121	16528.35
639.474	16324.51
639.828	16421.69
640.181	16419.88
640.534	16400.22
640.888	16259.66
641.241	16202.48
641.594	16378.3
641.947	16384.85
642.301	16192.09
642.654	16304.18
643.007	16272.54
643.36	16346.89
643.713	16285.87
644.066	16291.97
644.419	16167.46
644.771	16185.08
645.124	16009.95
645.477	15911.42
645.83	15829.16
646.182	15793
646.535	15803.4
646.888	15764.53
647.24	15755.72
647.593	15721.82
647.945	15581.48
648.298	15653.12
648.65	15528.83
649.002	15581.48
649.355	15750.74
649.707	15674.14
650.059	15748.71
650.411	15990.06
650.763	15985.77
651.115	16101.92
651.467	16012.88
651.819	16031.64
652.171	16020.79
652.523	16008.59
652.875	16011.75
653.227	15979.89
653.578	16100.11
653.93	15968.82
654.282	16018.08
654.633	15837.75
654.985	15999.33
655.337	15967.69
655.688	15936.28
656.039	16037.06
656.391	15910.97
656.742	15994.58
657.094	16047.46
657.445	15987.57
657.796	15999.55
658.147	16040.45
658.498	16011.98
658.849	16034.58
659.2	15975.82
659.551	15903.06
659.902	16026.44
660.253	16026.44
660.604	16008.59
660.955	15929.72
661.306	16006.1
661.656	16051.98
662.007	15998.87
662.358	16035.93
662.708	16015.6
663.059	15978.99
663.409	15911.42
663.76	16108.25
664.11	16082.49
664.461	16017.63
664.811	16125.65
665.161	16077.52
665.511	15905.99
665.862	16054.92
666.212	16104.41
666.562	16043.17
666.912	15981.02
667.262	15981.02
667.612	15964.75
667.962	15988.7
668.312	15978.08
668.662	16009.95
669.011	16044.75
669.361	15948.93
669.711	15959.78
670.06	15973.79
670.41	15903.06
670.76	15940.8
671.109	15934.24
671.459	15935.37
671.808	15865.77
672.157	15914.58
672.507	15856.96
672.856	15912.77
673.205	15832.78
673.554	15915.71
673.904	15839.33
674.253	15937.41
674.602	15838.43
674.951	15557.98
675.3	15548.72
675.649	15858.09
675.998	15813.12
676.346	15768.14
676.695	15867.13
677.044	15678.43
677.393	15793.91
677.741	15719.78
678.09	15779.22
678.438	15720.24
678.787	15662.16
679.135	15700.58
679.484	15460.36
679.832	15662.16
680.181	15506.23
680.529	15602.27
680.877	15459.45
681.225	15557.53
681.573	15524.76
681.922	15390.53
682.27	15386.23
682.618	15413.13
682.966	15325.67
683.314	15339.46
683.661	15198.44
684.009	15213.81
684.357	15182.85
684.705	15198.22
685.053	15224.88
685.4	15182.85
685.748	15079.35
686.095	15012.46
686.443	15007.71
686.79	14995.74
687.138	15019.69
687.485	15016.98
687.832	14937.43
688.18	14996.19
688.527	14824.21
688.874	14822.86
689.221	14669.19
689.568	14694.05
689.915	14661.73
690.262	14703.77
690.609	14649.3
690.956	14617.21
691.303	14535.63
691.65	14393.04
691.997	14434.62
692.344	14372.25
692.69	14327.5
693.037	14323.21
693.383	14208.41
693.73	14245.47
694.077	14173.38
694.423	14102.2
694.769	14199.82
695.116	13981.75
695.462	14052.94
695.808	13992.37
696.155	13997.12
696.501	13874.18
696.847	13840.29
697.193	13757.8
697.539	13774.75
697.885	13730.01
698.231	13618.6
698.577	13633.29
698.923	13650.23
699.269	13520.07
699.614	13403.91
699.96	13343.58
700.306	13365.5
700.651	13275.78
700.997	13284.82
701.342	13249.57
701.688	13196.69
702.033	13160.76
702.379	13177.93
702.724	13059.52
703.069	13091.15
703.415	12984.04
703.76	12944.72
704.105	12924.6
704.45	12929.58
704.795	12800.31
705.14	12791.95
705.485	12727.32
705.83	12807.77
706.175	12692.52
706.52	12643.48
706.865	12605.74
707.209	12532.3
707.554	12567.1
707.899	12550.15
708.243	12484.39
708.588	12464.73
708.932	12355.13
709.277	12332.3
709.621	12356.93
709.966	12276.03
710.31	12304.06
710.654	12221.57
710.998	12199.42
711.342	12152.87
711.687	12180.22
712.031	12208.69
712.375	12019.77
712.719	12084.4
713.063	12073.1
713.407	12079.43
713.75	11995.14
714.094	11984.52
714.438	11913.78
714.782	11965.98
715.125	11836.5
715.469	11874.46
715.812	11847.34
716.156	11729.15
716.499	11751.3
716.843	11786.55
717.186	11727.8
717.53	11742.49
717.873	11781.13
718.216	11754.46
718.559	11715.14
718.902	11605.77
719.246	11643.73
719.589	11598.08
719.932	11515.38
720.275	11552.21
720.617	11484.42
720.96	11486.22
721.303	11550.18
721.646	11589.27
721.989	11401.03
722.331	11531.65
722.674	11434.47
723.016	11503.85
723.359	11469.27
723.701	11430.41
724.044	11352.22
724.386	11341.82
724.729	11381.82
725.071	11339.11
725.413	11367.81
725.755	11336.62
726.097	11198.1
726.439	11255.72
726.782	11271.54
727.124	11261.6
727.465	11231.31
727.807	11291.65
728.149	11213.91
728.491	11222.95
728.833	11267.25
729.175	11229.96
729.516	11213.01
729.858	11236.74
730.199	11280.81
730.541	11224.31
730.882	11229.96
731.224	11230.86
731.565	11114.48
731.906	11126.01
732.248	11285.32
732.589	11063.64
732.93	11069.74
733.271	11077.19
733.612	11134.14
733.953	11129.17
734.294	11120.58
734.635	11046.23
734.976	11080.36
735.317	11044.43
735.658	11098.66
735.999	11075.16
736.339	11092.11
736.68	11154.71
737.021	11138.66
737.361	11076.06
737.702	11245.55
738.042	11159.45
738.383	11095.27
738.723	11118.55
739.063	11073.58
739.404	11210.07
739.744	11149.28
740.084	11091.88
740.424	11172.79
740.764	11117.65
741.104	11096.18
741.444	11182.73
741.784	11116.52
742.124	11223.86
742.464	11248.49
742.804	11177.76
743.143	11209.17
743.483	11286.23
743.823	11207.59
744.162	11325.78
744.502	11333.23
744.841	11356.74
745.181	11363.74
745.52	11410.29
745.86	11384.76
746.199	11493
746.538	11460.01
746.877	11505.66
747.216	11638.08
747.556	11590.85
747.895	11650.96
748.234	11609.61
748.573	11785.2
748.911	11845.99
749.25	11895.48
749.589	11846.67
749.928	11983.16
750.267	12080.33
750.605	12117.85
750.944	12183.83
751.283	12252.76
751.621	12349.48
751.96	12447.55
752.298	12493.65
752.636	12584.05
752.975	12624.95
753.313	12805.96
753.651	12843.48
753.989	12943.81
754.327	13057.48
754.666	13097.03
755.004	13335.89
755.342	13421.77
755.679	13564.36
756.017	13619.5
756.355	13810
756.693	13960.96
757.031	14165.02
757.368	14200.05
757.706	14346.26
758.044	14338.13
758.381	14621.51
758.719	14736.53
759.056	14941.73
759.394	15064.66
759.731	15180.14
760.068	15295.84
760.405	15556.4
760.743	15561.6
761.08	15848.14
761.417	15914.36
761.754	16115.48
762.091	16353.44
762.428	16474.34
762.765	16537.84
763.102	16761.11
763.438	16964.27
763.775	17082.46
764.112	17294.66
764.449	17555.67
764.785	17691.26
765.122	17685.61
765.458	17873.85
765.795	18044.47
766.131	18227.06
766.467	18244.24
766.804	18348.19
767.14	18552.93
767.476	18740.95
767.812	18822.98
768.148	18917.44
768.485	18966.25
768.821	19101.39
769.157	19258.45
769.492	19319.24
769.828	19459.8
770.164	19414.83
770.5	19630.19
770.836	19666.35
771.171	19803.74
771.507	19875.83
771.842	19897.53
772.178	20011.2
772.513	20192.44
772.849	20200.57
773.184	20367.12
773.519	20416.16
773.855	20445.31
774.19	20455.93
774.525	20350.17
774.86	20569.83
775.195	20560.56
775.53	20714.23
775.865	20666.32
776.2	20631.29
776.535	20563.27
776.87	20742.93
777.205	20709.03
777.539	20595.14
777.874	20760.56
778.209	20733.89
778.543	20783.38
778.878	20707.45
779.212	20833.55
779.547	20821.12
779.881	21022.92
780.215	20898.63
780.55	20933.88
780.884	20907.9
781.218	20867.9
781.552	20910.83
781.886	20860.89
782.22	20859.76
782.554	20851.63
782.888	20732.31
783.222	20723.72
783.556	20769.37
783.889	20684.63
784.223	20583.61
784.557	20677.85
784.89	20669.48
785.224	20638.07
785.557	20630.84
785.891	20487.79
786.224	20592.2
786.558	20534.35
786.891	20442.15
787.224	20395.82
787.557	20370.06
787.891	20470.17
788.224	20406.44
788.557	20534.57
788.89	20346.56
789.223	20426.55
789.556	20245.32
789.888	20272.43
790.221	20233.34
790.554	20033.8
790.887	20107.92
791.219	20063.4
791.552	19961.03
791.884	19971.65
792.217	19919.67
792.549	19867.25
792.882	19816.85
793.214	19756.74
793.546	19893.46
793.879	19681.49
794.211	19587.25
794.543	19784.99
794.875	19567.14
795.207	19755.38
795.539	19627.7
795.871	19617.99
796.203	19453.25
796.535	19369.18
796.867	19359.91
797.198	19117.66
797.53	19300.93
797.862	19255.06
798.193	19223.42
798.525	19153.37
798.856	19100.03
799.188	18889.19
799.519	18902.53
799.85	18846.26
800.182	18796.09
800.513	18771.23
800.844	18776.43
801.175	18822.75
801.506	18669.31
801.837	18709.99
802.168	18539.6
802.499	18560.39
802.83	18452.37
803.161	18452.14
803.491	18417.79
803.822	18472.71
804.153	18381.41
804.483	18308.42
804.814	18224.13
805.145	18176.22
805.475	18266.16
805.805	18150.68
806.136	18147.29
806.466	18067.52
806.796	18030.68
807.126	18008.31
807.457	17844.93
807.787	17954.08
808.117	17906.17
808.447	17840.86
808.777	17852.84
809.107	17730.58
809.436	17661.65
809.766	17607.19
810.096	17635.21
810.426	17577.59
810.755	17566.29
811.085	17521.32
811.414	17491.72
811.744	17413.3
812.073	17385.73
812.403	17392.51
812.732	17399.97
813.061	17246.75
813.39	17193.64
813.719	17210.14
814.049	17243.59
814.378	17165.4
814.707	17086.75
815.036	17031.61
815.365	16996.59
815.693	16908
816.022	16893.99
816.351	16890.15
816.68	16735.12
817.008	16834.56
817.337	16752.98
817.665	16707.33
817.994	16702.58
818.322	16637.27
818.651	16657.16
818.979	16487.45
819.307	16647.22
819.636	16623.94
819.964	16417.85
820.292	16517.28
820.62	16589.82
820.948	16487.22
821.276	16585.3
821.604	16425.98
821.932	16474.11
822.259	16476.37
822.587	16407.45
822.915	16373.1
823.243	16505.07
823.57	16453.1
823.898	16395.25
824.225	16296.72
824.553	16423.72
824.88	16418.75
825.207	16517.96
825.535	16382.37
825.862	16497.17
826.189	16417.17
826.516	16481.35
826.843	16468.47
827.17	16431.18
827.497	16434.12
827.824	16512.31
828.151	16511.85
828.478	16508.24
828.805	16502.36
829.131	16421.23
829.458	16418.98
829.785	16299.2
830.111	16514.11
830.438	16493.78
830.764	16494.45
831.09	16452.87
831.417	16438.86
831.743	16486.77
832.069	16464.62
832.395	16420.1
832.722	16483.83
833.048	16357.73
833.374	16494.45
833.7	16327.23
834.026	16203.61
834.351	16434.79
834.677	16300.79
835.003	16376.49
835.329	16332.42
835.654	16291.97
835.98	16206.1
836.306	16218.98
836.631	16251.52
836.956	16269.15
837.282	16251.52
837.607	16146.21
837.932	16107.12
838.258	16139.43
838.583	16059.89
838.908	15964.3
839.233	16014.47
839.558	15933.79
839.883	15934.69
840.208	15798.65
840.533	15945.09
840.858	15913
841.182	15888.37
841.507	15826
841.832	15797.3
842.156	15762.04
842.481	15693.34
842.805	15632.33
843.13	15720.69
843.454	15634.81
843.778	15499
844.103	15578.09
844.427	15518.66
844.751	15556.62
845.075	15489.06
845.399	15440.92
845.723	15369.06
846.047	15371.32
846.371	15249.97
846.695	15134.94
847.019	15085.9
847.343	15039.8
847.666	14903.08
847.99	14910.77
848.313	14898.79
848.637	14798.45
848.96	14770.2
849.284	14784.89
849.607	14670.55
849.931	14559.14
850.254	14564.79
850.577	14530.89
850.9	14287.05
851.223	14319.37
851.546	14254.51
851.869	14175.19
852.192	14178.13
852.515	14148.3
852.838	14096.32
853.161	13994.86
853.483	13941.53
853.806	13947.63
854.129	13929.77
854.451	13866.73
854.774	13740.18
855.096	13749.44
855.419	13657.92
855.741	13715.09
856.063	13482.56
856.385	13541.31
856.708	13447.75
857.03	13412.05
857.352	13478.94
857.674	13414.31
857.996	13389.9
858.318	13237.59
858.64	13290.24
858.961	13263.13
859.283	13206.18
859.605	13132.28
859.926	13182.22
860.248	13096.35
860.57	13023.13
860.891	13048.67
861.212	12966.86
861.534	13021.32
861.855	12934.77
862.176	12948.33
862.498	12902.68
862.819	12887.09
863.14	12890.25
863.461	12763.03
863.782	12773.2
864.103	12748.56
864.424	12760.31
864.745	12823.14
865.065	12670.83
865.386	12685.29
865.707	12563.48
866.027	12710.37
866.348	12579.75
866.668	12588.34
866.989	12535.24
867.309	12443.03
867.63	12496.59
867.95	12504.28
868.27	12448.68
868.59	12392.41
868.91	12454.79
869.23	12382.47
869.55	12354.68
869.87	12437.38
870.19	12342.92
870.51	12360.32
870.83	12370.27
871.15	12374.56
871.469	12292.08
871.789	12287.78
872.109	12303.38
872.428	12150.61
872.748	12194.23
873.067	12185.19
873.386	12179.31
873.706	12165.53
874.025	12101.12
874.344	12061.35
874.663	12106.32
874.982	12004.85
875.301	12129.14
875.62	11999.88
875.939	11986.32
876.258	12014.35
876.577	11936.61
876.896	11981.8
877.214	11878.76
877.533	11904.97
877.852	11901.81
878.17	11864.97
878.489	11828.36
878.807	11832.65
879.125	11810.51
879.444	11810.73
879.762	11783.16
880.08	11786.1
880.398	11761.7
880.716	11712.43
881.034	11640.8
881.352	11728.02
881.67	11562.15
881.988	11618.65
882.306	11591.98
882.624	11513.12
882.941	11490.29
883.259	11452.33
883.577	11397.19
883.894	11445.55
884.212	11439.67
884.529	11413
884.846	11392.67
885.164	11291.65
885.481	11304.31
885.798	11286.45
886.115	11192.22
886.432	11253.46
886.75	11164.2
887.067	11179.79
887.383	11117.19
887.7	11122.17
888.017	11106.35
888.334	11076.97
888.651	10966.69
888.967	10988.61
889.284	10931.66
889.6	10922.4
889.917	10842.62
890.233	10931.66
890.55	10838.33
890.866	10894.6
891.182	10740.48
891.498	10707.03
891.815	10729.18
892.131	10644.89
892.447	10636.75
892.763	10594.5
893.079	10592.69
893.395	10642.63
893.71	10517.44
894.026	10478.11
894.342	10436.08
894.657	10411.9
894.973	10465.01
895.289	10432.69
895.604	10386.59
895.92	10268.85
896.235	10241.74
896.55	10288.06
896.865	10198.12
897.181	10179.14
897.496	10202.19
897.811	10091.01
898.126	10001.06
898.441	10004.91
898.756	10053.04
899.071	9952.93
899.386	9943.44
899.7	9872.71
900.015	9855.31
900.33	9766.95
900.644	9740.96
900.959	9751.81
901.273	9657.12
901.588	9700.73
901.902	9621.41
902.216	9604.92
902.531	9575.77
902.845	9536.44
903.159	9430.91
903.473	9444.24
903.787	9366.28
904.101	9334.64
904.415	9342.1
904.729	9303.23
905.042	9246.28
905.356	9272.72
905.67	9206.51
905.984	9158.83
906.297	9153.63
906.611	9073.18
906.924	9094.42
907.237	9028.21
907.551	8977.59
907.864	8933.97
908.177	8879.29
908.491	8962.9
908.804	8831.15
909.117	8770.14
909.43	8720.42
909.743	8712.51
910.056	8662.34
910.368	8693.98
910.681	8653.08
910.994	8632.97
911.307	8549.35
911.619	8504.38
911.932	8499.41
912.244	8437.04
912.557	8343.71
912.869	8413.54
913.181	8309.13
913.494	8331.5
913.806	8256.7
914.118	8232.3
914.43	8175.35
914.742	8187.78
915.054	8169.02
915.366	8123.83
915.678	8127.89
915.99	8006.31
916.302	7974.23
916.613	7952.08
916.925	7936.26
917.236	7903.72
917.548	7891.97
917.859	7854.23
918.171	7823.04
918.482	7828.47
918.794	7762.71
919.105	7712.09
919.416	7637.51
919.727	7679.77
920.038	7659.43
920.349	7546.44
920.66	7552.77
920.971	7557.74
921.282	7535.37
921.593	7501.92
921.903	7418.99
922.214	7456.95
922.525	7381.25
922.835	7329.5
923.146	7288.37
923.456	7244.98
923.767	7266.67
924.077	7167.69
924.387	7212.44
924.697	7127.69
925.008	7137.19
925.318	7057.64
925.628	7116.85
925.938	7063.51
926.248	7004.76
926.558	6996.62
926.867	6975.83
927.177	6991.2
927.487	6889.73
927.796	6839.57
928.106	6828.04
928.416	6822.62
928.725	6722.51
929.034	6723.64
929.344	6795.73
929.653	6686.35
929.962	6653.36
930.271	6611.55
930.581	6588.73
930.89	6590.98
931.199	6478.9
931.508	6535.17
931.817	6509.86
932.125	6503.08
932.434	6524.55
932.743	6427.37
933.051	6358.67
933.36	6313.48
933.669	6341.95
933.977	6296.3
934.286	6276.19
934.594	6292.91
934.902	6230.32
935.21	6191.22
935.519	6216.76
935.827	6207.27
936.135	6122.97
936.443	6099.25
936.751	6068.29
937.059	6123.88
937.367	6005.69
937.674	6002.53
937.982	6003.2
938.29	5986.48
938.597	5968.4
938.905	5930.89
939.213	5859.03
939.52	5785.36
939.827	5874.39
940.135	5811.8
940.442	5795.53
940.749	5771.12
941.056	5722.53
941.363	5671.46
941.67	5696.09
941.977	5630.56
942.284	5647.51
942.591	5618.81
942.898	5605.7
943.205	5576.32
943.511	5545.36
943.818	5503.1
944.125	5493.16
944.431	5446.83
944.738	5474.63
945.044	5413.39
945.35	5404.35
945.657	5342.2
945.963	5336.78
946.269	5325.48
946.575	5301.53
946.881	5296.33
947.187	5228.53
947.493	5296.33
947.799	5214.52
948.105	5167.97
948.41	5131.59
948.716	5127.75
949.022	5106.28
949.327	5129.33
949.633	5008.2
949.938	5087.52
950.244	5034.19
950.549	4988.32
950.854	4957.58
951.16	4975.21
951.465	4930.01
951.77	4926.62
952.075	4952.16
952.38	4850.92
952.685	4866.51
952.99	4819.51
953.294	4799.39
953.599	4814.99
953.904	4784.7
954.209	4759.39
954.513	4744.25
954.818	4704.93
955.122	4710.13
955.426	4730.69
955.731	4621.09
956.035	4644.82
956.339	4631.04
956.643	4569.57
956.948	4528.44
957.252	4549.46
957.556	4572.28
957.86	4522.56
958.163	4529.57
958.467	4467.88
958.771	4470.81
959.075	4430.14
959.378	4398.5
959.682	4445.28
959.985	4403.47
960.289	4381.33
960.592	4334.32
960.896	4329.12
961.199	4284.38
961.502	4325.06
961.805	4235.79
962.108	4273.76
962.411	4235.57
962.714	4222.01
963.017	4196.25
963.32	4210.48
963.623	4129.81
963.926	4110.82
964.228	4144.95
964.531	4103.37
964.833	4114.67
965.136	4069.92
965.438	4080.09
965.741	4021.56
966.043	3984.27
966.345	3976.59
966.648	4002.58
966.95	3951.05
967.252	3926.87
967.554	3919.64
967.856	3915.12
968.158	3873.54
968.46	3902.02
968.761	3888.46
969.063	3842.58
969.365	3824.73
969.666	3842.36
969.968	3767.33
970.269	3777.95
970.571	3794.22
970.872	3730.5
971.174	3692.76
971.475	3731.63
971.776	3702.93
972.077	3666.54
972.378	3680.33
972.679	3605.07
972.98	3598.07
973.281	3591.74
973.582	3567.11
973.883	3568.69
974.183	3575.24
974.484	3538.64
974.785	3516.26
975.085	3517.62
975.386	3520.33
975.686	3475.36
975.986	3482.37
976.287	3524.4
976.587	3441.01
976.887	3404.85
977.187	3403.05
977.487	3425.19
977.787	3370.96
978.087	3361.01
978.387	3349.94
978.687	3326.89
978.987	3335.25
979.286	3295.03
979.586	3255.25
979.885	3300.68
980.185	3233.79
980.484	3228.36
980.784	3243.05
981.083	3219.32
981.382	3179.55
981.682	3196.5
981.981	3163.96
982.28	3155.37
982.579	3161.02
982.878	3147.01
983.177	3130.28
983.475	3134.13
983.774	3082.15
984.073	3051.64
984.372	3047.12
984.67	3052.09
984.969	3045.99
985.267	3051.87
985.566	3049.84
985.864	2984.07
986.162	2999.44
986.461	2944.3
986.759	2981.81
987.057	2913.57
987.355	2916.73
987.653	2940.01
987.951	2889.84
988.249	2917.41
988.547	2903.62
988.844	2851.2
989.142	2836.73
989.44	2829.05
989.737	2801.48
990.035	2832.21
990.332	2776.62
990.63	2780.46
990.927	2764.42
991.224	2727.81
991.521	2717.87
991.819	2751.76
992.116	2699.56
992.413	2704.53
992.71	2701.82
993.006	2682.61
993.303	2657.98
993.6	2626.8
993.897	2636.29
994.193	2613.01
994.49	2616.63
994.787	2573.24
995.083	2570.53
995.379	2555.16
995.676	2564.65
995.972	2553.58
996.268	2533.24
996.565	2543.18
996.861	2510.19
997.157	2483.3
997.453	2456.4
997.749	2459.57
998.044	2465.22
998.34	2439.23
998.636	2460.7
998.932	2436.29
999.227	2412.79
999.523	2404.65
999.818	2362.85
1000.114	2381.83
1000.409	2364.88
1000.704	2362.62
1001	2328.27
1001.295	2316.07
1001.59	2294.15
1001.885	2314.49
1002.18	2280.14
1002.475	2276.3
1002.77	2288.5
1003.065	2263.19
1003.359	2267.48
1003.654	2218.44
1003.949	2226.81
1004.243	2210.99
1004.538	2178.45
1004.832	2193.36
1005.127	2156.98
1005.421	2145.45
1005.715	2156.98
1006.009	2112.91
1006.304	2100.03
1006.598	2092.35
1006.892	2080.82
1007.186	2074.72
1007.48	2079.69
1007.773	2049.18
1008.067	2040.82
1008.361	2025.91
1008.655	2021.84
1008.948	1976.64
1009.242	1977.55
1009.535	1990.2
1009.829	1977.09
1010.122	1957.89
1010.415	1957.21
1010.708	1961.5
1011.001	1937.32
1011.295	1923.99
1011.588	1907.94
1011.881	1886.93
1012.173	1863.65
1012.466	1865.91
1012.759	1845.12
1013.052	1871.56
1013.344	1836.31
1013.637	1807.38
1013.93	1815.07
1014.222	1813.71
1014.514	1790.21
1014.807	1781.62
1015.099	1770.09
1015.391	1772.13
1015.683	1748.17
1015.976	1734.16
1016.268	1726.48
1016.56	1705.46
1016.851	1737.33
1017.143	1722.19
1017.435	1665.69
1017.727	1667.5
1018.018	1645.8
1018.31	1660.72
1018.602	1657.56
1018.893	1633.83
1019.185	1633.15
1019.476	1610.1
1019.767	1629.08
1020.058	1614.17
1020.35	1597.22
1020.641	1553.83
1020.932	1538.91
1021.223	1566.94
1021.514	1541.4
1021.804	1513.15
1022.095	1528.07
1022.386	1485.81
1022.677	1495.07
1022.967	1498.92
1023.258	1472.93
1023.548	1472.7
1023.839	1438.13
1024.129	1484.45
1024.419	1473.83
1024.709	1434.96
1025	1420.95
1025.29	1451.91
1025.58	1410.56
1025.87	1400.16
1026.16	1399.03
1026.449	1366.26
1026.739	1378.24
1027.029	1344.34
1027.319	1338.47
1027.608	1327.39
1027.898	1333.95
1028.187	1311.12
1028.477	1328.3
1028.766	1319.26
1029.055	1296.21
1029.344	1277
1029.634	1294.63
1029.923	1243.55
1030.212	1275.19
1030.501	1260.73
1030.79	1246.72
1031.078	1215.31
1031.367	1199.26
1031.656	1234.52
1031.945	1228.41
1032.233	1200.39
1032.522	1190
1032.81	1180.96
1033.099	1191.58
1033.387	1181.86
1033.675	1159.94
1033.963	1171.69
1034.251	1166.49
1034.54	1164.46
1034.828	1135.31
1035.116	1116.55
1035.403	1100.51
1035.691	1093.95
1035.979	1079.94
1036.267	1102.54
1036.554	1106.84
1036.842	1074.29
1037.129	1068.42
1037.417	1059.15
1037.704	1052.6
1037.992	1032.26
1038.279	1074.29
1038.566	1025.26
1038.853	1025.26
1039.14	1025.26
