Data from hue_270_FLMS001491_00013.txt Node
Date: Tue Feb 07 15:56:49 GMT 2017
User: dcchb
Spectrometer: FLMS00149
Trigger mode: 0
Integration Time (sec): 2.000000E-2
Scans to average: 10
Electric dark correction enabled: true
Nonlinearity correction enabled: false
Boxcar width: 0
XAxis mode: Wavelengths
Number of Pixels in Spectrum: 2048
>>>>>Begin Spectral Data<<<<<
341.393	0.97
341.776	0.97
342.16	0.97
342.543	-62.07
342.927	-59.36
343.31	-72.24
343.693	-80.61
344.077	-72.7
344.46	-60.04
344.843	-61.17
345.226	-44.67
345.61	-31.57
345.993	-14.39
346.376	-0.61
346.759	12.05
347.142	19.05
347.525	67.41
347.908	58.15
348.291	76.9
348.674	95.66
349.057	108.77
349.44	141.08
349.823	146.06
350.206	164.81
350.588	177.92
350.971	189.67
351.354	227.18
351.737	210.46
352.119	228.77
352.502	254.3
352.884	261.76
353.267	267.63
353.65	253.62
354.032	291.14
354.414	315.77
354.797	323.45
355.179	307.18
355.562	295.66
355.944	326.62
356.326	304.24
356.709	315.54
357.091	321.19
357.473	330.01
357.855	335.88
358.238	344.69
358.62	325.03
359.002	330.68
359.384	344.24
359.766	332.27
360.148	332.27
360.53	329.78
360.912	325.03
361.294	327.52
361.676	314.19
362.057	320.29
362.439	314.64
362.821	308.09
363.203	320.29
363.584	324.36
363.966	322.1
364.348	320.51
364.729	300.4
365.111	324.13
365.493	309.67
365.874	291.59
366.256	313.28
366.637	306.5
367.019	310.57
367.4	311.7
367.781	306.96
368.163	300.63
368.544	313.51
368.925	337.24
369.306	316.9
369.688	306.28
370.069	304.47
370.45	288.65
370.831	304.02
371.212	320.74
371.593	298.37
371.974	308.99
372.355	294.3
372.736	322.55
373.117	315.09
373.498	309.44
373.879	296.11
374.26	297.69
374.641	313.28
375.021	313.73
375.402	336.78
375.783	341.98
376.163	330.01
376.544	315.54
376.925	310.57
377.305	315.54
377.686	316.9
378.066	327.29
378.447	327.52
378.827	318.48
379.208	327.29
379.588	340.4
379.968	315.32
380.349	343.11
380.729	328.88
381.109	328.88
381.489	326.16
381.87	328.42
382.25	339.72
382.63	332.04
383.01	337.01
383.39	346.73
383.77	327.52
384.15	347.86
384.53	334.98
384.91	351.25
385.29	332.94
385.67	358.93
386.049	346.28
386.429	369.78
386.809	368.2
387.189	337.46
387.568	363.45
387.948	366.39
388.328	353.06
388.707	353.96
389.087	352.83
389.466	362.55
389.846	373.62
390.225	372.49
390.605	375.2
390.984	373.85
391.363	345.82
391.743	351.02
392.122	364.81
392.501	360.74
392.881	385.15
393.26	382.66
393.639	385.6
394.018	349.89
394.397	387.41
394.776	379.5
395.155	392.15
395.534	383.11
395.913	384.69
396.292	393.73
396.671	384.47
397.05	399.16
397.429	403.22
397.808	391.47
398.186	395.31
398.565	396.22
398.944	401.42
399.323	414.3
399.701	395.54
400.08	392.15
400.458	403.22
400.837	395.99
401.215	422.88
401.594	427.86
401.972	440.74
402.351	414.52
402.729	445.03
403.107	427.86
403.486	435.99
403.864	417.91
404.242	463.56
404.62	462.21
404.999	451.13
405.377	444.35
405.755	450.23
406.133	451.81
406.511	446.84
406.889	453.62
407.267	457.46
407.645	478.25
408.023	486.61
408.401	482.54
408.779	493.39
409.156	488.65
409.534	514.41
409.912	499.27
410.29	504.01
410.667	527.74
411.045	535.2
411.422	529.55
411.8	505.59
412.178	542.88
412.555	520.28
412.933	551.92
413.31	567.97
413.687	577
414.065	583.33
414.442	581.98
414.819	574.74
415.197	566.16
415.574	599.6
415.951	603.22
416.328	625.14
416.705	618.13
417.082	646.16
417.46	645.25
417.837	641.64
418.214	645.93
418.591	654.97
418.967	647.51
419.344	661.97
419.721	674.63
420.098	669.88
420.475	679.37
420.852	710.33
421.228	711.24
421.605	723.89
421.982	719.37
422.358	716.21
422.735	736.77
423.111	774.29
423.488	751.69
423.864	753.5
424.241	809.09
424.617	834.17
424.994	830.33
425.37	805.02
425.746	807.51
426.123	818.13
426.499	830.56
426.875	854.51
427.251	838.01
427.627	896.54
428.003	873.95
428.379	873.95
428.756	901.52
429.132	918.46
429.507	914.17
429.883	931.35
430.259	948.75
430.635	951.46
431.011	980.16
431.387	1006.37
431.763	1011.34
432.138	994.85
432.514	1037.78
432.89	1025.35
433.265	1023.77
433.641	1061.74
434.016	1054.51
434.392	1102.87
434.767	1120.72
435.143	1104.67
435.518	1157.1
435.894	1158.01
436.269	1187.38
436.644	1186.25
437.02	1215.86
437.395	1221.51
437.77	1235.74
438.145	1254.27
438.52	1266.03
438.895	1279.81
439.271	1305.8
439.646	1318.23
440.021	1348.96
440.395	1360.26
440.77	1360.26
441.145	1356.87
441.52	1379.02
441.895	1407.94
442.27	1404.55
442.645	1413.37
443.019	1423.54
443.394	1452.69
443.769	1436.42
444.143	1432.58
444.518	1481.61
444.892	1456.08
445.267	1462.63
445.641	1498.11
446.016	1533.36
446.39	1536.3
446.764	1533.36
447.139	1531.1
447.513	1550.31
447.887	1564.1
448.262	1596.86
448.636	1545.11
449.01	1571.55
449.384	1602.06
449.758	1620.14
450.132	1624.21
450.506	1598.9
450.88	1666.02
451.254	1637.32
451.628	1666.24
452.002	1680.48
452.376	1670.54
452.75	1713.47
453.123	1703.3
453.497	1728.16
453.871	1722.29
454.244	1762.28
454.618	1793.02
454.992	1803.86
455.365	1813.36
455.739	1854.94
456.112	1858.55
456.486	1842.51
456.859	1879.57
457.232	1924.31
457.606	1922.05
457.979	1904.2
458.352	1944.65
458.725	1950.3
459.099	2007.48
459.472	2025.33
459.845	2048.83
460.218	2035.72
460.591	2052.67
460.964	2064.42
461.337	2111.43
461.71	2129.05
462.083	2169.28
462.456	2167.02
462.829	2176.06
463.201	2226.68
463.574	2189.39
463.947	2251.76
464.32	2283.4
464.692	2296.73
465.065	2308.94
465.438	2312.1
465.81	2346.68
466.183	2389.84
466.555	2376.51
466.928	2425.54
467.3	2454.92
467.672	2473.9
468.045	2504.86
468.417	2534.47
468.789	2510.06
469.161	2527.69
469.534	2570.62
469.906	2632.77
470.278	2641.81
470.65	2681.13
471.022	2692.43
471.394	2752.09
471.766	2755.93
472.138	2773.11
472.51	2794.35
472.882	2857.62
473.253	2887
473.625	2956.6
473.997	2977.85
474.369	2976.26
474.74	3006.77
475.112	3064.62
475.484	3100.55
475.855	3154.11
476.227	3127.45
476.598	3251.96
476.97	3274.56
477.341	3285.18
477.713	3347.78
478.084	3377.83
478.455	3389.13
478.827	3450.6
479.198	3527.21
479.569	3524.95
479.94	3633.65
480.311	3648.11
480.682	3736.7
481.053	3810.59
481.424	3791.61
481.795	3845.39
482.166	3873.42
482.537	3928.33
482.908	3982.34
483.279	3999.51
483.65	4073.64
484.021	4081.32
484.391	4172.62
484.762	4195.67
485.133	4214.42
485.503	4233.18
485.874	4355.21
486.244	4340.97
486.615	4465.04
486.985	4487.86
487.356	4559.27
487.726	4560.63
488.097	4650.8
488.467	4641.08
488.837	4740.51
489.207	4779.38
489.578	4815.99
489.948	4794.29
490.318	4921.52
490.688	4918.13
491.058	4977.57
491.428	5066.6
491.798	5049.2
492.168	5161.97
492.538	5129.43
492.908	5168.75
493.278	5271.12
493.648	5239.25
494.017	5292.13
494.387	5322.87
494.757	5392.02
495.126	5399.93
495.496	5424.11
495.866	5424.79
496.235	5481.28
496.605	5511.34
496.974	5583.65
497.344	5657.1
497.713	5596.31
498.082	5671.33
498.452	5641.73
498.821	5735.51
499.19	5706.81
499.559	5712.46
499.928	5771.67
500.298	5767.6
500.667	5827.26
501.036	5777.77
501.405	5873.59
501.774	5885.57
502.143	5919.91
502.512	5916.53
502.88	6022.96
503.249	5978.9
503.618	5997.65
503.987	5954.94
504.356	5999.01
504.724	6047.37
505.093	6103.19
505.462	6016.64
505.83	6120.59
506.199	6116.52
506.567	6190.64
506.936	6194.71
507.304	6222.96
507.672	6233.81
508.041	6231.32
508.409	6326.46
508.777	6340.24
509.145	6348.6
509.514	6270.41
509.882	6361.03
510.25	6352.67
510.618	6396.29
510.986	6415.72
511.354	6385.67
511.722	6440.81
512.09	6441.26
512.458	6486.91
512.826	6495.72
513.193	6479
513.561	6528.26
513.929	6498.43
514.297	6574.59
514.664	6544.53
515.032	6533.68
515.4	6593.12
515.767	6614.81
516.135	6662.04
516.502	6522.38
516.869	6648.71
517.237	6735.49
517.604	6697.75
517.972	6622.72
518.339	6718.54
518.706	6687.58
519.073	6691.87
519.44	6778.65
519.808	6780.68
520.175	6760.8
520.542	6815.71
520.909	6858.87
521.276	6845.31
521.643	6853.45
522.009	6848.7
522.376	6927.12
522.743	6896.61
523.11	6992.43
523.477	6997.4
523.843	6972.32
524.21	6971.19
524.577	7017.06
524.943	7053.44
525.31	7104.29
525.676	7130.28
526.043	7108.36
526.409	7148.58
526.776	7219.54
527.142	7203.05
527.508	7232.87
527.874	7199.88
528.241	7328.01
528.607	7293.89
528.973	7325.98
529.339	7256.83
529.705	7295.02
530.071	7348.8
530.437	7366.66
530.803	7404.4
531.169	7420.89
531.535	7431.97
531.901	7437.39
532.267	7456.15
532.632	7431.97
532.998	7482.59
533.364	7521.45
533.73	7507.44
534.095	7509.25
534.461	7515.35
534.826	7521
535.192	7574.33
535.557	7569.82
535.923	7582.47
536.288	7585.18
536.653	7592.19
537.019	7601.23
537.384	7587.89
537.749	7567.56
538.114	7614.56
538.479	7606.2
538.845	7646.42
539.21	7646.2
539.575	7630.83
539.94	7601.68
540.305	7588.57
540.67	7665.41
541.034	7657.72
541.399	7709.02
541.764	7757.15
542.129	7675.35
542.494	7694.11
542.858	7668.57
543.223	7718.74
543.587	7738.4
543.952	7756.25
544.316	7732.75
544.681	7722.13
545.045	7754.67
545.41	7793.76
545.774	7787.66
546.138	7746.53
546.503	7776.36
546.867	7762.35
547.231	7855.68
547.595	7843.25
547.959	7849.36
548.324	7800.32
548.688	7827.44
549.052	7857.94
549.416	7831.5
549.779	7789.24
550.143	7788.34
550.507	7858.4
550.871	7893.65
551.235	7818.62
551.599	7867.89
551.962	7851.62
552.326	7876.93
552.689	7942.46
553.053	7860.88
553.417	7873.76
553.78	7979.97
554.143	7939.75
554.507	8010.03
554.87	7996.24
555.234	7982.01
555.597	7937.94
555.96	8070.14
556.323	8002.8
556.686	8011.61
557.05	8068.11
557.413	8057.26
557.776	8056.58
558.139	8049.12
558.502	8124.38
558.865	8075.79
559.228	8143.13
559.59	8175.22
559.953	8166.18
560.316	8214.09
560.679	8234.43
561.041	8219.74
561.404	8267.88
561.767	8302.23
562.129	8313.75
562.492	8343.13
562.854	8386.29
563.217	8302.9
563.579	8443.46
563.941	8419.51
564.304	8446.4
564.666	8459.96
565.028	8482.33
565.39	8543.35
565.753	8551.94
566.115	8562.56
566.477	8594.87
566.839	8670.35
567.201	8651.14
567.563	8700.18
567.925	8777.69
568.287	8717.13
568.648	8711.25
569.01	8823.12
569.372	8790.35
569.734	8767.3
570.095	8821.08
570.457	8869.67
570.819	8898.82
571.18	8911.02
571.542	8978.37
571.903	9019.27
572.265	8994.41
572.626	9085.26
572.987	9034.41
573.349	9071.7
573.71	9144.01
574.071	9172.94
574.432	9123.9
574.794	9192.15
575.155	9199.83
575.516	9248.19
575.877	9214.07
576.238	9295.65
576.599	9352.37
576.96	9389.88
577.32	9383.33
577.681	9409.09
578.042	9407.51
578.403	9463.1
578.763	9465.58
579.124	9488.18
579.485	9579.25
579.845	9604.56
580.206	9586.49
580.566	9649.31
580.927	9629.87
581.287	9648.63
581.648	9673.94
582.008	9714.39
582.368	9688.63
582.728	9804.78
583.089	9789.42
583.449	9904.89
583.809	9811.56
584.169	9902.64
584.529	9874.84
584.889	9977.21
585.249	9953.26
585.609	9939.92
585.969	10082.07
586.329	10028.96
586.688	10092.91
587.048	10097.66
587.408	10072.57
587.768	10052.01
588.127	10056.08
588.487	10138.11
588.846	10205
589.206	10157.77
589.565	10203.42
589.925	10294.94
590.284	10220.14
590.643	10325.45
591.003	10256.07
591.362	10396.41
591.721	10411.55
592.08	10324.09
592.44	10384.66
592.799	10465.56
593.158	10435.5
593.517	10426.01
593.876	10479.8
594.235	10471.89
594.593	10540.13
594.952	10470.53
595.311	10514.82
595.67	10596.63
596.029	10615.84
596.387	10600.02
596.746	10654.03
597.104	10518.66
597.463	10637.31
597.822	10656.51
598.18	10613.12
598.538	10682.28
598.897	10749.62
599.255	10712.56
599.613	10768.83
599.972	10773.8
600.33	10776.28
600.688	10744.42
601.046	10842.95
601.404	10840.69
601.762	10867.81
602.12	10830.75
602.478	10880.01
602.836	10883.17
603.194	10778.54
603.552	10893.8
603.91	10877.75
604.268	10902.61
604.625	10838.2
604.983	10835.49
605.341	10854.7
605.698	10930.63
606.056	10938.99
606.413	10920.69
606.771	11031.19
607.128	11006.33
607.485	10921.14
607.843	11014.7
608.2	11031.64
608.557	11081.81
608.914	10993.68
609.272	11096.95
609.629	11102.15
609.986	11197.06
610.343	11106.67
610.7	11192.54
611.057	11185.09
611.414	11101.02
611.771	11144.64
612.127	11240.68
612.484	11186.22
612.841	11258.31
613.198	11240.9
613.554	11232.09
613.911	11301.02
614.267	11249.94
614.624	11299.43
614.98	11297.4
615.337	11291.07
615.693	11278.19
616.05	11338.98
616.406	11398.87
616.762	11306.67
617.118	11322.48
617.475	11306.89
617.831	11380.11
618.187	11360.9
618.543	11376.04
618.899	11386.21
619.255	11401.13
619.611	11443.39
619.967	11381.01
620.323	11463.95
620.678	11397.96
621.034	11402.93
621.39	11367.23
621.746	11458.07
622.101	11470.5
622.457	11444.29
622.812	11456.94
623.168	11520.67
623.523	11463.27
623.879	11490.84
624.234	11447.68
624.589	11466.89
624.945	11479.32
625.3	11513.67
625.655	11530.84
626.01	11458.3
626.365	11453.78
626.72	11403.39
627.075	11513.89
627.43	11513.89
627.785	11439.09
628.14	11467.79
628.495	11456.72
628.85	11375.36
629.205	11441.13
629.559	11357.51
629.914	11356.38
630.269	11418.3
630.623	11372.2
630.978	11383.73
631.332	11351.64
631.687	11369.72
632.041	11324.74
632.396	11437.06
632.75	11331.98
633.104	11304.18
633.459	11218.53
633.813	11184.18
634.167	11265.54
634.521	11249.94
634.875	11263.05
635.229	11222.83
635.583	11134.69
635.937	11225.54
636.291	11177.4
636.645	11243.62
636.999	11205.2
637.352	11185.09
637.706	11087.24
638.06	11202.26
638.413	11122.26
638.767	11147.57
639.121	11151.64
639.474	11014.24
639.828	11047.24
640.181	11068.25
640.534	11018.31
640.888	10989.39
641.241	11024.64
641.594	11061.02
641.947	11008.82
642.301	10952.78
642.654	10981.7
643.007	11014.24
643.36	10899.67
643.713	11003.17
644.066	10990.74
644.419	10937.18
644.771	10874.36
645.124	10736.51
645.477	10716.62
645.83	10702.84
646.182	10637.98
646.535	10592.11
646.888	10703.07
647.24	10604.09
647.593	10546.23
647.945	10593.46
648.298	10586.91
648.65	10567.93
649.002	10522.96
649.355	10574.03
649.707	10576.97
650.059	10583.75
650.411	10717.3
650.763	10725.66
651.115	10806.79
651.467	10809.05
651.819	10768.15
652.171	10780.35
652.523	10766.79
652.875	10775.15
653.227	10722.5
653.578	10825.77
653.93	10717.08
654.282	10787.81
654.633	10688.38
654.985	10794.36
655.337	10725.89
655.688	10779.22
656.039	10793.91
656.391	10684.54
656.742	10820.13
657.094	10811.76
657.445	10807.02
657.796	10810.86
658.147	10748.71
658.498	10763.18
658.849	10800.46
659.2	10800.24
659.551	10821.93
659.902	10754.36
660.253	10804.53
660.604	10838.88
660.955	10765.44
661.306	10882.27
661.656	10757.53
662.007	10786.91
662.358	10793.91
662.708	10793.01
663.059	10761.37
663.409	10759.11
663.76	10819.67
664.11	10763.86
664.461	10799.11
664.811	10798.66
665.161	10819.22
665.511	10714.14
665.862	10762.95
666.212	10867.58
666.562	10747.81
666.912	10740.58
667.262	10781.26
667.612	10817.41
667.962	10769.73
668.312	10747.13
668.662	10769.28
669.011	10723.4
669.361	10731.09
669.711	10729.05
670.06	10735.83
670.41	10760.69
670.76	10748.49
671.109	10737.42
671.459	10675.5
671.808	10730.86
672.157	10784.19
672.507	10673.01
672.856	10764.76
673.205	10724.76
673.554	10721.6
673.904	10627.14
674.253	10770.18
674.602	10711.43
674.951	10532.68
675.3	10451.32
675.649	10597.98
675.998	10517.53
676.346	10588.49
676.695	10593.92
677.044	10608.83
677.393	10579.23
677.741	10644.08
678.09	10581.26
678.438	10591.88
678.787	10580.81
679.135	10549.62
679.484	10441.38
679.832	10508.04
680.181	10425.33
680.529	10434.6
680.877	10486.8
681.225	10445.67
681.573	10438.44
681.922	10419.46
682.27	10372
682.618	10362.74
682.966	10357.09
683.314	10425.11
683.661	10347.14
684.009	10306.01
684.357	10278.22
684.705	10253.81
685.053	10273.92
685.4	10243.42
685.748	10177.88
686.095	10200.03
686.443	10206.36
686.79	10118.22
687.138	10114.61
687.485	10086.13
687.832	10093.36
688.18	10068.51
688.527	10019.24
688.874	10007.94
689.221	9990.99
689.568	9902.18
689.915	9894.5
690.262	9927.72
690.609	9870.09
690.956	9755.52
691.303	9833.71
691.65	9736.31
691.997	9729.08
692.344	9638.91
692.69	9684.34
693.037	9694.28
693.383	9644.11
693.73	9512.81
694.077	9491.8
694.423	9571.8
694.769	9539.71
695.116	9440.73
695.462	9418.58
695.808	9445.7
696.155	9452.03
696.501	9325.48
696.847	9346.94
697.193	9232.82
697.539	9268.98
697.885	9221.52
698.231	9140.62
698.577	9194.18
698.923	9118.93
699.269	9086.84
699.614	9035.09
699.96	9011.81
700.306	8991.02
700.651	8921.42
700.997	8940.63
701.342	8899.95
701.688	8890.23
702.033	8838.26
702.379	8840.29
702.724	8772.72
703.069	8819.27
703.415	8708.99
703.76	8732.95
704.105	8686.4
704.45	8732.72
704.795	8607.3
705.14	8635.78
705.485	8640.07
705.83	8555.78
706.175	8577.25
706.52	8499.28
706.865	8493.86
707.209	8445.5
707.554	8450.02
707.899	8473.97
708.243	8414.09
708.588	8419.96
708.932	8348.1
709.277	8407.99
709.621	8303.81
709.966	8293.19
710.31	8293.64
710.654	8242.11
710.998	8291.15
711.342	8198.27
711.687	8256.58
712.031	8142.91
712.375	8132.74
712.719	8158.5
713.063	8106.07
713.407	8139.97
713.75	8105.39
714.094	8050.25
714.438	8040.09
714.782	8045.28
715.125	7979.52
715.469	8015.23
715.812	8016.36
716.156	7966.64
716.499	7948.56
716.843	7926.42
717.186	7856.14
717.53	7917.38
717.873	7927.09
718.216	7939.07
718.559	7895.23
718.902	7805.97
719.246	7831.73
719.589	7800.09
719.932	7805.06
720.275	7795.57
720.617	7792.18
720.96	7762.13
721.303	7792.18
721.646	7767.32
721.989	7696.14
722.331	7772.97
722.674	7756.48
723.016	7736.82
723.359	7751.28
723.701	7761
724.044	7787.21
724.386	7695.24
724.729	7690.94
725.071	7652.3
725.413	7716.25
725.755	7699.08
726.097	7620.21
726.439	7620.21
726.782	7582.02
727.124	7663.37
727.465	7650.04
727.807	7598.51
728.149	7606.42
728.491	7616.14
728.833	7625.41
729.175	7534.79
729.516	7527.1
729.858	7596.03
730.199	7608.91
730.541	7593.54
730.882	7556.93
731.224	7521.68
731.565	7554
731.906	7602.13
732.248	7592.19
732.589	7556.26
732.93	7486.2
733.271	7497.73
733.612	7538.4
733.953	7598.74
734.294	7518.97
734.635	7530.04
734.976	7581.79
735.317	7546.31
735.658	7535.24
735.999	7593.54
736.339	7562.58
736.68	7546.76
737.021	7573.66
737.361	7536.6
737.702	7525.3
738.042	7542.92
738.383	7558.06
738.723	7563.71
739.063	7560.78
739.404	7556.48
739.744	7525.75
740.084	7551.51
740.424	7631.73
740.764	7584.05
741.104	7650.26
741.444	7664.95
741.784	7606.65
742.124	7687.78
742.464	7675.58
742.804	7660.66
743.143	7686.42
743.483	7716.93
743.823	7671.28
744.162	7666.99
744.502	7732.75
744.841	7770.49
745.181	7796.7
745.52	7793.76
745.86	7863.59
746.199	7932.07
746.538	7950.82
746.877	7982.91
747.216	7990.82
747.556	8043.93
747.895	8046.19
748.234	8099.29
748.573	8097.26
748.911	8202.11
749.25	8234.43
749.589	8214.54
749.928	8325.95
750.267	8414.99
750.605	8432.39
750.944	8479.62
751.283	8528.89
751.621	8654.31
751.96	8662.89
752.298	8777.92
752.636	8859.5
752.975	8861.31
753.313	8869.44
753.651	9167.51
753.989	9258.81
754.327	9245.03
754.666	9357.11
755.004	9499.03
755.342	9653.6
755.679	9735.86
756.017	9779.25
756.355	9908.51
756.693	10013.82
757.031	10230.99
757.368	10290.87
757.706	10522.51
758.044	10592.79
758.381	10710.3
758.719	10874.36
759.056	11048.82
759.394	11088.82
759.731	11240.45
760.068	11420.79
760.405	11505.3
760.743	11726.54
761.08	11836.37
761.417	11985.97
761.754	12181.9
762.091	12305.51
762.428	12376.02
762.765	12566.52
763.102	12736.01
763.438	12849
763.775	12991.82
764.112	13138.26
764.449	13348.65
764.785	13425.71
765.122	13604.91
765.458	13663.67
765.795	13897.11
766.131	14046.48
766.467	14116.31
766.804	14290.54
767.14	14391.56
767.476	14557.43
767.812	14634.04
768.148	14798.1
768.485	14914.25
768.821	15032.67
769.157	15142.5
769.492	15220.01
769.828	15464.97
770.164	15444.64
770.5	15612.54
770.836	15670.85
771.171	15727.57
771.507	15955.36
771.842	15910.84
772.178	16020.44
772.513	16271.96
772.849	16265.41
773.184	16310.6
773.519	16466.08
773.855	16412.07
774.19	16520.99
774.525	16538.62
774.86	16651.84
775.195	16706.52
775.53	16820.19
775.865	16798.95
776.2	16815.45
776.535	16819.97
776.87	16881.66
777.205	16921.43
777.539	16938.61
777.874	17028.1
778.209	17030.81
778.543	17097.47
778.878	17033.97
779.212	17039.17
779.547	17098.83
779.881	17229.22
780.215	17118.49
780.55	17255.21
780.884	17209.34
781.218	17250.46
781.552	17269
781.886	17209.79
782.22	17174.99
782.554	17263.12
782.888	17144.03
783.222	17125.27
783.556	17145.83
783.889	17109
784.223	16976.8
784.557	17134.31
784.89	17285.27
785.224	17122.33
785.557	17067.64
785.891	17028.55
786.224	17052.28
786.558	17137.93
786.891	17009.34
787.224	17011.15
787.557	16993.75
787.891	16937.03
788.224	16954.2
788.557	17005.27
788.89	16941.32
789.223	17059.06
789.556	16875.56
789.888	16981.77
790.221	16878.95
790.554	16794.21
790.887	16858.16
791.219	16775.9
791.552	16742.91
791.884	16689.12
792.217	16798.27
792.549	16688.45
792.882	16608.22
793.214	16566.87
793.546	16612.97
793.879	16542.23
794.211	16494.78
794.543	16480.54
794.875	16465.63
795.207	16533.87
795.539	16378.85
795.871	16404.39
796.203	16301.79
796.535	16196.71
796.867	16278.06
797.198	16273.77
797.53	16273.32
797.862	16180.44
798.193	16210.94
798.525	16073.32
798.856	16070.38
799.188	15954.91
799.519	15968.24
799.85	15885.53
800.182	15869.03
800.513	15938.18
800.844	15819.77
801.175	15851.86
801.506	15781.58
801.837	15781.35
802.168	15784.74
802.499	15677.17
802.83	15681.92
803.161	15662.71
803.491	15554.69
803.822	15582.03
804.153	15663.16
804.483	15376.39
804.814	15362.15
805.145	15365.99
805.475	15439.21
805.805	15260.01
806.136	15309.27
806.466	15310.18
806.796	15319.67
807.126	15142.72
807.457	15131.42
807.787	15124.42
808.117	15090.97
808.447	15059.11
808.777	15090.07
809.107	14981.37
809.436	15063.86
809.766	15061.37
810.096	14985.44
810.426	14820.02
810.755	14887.81
811.085	14908.61
811.414	14764.88
811.744	14675.62
812.073	14644.88
812.403	14667.93
812.732	14698.44
813.061	14651.44
813.39	14573.02
813.719	14553.13
814.049	14686.24
814.378	14507.49
814.707	14539.12
815.036	14479.69
815.365	14455.51
815.693	14282.63
816.022	14326.93
816.351	14234.95
816.68	14255.74
817.008	14354.27
817.337	14148.85
817.665	14173.48
817.994	14186.82
818.322	14160.15
818.651	14068.4
818.979	14009.87
819.307	14138.23
819.636	14122.86
819.964	13956.99
820.292	14042.41
820.62	13979.82
820.948	14023.43
821.276	14134.39
821.604	13979.82
821.932	13992.47
822.259	14030.44
822.587	13916.09
822.915	13994.96
823.243	13944.11
823.57	14030.44
823.898	14013.49
824.225	13920.83
824.553	13994.96
824.88	13946.37
825.207	14116.54
825.535	13983.88
825.862	14046.03
826.189	13902.3
826.516	14083.54
826.843	14096.2
827.17	14026.37
827.497	14051.68
827.824	14096.2
828.151	14050.32
828.478	14124.67
828.805	14048.97
829.131	14098.91
829.458	14015.07
829.785	13966.26
830.111	14047.38
830.438	14061.17
830.764	14073.37
831.09	14028.18
831.417	14000.83
831.743	14022.07
832.069	14109.76
832.395	13976.65
832.722	13998.12
833.048	13959.7
833.374	14046.71
833.7	13889.65
834.026	13982.98
834.351	13892.81
834.677	13904.56
835.003	13920.61
835.329	13920.61
835.654	13874.28
835.98	13736.88
836.306	13853.04
836.631	13741.4
836.956	13857.33
837.282	13787.73
837.607	13743.89
837.932	13780.95
838.258	13753.16
838.583	13757.67
838.908	13693.04
839.233	13721.97
839.558	13567.4
839.883	13560.39
840.208	13579.37
840.533	13528.75
840.858	13595.19
841.182	13524.46
841.507	13542.99
841.832	13464.12
842.156	13503.44
842.481	13528.08
842.805	13413.05
843.13	13309.33
843.454	13400.62
843.778	13295.54
844.103	13241.08
844.427	13242.89
844.751	13252.38
845.075	13187.52
845.399	13161.53
845.723	13032.72
846.047	13056.68
846.371	12980.97
846.695	12973.74
847.019	12895.32
847.343	12886.74
847.666	12740.3
847.99	12675.9
848.313	12687.42
848.637	12551.38
848.96	12611.26
849.284	12651.72
849.607	12437.26
849.931	12440.87
850.254	12385.06
850.577	12273.65
850.9	12270.48
851.223	12192.29
851.546	12175.57
851.869	12118.85
852.192	12255.34
852.515	12061.22
852.838	12031.39
853.161	11933.99
853.483	11917.72
853.806	11844.05
854.129	11921.57
854.451	11836.37
854.774	11862.58
855.096	11777.61
855.419	11700.55
855.741	11650.39
856.063	11590.73
856.385	11609.26
856.708	11602.25
857.03	11529.26
857.352	11499.88
857.674	11514.8
857.996	11381.92
858.318	11292.66
858.64	11390.51
858.961	11359.09
859.283	11257.85
859.605	11209.72
859.926	11299.89
860.248	11260.34
860.57	11193.67
860.891	11144.41
861.212	11052.21
861.534	11085.88
861.855	11139.66
862.176	11076.16
862.498	11007.01
862.819	11098.31
863.14	11010.18
863.461	10981.02
863.782	10929.27
864.103	10941.7
864.424	10892.89
864.745	10928.37
865.065	10907.81
865.386	10783.74
865.707	10875.26
866.027	10794.14
866.348	10775.38
866.668	10753.23
866.989	10769.96
867.309	10746.23
867.63	10715.04
867.95	10690.86
868.27	10737.19
868.59	10678.89
868.91	10669.85
869.23	10621.71
869.55	10597.08
869.87	10559.57
870.19	10601.83
870.51	10602.05
870.83	10535.39
871.15	10526.57
871.469	10498.78
871.789	10537.65
872.109	10443.19
872.428	10428.5
872.748	10466.01
873.067	10461.04
873.386	10452.9
873.706	10468.04
874.025	10426.24
874.344	10333.58
874.663	10297.88
874.982	10282.29
875.301	10297.2
875.62	10261.95
875.939	10315.51
876.258	10280.7
876.577	10302.62
876.896	10134.04
877.214	10202.74
877.533	10174.72
877.852	10202.06
878.17	10181.27
878.489	10134.72
878.807	10052.69
879.125	10138.79
879.444	10114.83
879.762	10062.86
880.08	10090.88
880.398	10016.53
880.716	10009.07
881.034	9953.71
881.352	10066.7
881.67	9982.86
881.988	10017.21
882.306	9899.25
882.624	9884.33
882.941	9846.37
883.259	9863.09
883.577	9772.02
883.894	9775.41
884.212	9817.89
884.529	9787.84
884.846	9747.38
885.164	9736.54
885.481	9654.28
885.798	9687.73
886.115	9608.86
886.432	9618.8
886.75	9605.02
887.067	9678.91
887.383	9558.92
887.7	9569.08
888.017	9490.22
888.334	9509.43
888.651	9530.67
888.967	9423.78
889.284	9468.52
889.6	9381.97
889.917	9272.14
890.233	9396.89
890.55	9267.4
890.866	9348.07
891.182	9254.52
891.498	9170.9
891.815	9233.73
892.131	9185.37
892.447	9145.82
892.763	9064.24
893.079	9093.39
893.395	9109.21
893.71	9024.92
894.026	8957.12
894.342	9036.44
894.657	8898.14
894.973	8866.5
895.289	8883.68
895.604	8906.5
895.92	8795.32
896.235	8671.26
896.55	8795.32
896.865	8710.12
897.181	8717.36
897.496	8676.68
897.811	8610.01
898.126	8587.42
898.441	8603.91
898.756	8569.34
899.071	8526.85
899.386	8501.77
899.7	8380.87
900.015	8379.29
900.33	8392.17
900.644	8346.97
900.959	8355.78
901.273	8353.75
901.588	8281.66
901.902	8203.92
902.216	8191.95
902.531	8184.49
902.845	8134.32
903.159	8115.56
903.473	8080.31
903.787	8015.91
904.101	8001.22
904.415	7959.86
904.729	7926.87
905.042	7877.6
905.356	7862.46
905.67	7907.66
905.984	7890.48
906.297	7884.61
906.611	7782.92
906.924	7734.78
907.237	7733.88
907.551	7739.08
907.864	7692.98
908.177	7677.16
908.491	7657.95
908.804	7583.15
909.117	7503.15
909.43	7458.41
909.743	7445.75
910.056	7419.08
910.368	7393.55
910.681	7387.45
910.994	7312.87
911.307	7298.18
911.619	7252.31
911.932	7359.65
912.244	7176.15
912.557	7259.77
912.869	7159.88
913.181	7153.78
913.494	7117.17
913.806	7041.92
914.118	7071.75
914.43	7051.18
914.742	7011.64
915.054	6937.06
915.366	6923.96
915.678	6937.29
915.99	6833.34
916.302	6834.47
916.613	6831.98
916.925	6831.08
917.236	6796.95
917.548	6736.62
917.859	6764.64
918.171	6685.54
918.482	6652.55
918.794	6638.31
919.105	6617.3
919.416	6574.59
919.727	6551.76
920.038	6570.97
920.349	6533.91
920.66	6477.64
920.971	6460.24
921.282	6414.82
921.593	6397.19
921.903	6363.29
922.214	6296.18
922.525	6351.77
922.835	6340.02
923.146	6246.69
923.456	6262.05
923.767	6199.68
924.077	6220.92
924.387	6179.34
924.697	6102.06
925.008	6096.86
925.318	6077.2
925.628	6125.33
925.938	6023.42
926.248	6028.61
926.558	5980.7
926.867	5997.88
927.177	5965.56
927.487	5939.8
927.796	5845.34
928.106	5835.17
928.416	5827.71
928.725	5893.02
929.034	5787.26
929.344	5800.82
929.653	5771.9
929.962	5709.53
930.271	5690.54
930.581	5670.66
930.89	5623.43
931.199	5599.02
931.508	5608.96
931.817	5592.01
932.125	5556.08
932.434	5557.66
932.743	5535.97
933.051	5419.36
933.36	5457.55
933.669	5456.88
933.977	5442.87
934.286	5402.19
934.594	5436.09
934.902	5334.39
935.21	5305.24
935.519	5300.04
935.827	5270.89
936.135	5259.37
936.443	5219.82
936.751	5252.81
937.059	5200.84
937.367	5213.04
937.674	5164.45
937.982	5128.3
938.29	5084
938.597	5082.65
938.905	5040.39
939.213	5005.36
939.52	5000.17
939.827	5055.98
940.135	5002.65
940.442	4979.83
940.749	4931.47
941.056	4953.84
941.363	4888.53
941.67	4895.76
941.977	4860.73
942.284	4813.96
942.591	4754.97
942.898	4807.4
943.205	4826.38
943.511	4745.26
943.818	4749.55
944.125	4756.56
944.431	4691.25
944.738	4703.45
945.044	4663.68
945.35	4646.73
945.657	4607.18
945.963	4552.27
946.269	4564.7
946.575	4561.08
946.881	4548.65
947.187	4495.32
947.493	4495.09
947.799	4503
948.105	4497.13
948.41	4432.95
948.716	4469.56
949.022	4413.97
949.327	4371.71
949.633	4367.87
949.938	4375.77
950.244	4347.75
950.549	4270.69
950.854	4320.63
951.16	4297.13
951.465	4262.56
951.77	4256.46
952.075	4221.65
952.38	4223.24
952.685	4136.23
952.99	4190.92
953.294	4183.92
953.599	4131.94
953.904	4103.69
954.209	4114.76
954.513	4122.45
954.818	4097.14
955.122	4049.46
955.426	4027.54
955.731	4007.65
956.035	4014.2
956.339	3993.19
956.643	3955.9
956.948	3896.47
957.252	3958.84
957.556	3935.79
957.86	3863.47
958.163	3894.66
958.467	3819.63
958.771	3866.18
959.075	3818.73
959.378	3816.02
959.682	3793.87
959.985	3777.15
960.289	3764.72
960.592	3751.38
960.896	3740.09
961.199	3682.23
961.502	3733.98
961.805	3687.43
962.108	3654.66
962.411	3658.28
962.714	3632.07
963.017	3594.1
963.32	3624.61
963.623	3583.48
963.926	3571.95
964.228	3556.36
964.531	3565.17
964.833	3540.77
965.136	3486.53
965.438	3486.98
965.741	3487.89
966.043	3438.62
966.345	3453.09
966.648	3460.77
966.95	3421.22
967.252	3415.12
967.554	3397.04
967.856	3377.83
968.158	3353.88
968.46	3349.36
968.761	3307.1
969.063	3335.8
969.365	3292.87
969.666	3325.63
969.968	3276.59
970.269	3238.18
970.571	3265.07
970.872	3231.17
971.174	3208.8
971.475	3192.76
971.776	3195.24
972.077	3177.84
972.378	3153.89
972.679	3136.26
972.98	3118.18
973.281	3138.07
973.582	3148.69
973.883	3123.6
974.183	3072.98
974.484	3097.39
974.785	3051.97
975.085	3080.89
975.386	3031.63
975.686	3019.2
975.986	2999.77
976.287	3001.57
976.587	2944.63
976.887	2971.74
977.187	2980.78
977.487	2946.21
977.787	2947.79
978.087	2923.84
978.387	2896.49
978.687	2915.93
978.987	2891.29
979.286	2860.79
979.586	2864.63
979.885	2834.8
980.185	2785.76
980.484	2800
980.784	2795.93
981.083	2757.74
981.382	2831.41
981.682	2779.43
981.981	2716.16
982.28	2727.91
982.579	2735.59
982.878	2721.13
983.177	2729.04
983.475	2683.84
983.774	2663.05
984.073	2656.95
984.372	2652.2
984.67	2616.5
984.969	2624.63
985.267	2633.9
985.566	2611.98
985.864	2630.51
986.162	2591.41
986.461	2545.09
986.759	2555.48
987.057	2560
987.355	2520.68
987.653	2523.39
987.951	2478.42
988.249	2524.98
988.547	2482.27
988.844	2451.53
989.142	2474.58
989.44	2458.76
989.737	2426
990.035	2446.79
990.332	2399.78
990.63	2423.28
990.927	2406.34
991.224	2403.62
991.521	2366.79
991.819	2341.93
992.116	2353.91
992.413	2366.56
992.71	2348.03
993.006	2320.46
993.303	2314.13
993.6	2312.1
993.897	2299.67
994.193	2292.44
994.49	2280.46
994.787	2268.71
995.083	2268.49
995.379	2232.1
995.676	2228.94
995.972	2208.37
996.268	2191.88
996.565	2209.05
996.861	2181.03
997.157	2147.81
997.453	2196.85
997.749	2149.84
998.044	2177.19
998.34	2123.18
998.636	2116.17
998.932	2070.75
999.227	2051.32
999.523	2084.54
999.818	2067.81
1000.114	2056.29
1000.409	2035.72
1000.704	2026.23
1001	2015.84
1001.295	1993.01
1001.59	2007.7
1001.885	1993.69
1002.18	1995.95
1002.475	1942.62
1002.77	1962.05
1003.065	1938.55
1003.359	1937.87
1003.654	1930.19
1003.949	1923.64
1004.243	1942.62
1004.538	1896.97
1004.832	1878.44
1005.127	1874.15
1005.421	1856.97
1005.715	1854.49
1006.009	1853.13
1006.304	1854.26
1006.598	1835.5
1006.892	1804.77
1007.186	1831.89
1007.48	1808.61
1007.773	1772.45
1008.067	1788.05
1008.361	1762.74
1008.655	1738.56
1008.948	1749.63
1009.242	1734.71
1009.535	1733.36
1009.829	1716.41
1010.122	1715.05
1010.415	1710.31
1010.708	1664.89
1011.001	1692.91
1011.295	1680.48
1011.588	1640.48
1011.881	1632.34
1012.173	1651.1
1012.466	1629.18
1012.759	1633.02
1013.052	1600.93
1013.344	1611.33
1013.637	1591.22
1013.93	1574.94
1014.222	1591.67
1014.514	1582.4
1014.807	1554.61
1015.099	1532.23
1015.391	1540.37
1015.683	1548.96
1015.976	1530.2
1016.268	1482.29
1016.56	1462.86
1016.851	1516.87
1017.143	1501.5
1017.435	1476.64
1017.727	1438.68
1018.018	1445
1018.31	1412.46
1018.602	1441.39
1018.893	1403.42
1019.185	1410.88
1019.476	1393.03
1019.767	1398.23
1020.058	1414.04
1020.35	1381.96
1020.641	1379.7
1020.932	1346.25
1021.223	1356.42
1021.514	1353.03
1021.804	1332.01
1022.095	1303.77
1022.386	1329.53
1022.677	1286.14
1022.967	1294.27
1023.258	1279.81
1023.548	1287.95
1023.839	1278.46
1024.129	1266.03
1024.419	1246.59
1024.709	1271.45
1025	1250.66
1025.29	1231.68
1025.58	1225.12
1025.87	1222.19
1026.16	1198.91
1026.449	1231.68
1026.739	1180.83
1027.029	1191.45
1027.319	1180.6
1027.608	1192.13
1027.898	1189.64
1028.187	1154.62
1028.477	1159.59
1028.766	1154.84
1029.055	1132.02
1029.344	1165.69
1029.634	1129.53
1029.923	1104.22
1030.212	1117.78
1030.501	1095.86
1030.79	1094.51
1031.078	1107.61
1031.367	1076.2
1031.656	1059.48
1031.945	1052.02
1032.233	1078.01
1032.522	1080.95
1032.81	1045.69
1033.099	1034.39
1033.387	1031.68
1033.675	1059.93
1033.963	1037.78
1034.251	1036.88
1034.54	988.75
1034.828	1017.44
1035.116	986.71
1035.403	969.08
1035.691	962.53
1035.979	975.41
1036.267	974.28
1036.554	979.48
1036.842	950.78
1037.129	977.9
1037.417	953.04
1037.704	948.97
1037.992	934.06
1038.279	928.41
1038.566	925.24
1038.853	925.24
1039.14	925.24
