Data from hue_140_FLMS001491_00053.txt Node
Date: Tue Feb 07 16:56:06 GMT 2017
User: dcchb
Spectrometer: FLMS00149
Trigger mode: 0
Integration Time (sec): 2.000000E-2
Scans to average: 10
Electric dark correction enabled: true
Nonlinearity correction enabled: false
Boxcar width: 0
XAxis mode: Wavelengths
Number of Pixels in Spectrum: 2048
>>>>>Begin Spectral Data<<<<<
341.393	-4.53
341.776	-4.53
342.16	-4.53
342.543	-74.14
342.927	-59
343.31	-75.72
343.693	-68.49
344.077	-75.94
344.46	-59.67
344.843	-53.12
345.226	-47.92
345.61	-33.46
345.993	-42.5
346.376	10.38
346.759	-1.82
347.142	28.23
347.525	46.76
347.908	67.55
348.291	89.48
348.674	103.71
349.057	112.53
349.44	123.15
349.823	160.66
350.206	152.52
350.588	210.83
350.971	211.73
351.354	241.11
351.737	239.3
352.119	249.92
352.502	256.7
352.884	270.71
353.267	277.27
353.65	289.92
354.032	295.8
354.414	317.27
354.797	324.72
355.179	318.4
355.562	318.17
355.944	324.95
356.326	331.73
356.709	337.15
357.091	322.46
357.473	350.26
357.855	357.04
358.238	344.16
358.62	352.97
359.002	346.87
359.384	340.09
359.766	344.16
360.148	345.51
360.53	336.25
360.912	343.93
361.294	345.29
361.676	319.07
362.057	319.53
362.439	319.07
362.821	324.05
363.203	337.38
363.584	326.08
363.966	311.62
364.348	329.02
364.729	333.08
365.111	319.75
365.493	321.79
365.874	322.01
366.256	334.67
366.637	347.32
367.019	310.26
367.4	321.79
367.781	342.8
368.163	314.55
368.544	317.49
368.925	305.97
369.306	303.25
369.688	306.42
370.069	294.44
370.45	318.4
370.831	319.75
371.212	309.81
371.593	315.91
371.974	327.66
372.355	308.68
372.736	308.68
373.117	313.65
373.498	334.67
373.879	321.11
374.26	294.22
374.641	319.3
375.021	309.58
375.402	336.93
375.783	319.07
376.163	349.13
376.544	326.3
376.925	352.97
377.305	331.73
377.686	346.87
378.066	328.11
378.447	337.15
378.827	330.82
379.208	326.76
379.588	341.45
379.968	337.15
380.349	310.03
380.729	359.3
381.109	343.71
381.489	338.73
381.87	340.32
382.25	346.64
382.63	333.31
383.01	362.69
383.39	349.36
383.77	333.99
384.15	342.58
384.53	350.26
384.91	367.43
385.29	347.32
385.67	344.84
386.049	354.33
386.429	366.3
386.809	372.18
387.189	354.78
387.568	363.14
387.948	358.39
388.328	358.62
388.707	368.11
389.087	364.72
389.466	383.7
389.846	368.79
390.225	377.6
390.605	366.53
390.984	348.68
391.363	374.21
391.743	370.37
392.122	382.35
392.501	373.76
392.881	391.16
393.26	360.88
393.639	385.51
394.018	390.71
394.397	386.19
394.776	411.05
395.155	384.16
395.534	391.16
395.913	394.33
396.292	423.03
396.671	417.15
397.05	404.72
397.429	390.26
397.808	418.05
398.186	404.95
398.565	412.63
398.944	413.76
399.323	411.73
399.701	397.26
400.08	404.04
400.458	410.37
400.837	395.68
401.215	416.92
401.594	431.16
401.972	411.05
402.351	424.16
402.729	414.66
403.107	420.77
403.486	439.75
403.864	439.97
404.242	420.09
404.62	439.97
404.999	431.61
405.377	420.54
405.755	421.67
406.133	425.96
406.511	435.68
406.889	444.72
407.267	430.71
407.645	463.48
408.023	459.86
408.401	458.28
408.779	438.62
409.156	453.31
409.534	455.12
409.912	439.52
410.29	494.21
410.667	474.32
411.045	474.55
411.422	496.7
411.8	479.97
412.178	479.3
412.555	493.08
412.933	496.7
413.31	512.51
413.687	513.64
414.065	514.32
414.442	520.2
414.819	509.35
415.197	513.19
415.574	514.32
415.951	512.06
416.328	531.95
416.705	502.8
417.082	504.15
417.46	521.55
417.837	529.01
418.214	523.14
418.591	546.86
418.967	534.21
419.344	555.9
419.721	565.39
420.098	537.82
420.475	558.62
420.852	539.86
421.228	580.54
421.605	589.8
421.982	577.6
422.358	567.88
422.735	568.33
423.111	576.24
423.488	585.28
423.864	577.82
424.241	585.96
424.617	610.14
424.994	592.51
425.37	594.77
425.746	596.35
426.123	604.04
426.499	630.7
426.875	594.09
427.251	604.72
427.627	635.9
428.003	621.66
428.379	646.07
428.756	634.32
429.132	631.38
429.507	648.1
429.883	640.2
430.259	653.08
430.635	667.76
431.011	669.8
431.387	660.53
431.763	693.3
432.138	682.68
432.514	705.05
432.89	727.42
433.265	720.87
433.641	731.72
434.016	703.7
434.392	757.93
434.767	728.1
435.143	739.63
435.518	736.69
435.894	760.64
436.269	770.81
436.644	778.72
437.02	763.81
437.395	797.25
437.77	779.63
438.145	793.86
438.52	813.3
438.895	809
439.271	816.24
439.646	823.02
440.021	831.15
440.395	806.29
440.77	831.15
441.145	846.52
441.52	850.58
441.895	845.39
442.27	874.99
442.645	866.63
443.019	899.17
443.394	865.5
443.769	889.23
444.143	868.44
444.518	923.58
444.892	890.13
445.267	876.57
445.641	893.07
446.016	900.53
446.39	909.34
446.764	924.26
447.139	918.15
447.513	906.63
447.887	920.64
448.262	970.58
448.636	926.29
449.01	949.34
449.384	964.25
449.758	953.41
450.132	998.83
450.506	957.02
450.88	981.65
451.254	994.08
451.628	999.96
452.002	1031.15
452.376	1013.52
452.75	1039.51
453.123	1035.21
453.497	1083.57
453.871	1047.64
454.244	1094.87
454.618	1088.77
454.992	1100.3
455.365	1059.62
455.739	1120.18
456.112	1131.03
456.486	1147.3
456.859	1161.54
457.232	1177.81
457.606	1168.09
457.979	1190.24
458.352	1186.4
458.725	1222.33
459.099	1254.64
459.472	1237.47
459.845	1243.57
460.218	1274.53
460.591	1295.09
460.964	1295.32
461.337	1317.69
461.71	1333.96
462.083	1360.18
462.456	1381.42
462.829	1410.12
463.201	1407.86
463.574	1377.35
463.947	1430
464.32	1466.39
464.692	1474.07
465.065	1497.8
465.438	1508.65
465.81	1510.68
466.183	1542.54
466.555	1567.63
466.928	1612.37
467.3	1623.45
467.672	1614.18
468.045	1676.55
468.417	1704.57
468.789	1717.45
469.161	1742.31
469.534	1738.7
469.906	1818.47
470.278	1835.42
470.65	1858.24
471.022	1917.68
471.394	1921.29
471.766	1959.03
472.138	2004.68
472.51	2013.49
472.882	2092.81
473.253	2147.95
473.625	2149.99
473.997	2224.33
474.369	2240.15
474.74	2316.76
475.112	2299.36
475.484	2348.62
475.855	2474.72
476.227	2502.74
476.598	2558.56
476.97	2588.84
477.341	2691.44
477.713	2762.4
478.084	2802.62
478.455	2890.08
478.827	2972.11
479.198	3035.39
479.569	3117.87
479.94	3224.08
480.311	3275.83
480.682	3384.53
481.053	3485.32
481.424	3627.24
481.795	3653.9
482.166	3743.39
482.537	3878.53
482.908	3977.06
483.279	4037.17
483.65	4142.93
484.021	4283.26
484.391	4364.39
484.762	4492.07
485.133	4549.47
485.503	4656.59
485.874	4857.03
486.244	4952.85
486.615	5052.96
486.985	5186.97
487.356	5344.7
487.726	5441.88
488.097	5593.96
488.467	5672.83
488.837	5856.33
489.207	5998.25
489.578	6063.56
489.948	6294.74
490.318	6418.57
490.688	6518.46
491.058	6648.17
491.428	6806.36
491.798	6983.53
492.168	7163.19
492.538	7200.93
492.908	7413.12
493.278	7564.76
493.648	7618.32
494.017	7724.53
494.387	7921.59
494.757	8019.44
495.126	8204.29
495.496	8240.9
495.866	8391.18
496.235	8536.26
496.605	8677.05
496.974	8841.56
497.344	8945.74
497.713	8988.22
498.082	9163.36
498.452	9293.07
498.821	9350.7
499.19	9460.75
499.559	9600.41
499.928	9767.19
500.298	9768.77
500.667	9963.34
501.036	9987.52
501.405	10122.21
501.774	10235.65
502.143	10281.52
502.512	10386.61
502.88	10487.39
503.249	10589.54
503.618	10567.84
503.987	10773.04
504.356	10811.45
504.724	10899.36
505.093	10978.23
505.462	11031.33
505.83	11115.63
506.199	11202.18
506.567	11393.13
506.936	11410.08
507.304	11550.19
507.672	11584.99
508.041	11603.3
508.409	11704.54
508.777	11795.61
509.145	11973.91
509.514	11891.42
509.882	11992.89
510.25	12026.79
510.618	12134.13
510.986	12192.43
511.354	12254.13
511.722	12433.33
512.09	12488.47
512.458	12421.13
512.826	12576.38
513.193	12616.38
513.561	12543.84
513.929	12651.4
514.297	12744.06
514.664	12785.19
515.032	12847.11
515.4	12863.6
515.767	12955.58
516.135	12992.19
516.502	12895.92
516.869	13081.9
517.237	13047.1
517.604	13078.51
517.972	13204.16
518.339	13198.96
518.706	13268.56
519.073	13311.27
519.44	13317.83
519.808	13396.47
520.175	13416.36
520.542	13490.7
520.909	13610.02
521.276	13446.64
521.643	13611.38
522.009	13687.54
522.376	13718.5
522.743	13745.84
523.11	13805.5
523.477	13805.72
523.843	13814.99
524.21	14005.72
524.577	14024.48
524.943	13977.47
525.31	14085.04
525.676	14134.08
526.043	14108.54
526.409	14201.42
526.776	14252.72
527.142	14243.45
527.508	14228.54
527.874	14349.21
528.241	14270.35
528.607	14268.09
528.973	14367.52
529.339	14309.44
529.705	14421.08
530.071	14489.55
530.437	14419.49
530.803	14511.69
531.169	14479.83
531.535	14503.79
531.901	14428.76
532.267	14490.23
532.632	14456.78
532.998	14546.95
533.364	14467.4
533.73	14522.99
534.095	14465.82
534.461	14469.21
534.826	14463.79
535.192	14445.71
535.557	14526.38
535.923	14419.04
536.288	14499.49
536.653	14447.97
537.019	14323.23
537.384	14360.74
537.749	14352.15
538.114	14283.68
538.479	14261.31
538.845	14341.76
539.21	14258.59
539.575	14250.91
539.94	14245.94
540.305	14280.51
540.67	14159.84
541.034	14230.12
541.399	14145.6
541.764	14171.82
542.129	14157.81
542.494	14106.06
542.858	13993.97
543.223	14053.4
543.587	13967.53
543.952	13979.05
544.316	13976.34
544.681	13871.71
545.045	13923.46
545.41	13945.61
545.774	13835.78
546.138	13779.06
546.503	13873.75
546.867	13689.34
547.231	13821.09
547.595	13761.21
547.959	13721.43
548.324	13685.5
548.688	13690.47
549.052	13641.44
549.416	13598.27
549.779	13566.63
550.143	13523.02
550.507	13628.55
550.871	13544.49
551.235	13429.92
551.599	13519.63
551.962	13428.11
552.326	13437.82
552.689	13447.54
553.053	13406.41
553.417	13289.81
553.78	13491.61
554.143	13303.59
554.507	13278.96
554.87	13233.31
555.234	13366.64
555.597	13294.33
555.96	13275.34
556.323	13284.38
556.686	13190.6
557.05	13288.9
557.413	13228.34
557.776	13256.81
558.139	13330.48
558.502	13208.45
558.865	13193.09
559.228	13306.98
559.59	13217.04
559.953	13300.43
560.316	13354.66
560.679	13249.36
561.041	13334.1
561.404	13296.36
561.767	13436.47
562.129	13338.84
562.492	13380.2
562.854	13328.9
563.217	13286.87
563.579	13388.79
563.941	13364.38
564.304	13419.52
564.666	13497.48
565.028	13457.49
565.39	13440.76
565.753	13451.84
566.115	13494.55
566.477	13638.72
566.839	13530.7
567.201	13624.71
567.563	13502.68
567.925	13613.64
568.287	13628.1
568.648	13550.82
569.01	13669.68
569.372	13700.64
569.734	13641.44
570.095	13760.08
570.457	13668.33
570.819	13730.02
571.18	13664.49
571.542	13738.16
571.903	13725.73
572.265	13744.26
572.626	13776.35
572.987	13800.53
573.349	13817.25
573.71	13843.01
574.071	13847.98
574.432	13860.64
574.794	13933.63
575.155	13830.36
575.516	13861.54
575.877	13913.29
576.238	13920.07
576.599	13946.29
576.96	13880.52
577.32	13889.79
577.681	13936.79
578.042	13915.33
578.403	13895.67
578.763	14006.17
579.124	13936.34
579.485	13909.68
579.845	13987.41
580.206	13865.38
580.566	13974.31
580.927	13908.77
581.287	14002.78
581.648	13962.1
582.008	14007.98
582.368	13984.93
582.728	14039.84
583.089	13982.22
583.449	13962.78
583.809	13967.3
584.169	13980.18
584.529	13917.36
584.889	13998.26
585.249	13880.98
585.609	13921.65
585.969	13935.66
586.329	13936.57
586.688	13908.32
587.048	13864.48
587.408	13834.88
587.768	13843.69
588.127	13828.55
588.487	13811.83
588.846	13927.98
589.206	13837.59
589.565	13786.52
589.925	13786.74
590.284	13788.55
590.643	13802.79
591.003	13819.06
591.362	13764.37
591.721	13805.72
592.08	13837.81
592.44	13798.49
592.799	13803.46
593.158	13743.35
593.517	13754.65
593.876	13784.48
594.235	13739.06
594.593	13712.62
594.952	13709.46
595.311	13806.85
595.67	13753.52
596.029	13796.69
596.387	13796.91
596.746	13789.91
597.104	13740.42
597.463	13744.48
597.822	13786.74
598.18	13696.8
598.538	13683.02
598.897	13672.85
599.255	13568.89
599.613	13839.62
599.972	13789
600.33	13815.67
600.688	13713.75
601.046	13695.22
601.404	13852.95
601.762	13757.59
602.12	13760.98
602.478	13769.34
602.836	13697.93
603.194	13669
603.552	13727.99
603.91	13716.46
604.268	13775.67
604.625	13649.34
604.983	13760.98
605.341	13692.51
605.698	13733.64
606.056	13734.31
606.413	13714.65
606.771	13782.45
607.128	13688.89
607.485	13685.95
607.843	13742.68
608.2	13760.3
608.557	13915.1
608.914	13771.83
609.272	13829.23
609.629	13866.97
609.986	13855.89
610.343	13839.4
610.7	13895.89
611.057	13939.96
611.414	13906.51
611.771	13870.58
612.127	13951.03
612.484	13892.28
612.841	13944.48
613.198	13931.14
613.554	13916.91
613.911	14042.33
614.267	14037.36
614.624	13938.83
614.98	14024.02
615.337	14079.62
615.693	14061.76
616.05	14049.11
616.406	14033.74
616.762	14072.84
617.118	14008.21
617.475	14093.63
617.831	14118.71
618.187	14025.38
618.543	14025.15
618.899	14109.67
619.255	14253.62
619.611	14116.45
619.967	14162.33
620.323	14188.99
620.678	14132.95
621.034	14075.32
621.39	14176.79
621.746	14073.29
622.101	14273.73
622.457	14155.55
622.812	14158.26
623.168	14248.2
623.523	14191.93
623.879	14311.93
624.234	14175.43
624.589	14172.72
624.945	14169.1
625.3	14094.98
625.655	14207.97
626.01	14210.91
626.365	14260.85
626.72	14144.47
627.075	14166.62
627.43	14148.99
627.785	14194.87
628.14	14084.81
628.495	14218.82
628.85	14132.5
629.205	14145.38
629.559	14218.14
629.914	14155.77
630.269	14165.72
630.623	14075.77
630.978	14046.62
631.332	14113.97
631.687	14136.79
632.041	14073.06
632.396	14093.63
632.75	14091.59
633.104	14033.29
633.459	14001.2
633.813	13970.24
634.167	13947.87
634.521	13871.71
634.875	13965.49
635.229	13907.87
635.583	13836.46
635.937	13833.97
636.291	13825.61
636.645	13839.4
636.999	13771.15
637.352	13825.16
637.706	13745.61
638.06	13782.45
638.413	13725.05
638.767	13771.38
639.121	13749.23
639.474	13709.23
639.828	13669.23
640.181	13657.25
640.534	13713.3
640.888	13566.86
641.241	13547.2
641.594	13652.51
641.947	13697.48
642.301	13636.69
642.654	13660.64
643.007	13668.78
643.36	13636.92
643.713	13539.74
644.066	13689.8
644.419	13531.38
644.771	13478.73
645.124	13340.43
645.477	13271.5
645.83	13232.86
646.182	13150.83
646.535	13196.7
646.888	13179.3
647.24	13028.57
647.593	13068.79
647.945	13064.5
648.298	12986.99
648.65	13010.72
649.002	13000.32
649.355	13091.62
649.707	13062.92
650.059	13164.61
650.411	13216.59
650.763	13266.98
651.115	13450.93
651.467	13390.37
651.819	13436.02
652.171	13431.05
652.523	13353.99
652.875	13321.44
653.227	13332.29
653.578	13415.45
653.93	13459.07
654.282	13318.96
654.633	13354.21
654.985	13350.14
655.337	13363.93
655.688	13332.29
656.039	13447.54
656.391	13278.73
656.742	13255
657.094	13324.38
657.445	13370.93
657.796	13295.46
658.147	13337.94
658.498	13288.68
658.849	13372.29
659.2	13375
659.551	13274.44
659.902	13383.36
660.253	13250.26
660.604	13338.39
660.955	13317.15
661.306	13319.64
661.656	13330.26
662.007	13343.36
662.358	13384.94
662.708	13355.34
663.059	13355.11
663.409	13293.65
663.76	13385.4
664.11	13329.8
664.461	13399.63
664.811	13417.03
665.161	13418.62
665.511	13289.58
665.862	13383.36
666.212	13400.99
666.562	13385.17
666.912	13449.8
667.262	13377.71
667.612	13383.14
667.962	13377.94
668.312	13390.37
668.662	13458.16
669.011	13409.35
669.361	13398.28
669.711	13304.27
670.06	13395.79
670.41	13335.23
670.76	13286.64
671.109	13300.2
671.459	13292.29
671.808	13316.47
672.157	13331.16
672.507	13212.07
672.856	13220.43
673.205	13264.72
673.554	13252.52
673.904	13238.28
674.253	13317.15
674.602	13218.85
674.951	13121.45
675.3	12999.42
675.649	13195.35
675.998	13223.82
676.346	13273.08
676.695	13249.36
677.044	13108.79
677.393	13104.27
677.741	13126.65
678.09	13078.51
678.438	13109.02
678.787	13099.75
679.135	13153.76
679.484	13100.88
679.832	13044.61
680.181	12976.82
680.529	13117.38
680.877	12976.59
681.225	12959.19
681.573	12968.68
681.922	12902.47
682.27	12820.44
682.618	12902.25
682.966	12761.01
683.314	12763.72
683.661	12817.28
684.009	12763.94
684.357	12750.84
684.705	12684.85
685.053	12688.47
685.4	12660.9
685.748	12593.78
686.095	12627.45
686.443	12518.53
686.79	12538.87
687.138	12535.93
687.485	12490.73
687.832	12504.52
688.18	12392.43
688.527	12510.39
688.874	12342.49
689.221	12370.96
689.568	12378.19
689.915	12244.41
690.262	12280.11
690.609	12189.72
690.956	12165.99
691.303	12194.69
691.65	12109.95
691.997	12076.05
692.344	12101.59
692.69	12058.65
693.037	11865.66
693.383	11839.67
693.73	11862.5
694.077	11809.62
694.423	11770.07
694.769	11776.4
695.116	11755.61
695.462	11743.18
695.808	11634.48
696.155	11664.76
696.501	11545.9
696.847	11614.6
697.193	11464.54
697.539	11594.94
697.885	11420.93
698.231	11326.47
698.577	11395.84
698.923	11382.51
699.269	11287.37
699.614	11217.54
699.96	11194.49
700.306	11225.45
700.651	11204.66
700.997	11080.37
701.342	11104.55
701.688	11010.54
702.033	10992.92
702.379	10969.64
702.724	10908.63
703.069	10962.86
703.415	10848.74
703.76	10841.96
704.105	10815.97
704.45	10788.63
704.795	10756.54
705.14	10685.81
705.485	10652.81
705.83	10606.26
706.175	10629.76
706.52	10619.59
706.865	10627.5
707.209	10601.74
707.554	10522.42
707.899	10479.94
708.243	10472.48
708.588	10342.31
708.932	10407.4
709.277	10306.61
709.621	10311.58
709.966	10290.79
710.31	10210.34
710.654	10123.56
710.998	10194.52
711.342	10137.12
711.687	10159.94
712.031	10114.75
712.375	10025.71
712.719	10061.42
713.063	10132.6
713.407	10102.77
713.75	9952.49
714.094	9979.84
714.438	10004.92
714.782	9980.06
715.125	9911.36
715.469	9903
715.812	9845.38
716.156	9817.58
716.499	9846.51
716.843	9888.77
717.186	9811.93
717.53	9896
717.873	9813.29
718.216	9822.33
718.559	9763.57
718.902	9678.6
719.246	9705.49
719.589	9670.69
719.932	9664.36
720.275	9744.14
720.617	9705.95
720.96	9673.86
721.303	9648.32
721.646	9685.83
721.989	9584.82
722.331	9616.68
722.674	9610.58
723.016	9549.11
723.359	9529
723.701	9551.83
724.044	9559.73
724.386	9473.41
724.729	9546.85
725.071	9485.84
725.413	9503.69
725.755	9447.65
726.097	9484.26
726.439	9470.7
726.782	9451.49
727.124	9471.83
727.465	9462.34
727.807	9394.54
728.149	9375.78
728.491	9374.43
728.833	9430.02
729.175	9406.29
729.516	9369.46
729.858	9359.51
730.199	9388.67
730.541	9368.1
730.882	9350.93
731.224	9380.76
731.565	9319.51
731.906	9372.62
732.248	9389.34
732.589	9330.36
732.93	9314.77
733.271	9354.77
733.612	9321.77
733.953	9318.84
734.294	9324.03
734.635	9275.67
734.976	9366.52
735.317	9338.72
735.658	9236.35
735.999	9294.2
736.339	9341.21
736.68	9365.16
737.021	9303.47
737.361	9317.48
737.702	9385.73
738.042	9324.26
738.383	9307.09
738.723	9337.59
739.063	9409.91
739.404	9348.21
739.744	9450.36
740.084	9393.41
740.424	9349.57
740.764	9414.88
741.104	9395.67
741.444	9372.17
741.784	9403.35
742.124	9462.56
742.464	9443.35
742.804	9477.7
743.143	9392.96
743.483	9529.45
743.823	9526.06
744.162	9479.74
744.502	9559.51
744.841	9496.23
745.181	9630.47
745.52	9665.95
745.86	9653.74
746.199	9711.82
746.538	9730.8
746.877	9754.53
747.216	9847.41
747.556	9872.72
747.895	9908.2
748.234	9933.74
748.573	9968.76
748.911	9980.97
749.25	10118.59
749.589	10061.42
749.928	10211.69
750.267	10246.5
750.605	10320.84
750.944	10309.32
751.283	10455.08
751.621	10526.49
751.96	10541.18
752.298	10614.17
752.636	10617.56
752.975	10768.97
753.313	10894.61
753.651	11044.44
753.989	11065.91
754.327	11204.44
754.666	11322.4
755.004	11385.68
755.342	11509.51
755.679	11637.87
756.017	11741.6
756.355	11895.49
756.693	11969.61
757.031	12179.78
757.368	12254.58
757.706	12414.8
758.044	12514.23
758.381	12687.79
758.719	12792.87
759.056	13037.16
759.394	13131.17
759.731	13255.91
760.068	13382.68
760.405	13600.76
760.743	13576.13
761.08	13798.95
761.417	13981.31
761.754	14107.19
762.091	14343.34
762.428	14488.64
762.765	14591.92
763.102	14752.82
763.438	14979.03
763.775	14992.81
764.112	15243.2
764.449	15420.15
764.785	15515.96
765.122	15619.69
765.458	15726.35
765.795	15938.55
766.131	16054.25
766.467	16172.44
766.804	16287.69
767.14	16398.2
767.476	16609.72
767.812	16743.27
768.148	16940.56
768.485	16938.98
768.821	16969.71
769.157	17080.44
769.492	17266.88
769.828	17366.76
770.164	17496.02
770.5	17513.88
770.836	17677.94
771.171	17706.86
771.507	17888.1
771.842	17813.53
772.178	18038.83
772.513	18112.28
772.849	18147.76
773.184	18149.34
773.519	18322.22
773.855	18436.34
774.19	18365.6
774.525	18464.36
774.86	18549.1
775.195	18641.53
775.53	18599.04
775.865	18687.86
776.2	18680.85
776.535	18620.51
776.87	18711.81
777.205	18707.74
777.539	18713.62
777.874	18870.45
778.209	18833.39
778.543	18841.52
778.878	18772.15
779.212	18917.68
779.547	18854.18
779.881	18966.04
780.215	18867.74
780.55	18942.76
780.884	18896.21
781.218	18906.61
781.552	18904.35
781.886	18988.87
782.22	18900.73
782.554	18933.73
782.888	18872.94
783.222	18812.82
783.556	18825.03
783.889	18775.09
784.223	18752.71
784.557	18791.81
784.89	18792.94
785.224	18802.43
785.557	18685.82
785.891	18693.96
786.224	18666.61
786.558	18724.01
786.891	18522.66
787.224	18528.54
787.557	18526.96
787.891	18502.32
788.224	18490.8
788.557	18543.45
788.89	18535.32
789.223	18520.85
789.556	18331.03
789.888	18517.69
790.221	18283.35
790.554	18294.19
790.887	18230.92
791.219	18277.47
791.552	18241.09
791.884	18144.14
792.217	18142.33
792.549	18023.69
792.882	18062.34
793.214	17936.92
793.546	18139.62
793.879	17886.97
794.211	17848.33
794.543	17947.99
794.875	17845.17
795.207	17955.9
795.539	17910.48
795.871	17882.91
796.203	17705.06
796.535	17609.01
796.867	17688.79
797.198	17580.31
797.53	17550.71
797.862	17530.37
798.193	17517.27
798.525	17414.9
798.856	17478.4
799.188	17324.5
799.519	17192.08
799.85	17180.78
800.182	17234.56
800.513	17170.61
800.844	17159.76
801.175	17199.31
801.506	17153.66
801.837	17133.32
802.168	17048.13
802.499	17003.61
802.83	16858.07
803.161	16875.93
803.491	16876.6
803.822	16859.43
804.153	16785.99
804.483	16653.79
804.814	16595.48
805.145	16574.47
805.475	16611.07
805.805	16462.83
806.136	16556.61
806.466	16562.71
806.796	16473
807.126	16401.36
807.457	16290.86
807.787	16316.84
808.117	16236.4
808.447	16217.19
808.777	16259.9
809.107	16199.33
809.436	16143.74
809.766	16047.25
810.096	16110.97
810.426	16039.11
810.755	16029.62
811.085	15966.35
811.414	16018.32
811.744	15801.83
812.073	15897.65
812.403	15819.46
812.732	15764.54
813.061	15804.32
813.39	15637.09
813.719	15622.4
814.049	15770.87
814.378	15662.85
814.707	15628.05
815.036	15595.96
815.365	15470.99
815.693	15371.11
816.022	15409.52
816.351	15453.82
816.68	15322.07
817.008	15464.44
817.337	15247.49
817.665	15232.58
817.994	15314.16
818.322	15227.83
818.651	15131.57
818.979	15165.01
819.307	15198.46
819.636	15176.76
819.964	15134.5
820.292	15087.5
820.62	15081.62
820.948	15029.65
821.276	15054.73
821.604	15025.81
821.932	15037.78
822.259	15093.15
822.587	15026.03
822.915	14954.62
823.243	15066.26
823.57	15069.19
823.898	15024.68
824.225	14983.55
824.553	15044.11
824.88	15005.02
825.207	15042.75
825.535	15009.31
825.862	15051.34
826.189	15034.39
826.516	15057.9
826.843	15085.46
827.17	15025.58
827.497	15044.56
827.824	15029.65
828.151	15121.17
828.478	15058.12
828.805	15095.63
829.131	15072.81
829.458	15054.73
829.785	14994.39
830.111	14952.59
830.438	15002.08
830.764	15079.82
831.09	15071.45
831.417	14936.77
831.743	14980.83
832.069	15011.57
832.395	14893.83
832.722	14976.99
833.048	14917.11
833.374	15021.51
833.7	14922.53
834.026	14885.47
834.351	14901.74
834.677	14847.96
835.003	14999.37
835.329	14900.39
835.654	14823.78
835.98	14802.53
836.306	14808.41
836.631	14724.12
836.956	14877.11
837.282	14878.92
837.607	14782.42
837.932	14794.85
838.258	14603.67
838.583	14621.97
838.908	14573.39
839.233	14649.09
839.558	14633.5
839.883	14473.73
840.208	14482.99
840.533	14493.16
840.858	14426.73
841.182	14536.78
841.507	14484.35
841.832	14403
842.156	14344.69
842.481	14371.81
842.805	14347.18
843.13	14247.75
843.454	14245.94
843.778	14250.91
844.103	14150.8
844.427	14212.27
844.751	14140.86
845.075	14122.33
845.399	14034.19
845.723	13979.05
846.047	14054.08
846.371	13810.24
846.695	13910.13
847.019	13848.66
847.343	13836.46
847.666	13716.69
847.99	13642.79
848.313	13627.42
848.637	13541.78
848.96	13456.81
849.284	13474.21
849.607	13401.89
849.931	13303.59
850.254	13322.12
850.577	13249.36
850.9	13147.44
851.223	13150.37
851.546	13120.54
851.869	13017.5
852.192	13005.52
852.515	12950.83
852.838	12851.4
853.161	12860.89
853.483	12705.19
853.806	12692.53
854.129	12697.05
854.451	12624.51
854.774	12604.63
855.096	12585.42
855.419	12552.88
855.741	12459.09
856.063	12449.83
856.385	12441.47
856.708	12341.81
857.03	12289.15
857.352	12363.05
857.674	12257.74
857.996	12218.87
858.318	12089.39
858.64	12134.58
858.961	12078.31
859.283	12031.76
859.605	12010.07
859.926	12029.5
860.248	11963.29
860.57	11924.64
860.891	11919.67
861.212	11887.13
861.534	11845.1
861.855	11888.03
862.176	11856.62
862.498	11756.96
862.819	11812.78
863.14	11757.19
863.461	11762.84
863.782	11697.76
864.103	11694.59
864.424	11711.32
864.745	11682.62
865.065	11577.53
865.386	11510.19
865.707	11566.24
866.027	11615.27
866.348	11564.88
866.668	11528.72
866.989	11500.02
867.309	11380.93
867.63	11479.23
867.95	11443.98
868.27	11379.57
868.59	11420.93
868.91	11347.71
869.23	11367.82
869.55	11308.39
869.87	11328.95
870.19	11344.09
870.51	11339.57
870.83	11318.56
871.15	11181.16
871.469	11290.76
871.789	11241.72
872.109	11202.18
872.428	11157.43
872.748	11144.55
873.067	11161.73
873.386	11150.2
873.706	11125.8
874.025	11039.47
874.344	11096.42
874.663	11142.29
874.982	10982.97
875.301	11076.53
875.62	10955.4
875.939	10963.99
876.258	10946.36
876.577	10932.81
876.896	10955.63
877.214	10852.58
877.533	10915.18
877.852	10820.72
878.17	10805.58
878.489	10910.21
878.807	10864.11
879.125	10743.21
879.444	10844.22
879.762	10795.86
880.08	10822.75
880.398	10676.99
880.716	10705.69
881.034	10790.21
881.352	10694.17
881.67	10677.67
881.988	10643.1
882.306	10562.65
882.624	10534.4
882.941	10532.36
883.259	10482.65
883.577	10506.15
883.894	10507.28
884.212	10433.16
884.529	10469.54
884.846	10373.95
885.164	10396.32
885.481	10330.79
885.798	10359.26
886.115	10255.76
886.432	10287.4
886.75	10230
887.067	10245.37
887.383	10191.58
887.7	10213.5
888.017	10118.36
888.334	10131.02
888.651	10098.48
888.967	10075.2
889.284	10091.25
889.6	10035.65
889.917	9931.25
890.233	9979.61
890.55	9906.17
890.866	9946.84
891.182	9881.76
891.498	9796.56
891.815	9853.06
892.131	9808.99
892.447	9687.64
892.763	9691.03
893.079	9702.1
893.395	9696.23
893.71	9679.51
894.026	9653.74
894.342	9635.66
894.657	9548.66
894.973	9500.53
895.289	9519.51
895.604	9474.09
895.92	9367.88
896.235	9299.85
896.55	9401.09
896.865	9291.94
897.181	9282.23
897.496	9312.74
897.811	9232.29
898.126	9198.39
898.441	9084.94
898.756	9083.14
899.071	9124.04
899.386	9054.89
899.7	8994.1
900.015	8933.08
900.33	9007.43
900.644	8911.39
900.959	9023.25
901.273	8877.72
901.588	8888.34
901.902	8790.49
902.216	8808.12
902.531	8735.8
902.845	8726.99
903.159	8658.52
903.473	8616.26
903.787	8616.48
904.101	8573.55
904.415	8620.78
904.729	8506.65
905.042	8450.84
905.356	8415.36
905.67	8442.48
905.984	8412.87
906.297	8372.65
906.611	8347.56
906.924	8389.82
907.237	8257.62
907.551	8262.14
907.864	8201.35
908.177	8202.93
908.491	8175.82
908.804	8141.01
909.117	8108.47
909.43	8013.79
909.743	8048.14
910.056	7990.96
910.368	7950.51
910.681	7932.88
910.994	7862.6
911.307	7872.1
911.619	7747.35
911.932	7779.22
912.244	7733.57
912.557	7676.39
912.869	7667.81
913.181	7633.68
913.494	7629.84
913.806	7602.72
914.118	7545.1
914.43	7553.01
914.742	7484.31
915.054	7449.51
915.366	7428.27
915.678	7344.88
915.99	7374.93
916.302	7319.12
916.613	7268.5
916.925	7301.71
917.236	7298.55
917.548	7213.58
917.859	7201.38
918.171	7144.2
918.482	7138.33
918.794	7054.72
919.105	7082.29
919.416	7010.65
919.727	7033.02
920.038	6944.66
920.349	6944.21
920.66	6894.49
920.971	6951.44
921.282	6931.1
921.593	6833.93
921.903	6828.73
922.214	6808.62
922.525	6716.65
922.835	6753.03
923.146	6679.58
923.456	6723.2
923.767	6617.44
924.077	6628.06
924.387	6541.73
924.697	6521.17
925.008	6537.22
925.318	6492.47
925.628	6506.03
925.938	6473.71
926.248	6412.02
926.558	6402.76
926.867	6383.55
927.177	6386.48
927.487	6322.08
927.796	6250.44
928.106	6270.33
928.416	6243.21
928.725	6201.4
929.034	6139.71
929.344	6234.85
929.653	6174.74
929.962	6136.32
930.271	6050.45
930.581	6085.02
930.89	6039.38
931.199	5974.52
931.508	5974.74
931.817	6024.46
932.125	5978.81
932.434	5932.03
932.743	5880.06
933.051	5882.09
933.36	5794.64
933.669	5859.27
933.977	5799.16
934.286	5770.68
934.594	5762.55
934.902	5686.84
935.21	5728.2
935.519	5668.54
935.827	5697.69
936.135	5622.44
936.443	5572.04
936.751	5547.86
937.059	5547.18
937.367	5542.89
937.674	5570.46
937.982	5515.55
938.29	5487.98
938.597	5473.06
938.905	5397.81
939.213	5396
939.52	5365.72
939.827	5364.59
940.135	5323.01
940.442	5311.71
940.749	5287.53
941.056	5285.5
941.363	5256.57
941.67	5220.64
941.977	5186.06
942.284	5193.3
942.591	5188.32
942.898	5130.47
943.205	5074.2
943.511	5090.93
943.818	5081.89
944.125	5042.57
944.431	5030.59
944.738	5026.52
945.044	5003.24
945.35	4939.52
945.657	4902.91
945.963	4896.58
946.269	4881.21
946.575	4910.14
946.881	4810.71
947.187	4831.95
947.493	4821.55
947.799	4740.43
948.105	4789.24
948.41	4732.74
948.716	4745.85
949.022	4757.15
949.327	4716.7
949.633	4637.38
949.938	4680.09
950.244	4630.37
950.549	4574.78
950.854	4579.53
951.16	4590.15
951.465	4560.32
951.77	4509.02
952.075	4527.78
952.38	4462.24
952.685	4492.3
952.99	4399.64
953.294	4418.63
953.599	4370.72
953.904	4418.17
954.209	4344.96
954.513	4383.15
954.818	4338.4
955.122	4346.54
955.426	4302.47
955.731	4244.17
956.035	4215.92
956.339	4253.66
956.643	4274.22
956.948	4218.41
957.252	4220.44
957.556	4175.7
957.86	4124.85
958.163	4141.12
958.467	4094.57
958.771	4141.57
959.075	4067
959.378	4023.61
959.682	4061.35
959.985	4018.86
960.289	3995.14
960.592	3996.04
960.896	4021.35
961.199	3948.36
961.502	3971.86
961.805	3953.78
962.108	3917.62
962.411	3885.53
962.714	3874.91
963.017	3895.7
963.32	3832.65
963.623	3870.17
963.926	3850.73
964.228	3806.21
964.531	3791.3
964.833	3780.23
965.136	3748.59
965.438	3764.18
965.741	3687.8
966.043	3715.37
966.345	3674.47
966.648	3647.8
966.95	3671.08
967.252	3551.98
967.554	3580.46
967.856	3584.07
968.158	3570.06
968.46	3584.52
968.761	3532.32
969.063	3515.6
969.365	3524.41
969.666	3520.8
969.968	3470.4
970.269	3453.45
970.571	3507.69
970.872	3424.53
971.174	3413.23
971.475	3445.54
971.776	3411.87
972.077	3359.22
972.378	3372.55
972.679	3362.16
972.98	3383.85
973.281	3309.28
973.582	3300.46
973.883	3303.18
974.183	3281.93
974.484	3278.09
974.785	3272.89
975.085	3234.93
975.386	3241.03
975.686	3214.36
975.986	3170.75
976.287	3195.38
976.587	3189.28
976.887	3147.7
977.187	3171.2
977.487	3140.24
977.787	3074.48
978.087	3122.16
978.387	3091.2
978.687	3113.58
978.987	3067.93
979.286	3061.83
979.586	3031.32
979.885	3007.14
980.185	2996.07
980.484	3001.49
980.784	3013.69
981.083	2953.13
981.382	2955.61
981.682	2966.01
981.981	3003.52
982.28	2913.36
982.579	2920.81
982.878	2860.25
983.177	2858.22
983.475	2855.28
983.774	2848.72
984.073	2824.32
984.372	2804.66
984.67	2861.38
984.969	2834.71
985.267	2824.32
985.566	2787.48
985.864	2757.2
986.162	2743.64
986.461	2733.47
986.759	2727.15
987.057	2693.47
987.355	2676.07
987.653	2716.52
987.951	2682.85
988.249	2654.38
988.547	2643.53
988.844	2663.87
989.142	2645.11
989.44	2624.78
989.737	2591.33
990.035	2596.3
990.332	2568.05
990.63	2570.09
990.927	2570.99
991.224	2542.52
991.521	2527.6
991.819	2504.78
992.116	2485.34
992.413	2492.12
992.71	2466.36
993.006	2469.98
993.303	2470.43
993.6	2450.32
993.897	2452.12
994.193	2420.71
994.49	2443.76
994.787	2427.72
995.083	2392.24
995.379	2354.95
995.676	2375.52
995.972	2342.52
996.268	2321.73
996.565	2330.09
996.861	2305.46
997.157	2298
997.453	2329.19
997.749	2305.46
998.044	2285.8
998.34	2243.54
998.636	2221.85
998.932	2240.38
999.227	2234.28
999.523	2256.88
999.818	2209.42
1000.114	2202.41
1000.409	2166.71
1000.704	2172.36
1001	2154.51
1001.295	2148.86
1001.59	2145.24
1001.885	2116.99
1002.18	2139.14
1002.475	2093.26
1002.77	2067.73
1003.065	2079.03
1003.359	2070.21
1003.654	2052.81
1003.949	2027.73
1004.243	2020.05
1004.538	2007.39
1004.832	2026.6
1005.127	2020.95
1005.421	1974.62
1005.715	1991.35
1006.009	1959.26
1006.304	1961.97
1006.598	1931.23
1006.892	1933.95
1007.186	1927.84
1007.48	1933.72
1007.773	1877.45
1008.067	1892.14
1008.361	1850.11
1008.655	1845.81
1008.948	1867.73
1009.242	1842.88
1009.535	1826.15
1009.829	1833.84
1010.122	1807.17
1010.415	1791.58
1010.708	1805.81
1011.001	1786.61
1011.295	1788.41
1011.588	1788.19
1011.881	1743.22
1012.173	1726.72
1012.466	1747.28
1012.759	1716.78
1013.052	1726.72
1013.344	1719.49
1013.637	1698.92
1013.93	1688.08
1014.222	1672.48
1014.514	1663.9
1014.807	1651.69
1015.099	1628.64
1015.391	1646.27
1015.683	1615.99
1015.976	1629.32
1016.268	1625.93
1016.56	1580.28
1016.851	1586.38
1017.143	1585.25
1017.435	1571.92
1017.727	1573.5
1018.018	1577.57
1018.31	1544.13
1018.602	1533.05
1018.893	1502.32
1019.185	1516.33
1019.476	1504.81
1019.767	1500.96
1020.058	1475.65
1020.35	1455.77
1020.641	1459.61
1020.932	1458.48
1021.223	1441.76
1021.514	1438.37
1021.804	1415.77
1022.095	1385.03
1022.386	1415.09
1022.677	1385.49
1022.967	1393.62
1023.258	1394.53
1023.548	1373.74
1023.839	1351.36
1024.129	1368.54
1024.419	1352.94
1024.709	1339.61
1025	1307.97
1025.29	1336
1025.58	1283.12
1025.87	1304.36
1026.16	1285.6
1026.449	1292.38
1026.739	1244.7
1027.029	1288.54
1027.319	1244.02
1027.608	1263.46
1027.898	1281.99
1028.187	1250.57
1028.477	1230.69
1028.766	1195.43
1029.055	1221.42
1029.344	1208.32
1029.634	1176.9
1029.923	1179.84
1030.212	1172.38
1030.501	1146.62
1030.79	1146.4
1031.078	1164.48
1031.367	1128.77
1031.656	1134.42
1031.945	1137.36
1032.233	1118.83
1032.522	1109.56
1032.81	1102.78
1033.099	1112.05
1033.387	1113.18
1033.675	1067.75
1033.963	1091.03
1034.251	1078.83
1034.54	1078.83
1034.828	1070.24
1035.116	1045.83
1035.403	1055.33
1035.691	1044.93
1035.979	1023.46
1036.267	1034.76
1036.554	1016.91
1036.842	1023.91
1037.129	996.8
1037.417	995.67
1037.704	982.11
1037.992	1019.62
1038.279	994.54
1038.566	948.89
1038.853	948.89
1039.14	948.89
