Data from hue_26_FLMS001491_00008.txt Node
Date: Tue Feb 07 17:13:29 GMT 2017
User: dcchb
Spectrometer: FLMS00149
Trigger mode: 0
Integration Time (sec): 2.000000E-2
Scans to average: 10
Electric dark correction enabled: true
Nonlinearity correction enabled: false
Boxcar width: 0
XAxis mode: Wavelengths
Number of Pixels in Spectrum: 2048
>>>>>Begin Spectral Data<<<<<
341.393	-29.25
341.776	-29.25
342.16	-29.25
342.543	-62.7
342.927	-43.71
343.31	-78.06
343.693	-64.96
344.077	-75.8
344.46	-47.78
344.843	-40.32
345.226	-44.39
345.61	-28.57
345.993	-26.54
346.376	-9.59
346.759	8.26
347.142	31.99
347.525	35.15
347.908	69.28
348.291	74.7
348.674	95.94
349.057	100.69
349.44	117.64
349.823	144.3
350.206	164.87
350.588	207.58
350.971	220.69
351.354	241.02
351.737	257.3
352.119	259.56
352.502	274.92
352.884	276.28
353.267	278.31
353.65	308.14
354.032	316.73
354.414	316.73
354.797	326.45
355.179	321.7
355.562	335.71
355.944	340.46
356.326	332.32
356.709	351.53
357.091	350.17
357.473	351.08
357.855	368.48
358.238	342.72
358.62	340.46
359.002	340.91
359.384	354.02
359.766	358.76
360.148	349.04
360.53	319.67
360.912	346.33
361.294	343.17
361.676	332.55
362.057	338.88
362.439	341.59
362.821	353.56
363.203	337.52
363.584	337.75
363.966	325.54
364.348	333.68
364.729	329.38
365.111	316.95
365.493	337.97
365.874	323.51
366.256	328.48
366.637	353.79
367.019	342.04
367.4	330.06
367.781	327.8
368.163	333
368.544	329.61
368.925	315.6
369.306	318.99
369.688	324.64
370.069	324.41
370.45	317.18
370.831	323.06
371.212	337.52
371.593	320.12
371.974	318.99
372.355	319.67
372.736	319.44
373.117	319.89
373.498	311.98
373.879	307.24
374.26	311.98
374.641	331.19
375.021	318.76
375.402	340.46
375.783	331.64
376.163	314.92
376.544	341.36
376.925	346.78
377.305	332.32
377.686	326.9
378.066	334.58
378.447	348.82
378.827	336.39
379.208	352.89
379.588	331.42
379.968	343.39
380.349	347.24
380.729	339.33
381.109	343.39
381.489	334.58
381.87	317.86
382.25	350.4
382.63	358.76
383.01	351.08
383.39	337.52
383.77	339.55
384.15	336.84
384.53	343.85
384.91	347.24
385.29	355.15
385.67	340.68
386.049	351.3
386.429	357.18
386.809	360.12
387.189	364.41
387.568	362.83
387.948	355.6
388.328	355.6
388.707	375.94
389.087	358.76
389.466	373.9
389.846	389.72
390.225	342.04
390.605	380
390.984	373.68
391.363	365.99
391.743	360.12
392.122	360.57
392.501	389.04
392.881	371.64
393.26	372.55
393.639	382.72
394.018	377.52
394.397	368.48
394.776	370.06
395.155	373.45
395.534	383.39
395.913	376.84
396.292	395.6
396.671	414.81
397.05	376.61
397.429	376.61
397.808	392.21
398.186	402.6
398.565	411.87
398.944	403.96
399.323	395.37
399.701	410.96
400.08	393.34
400.458	418.65
400.837	408.7
401.215	401.25
401.594	402.6
401.972	401.02
402.351	403.28
402.729	426.78
403.107	406.9
403.486	415.03
403.864	415.94
404.242	412.32
404.62	418.2
404.999	416.61
405.377	440.12
405.755	429.04
406.133	443.51
406.511	443.28
406.889	438.53
407.267	468.82
407.645	431.75
408.023	440.34
408.401	448.7
408.779	443.28
409.156	458.42
409.534	465.88
409.912	427.46
410.29	462.49
410.667	455.48
411.045	485.76
411.422	471.53
411.8	471.08
412.178	452.09
412.555	491.87
412.933	493.22
413.31	464.07
413.687	485.31
414.065	490.51
414.442	474.92
414.819	483.28
415.197	477.4
415.574	503.16
415.951	502.03
416.328	490.06
416.705	494.8
417.082	499.32
417.46	495.48
417.837	514.01
418.214	500
418.591	524.86
418.967	515.37
419.344	513.56
419.721	516.27
420.098	532.77
420.475	550.4
420.852	532.54
421.228	530.28
421.605	528.7
421.982	526.44
422.358	537.06
422.735	555.59
423.111	541.81
423.488	538.87
423.864	552.2
424.241	558.98
424.617	557.85
424.994	543.16
425.37	536.61
425.746	563.28
426.123	562.6
426.499	564.86
426.875	589.04
427.251	566.44
427.627	601.69
428.003	597.17
428.379	596.95
428.756	602.37
429.132	603.05
429.507	615.03
429.883	618.42
430.259	605.08
430.635	620.22
431.011	655.25
431.387	627.91
431.763	628.81
432.138	644.86
432.514	653.67
432.89	653.22
433.265	666.32
433.641	663.84
434.016	684.4
434.392	678.08
434.767	664.29
435.143	679.43
435.518	678.3
435.894	690.05
436.269	697.96
436.644	701.35
437.02	731.18
437.395	712.42
437.77	717.4
438.145	731.63
438.52	723.5
438.895	728.47
439.271	735.7
439.646	749.71
440.021	758.07
440.395	770.28
440.77	782.93
441.145	730.5
441.52	756.94
441.895	747.45
442.27	768.47
442.645	765.76
443.019	785.64
443.394	746.77
443.769	775.47
444.143	782.03
444.518	782.48
444.892	819.09
445.267	788.35
445.641	818.18
446.016	803.5
446.39	805.53
446.764	817.51
447.139	795.36
447.513	820.9
447.887	834.46
448.262	827
448.636	820.67
449.01	862.25
449.384	832.65
449.758	846.43
450.132	844.62
450.506	852.99
450.88	868.13
451.254	849.14
451.628	905.41
452.002	877.62
452.376	881.46
452.75	898.18
453.123	920.1
453.497	901.8
453.871	896.37
454.244	931.4
454.618	932.08
454.992	935.02
455.365	941.57
455.739	946.99
456.112	973.89
456.486	990.84
456.859	976.15
457.232	1013.21
457.606	1023.15
457.979	1010.72
458.352	998.52
458.725	1028.35
459.099	1045.07
459.472	1037.84
459.845	1067.67
460.218	1078.52
460.591	1072.42
460.964	1089.36
461.337	1105.63
461.71	1121.91
462.083	1149.02
462.456	1137.72
462.829	1132.3
463.201	1161
463.574	1172.3
463.947	1195.58
464.32	1208.68
464.692	1200.55
465.065	1204.84
465.438	1209.13
465.81	1240.09
466.183	1252.3
466.555	1287.1
466.928	1276.25
467.3	1274.22
467.672	1323.48
468.045	1338.85
468.417	1328.91
468.789	1336.36
469.161	1380.43
469.534	1381.79
469.906	1422.24
470.278	1435.12
470.65	1447.32
471.022	1470.82
471.394	1501.33
471.766	1508.11
472.138	1540.43
472.51	1556.02
472.882	1592.18
473.253	1592.18
473.625	1626.3
473.997	1650.93
474.369	1652.97
474.74	1664.49
475.112	1727.09
475.484	1782.45
475.855	1777.03
476.227	1805.5
476.598	1831.49
476.97	1853.86
477.341	1921.43
477.713	1953.52
478.084	1970.24
478.455	2027.19
478.827	2031.71
479.198	2065.84
479.569	2091.6
479.94	2187.41
480.311	2180.41
480.682	2193.97
481.053	2278.49
481.424	2318.03
481.795	2321.65
482.166	2390.12
482.537	2448.2
482.908	2497.46
483.279	2519.61
483.65	2567.97
484.021	2607.97
484.391	2657.46
484.762	2705.37
485.133	2721.41
485.503	2752.82
485.874	2864.68
486.244	2849.09
486.615	2934.74
486.985	2973.61
487.356	3034.85
487.726	3053.38
488.097	3125.69
488.467	3179.93
488.837	3227.39
489.207	3265.35
489.578	3310.55
489.948	3347.61
490.318	3404.33
490.688	3434.61
491.058	3487.49
491.428	3570.43
491.798	3591.9
492.168	3669.86
492.538	3682.74
492.908	3767.71
493.278	3799.8
493.648	3778.11
494.017	3880.93
494.387	3922.06
494.757	3979.01
495.126	4005.9
495.496	4049.29
495.866	4055.39
496.235	4131.77
496.605	4179
496.974	4198.43
497.344	4218.32
497.713	4290.64
498.082	4339
498.452	4347.81
498.821	4335.15
499.19	4402.5
499.559	4424.64
499.928	4465.55
500.298	4486.11
500.667	4497.41
501.036	4551.87
501.405	4645.65
501.774	4602.04
502.143	4673.68
502.512	4637.52
502.88	4711.64
503.249	4778.98
503.618	4774.92
503.987	4828.93
504.356	4800.68
504.724	4905.31
505.093	4935.82
505.462	4914.12
505.83	4922.03
506.199	4992.09
506.567	5100.33
506.936	5054.23
507.304	5106.66
507.672	5119.09
508.041	5128.81
508.409	5178.75
508.777	5243.83
509.145	5208.58
509.514	5247.45
509.882	5268.92
510.25	5313.66
510.618	5309.82
510.986	5347.11
511.354	5411.96
511.722	5463.49
512.09	5513.43
512.458	5487.44
512.826	5504.39
513.193	5488.12
513.561	5514.56
513.929	5579.64
514.297	5625.06
514.664	5634.78
515.032	5604.73
515.4	5711.84
515.767	5727.21
516.135	5739.19
516.502	5714.55
516.869	5780.77
517.237	5839.3
517.604	5833.19
517.972	5912.97
518.339	5905.28
518.706	5834.1
519.073	5907.77
519.44	5945.96
519.808	6025.28
520.175	5983.25
520.542	5993.64
520.909	6104.6
521.276	6122.9
521.643	6164.94
522.009	6133.07
522.376	6159.06
522.743	6190.7
523.11	6237.48
523.477	6262.11
523.843	6311.6
524.21	6383.91
524.577	6390.92
524.943	6418.26
525.31	6449
525.676	6528.54
526.043	6528.54
526.409	6554.53
526.776	6649.44
527.142	6605.38
527.508	6656.68
527.874	6688.76
528.241	6772.83
528.607	6750.01
528.973	6900.51
529.339	6858.7
529.705	6889.44
530.071	6968.08
530.437	6999.27
530.803	7023.67
531.169	7049.89
531.535	7072.03
531.901	7106.61
532.267	7145.25
532.632	7168.3
532.998	7170.11
533.364	7175.08
533.73	7262.08
534.095	7325.13
534.461	7312.7
534.826	7334.85
535.192	7375.3
535.557	7506.37
535.923	7437.22
536.288	7435.64
536.653	7518.8
537.019	7476.77
537.384	7525.8
537.749	7590.21
538.114	7507.95
538.479	7617.55
538.845	7686.7
539.21	7676.76
539.575	7755.4
539.94	7802.63
540.305	7768.06
540.67	7744.56
541.034	7861.84
541.399	7898.68
541.764	7905.23
542.129	7884.67
542.494	7953.59
542.858	7930.31
543.223	7988.62
543.587	8084.66
543.952	8009.18
544.316	8079.24
544.681	8129.4
545.045	8189.52
545.41	8235.62
545.774	8190.19
546.138	8238.1
546.503	8325.33
546.867	8269.51
547.231	8386.12
547.595	8382.28
547.959	8438.1
548.324	8419.79
548.688	8484.42
549.052	8526.46
549.416	8520.13
549.779	8584.53
550.143	8637.87
550.507	8672.22
550.871	8615.72
551.235	8657.07
551.599	8729.84
551.962	8752.67
552.326	8790.18
552.689	8841.02
553.053	8774.13
553.417	8829.73
553.78	8986.78
554.143	8869.72
554.507	8956.05
554.87	8970.96
555.234	9010.29
555.597	8985.65
555.96	9004.18
556.323	9055.93
556.686	9091.87
557.05	9126.44
557.413	9107.23
557.776	9187.91
558.139	9268.36
558.502	9210.96
558.865	9260.45
559.228	9289.6
559.59	9292.31
559.953	9336.83
560.316	9542.25
560.679	9489.6
561.041	9509.26
561.404	9583.38
561.767	9600.1
562.129	9596.48
562.492	9648.46
562.854	9662.7
563.217	9680.32
563.579	9662.02
563.941	9803.49
564.304	9782.47
564.666	9791.51
565.028	9791.28
565.39	9887.55
565.753	9960.77
566.115	9917.61
566.477	10081.9
566.839	10070.6
567.201	10094.32
567.563	10094.78
567.925	10181.55
568.287	10174.32
568.648	10222.46
569.01	10330.48
569.372	10359.18
569.734	10296.58
570.095	10389.91
570.457	10493.41
570.819	10499.06
571.18	10490.47
571.542	10616.35
571.903	10564.6
572.265	10665.16
572.626	10718.72
572.987	10764.14
573.349	10831.25
573.71	10841.65
574.071	10955.55
574.432	11012.72
574.794	11095.43
575.155	11069.67
575.516	11151.25
575.877	11228.53
576.238	11275.76
576.599	11308.98
576.96	11390.79
577.32	11535.64
577.681	11559.6
578.042	11637.11
578.403	11757.56
578.763	11754.85
579.124	11923.66
579.485	12064.44
579.845	12167.49
580.206	12260.37
580.566	12396.41
580.927	12502.62
581.287	12706.01
581.648	12764.54
582.008	12959.56
582.368	13055.83
582.728	13307.57
583.089	13302.6
583.449	13492.43
583.809	13713.89
584.169	13839.31
584.529	13978.52
584.889	14373.53
585.249	14367.66
585.609	14628.22
585.969	14833.18
586.329	14932.62
586.688	15281.08
587.048	15410.34
587.408	15605.14
587.768	15832.93
588.127	16060.72
588.487	16297.33
588.846	16639.01
589.206	16791.1
589.565	17048.49
589.925	17365.55
590.284	17617.29
590.643	17921.24
591.003	18225.64
591.362	18524.84
591.721	18706.08
592.08	19117.14
592.44	19346.29
592.799	19520.74
593.158	19902.88
593.517	20101.52
593.876	20345.81
594.235	20725.01
594.593	20958.45
594.952	21317.53
595.311	21516.4
595.67	21913.68
596.029	22383.27
596.387	22598.18
596.746	22984.16
597.104	23119.07
597.463	23392.05
597.822	23941.42
598.18	24085.37
598.538	24291.01
598.897	24808.97
599.255	24843.32
599.613	25464.99
599.972	25612.34
600.33	25912.89
600.688	26167.8
601.046	26586.77
601.404	26823.38
601.762	27125.06
602.12	27618.84
602.478	27786.97
602.836	28121.87
603.194	28275.99
603.552	28508.53
603.91	28688.19
604.268	29172.92
604.625	29219.02
604.983	29761.6
605.341	29825.11
605.698	30158.88
606.056	30542.6
606.413	30623.5
606.771	31130.83
607.128	31320.43
607.485	31402.92
607.843	31733.76
608.2	32084.48
608.557	32411.93
608.914	32523.57
609.272	32898.02
609.629	33059.14
609.986	33376.65
610.343	33413.49
610.7	33860.25
611.057	33889.41
611.414	34144.09
611.771	34395.61
612.127	34615.94
612.484	34809.16
612.841	35118.3
613.198	35011.64
613.554	35323.72
613.911	35799.86
614.267	35719.64
614.624	36001.67
614.98	36276.24
615.337	36528.66
615.693	36526.62
616.05	36647.07
616.406	37021.75
616.762	37133.39
617.118	37187.85
617.475	37347.85
617.831	37532.47
618.187	37723.2
618.543	37868.74
618.899	38120.48
619.255	38179.69
619.611	38408.83
619.967	38542.16
620.323	38667.36
620.678	38626.46
621.034	38797.53
621.39	38793.91
621.746	38882.27
622.101	39566.32
622.457	39218.53
622.812	39402.93
623.168	39631.63
623.523	39576.71
623.879	39828.01
624.234	39604.06
624.589	39876.37
624.945	40079.3
625.3	40115.91
625.655	40082.24
626.01	40264.15
626.365	40461.21
626.72	40385.96
627.075	40430.7
627.43	40624.6
627.785	40498.95
628.14	40677.48
628.495	40786.17
628.85	40770.58
629.205	40710.47
629.559	40919.28
629.914	40933.29
630.269	40987.75
630.623	40927.86
630.978	40944.81
631.332	41106.16
631.687	41252.15
632.041	41061.65
632.396	41135.32
632.75	40963.57
633.104	41179.38
633.459	41023.46
633.813	41114.07
634.167	41142.1
634.521	41372.15
634.875	41239.95
635.229	41120.63
635.583	41081.53
635.937	41180.97
636.291	41112.49
636.645	41073.85
636.999	41075.66
637.352	41138.71
637.706	41074.3
638.06	41233.17
638.413	41257.35
638.767	41126.96
639.121	41357.68
639.474	41030.69
639.828	41107.52
640.181	41337.57
640.534	41267.97
640.888	41003.12
641.241	40853.97
641.594	41045.38
641.947	41228.2
642.301	41061.42
642.654	41140.97
643.007	41151.36
643.36	41118.14
643.713	41022.55
644.066	41135.32
644.419	40902.1
644.771	40677.02
645.124	40345.28
645.477	40306.86
645.83	40103.71
646.182	40030.49
646.535	39844.73
646.888	39928.79
647.24	39757.95
647.593	40061.45
647.945	39971.73
648.298	39774.9
648.65	39726.54
649.002	39567
649.355	39742.13
649.707	39813.32
650.059	39904.61
650.411	40482
650.763	40399.97
651.115	40689.9
651.467	40723.12
651.819	40716.57
652.171	40600.19
652.523	40577.37
652.875	40533.75
653.227	40444.26
653.578	40649.68
653.93	40549.8
654.282	40416.92
654.633	40446.52
654.985	40499.4
655.337	40544.82
655.688	40441.55
656.039	40684.48
656.391	40354.77
656.742	40373.98
657.094	40502.79
657.445	40599.74
657.796	40465.5
658.147	40442.91
658.498	40518.84
658.849	40498.72
659.2	40455.79
659.551	40417.82
659.902	40517.25
660.253	40427.76
660.604	40466.18
660.955	40197.94
661.306	40411.72
661.656	40290.82
662.007	40374.43
662.358	40295.79
662.708	40281.33
663.059	40216.47
663.409	40030.26
663.76	40484.71
664.11	40144.83
664.461	40416.47
664.811	40125.63
665.161	40281.1
665.511	40228.45
665.862	40235.23
666.212	40343.93
666.562	40416.47
666.912	40265.06
667.262	40132.63
667.612	40218.73
667.962	40206.53
668.312	40220.09
668.662	40395.68
669.011	40307.54
669.361	40148.68
669.711	40127.21
670.06	40173.31
670.41	39950.26
670.76	39968.57
671.109	40201.78
671.459	40226.41
671.808	40023.26
672.157	40068
672.507	39865.97
672.856	39809.02
673.205	40087.21
673.554	40011.05
673.904	39882.92
674.253	40054.67
674.602	39969.7
674.951	39430.73
675.3	39191.19
675.649	39828.91
675.998	39841.57
676.346	39697.84
676.695	39992.07
677.044	39498.3
677.393	39780.32
677.741	39786.65
678.09	39586.88
678.438	39559.76
678.787	39500.56
679.135	39596.37
679.484	39278.19
679.832	39561.12
680.181	39271.64
680.529	39503.27
680.877	39482.25
681.225	39263.28
681.573	39513.89
681.922	39262.37
682.27	39324.52
682.618	39217.85
682.966	39050.63
683.314	39061.02
683.661	39165.2
684.009	38793.68
684.357	38848.37
684.705	38766.79
685.053	38946.67
685.4	38884.3
685.748	38666.68
686.095	38777.86
686.443	38588.94
686.79	38637.76
687.138	38662.61
687.485	38475.05
687.832	38280.02
688.18	38395.5
688.527	37979.02
688.874	38108.73
689.221	38054.95
689.568	37982.18
689.915	37866.48
690.262	37921.84
690.609	37783.77
690.956	37595.52
691.303	37598.46
691.65	37397.34
691.997	37445.7
692.344	37207.96
692.69	37236.89
693.037	37389.65
693.383	36915.99
693.73	37011.36
694.077	36868.08
694.423	36794.64
694.769	36849.33
695.116	36651.37
695.462	36613.63
695.808	36528.88
696.155	36550.35
696.501	36271.72
696.847	36242.11
697.193	36032.17
697.539	36266.74
697.885	35938.39
698.231	35969.35
698.577	35833.99
698.923	35853.42
699.269	35764.61
699.614	35604.84
699.96	35503.83
700.306	35445.07
700.651	35318.97
700.997	35211.86
701.342	35154.46
701.688	35151.29
702.033	35017.29
702.379	34907.91
702.724	34840.57
703.069	34979.77
703.415	34585.43
703.76	34553.57
704.105	34547.24
704.45	34492.55
704.795	34368.26
705.14	34206.23
705.485	34226.57
705.83	34095.95
706.175	34166.23
706.52	34053.02
706.865	33966.69
707.209	33892.57
707.554	33840.37
707.899	33885.34
708.243	33587.27
708.588	33541.39
708.932	33459.13
709.277	33431.11
709.621	33462.07
709.966	33200.38
710.31	33178.69
710.654	33006.26
710.998	32917
711.342	32966.94
711.687	32828.64
712.031	32728.08
712.375	32583.23
712.719	32669.78
713.063	32587.07
713.407	32661.64
713.75	32510.23
714.094	32584.58
714.438	32331.03
714.782	32381.42
715.125	32199.73
715.469	32364.02
715.812	32174.87
716.156	31987.76
716.499	32009.23
716.843	32018.04
717.186	31866.18
717.53	31938.04
717.873	31938.95
718.216	31760.42
718.559	31745.28
718.902	31576.02
719.246	31635.45
719.589	31501.67
719.932	31369.7
720.275	31380.77
720.617	31265.29
720.96	31185.52
721.303	31195.69
721.646	31335.12
721.989	31021.46
722.331	31089.93
722.674	30961.35
723.016	31132.87
723.359	31052.87
723.701	31012.19
724.044	30919.99
724.386	30689.04
724.729	30899.2
725.071	30709.15
725.413	30680.9
725.755	30710.73
726.097	30508.03
726.439	30277.3
726.782	30554.58
727.124	30636.61
727.465	30392.32
727.807	30307.8
728.149	30143.06
728.491	30291.99
728.833	30321.36
729.175	30183.06
729.516	30096.06
729.858	29972.22
730.199	30138.09
730.541	29971.09
730.882	29957.31
731.224	30055.16
731.565	29788.27
731.906	29756.63
732.248	29860.13
732.589	29675.05
732.93	29515.74
733.271	29615.62
733.612	29644.55
733.953	29634.6
734.294	29443.65
734.635	29387.6
734.976	29465.34
735.317	29312.8
735.658	29343.99
735.999	29395.51
736.339	29363.42
736.68	29506.92
737.021	29231.67
737.361	29089.76
737.702	29277.78
738.042	29267.38
738.383	29029.42
738.723	29107.84
739.063	29054.5
739.404	29001.4
739.744	28918.46
740.084	28753.95
740.424	28841.85
740.764	28774.96
741.104	28839.82
741.444	28771.8
741.784	28735.87
742.124	28641.41
742.464	28560.05
742.804	28469.21
743.143	28508.98
743.483	28523.44
743.823	28407.06
744.162	28391.47
744.502	28406.84
744.841	28179.05
745.181	28401.64
745.52	28286.39
745.86	28271.25
746.199	28320.29
746.538	28097.02
746.877	28258.82
747.216	28107.41
747.556	28162.1
747.895	28099.73
748.234	27941.77
748.573	27921.65
748.911	27892.28
749.25	27907.87
749.589	27653.19
749.928	27769.11
750.267	27849.34
750.605	27678.5
750.944	27643.69
751.283	27584.26
751.621	27740.41
751.96	27400.54
752.298	27383.59
752.636	27527.31
752.975	27290.93
753.313	27274.89
753.651	27418.16
753.989	27241.44
754.327	27233.54
754.666	27092.3
755.004	27174.1
755.342	27142.92
755.679	27119.64
756.017	26813.43
756.355	27032.18
756.693	26820.21
757.031	26842.81
757.368	26621.57
757.706	26575.47
758.044	26605.53
758.381	26711.06
758.719	26343.62
759.056	26479.43
759.394	26317.63
759.731	26241.7
760.068	26128.93
760.405	26147.46
760.743	26104.07
761.08	26089.16
761.417	25915.15
761.754	25847.36
762.091	25830.41
762.428	25717.42
762.765	25620.92
763.102	25700.47
763.438	25545.22
763.775	25536.18
764.112	25506.58
764.449	25468.38
764.785	25283.76
765.122	25181.16
765.458	25021.84
765.795	25086.02
766.131	25052.58
766.467	24899.81
766.804	24844.9
767.14	24790.21
767.476	24713.38
767.812	24619.82
768.148	24701.62
768.485	24457.79
768.821	24250.79
769.157	24320.39
769.492	24293.05
769.828	24271.35
770.164	24046.5
770.5	23890.35
770.836	23917.24
771.171	23851.48
771.507	23840.4
771.842	23612.61
772.178	23626.4
772.513	23547.08
772.849	23419.17
773.184	23484.93
773.519	23351.15
773.855	23237.03
774.19	23070.93
774.525	22999.07
774.86	23016.25
775.195	22890.82
775.53	22740.32
775.865	22666.88
776.2	22661
776.535	22392.08
776.87	22594.56
777.205	22363.61
777.539	22333.55
777.874	22272.99
778.209	22109.6
778.543	22101.92
778.878	21943.28
779.212	21917.29
779.547	21760.91
779.881	21887.01
780.215	21702.61
780.55	21647.02
780.884	21682.95
781.218	21548.04
781.552	21433.24
781.886	21438.66
782.22	21304.65
782.554	21226.46
782.888	20911.44
783.222	20911.22
783.556	20848.17
783.889	20784.44
784.223	20651.34
784.557	20659.02
784.89	20626.7
785.224	20567.5
785.557	20400.49
785.891	20343.77
786.224	20390.78
786.558	20331.12
786.891	20115.53
787.224	19989.43
787.557	19930
787.891	19958.92
788.224	19900.39
788.557	19840.51
788.89	19853.62
789.223	19690.68
789.556	19613.85
789.888	19638.71
790.221	19509.9
790.554	19302.9
790.887	19393.06
791.219	19289.56
791.552	19188.78
791.884	19123.01
792.217	19128.66
792.549	19041.21
792.882	18886.41
793.214	18871.04
793.546	18807.77
793.879	18770.03
794.211	18636.02
794.543	18697.49
794.875	18565.29
795.207	18686.87
795.539	18412.3
795.871	18516.7
796.203	18327.33
796.535	18254.11
796.867	18205.98
797.198	18196.94
797.53	18129.37
797.862	18012.31
798.193	18023.38
798.525	17865.65
798.856	17944.74
799.188	17774.35
799.519	17711.75
799.85	17664.52
800.182	17692.54
800.513	17661.13
800.844	17461.14
801.175	17542.49
801.506	17498.42
801.837	17495.26
802.168	17315.83
802.499	17288.49
802.83	17177.53
803.161	17104.08
803.491	17154.25
803.822	17098.43
804.153	17004.65
804.483	16945.9
804.814	16900.02
805.145	16927.82
805.475	16872
805.805	16755.62
806.136	16807.59
806.466	16755.39
806.796	16705
807.126	16479.69
807.457	16562.4
807.787	16536.19
808.117	16488.73
808.447	16334.16
808.777	16438.56
809.107	16258.91
809.436	16242.19
809.766	16187.5
810.096	16283.54
810.426	16095.75
810.755	16163.77
811.085	16006.94
811.414	16002.42
811.744	15892.14
812.073	15931.01
812.403	15902.53
812.732	15726.04
813.061	15817.34
813.39	15686.95
813.719	15639.94
814.049	15647.63
814.378	15699.83
814.707	15660.28
815.036	15534.86
815.365	15450.12
815.693	15343
816.022	15348.42
816.351	15312.04
816.68	15266.84
817.008	15305.71
817.337	15087.41
817.665	15117.02
817.994	15104.14
818.322	15138.71
818.651	15046.74
818.979	14943.91
819.307	15082.22
819.636	14990.47
819.964	14893.52
820.292	14946.85
820.62	14994.99
820.948	14852.84
821.276	14921.09
821.604	14751.6
821.932	14917.7
822.259	14905.72
822.587	14847.87
822.915	14842.22
823.243	14839.28
823.57	14774.65
823.898	14904.82
824.225	14701.89
824.553	14695.79
824.88	14720.42
825.207	14822.34
825.535	14815.33
825.862	14796.8
826.189	14762.45
826.516	14840.41
826.843	14894.88
827.17	14758.38
827.497	14821.21
827.824	14795.67
828.151	14808.33
828.478	14764.03
828.805	14790.02
829.131	14784.6
829.458	14719.74
829.785	14642
830.111	14726.52
830.438	14816.46
830.764	14779.85
831.09	14726.29
831.417	14720.19
831.743	14783.69
832.069	14640.19
832.395	14670.25
832.722	14689.68
833.048	14731.94
833.374	14658.5
833.7	14644.49
834.026	14570.59
834.351	14728.78
834.677	14516.58
835.003	14572.63
835.329	14568.56
835.654	14652.17
835.98	14460.54
836.306	14568.11
836.631	14445.85
836.956	14552.74
837.282	14468.67
837.607	14445.4
837.932	14404.27
838.258	14499.41
838.583	14406.08
838.908	14236.81
839.233	14242.69
839.558	14303.25
839.883	14170.6
840.208	14220.32
840.533	14246.53
840.858	14190.04
841.182	14096.03
841.507	14201.56
841.832	14110.49
842.156	14057.84
842.481	14063.71
842.805	13972.19
843.13	14037.27
843.454	13845.19
843.778	13916.82
844.103	13838.41
844.427	13760.67
844.751	13821.23
845.075	13842.25
845.399	13728.13
845.723	13641.35
846.047	13679.54
846.371	13493.11
846.695	13551.64
847.019	13366.78
847.343	13434.12
847.666	13381.24
847.99	13308.25
848.313	13308.25
848.637	13086.11
848.96	13186.22
849.284	13129.5
849.607	13075.04
849.931	12981.93
850.254	12947.81
850.577	12891.31
850.9	12780.13
851.223	12772.22
851.546	12679.12
851.869	12631.89
852.192	12598.44
852.515	12437.31
852.838	12482.06
853.161	12465.79
853.483	12513.7
853.806	12385.56
854.129	12397.09
854.451	12262.18
854.774	12265.57
855.096	12250.88
855.419	12172.24
855.741	12200.48
856.063	12098.79
856.385	12059.7
856.708	12007.72
857.03	11959.59
857.352	12038.23
857.674	11980.15
857.996	11981.06
858.318	11898.8
858.64	11864.9
858.961	11754.85
859.283	11758.24
859.605	11679.82
859.926	11718.01
860.248	11685.92
860.57	11680.72
860.891	11629.43
861.212	11590.78
861.534	11549.88
861.855	11507.85
862.176	11486.15
862.498	11527.06
862.819	11501.29
863.14	11420.17
863.461	11428.98
863.782	11365.48
864.103	11328.19
864.424	11351.92
864.745	11397.34
865.065	11279.15
865.386	11246.16
865.707	11170.91
866.027	11225.82
866.348	11192.6
866.668	11233.96
866.989	11193.28
867.309	11038.03
867.63	11148.31
867.95	11099.04
868.27	11031.02
868.59	11021.08
868.91	10952.61
869.23	10984.02
869.55	10939.27
869.87	11051.81
870.19	10978.37
870.51	10977.01
870.83	10928.43
871.15	10972.72
871.469	10939.73
871.789	11010.69
872.109	10846.62
872.428	10763.69
872.748	10842.78
873.067	10821.99
873.386	10798.71
873.706	10822.67
874.025	10793.97
874.344	10691.82
874.663	10726.4
874.982	10732.27
875.301	10678.49
875.62	10647.3
875.939	10622.67
876.258	10648.89
876.577	10550.81
876.896	10579.06
877.214	10505.84
877.533	10529.79
877.852	10597.81
878.17	10598.04
878.489	10531.15
878.807	10541.32
879.125	10462.22
879.444	10462.9
879.762	10428.1
880.08	10426.29
880.398	10390.59
880.716	10437.14
881.034	10440.53
881.352	10338.16
881.67	10281.89
881.988	10297.03
882.306	10184.49
882.624	10238.5
882.941	10135.23
883.259	10185.85
883.577	10104.04
883.894	10126.64
884.212	10102.69
884.529	10080.54
884.846	10074.21
885.164	10006.19
885.481	10010.71
885.798	10044.16
886.115	9921.9
886.432	9984.05
886.75	9869.92
887.067	10001.45
887.383	9907.21
887.7	9960.09
888.017	9892.97
888.334	9780.21
888.651	9833.31
888.967	9849.59
889.284	9768.46
889.6	9753.09
889.917	9677.61
890.233	9648.24
890.55	9646.2
890.866	9655.01
891.182	9598.07
891.498	9544.73
891.815	9568.24
892.131	9478.52
892.447	9481.23
892.763	9415.25
893.079	9406.66
893.395	9429.94
893.71	9417.05
894.026	9362.59
894.342	9264.52
894.657	9273.78
894.973	9216.61
895.289	9210.28
895.604	9215.03
895.92	9094.13
896.235	9046.22
896.55	9182.48
896.865	9142.26
897.181	9080.11
897.496	9090.28
897.811	8966.22
898.126	8976.61
898.441	8917.18
898.756	8899.33
899.071	8914.92
899.386	8853.91
899.7	8763.06
900.015	8756.51
900.33	8715.6
900.644	8681.93
900.959	8671.76
901.273	8718.99
901.588	8589.73
901.902	8634.93
902.216	8528.26
902.531	8521.48
902.845	8513.8
903.159	8493.46
903.473	8421.15
903.787	8444.42
904.101	8345.67
904.415	8335.28
904.729	8381.6
905.042	8303.64
905.356	8259.34
905.67	8184.32
905.984	8247.37
906.297	8162.62
906.611	8081.5
906.924	8117.65
907.237	8064.1
907.551	8062.06
907.864	8027.26
908.177	7994.27
908.491	7951.56
908.804	7946.81
909.117	7870.2
909.43	7853.93
909.743	7730.09
910.056	7771.67
910.368	7729.64
910.681	7676.99
910.994	7693.48
911.307	7658.23
911.619	7596.31
911.932	7589.98
912.244	7489.65
912.557	7570.78
912.869	7531
913.181	7503.21
913.494	7413.94
913.806	7425.92
914.118	7396.54
914.43	7313.38
914.742	7318.8
915.054	7277.9
915.366	7278.35
915.678	7196.32
915.99	7203.78
916.302	7123.56
916.613	7168.07
916.925	7084.69
917.236	7166.94
917.548	7038.81
917.859	7044.91
918.171	7048.53
918.482	6976.89
918.794	6942.32
919.105	6931.47
919.416	6883.79
919.727	6822.32
920.038	6798.59
920.349	6781.42
920.66	6774.86
920.971	6760.63
921.282	6685.83
921.593	6650.8
921.903	6613.96
922.214	6624.36
922.525	6574.42
922.835	6553.18
923.146	6512.72
923.456	6477.47
923.767	6474.31
924.077	6516.57
924.387	6400.86
924.697	6414.42
925.008	6326.29
925.318	6321.77
925.628	6293.29
925.938	6275.67
926.248	6225.05
926.558	6220.75
926.867	6211.04
927.177	6166.07
927.487	6111.15
927.796	6102.57
928.106	6094.2
928.416	6077.48
928.725	6077.03
929.034	6018.05
929.344	6050.59
929.653	6016.01
929.962	5964.26
930.271	5941.89
930.581	5894.44
930.89	5840.2
931.199	5826.64
931.508	5879.07
931.817	5828.22
932.125	5805.62
932.434	5736.93
932.743	5704.38
933.051	5661.9
933.36	5635.91
933.669	5658.74
933.977	5602.92
934.286	5604.73
934.594	5602.69
934.902	5533.54
935.21	5489.02
935.519	5563.14
935.827	5452.41
936.135	5477.27
936.443	5417.84
936.751	5455.35
937.059	5428.46
937.367	5384.84
937.674	5340.33
937.982	5352.3
938.29	5340.1
938.597	5270.27
938.905	5265.3
939.213	5248.12
939.52	5213.55
939.827	5201.8
940.135	5161.8
940.442	5187.79
940.749	5109.37
941.056	5160.22
941.363	5030.5
941.67	5066.89
941.977	5061.69
942.284	4986.89
942.591	5004.06
942.898	4964.52
943.205	5006.78
943.511	4926.78
943.818	4888.13
944.125	4913.9
944.431	4826.89
944.738	4841.81
945.044	4828.02
945.35	4771.98
945.657	4714.35
945.963	4732.43
946.269	4717.52
946.575	4709.83
946.881	4650.85
947.187	4652.66
947.493	4665.99
947.799	4636.16
948.105	4630.97
948.41	4597.52
948.716	4600.68
949.022	4541.25
949.327	4530.18
949.633	4525.66
949.938	4495.38
950.244	4462.38
950.549	4456.96
950.854	4463.51
951.16	4447.92
951.465	4455.38
951.77	4342.61
952.075	4378.54
952.38	4365.21
952.685	4377.64
952.99	4308.04
953.294	4268.94
953.599	4247.93
953.904	4237.53
954.209	4184.42
954.513	4229.85
954.818	4210.19
955.122	4181.03
955.426	4190.07
955.731	4077.53
956.035	4109.85
956.339	4075.95
956.643	4103.3
956.948	4057.87
957.252	4019
957.556	4069.4
957.86	4042.05
958.163	4002.06
958.467	3961.38
958.771	3989.4
959.075	3974.94
959.378	3925.22
959.682	3940.36
959.985	3925.9
960.289	3868.5
960.592	3886.58
960.896	3844.55
961.199	3776.3
961.502	3818.56
961.805	3805
962.108	3793.02
962.411	3774.72
962.714	3736.3
963.017	3748.5
963.32	3697.66
963.623	3663.31
963.926	3709.41
964.228	3674.61
964.531	3621.27
964.833	3656.3
965.136	3655.62
965.438	3610.2
965.741	3615.85
966.043	3563.88
966.345	3574.95
966.648	3532.46
966.95	3521.62
967.252	3517.32
967.554	3521.84
967.856	3473.48
968.158	3470.09
968.46	3449.75
968.761	3473.03
969.063	3412.01
969.365	3421.96
969.666	3398.68
969.968	3333.6
970.269	3318.68
970.571	3326.82
970.872	3330.66
971.174	3330.21
971.475	3318.23
971.776	3320.72
972.077	3275.75
972.378	3265.8
972.679	3277.78
972.98	3237.56
973.281	3195.3
973.582	3207.05
973.883	3212.47
974.183	3207.5
974.484	3167.73
974.785	3165.47
975.085	3157.33
975.386	3122.3
975.686	3110.78
975.986	3062.87
976.287	3096.77
976.587	3096.32
976.887	3042.53
977.187	3035.08
977.487	2994.17
977.787	3041.18
978.087	3034.17
978.387	2985.81
978.687	2964.34
978.987	2956.89
979.286	2959.15
979.586	2942.65
979.885	2930.67
980.185	2903.33
980.484	2922.31
980.784	2913.04
981.083	2855.19
981.382	2855.65
981.682	2898.58
981.981	2835.98
982.28	2797.34
982.579	2814.06
982.878	2773.61
983.177	2785.59
983.475	2758.47
983.774	2755.08
984.073	2725.48
984.372	2732.26
984.67	2724.58
984.969	2715.31
985.267	2692.94
985.566	2720.06
985.864	2642.32
986.162	2654.52
986.461	2620.62
986.759	2641.19
987.057	2588.53
987.355	2602.54
987.653	2612.26
987.951	2592.83
988.249	2556.9
988.547	2556.22
988.844	2540.17
989.142	2542.43
989.44	2505.37
989.737	2521.64
990.035	2505.37
990.332	2492.26
990.63	2499.5
990.927	2485.94
991.224	2462.21
991.521	2448.2
991.819	2463.34
992.116	2437.58
992.413	2397.58
992.71	2375.21
993.006	2392.38
993.303	2407.52
993.6	2410.46
993.897	2345.38
994.193	2350.35
994.49	2340.18
994.787	2374.75
995.083	2320.52
995.379	2298.6
995.676	2311.03
995.972	2276
996.268	2282.1
996.565	2257.24
996.861	2216.57
997.157	2229.22
997.453	2217.02
997.749	2223.12
998.044	2175.21
998.34	2207.07
998.636	2224.48
998.932	2218.37
999.227	2171.37
999.523	2148.77
999.818	2141.09
1000.114	2183.57
1000.409	2112.16
1000.704	2111.94
1001	2124.59
1001.295	2095.44
1001.59	2082.33
1001.885	2060.64
1002.18	2038.49
1002.475	2020.19
1002.77	2026.06
1003.065	1996.46
1003.359	2009.79
1003.654	2000.07
1003.949	1991.94
1004.243	1976.35
1004.538	1966.86
1004.832	1969.79
1005.127	1940.42
1005.421	1932.96
1005.715	1929.12
1006.009	1907.2
1006.304	1902.9
1006.598	1867.65
1006.892	1860.87
1007.186	1875.11
1007.48	1873.75
1007.773	1862.23
1008.067	1837.14
1008.361	1824.49
1008.655	1820.19
1008.948	1830.36
1009.242	1798.72
1009.535	1786.75
1009.829	1777.71
1010.122	1800.53
1010.415	1775.9
1010.708	1755.11
1011.001	1728.22
1011.295	1720.31
1011.588	1737.26
1011.881	1697.26
1012.173	1730.7
1012.466	1688.9
1012.759	1662.68
1013.052	1695.45
1013.344	1653.64
1013.637	1661.78
1013.93	1642.34
1014.222	1636.24
1014.514	1635.34
1014.807	1624.04
1015.099	1621.33
1015.391	1600.09
1015.683	1588.33
1015.976	1594.66
1016.268	1558.73
1016.56	1527.77
1016.851	1581.55
1017.143	1549.46
1017.435	1539.52
1017.727	1507.88
1018.018	1531.61
1018.31	1492.29
1018.602	1499.3
1018.893	1498.39
1019.185	1489.58
1019.476	1491.16
1019.767	1459.52
1020.058	1458.17
1020.35	1441.67
1020.641	1420.88
1020.932	1419.52
1021.223	1409.58
1021.514	1414.78
1021.804	1378.62
1022.095	1371.39
1022.386	1380.88
1022.677	1338.17
1022.967	1349.7
1023.258	1369.58
1023.548	1348.11
1023.839	1338.4
1024.129	1343.37
1024.419	1320.09
1024.709	1333.2
1025	1292.75
1025.29	1297.04
1025.58	1271.05
1025.87	1271.96
1026.16	1236.25
1026.449	1259.08
1026.739	1276.7
1027.029	1248.23
1027.319	1247.33
1027.608	1208.23
1027.898	1235.12
1028.187	1216.59
1028.477	1208.91
1028.766	1198.29
1029.055	1196.71
1029.344	1173.43
1029.634	1157.61
1029.923	1158.97
1030.212	1144.05
1030.501	1149.48
1030.79	1133.2
1031.078	1133.88
1031.367	1130.04
1031.656	1110.15
1031.945	1116.71
1032.233	1092.08
1032.522	1094.11
1032.81	1098.18
1033.099	1083.26
1033.387	1065.18
1033.675	1065.86
1033.963	1071.06
1034.251	1086.2
1034.54	1058.18
1034.828	1048.91
1035.116	1046.65
1035.403	993.55
1035.691	1028.57
1035.979	1003.49
1036.267	1006.43
1036.554	974.11
1036.842	971.85
1037.129	1005.75
1037.417	976.15
1037.704	997.62
1037.992	978.63
1038.279	952.87
1038.566	956.94
1038.853	956.94
1039.14	956.94
