Data from hue_28_FLMS001491_00100.txt Node
Date: Tue Feb 07 17:18:05 GMT 2017
User: dcchb
Spectrometer: FLMS00149
Trigger mode: 0
Integration Time (sec): 2.000000E-2
Scans to average: 10
Electric dark correction enabled: true
Nonlinearity correction enabled: false
Boxcar width: 0
XAxis mode: Wavelengths
Number of Pixels in Spectrum: 2048
>>>>>Begin Spectral Data<<<<<
341.393	-15.23
341.776	-15.23
342.16	-15.23
342.543	-62.68
342.927	-55.22
343.31	-78.73
343.693	-58.61
344.077	-67.65
344.46	-58.84
344.843	-56.58
345.226	-70.37
345.61	-19.52
345.993	-15.9
346.376	11.21
346.759	5.79
347.142	38.33
347.525	36.3
347.908	70.87
348.291	75.85
348.674	93.47
349.057	94.38
349.44	140.48
349.823	162.4
350.206	145.22
350.588	183.64
350.971	220.47
351.354	228.38
351.737	230.64
352.119	256.18
352.502	249.63
352.884	282.39
353.267	300.25
353.65	302.73
354.032	290.08
354.414	296.4
354.797	313.35
355.179	325.78
355.562	345.67
355.944	326.91
356.326	336.18
356.709	339.79
357.091	330.98
357.473	348.38
357.855	314.48
358.238	356.29
358.62	340.47
359.002	333.69
359.384	332.79
359.766	342.51
360.148	367.36
360.53	356.97
360.912	342.05
361.294	337.76
361.676	341.38
362.057	327.82
362.439	344.31
362.821	316.07
363.203	328.27
363.584	354.26
363.966	330.3
364.348	345.22
364.729	319.91
365.111	313.58
365.493	318.55
365.874	296.4
366.256	310.87
366.637	319
367.019	316.97
367.4	315.61
367.781	309.51
368.163	321.49
368.544	309.29
368.925	312
369.306	296.86
369.688	299.79
370.069	316.97
370.45	309.29
370.831	302.05
371.212	301.83
371.593	292.79
371.974	314.48
372.355	298.44
372.736	301.15
373.117	328.95
373.498	326.23
373.879	304.54
374.26	317.2
374.641	316.74
375.021	310.87
375.402	305.67
375.783	340.47
376.163	340.25
376.544	328.04
376.925	355.61
377.305	330.98
377.686	335.5
378.066	314.94
378.447	307.7
378.827	338.66
379.208	319.45
379.588	333.69
379.968	313.35
380.349	340.92
380.729	352.22
381.109	327.36
381.489	350.64
381.87	330.08
382.25	309.29
382.63	319.91
383.01	360.58
383.39	333.47
383.77	335.5
384.15	342.28
384.53	349.28
384.91	358.55
385.29	356.74
385.67	354.48
386.049	344.54
386.429	359.68
386.809	369.85
387.189	351.09
387.568	350.19
387.948	365.33
388.328	362.84
388.707	375.72
389.087	366.01
389.466	343.86
389.846	365.78
390.225	370.98
390.605	371.43
390.984	363.75
391.363	370.75
391.743	356.29
392.122	370.3
392.501	370.3
392.881	391.77
393.26	378.66
393.639	378.66
394.018	376.63
394.397	389.96
394.776	394.71
395.155	399
395.534	390.19
395.913	381.83
396.292	367.36
396.671	384.54
397.05	407.36
397.429	409.17
397.808	393.13
398.186	385.44
398.565	399.45
398.944	405.33
399.323	403.75
399.701	410.07
400.08	396.06
400.458	410.98
400.837	408.04
401.215	396.97
401.594	386.12
401.972	405.55
402.351	418.21
402.729	422.95
403.107	410.98
403.486	410.07
403.864	409.62
404.242	421.83
404.62	408.49
404.999	420.92
405.377	432.22
405.755	428.15
406.133	408.04
406.511	437.64
406.889	432.22
407.267	424.31
407.645	434.93
408.023	434.93
408.401	421.83
408.779	445.1
409.156	436.74
409.534	463.18
409.912	450.98
410.29	452.56
410.667	449.17
411.045	459.34
411.422	463.18
411.8	467.25
412.178	455.72
412.555	464.54
412.933	468.83
413.31	464.99
413.687	466.8
414.065	473.35
414.442	476.96
414.819	486.68
415.197	481.71
415.574	509.28
415.951	469.06
416.328	488.49
416.705	493.69
417.082	493.69
417.46	510.18
417.837	485.1
418.214	507.92
418.591	504.76
418.967	505.21
419.344	518.09
419.721	517.19
420.098	522.84
420.475	521.48
420.852	536.4
421.228	529.39
421.605	528.94
421.982	535.49
422.358	526.91
422.735	537.98
423.111	527.81
423.488	566.91
423.864	569.17
424.241	550.86
424.617	549.51
424.994	581.82
425.37	575.95
425.746	547.7
426.123	574.36
426.499	580.92
426.875	572.1
427.251	603.52
427.627	589.96
428.003	609.84
428.379	591.54
428.756	584.08
429.132	586.79
429.507	598.54
429.883	622.95
430.259	635.38
430.635	622.05
431.011	629.96
431.387	623.63
431.763	612.1
432.138	625.89
432.514	657.98
432.89	685.32
433.265	674.25
433.641	664.98
434.016	690.07
434.392	673.57
434.767	667.02
435.143	683.29
435.518	695.72
435.894	697.3
436.269	710.63
436.644	712.44
437.02	721.7
437.395	711.31
437.77	738.2
438.145	688.26
438.52	721.03
438.895	693.68
439.271	741.82
439.646	747.47
440.021	728.94
440.395	744.75
440.77	757.86
441.145	752.89
441.52	762.38
441.895	756.73
442.27	786.11
442.645	774.81
443.019	782.49
443.394	764.64
443.769	765.09
444.143	789.5
444.518	807.8
444.892	808.03
445.267	801.25
445.641	822.27
446.016	817.52
446.39	807.58
446.764	839.44
447.139	845.77
447.513	851.19
447.887	840.8
448.262	833.34
448.636	861.14
449.01	843.73
449.384	846.9
449.758	844.64
450.132	859.78
450.506	849.84
450.88	866.56
451.254	888.93
451.628	895.48
452.002	919.89
452.376	901.36
452.75	896.84
453.123	925.09
453.497	930.06
453.871	923.28
454.244	939.1
454.618	954.92
454.992	963.05
455.365	947.01
455.739	981.81
456.112	993.34
456.486	975.93
456.859	1018.19
457.232	1025.2
457.606	1027.23
457.979	1041.92
458.352	1050.51
458.725	1051.41
459.099	1072.2
459.472	1083.05
459.845	1095.03
460.218	1098.64
460.591	1104.74
460.964	1120.34
461.337	1121.47
461.71	1148.13
462.083	1182.03
462.456	1148.81
462.829	1152.88
463.201	1170.05
463.574	1224.97
463.947	1211.41
464.32	1228.36
464.692	1227.45
465.065	1246.21
465.438	1268.36
465.81	1276.04
466.183	1291.41
466.555	1308.36
466.928	1304.06
467.3	1338.19
467.672	1340.44
468.045	1376.38
468.417	1399.88
468.789	1396.94
469.161	1428.58
469.534	1413.44
469.906	1486.43
470.278	1477.16
470.65	1496.6
471.022	1487.56
471.394	1547.22
471.766	1596.03
472.138	1586.99
472.51	1611.62
472.882	1627.22
473.253	1649.59
473.625	1677.39
473.997	1728.01
474.369	1753.54
474.74	1756.48
475.112	1807.78
475.484	1822.01
475.855	1859.3
476.227	1887.78
476.598	1941.33
476.97	1942.46
477.341	2009.58
477.713	2038.73
478.084	2043.7
478.455	2121.67
478.827	2133.64
479.198	2215.22
479.569	2195.56
479.94	2288.22
480.311	2308.56
480.682	2367.08
481.053	2442.34
481.424	2468.32
481.795	2520.75
482.166	2560.75
482.537	2596.46
482.908	2674.65
483.279	2674.87
483.65	2758.49
484.021	2814.98
484.391	2890.23
484.762	2879.84
485.133	2916.45
485.503	2995.32
485.874	3055.43
486.244	3055.2
486.615	3166.84
486.985	3246.84
487.356	3300.39
487.726	3337
488.097	3406.38
488.467	3430.56
488.837	3534.51
489.207	3584.45
489.578	3647.5
489.948	3677.56
490.318	3787.84
490.688	3785.8
491.058	3900.6
491.428	3945.8
491.798	3945.8
492.168	4068.73
492.538	4051.11
492.908	4167.26
493.278	4196.64
493.648	4212.46
494.017	4345.34
494.387	4326.58
494.757	4435.73
495.126	4475.05
495.496	4466.92
495.866	4507.59
496.235	4585.11
496.605	4661.04
496.974	4673.24
497.344	4724.76
497.713	4750.07
498.082	4782.39
498.452	4829.62
498.821	4866.68
499.19	4885.89
499.559	5016.51
499.928	5030.29
500.298	5029.84
500.667	5113
501.036	5065.09
501.405	5177.63
501.774	5129.72
502.143	5223.28
502.512	5270.96
502.88	5307.8
503.249	5325.88
503.618	5347.35
503.987	5408.59
504.356	5489.26
504.724	5491.97
505.093	5519.09
505.462	5515.25
505.83	5549.6
506.199	5595.02
506.567	5695.58
506.936	5668.47
507.304	5752.98
507.672	5756.37
508.041	5740.78
508.409	5825.52
508.777	5885.18
509.145	5885.86
509.514	5911.17
509.882	5941.45
510.25	5964.5
510.618	6024.84
510.986	6033.2
511.354	6080.66
511.722	6137.61
512.09	6168.79
512.458	6210.6
512.826	6234.78
513.193	6197.04
513.561	6271.61
513.929	6266.19
514.297	6373.53
514.664	6369.92
515.032	6398.84
515.4	6418.05
515.767	6456.92
516.135	6518.61
516.502	6452.85
516.869	6557.03
517.237	6582.79
517.604	6547.31
517.972	6568.1
518.339	6601.32
518.706	6626.86
519.073	6698.5
519.44	6707.54
519.808	6760.64
520.175	6776.69
520.542	6807.19
520.909	6841.32
521.276	6868.21
521.643	6967.42
522.009	6912.05
522.376	6997.02
522.743	6988.43
523.11	7053.06
523.477	7122.21
523.843	7081.99
524.21	7268.88
524.577	7217.8
524.943	7272.72
525.31	7307.75
525.676	7362.43
526.043	7398.82
526.409	7461.87
526.776	7528.3
527.142	7491.92
527.508	7540.51
527.874	7592.48
528.241	7596.1
528.607	7684.01
528.973	7790.22
529.339	7743.21
529.705	7816.43
530.071	7882.87
530.437	7941.4
530.803	7980.04
531.169	7995.64
531.535	7987.05
531.901	7981.63
532.267	8054.62
532.632	8132.36
532.998	8163.77
533.364	8185.91
533.73	8215.29
534.095	8260.49
534.461	8297.55
534.826	8285.35
535.192	8345.01
535.557	8397.43
535.923	8367.6
536.288	8439.24
536.653	8535.06
537.019	8488.96
537.384	8615.96
537.749	8561.5
538.114	8557.43
538.479	8624.1
538.845	8639.24
539.21	8700.48
539.575	8726.01
539.94	8807.14
540.305	8779.12
540.67	8780.93
541.034	8836.29
541.399	8890.3
541.764	8890.75
542.129	8952.45
542.494	9007.59
542.858	9044.65
543.223	9076.74
543.587	9207.81
543.952	9115.61
544.316	9170.97
544.681	9169.17
545.045	9246.45
545.41	9283.74
545.774	9296.62
546.138	9306.11
546.503	9345.66
546.867	9403.96
547.231	9469.27
547.595	9510.85
547.959	9528.03
548.324	9566.67
548.688	9527.57
549.052	9622.49
549.416	9614.58
549.779	9648.48
550.143	9620.45
550.507	9737.29
550.871	9785.19
551.235	9778.64
551.599	9798.08
551.962	9853.67
552.326	9928.92
552.689	9934.8
553.053	9918.07
553.417	9956.94
553.78	10063.38
554.143	10082.81
554.507	10091.4
554.87	10038.75
555.234	10109.93
555.597	10138.63
555.96	10155.81
556.323	10188.8
556.686	10141.12
557.05	10243.26
557.413	10356.71
557.776	10407.1
558.139	10412.97
558.502	10466.31
558.865	10445.97
559.228	10547.43
559.59	10620.43
559.953	10566.19
560.316	10686.41
560.679	10690.03
561.041	10728.45
561.404	10777.48
561.767	10760.99
562.129	10820.65
562.492	10911.04
562.854	10850.03
563.217	10910.36
563.579	10914.66
563.941	10990.81
564.304	10996.46
564.666	11057.93
565.028	11127.53
565.39	11136.12
565.753	11255.89
566.115	11211.15
566.477	11236.91
566.839	11304.93
567.201	11390.58
567.563	11446.85
567.925	11427.41
568.287	11393.29
568.648	11454.98
569.01	11559.39
569.372	11620.63
569.734	11635.77
570.095	11690
570.457	11819.94
570.819	11823.79
571.18	11823.56
571.542	11934.06
571.903	12002.09
572.265	11998.02
572.626	11914.18
572.987	12092.93
573.349	12117.56
573.71	12161.4
574.071	12387.84
574.432	12421.74
574.794	12543.54
575.155	12520.26
575.516	12492.47
575.877	12603.88
576.238	12761.16
576.599	12762.97
576.96	12828.96
577.32	12948.28
577.681	13023.3
578.042	13142.62
578.403	13323.86
578.763	13337.87
579.124	13457.41
579.485	13563.63
579.845	13693.79
580.206	13835.03
580.566	14000.9
580.927	14048.36
581.287	14285.87
581.648	14295.13
582.008	14581
582.368	14654.45
582.728	14835.01
583.089	15016.92
583.449	15144.15
583.809	15359.29
584.169	15519.51
584.529	15731.7
584.889	16033.84
585.249	16054.18
585.609	16272.93
585.969	16529.2
586.329	16698.69
586.688	17015.97
587.048	17206.02
587.408	17333.02
587.768	17782.72
588.127	17907.92
588.487	18049.84
588.846	18468.81
589.206	18613.44
589.565	18866.76
589.925	19234.89
590.284	19422.91
590.643	19707.65
591.003	20022.21
591.362	20345.37
591.721	20571.58
592.08	20883.43
592.44	21157.78
592.799	21356.42
593.158	21644.09
593.517	21996.85
593.876	22311.19
594.235	22505.54
594.593	22857.62
594.952	23307.55
595.311	23444.04
595.67	23697.6
596.029	24177.36
596.387	24398.37
596.746	24786.16
597.104	24925.36
597.463	25158.8
597.822	25601.95
598.18	25767.83
598.538	26006.24
598.897	26500.01
599.255	26626.56
599.613	27201.23
599.972	27292.98
600.33	27624.73
600.688	27784.72
601.046	28231.04
601.404	28570.69
601.762	28752.38
602.12	29142.65
602.478	29485.47
602.836	29695.63
603.194	29832.13
603.552	30178.78
603.91	30116.86
604.268	30658.32
604.625	30733.34
604.983	31224.86
605.341	31167.23
605.698	31637.05
606.056	32034.78
606.413	32029.36
606.771	32379.18
607.128	32717.7
607.485	32807.19
607.843	33015.32
608.2	33326.27
608.557	33757.67
608.914	33732.59
609.272	34129.64
609.629	34251.22
609.986	34534.15
610.343	34492.12
610.7	35067.47
611.057	35251.64
611.414	35368.02
611.771	35438.08
612.127	35807.79
612.484	35933.43
612.841	36185.4
613.198	36193.77
613.554	36401.44
613.911	36728.44
614.267	36857.03
614.624	36968.43
614.98	37154.64
615.337	37546.05
615.693	37595.54
616.05	37756.89
616.406	37937.9
616.762	37955.98
617.118	38059.71
617.475	38331.11
617.831	38437.55
618.187	38590.99
618.543	38755.51
618.899	39036.4
619.255	39069.17
619.611	39047.48
619.967	39243.86
620.323	39474.58
620.678	39514.58
621.034	39576.73
621.39	39583.73
621.746	39615.82
622.101	40172.64
622.457	39797.96
622.812	40078.86
623.168	40261.23
623.523	40332.64
623.879	40502.58
624.234	40223.49
624.589	40542.8
624.945	40622.12
625.3	40835
625.655	40819.41
626.01	41043.58
626.365	41062.34
626.72	41003.58
627.075	40977.82
627.43	41030.7
627.785	41048.33
628.14	41234.09
628.495	41343.69
628.85	41346.85
629.205	41241.54
629.559	41501.2
629.914	41333.29
630.269	41396.34
630.623	41280.41
630.978	41501.2
631.332	41552.72
631.687	41744.13
632.041	41690.8
632.396	41722.66
632.75	41593.62
633.104	41756.11
633.459	41565.83
633.813	41636.11
634.167	41628.2
634.521	41722.43
634.875	41715.2
635.229	41709.1
635.583	41556.34
635.937	41722.21
636.291	41764.01
636.645	41723.34
636.999	41636.11
637.352	41742.32
637.706	41576.22
638.06	41785.71
638.413	41641.53
638.767	41514.98
639.121	41741.64
639.474	41557.69
639.828	41508.65
640.181	41644.92
640.534	41619.16
640.888	41557.47
641.241	41343.46
641.594	41508.43
641.947	41603.79
642.301	41440.41
642.654	41496.68
643.007	41527.41
643.36	41512.27
643.713	41517.24
644.066	41641.08
644.419	41310.24
644.771	41139.4
645.124	40795.68
645.477	40762.91
645.83	40540.77
646.182	40418.74
646.535	40268.46
646.888	40385.07
647.24	39985.08
647.593	40468.46
647.945	40318.86
648.298	40284.51
648.65	40216.26
649.002	40063.04
649.355	40211.29
649.707	40108.01
650.059	40311.85
650.411	40778.05
650.763	40887.88
651.115	41284.71
651.467	41058.95
651.819	41034.09
652.171	41052.4
652.523	40966.07
652.875	40946.41
653.227	40842.23
653.578	41059.85
653.93	41159.51
654.282	40826.41
654.633	40710.48
654.985	40884.49
655.337	40860.08
655.688	40772.85
656.039	40909.35
656.391	40688.56
656.742	40746.41
657.094	40794.77
657.445	40984.37
657.796	40720.43
658.147	40732.4
658.498	40802.68
658.849	40705.06
659.2	40811.27
659.551	40626.42
659.902	40758.17
660.253	40766.53
660.604	40797.03
660.955	40549.81
661.306	40734.89
661.656	40658.06
662.007	40629.36
662.358	40863.47
662.708	40691.5
663.059	40643.59
663.409	40635.23
663.76	40897.82
664.11	40846.52
664.461	40817.6
664.811	40797.26
665.161	40723.14
665.511	40729.47
665.862	40642.91
666.212	40604.05
666.562	40659.19
666.912	40682.91
667.262	40643.37
667.612	40532.41
667.962	40699.86
668.312	40624.61
668.662	40780.76
669.011	40496.48
669.361	40501.22
669.711	40533.09
670.06	40632.29
670.41	40656.02
670.76	40433.43
671.109	40553.88
671.459	40485.4
671.808	40336.48
672.157	40469.13
672.507	40334.45
672.856	40427.33
673.205	40343.26
673.554	40554.1
673.904	40524.73
674.253	40514.78
674.602	40381.45
674.951	39874.57
675.3	39568.82
675.649	40329.02
675.998	40258.97
676.346	40376.93
676.695	40444.5
677.044	39931.97
677.393	40230.27
677.741	40215.13
678.09	40216.03
678.438	39956.6
678.787	40199.31
679.135	40156.37
679.484	39816.95
679.832	40029.82
680.181	39795.93
680.529	39907.11
680.877	39757.74
681.225	39870.96
681.573	39984.17
681.922	39804.74
682.27	39709.61
682.618	39597.74
682.966	39552.32
683.314	39668.02
683.661	39519.1
684.009	39357.98
684.357	39223.06
684.705	39185.1
685.053	39206.34
685.4	39134.93
685.748	39020.58
686.095	39048.15
686.443	39030.75
686.79	38820.14
687.138	38903.75
687.485	38798.9
687.832	38673.47
688.18	38757.54
688.527	38562.52
688.874	38675.96
689.221	38527.49
689.568	38427.83
689.915	38299.02
690.262	38348.74
690.609	38196.2
690.956	38053.6
691.303	37965.92
691.65	37814.97
691.997	37858.13
692.344	37626.04
692.69	37692.26
693.037	37550.11
693.383	37330.91
693.73	37451.13
694.077	37250.69
694.423	37323
694.769	37200.07
695.116	37178.6
695.462	37074.42
695.808	36964.59
696.155	37043.46
696.501	36749.91
696.847	36772.28
697.193	36488
697.539	36618.16
697.885	36325.51
698.231	36269.47
698.577	36359.64
698.923	36139.98
699.269	36135.69
699.614	36156.93
699.96	35842.14
700.306	35767.34
700.651	35805.75
700.997	35644.18
701.342	35511.07
701.688	35323.96
702.033	35336.61
702.379	35306.33
702.724	35252.1
703.069	35418.19
703.415	34940.92
703.76	34949.05
704.105	35050.75
704.45	34972.33
704.795	34610.08
705.14	34569.63
705.485	34433.59
705.83	34384.32
706.175	34409.86
706.52	34384.77
706.865	34210.09
707.209	34136.64
707.554	33962.41
707.899	34137.77
708.243	33895.52
708.588	33909.08
708.932	33801.06
709.277	33789.76
709.621	33808.07
709.966	33473.39
710.31	33483.78
710.654	33182.55
710.998	33326.27
711.342	33398.59
711.687	33167.4
712.031	33198.36
712.375	32969.44
712.719	33190.23
713.063	33063.45
713.407	33138.7
713.75	32933.96
714.094	32925.15
714.438	32837.24
714.782	32864.81
715.125	32777.13
715.469	32743.91
715.812	32611.71
716.156	32357.93
716.499	32334.43
716.843	32438.38
717.186	32070.26
717.53	32290.14
717.873	32348.44
718.216	32193.87
718.559	32060.77
718.902	31818.97
719.246	31973.54
719.589	31805.63
719.932	31724.05
720.275	31677.05
720.617	31644.05
720.96	31656.26
721.303	31722.92
721.646	31589.59
721.989	31411.07
722.331	31437.28
722.674	31518.41
723.016	31504.85
723.359	31386.66
723.701	31453.33
724.044	31123.16
724.386	30925.43
724.729	31256.72
725.071	30998.42
725.413	31107.8
725.755	31076.39
726.097	30936.28
726.439	30871.65
726.782	30694.02
727.124	30986.45
727.465	30679.33
727.807	30725.89
728.149	30628.49
728.491	30574.48
728.833	30541.26
729.175	30526.34
729.516	30417.42
729.858	30439.79
730.199	30364.09
730.541	30392.11
730.882	30242.74
731.224	30401.38
731.565	30146.24
731.906	30189.18
732.248	30179.91
732.589	30017.21
732.93	29939.24
733.271	29926.36
733.612	30034.61
733.953	29991.22
734.294	29845.46
734.635	29876.19
734.976	29914.38
735.317	29692.02
735.658	29699.02
735.999	29676.88
736.339	29619.25
736.68	29689.53
737.021	29575.86
737.361	29369.31
737.702	29631.68
738.042	29522.3
738.383	29362.76
738.723	29475.07
739.063	29287.73
739.404	29293.38
739.744	29276.43
740.084	29138.36
740.424	29315.3
740.764	29176.1
741.104	29271.24
741.444	29023.78
741.784	28823.11
742.124	29030.79
742.464	28997.57
742.804	28968.87
743.143	28836.22
743.483	28817.46
743.823	28828.54
744.162	28640.52
744.502	28684.13
744.841	28499.5
745.181	28701.53
745.52	28524.59
745.86	28625.83
746.199	28487.98
746.538	28471.03
746.877	28526.4
747.216	28513.74
747.556	28445.49
747.895	28383.12
748.234	28350.36
748.573	28212.51
748.911	28070.59
749.25	28208.44
749.589	28180.42
749.928	28112.17
750.267	28151.27
750.605	28042.34
750.944	28094.77
751.283	27899.52
751.621	28014.55
751.96	27738.85
752.298	27753.31
752.636	27812.97
752.975	27659.75
753.313	27520.77
753.651	27648.23
753.989	27602.58
754.327	27434.22
754.666	27349.25
755.004	27367.11
755.342	27274.68
755.679	27392.42
756.017	27242.36
756.355	27226.54
756.693	27141.35
757.031	27185.19
757.368	27022.48
757.706	26922.37
758.044	26812.54
758.381	27007.79
758.719	26657.75
759.056	26836.05
759.394	26676.05
759.731	26561.25
760.068	26547.92
760.405	26425.89
760.743	26372.33
761.08	26410.75
761.417	26147.25
761.754	26183.86
762.091	26029.74
762.428	26086.46
762.765	25938.22
763.102	25905.9
763.438	25860.03
763.775	25627.94
764.112	25668.17
764.449	25787.94
764.785	25589.07
765.122	25402.86
765.458	25420.04
765.795	25327.38
766.131	25414.16
766.467	25215.52
766.804	25147.73
767.14	24935.98
767.476	25009.2
767.812	24775.53
768.148	24879.71
768.485	24541.87
768.821	24480.4
769.157	24482.44
769.492	24395.21
769.828	24469.1
770.164	24160.86
770.5	24244.25
770.836	24126.29
771.171	24025.72
771.507	23995.22
771.842	23815.56
772.178	23803.58
772.513	23740.76
772.849	23723.59
773.184	23551.84
773.519	23550.93
773.855	23454.44
774.19	23364.05
774.525	23274.33
774.86	23235.24
775.195	23252.41
775.53	23098.74
775.865	22963.83
776.2	22963.83
776.535	22703.95
776.87	22764.74
777.205	22605.42
777.539	22511.64
777.874	22558.87
778.209	22312.32
778.543	22202.27
778.878	22216.73
779.212	22084.08
779.547	21999.56
779.881	22098.32
780.215	21836.4
780.55	21866.46
780.884	21745.33
781.218	21698.1
781.552	21728.84
781.886	21517.09
782.22	21396.41
782.554	21414.49
782.888	21132.24
783.222	21153.48
783.556	21035.07
783.889	20986.71
784.223	20843.89
784.557	20824.23
784.89	20832.14
785.224	20750.78
785.557	20647.73
785.891	20562.31
786.224	20484.35
786.558	20434.18
786.891	20432.6
787.224	20207.29
787.557	20256.56
787.891	20179.5
788.224	20085.26
788.557	20092.95
788.89	20071.93
789.223	20039.16
789.556	19854.53
789.888	19752.39
790.221	19698.15
790.554	19608.67
790.887	19591.49
791.219	19524.83
791.552	19471.04
791.884	19277.83
792.217	19252.29
792.549	19307.88
792.882	19105.18
793.214	19018.17
793.546	19059.08
793.879	18810.49
794.211	18920.1
794.543	18906.54
794.875	18777.73
795.207	18908.8
795.539	18695.47
795.871	18729.37
796.203	18497.06
796.535	18384.06
796.867	18425.87
797.198	18356.49
797.53	18307.91
797.862	18234.46
798.193	18236.27
798.525	18089.61
798.856	18197.63
799.188	17906.34
799.519	17959.67
799.85	17808.71
800.182	17776.17
800.513	17829.5
800.844	17660.24
801.175	17763.06
801.506	17703.4
801.837	17605.1
802.168	17562.17
802.499	17524.43
802.83	17398.33
803.161	17299.8
803.491	17339.57
803.822	17187.26
804.153	17194.72
804.483	17138
804.814	17094.83
805.145	17008.51
805.475	16975.74
805.805	16907.49
806.136	16931.67
806.466	16917.89
806.796	16758.12
807.126	16676.76
807.457	16648.52
807.787	16680.61
808.117	16571.46
808.447	16488.97
808.777	16583.89
809.107	16491.23
809.436	16455.3
809.766	16435.64
810.096	16299.37
810.426	16284.46
810.755	16413.04
811.085	16265.25
811.414	16218.92
811.744	16103.9
812.073	16059.83
812.403	16044.24
812.732	15909.1
813.061	15992.94
813.39	15924.92
813.719	15801.53
814.049	15882.21
814.378	15822.32
814.707	15755.89
815.036	15747.52
815.365	15630.24
815.693	15523.12
816.022	15507.3
816.351	15486.74
816.68	15353.86
817.008	15414.2
817.337	15255.33
817.665	15305.73
817.994	15323.81
818.322	15206.97
818.651	15160.19
818.979	15095.11
819.307	15232.28
819.636	15158.61
819.964	15133.98
820.292	15027.77
820.62	15091.5
820.948	15035
821.276	15030.93
821.604	15073.42
821.932	15038.62
822.259	15031.38
822.587	14931.95
822.915	14948.22
823.243	15035.68
823.57	14898.28
823.898	14938.51
824.225	14945.06
824.553	14898.51
824.88	14903.7
825.207	14946.41
825.535	14919.75
825.862	14875.91
826.189	14831.16
826.516	14932.86
826.843	14996.81
827.17	14899.86
827.497	14944.38
827.824	14940.31
828.151	14922.01
828.478	14909.81
828.805	14962.69
829.131	14889.92
829.458	14887.66
829.785	14735.35
830.111	14875.91
830.438	14959.75
830.764	14905.96
831.09	14859.86
831.417	14924.04
831.743	14859.41
832.069	14934.66
832.395	14768.34
832.722	14885.85
833.048	14721.56
833.374	14716.82
833.7	14649.02
834.026	14749.13
834.351	14809.47
834.677	14722.01
835.003	14807.21
835.329	14668.91
835.654	14666.42
835.98	14570.15
836.306	14712.75
836.631	14576.26
836.956	14716.36
837.282	14650.38
837.607	14472.53
837.932	14542.58
838.258	14478.4
838.583	14453.32
838.908	14348.01
839.233	14515.47
839.558	14317.96
839.883	14303.04
840.208	14388.92
840.533	14325.87
840.858	14360.67
841.182	14283.83
841.507	14337.62
841.832	14244.29
842.156	14165.64
842.481	14221.91
842.805	14137.85
843.13	14076.61
843.454	14025.31
843.778	14016.5
844.103	13974.01
844.427	13983.73
844.751	13943.73
845.075	13947.35
845.399	13907.12
845.723	13814.47
846.047	13831.64
846.371	13737.41
846.695	13672.1
847.019	13498.09
847.343	13455.38
847.666	13410.41
847.99	13436.62
848.313	13377.87
848.637	13338.77
848.96	13284.31
849.284	13254.48
849.607	13163.86
849.931	13091.77
850.254	13020.59
850.577	12944.21
850.9	12826.92
851.223	12832.12
851.546	12886.36
851.869	12754.83
852.192	12798.22
852.515	12653.37
852.838	12697.43
853.161	12698.34
853.483	12540.83
853.806	12523.43
854.129	12480.04
854.451	12417.67
854.774	12409.98
855.096	12384.22
855.419	12335.64
855.741	12268.75
856.063	12235.98
856.385	12221.97
856.708	12148.75
857.03	12169.09
857.352	12081.18
857.674	12027.62
857.996	11982.88
858.318	11909.21
858.64	11932.71
858.961	11927.06
859.283	11926.83
859.605	11756.67
859.926	11861.75
860.248	11784.46
860.57	11758.25
860.891	11757.35
861.212	11628.54
861.534	11643.22
861.855	11621.3
862.176	11689.1
862.498	11619.27
862.819	11655.88
863.14	11497.47
863.461	11521.65
863.782	11434.87
864.103	11511.03
864.424	11407.75
864.745	11436.45
865.065	11358.26
865.386	11303.8
865.707	11274.2
866.027	11300.18
866.348	11267.87
866.668	11309.67
866.989	11293.86
867.309	11287.3
867.63	11227.42
867.95	11213.63
868.27	11120.53
868.59	11200.75
868.91	11138.15
869.23	11062.68
869.55	11092.96
869.87	11149.68
870.19	11106.97
870.51	11135.89
870.83	11125.95
871.15	11022.9
871.469	11013.41
871.789	11045.27
872.109	10980.87
872.428	10860.65
872.748	10924.37
873.067	10864.04
873.386	10991.94
873.706	10948.1
874.025	10820.42
874.344	10790.14
874.663	10862
874.982	10798.05
875.301	10789.24
875.62	10777.94
875.939	10750.82
876.258	10767.99
876.577	10703.14
876.896	10678.28
877.214	10675.34
877.533	10675.79
877.852	10657.04
878.17	10602.12
878.489	10650.93
878.807	10569.81
879.125	10603.93
879.444	10614.33
879.762	10535.91
880.08	10526.42
880.398	10518.73
880.716	10533.2
881.034	10459.98
881.352	10519.19
881.67	10431.96
881.988	10377.27
882.306	10317.38
882.624	10311.06
882.941	10278.74
883.259	10258.63
883.577	10248.01
883.894	10232.64
884.212	10185.41
884.529	10189.25
884.846	10175.47
885.164	10138.41
885.481	10146.09
885.798	10202.58
886.115	10132.53
886.432	10067
886.75	10007.34
887.067	10050.05
887.383	10064.96
887.7	9945.87
888.017	9980.22
888.334	9981.12
888.651	9927.79
888.967	9965.3
889.284	9888.24
889.6	9855.25
889.917	9777.74
890.233	9792.65
890.55	9738.64
890.866	9742.03
891.182	9702.26
891.498	9614.13
891.815	9658.64
892.131	9556.27
892.447	9551.98
892.763	9530.06
893.079	9443.28
893.395	9491.64
893.71	9406.22
894.026	9413.23
894.342	9410.52
894.657	9451.42
894.973	9379.78
895.289	9305.66
895.604	9304.08
895.92	9184.31
896.235	9196.28
896.55	9232.89
896.865	9138.21
897.181	9018.66
897.496	9130.52
897.811	9097.08
898.126	9068.15
898.441	8997.42
898.756	9024.54
899.071	8900.92
899.386	8963.97
899.7	8828.84
900.015	8794.71
900.33	8764.2
900.644	8813.69
900.959	8789.51
901.273	8768.27
901.588	8686.24
901.902	8646.47
902.216	8593.14
902.531	8558.33
902.845	8583.87
903.159	8483.31
903.473	8493.03
903.787	8439.02
904.101	8387.94
904.415	8427.04
904.729	8344.55
905.042	8326.7
905.356	8345.68
905.67	8309.08
905.984	8267.72
906.297	8232.92
906.611	8104.11
906.924	8222.07
907.237	8134.84
907.551	8139.59
907.864	8118.8
908.177	8027.27
908.491	8025.01
908.804	7988.63
909.117	7966.49
909.43	7884.45
909.743	7836.77
910.056	7865.47
910.368	7813.27
910.681	7771.69
910.994	7780.95
911.307	7729.43
911.619	7653.5
911.932	7684.91
912.244	7557.68
912.557	7584.57
912.869	7514.07
913.181	7503.67
913.494	7548.42
913.806	7436.1
914.118	7387.74
914.43	7354.52
914.742	7410.12
915.054	7345.26
915.366	7349.55
915.678	7343.45
915.99	7225.71
916.302	7227.3
916.613	7172.16
916.925	7202.66
917.236	7133.06
917.548	7078.6
917.859	7115.21
918.171	7020.07
918.482	7020.97
918.794	6958.6
919.105	7008.54
919.416	6907.08
919.727	6866.18
920.038	6902.11
920.349	6842.67
920.66	6796.8
920.971	6749.79
921.282	6707.08
921.593	6711.38
921.903	6634.77
922.214	6640.19
922.525	6608.78
922.835	6597.48
923.146	6577.6
923.456	6562.91
923.767	6509.57
924.077	6522.91
924.387	6509.57
924.697	6461.44
925.008	6428.22
925.318	6370.6
925.628	6438.84
925.938	6322.23
926.248	6265.06
926.558	6311.84
926.867	6300.54
927.177	6188.91
927.487	6171.73
927.796	6162.47
928.106	6162.01
928.416	6113.65
928.725	6115.69
929.034	6080.21
929.344	6042.24
929.653	6063.71
929.962	5981.9
930.271	5962.47
930.581	5934
930.89	5905.3
931.199	5880.89
931.508	5883.38
931.817	5853.09
932.125	5865.3
932.434	5795.02
932.743	5766.32
933.051	5707.11
933.36	5695.58
933.669	5698.75
933.977	5741.91
934.286	5656.72
934.594	5662.82
934.902	5602.25
935.21	5616.26
935.519	5604.51
935.827	5520.22
936.135	5477.29
936.443	5450.62
936.751	5487
937.059	5411.52
937.367	5384.63
937.674	5396.61
937.982	5374.92
938.29	5352.09
938.597	5326.55
938.905	5315.26
939.213	5238.42
939.52	5235.94
939.827	5268.48
940.135	5181.7
940.442	5177.41
940.749	5186.22
941.056	5192.55
941.363	5110.06
941.67	5118.42
941.977	5067.58
942.284	5073.23
942.591	5061.25
942.898	4975.83
943.205	4968.15
943.511	4984.42
943.818	4939.67
944.125	4910.07
944.431	4891.09
944.738	4866.23
945.044	4854.93
945.35	4848.15
945.657	4797.53
945.963	4796.85
946.269	4745.78
946.575	4766.12
946.881	4696.97
947.187	4743.97
947.493	4697.64
947.799	4680.02
948.105	4663.75
948.41	4637.53
948.716	4623.3
949.022	4606.57
949.327	4549.17
949.633	4523.19
949.938	4515.28
950.244	4518.67
950.549	4464.43
950.854	4475.96
951.16	4437.99
951.465	4446.58
951.77	4402.51
952.075	4391.21
952.38	4361.83
952.685	4358.9
952.99	4301.95
953.294	4310.54
953.599	4293.59
953.904	4269.63
954.209	4232.35
954.513	4299.24
954.818	4243.65
955.122	4218.56
955.426	4215.17
955.731	4122.97
956.035	4143.31
956.339	4126.59
956.643	4135.4
956.948	4063.31
957.252	4095.63
957.556	4098.79
957.86	4053.82
958.163	4041.16
958.467	4009.08
958.771	3980.15
959.075	3970.21
959.378	3969.75
959.682	3923.2
959.985	3939.92
960.289	3931.79
960.592	3890.21
960.896	3910.77
961.199	3836.88
961.502	3843.2
961.805	3850.44
962.108	3804.56
962.411	3791
962.714	3771.34
963.017	3739.03
963.32	3732.02
963.623	3706.03
963.926	3732.47
964.228	3693.38
964.531	3654.06
964.833	3661.51
965.136	3648.41
965.438	3603.44
965.741	3616.54
966.043	3570.44
966.345	3612.48
966.648	3541.07
966.95	3519.82
967.252	3533.38
967.554	3524.57
967.856	3485.93
968.158	3477.79
968.46	3520.5
968.761	3437.34
969.063	3447.28
969.365	3448.86
969.666	3437.11
969.968	3365.02
970.269	3377.23
970.571	3375.87
970.872	3331.58
971.174	3315.08
971.475	3342.65
971.776	3329.32
972.077	3295.2
972.378	3269.66
972.679	3282.31
972.98	3287.96
973.281	3257.68
973.582	3264.91
973.883	3213.39
974.183	3216.78
974.484	3170.45
974.785	3151.47
975.085	3197.12
975.386	3160.74
975.686	3126.39
975.986	3120.51
976.287	3106.5
976.587	3070.57
976.887	3088.42
977.187	3076.67
977.487	3049.33
977.787	3057.69
978.087	3008.88
978.387	3035.77
978.687	2993.28
978.987	2983.11
979.286	2958.03
979.586	2958.48
979.885	2949.22
980.185	2962.32
980.484	2935.43
980.784	2888.2
981.083	2914.64
981.382	2912.38
981.682	2878.26
981.981	2853.4
982.28	2820.86
982.579	2816.79
982.878	2859.05
983.177	2790.12
983.475	2783.57
983.774	2753.29
984.073	2753.74
984.372	2761.42
984.67	2761.88
984.969	2722.1
985.267	2733.63
985.566	2734.76
985.864	2709
986.162	2673.74
986.461	2629.45
986.759	2675.78
987.057	2667.42
987.355	2649.34
987.653	2632.39
987.951	2618.15
988.249	2568.44
988.547	2591.26
988.844	2576.8
989.142	2579.28
989.44	2556.91
989.737	2524.59
990.035	2539.28
990.332	2516.01
990.63	2487.31
990.927	2461.77
991.224	2472.17
991.521	2465.84
991.819	2471.04
992.116	2419.29
992.413	2412.51
992.71	2415.9
993.006	2414.77
993.303	2417.25
993.6	2374.54
993.897	2381.77
994.193	2396.69
994.49	2346.52
994.787	2361.44
995.083	2313.53
995.379	2274.88
995.676	2336.58
995.972	2291.83
996.268	2285.28
996.565	2262.68
996.861	2271.72
997.157	2253.19
997.453	2235.56
997.749	2233.53
998.044	2222
998.34	2212.06
998.636	2212.29
998.932	2172.51
999.227	2187.88
999.523	2165.28
999.818	2194.43
1000.114	2131.61
1000.409	2128.22
1000.704	2096.81
1001	2099.3
1001.295	2102.01
1001.59	2121.89
1001.885	2088.22
1002.18	2066.75
1002.475	2065.4
1002.77	2047.77
1003.065	2014.55
1003.359	2023.59
1003.654	2033.76
1003.949	2006.64
1004.243	1975.68
1004.538	1958.73
1004.832	1984.04
1005.127	1954.21
1005.421	1964.84
1005.715	1951.28
1006.009	1926.64
1006.304	1935.01
1006.598	1913.31
1006.892	1903.14
1007.186	1900.43
1007.48	1855.46
1007.773	1848.45
1008.067	1874.44
1008.361	1813.43
1008.655	1827.21
1008.948	1836.7
1009.242	1809.81
1009.535	1809.81
1009.829	1798.96
1010.122	1767.1
1010.415	1764.16
1010.708	1754.9
1011.001	1745.86
1011.295	1746.31
1011.588	1706.76
1011.881	1704.5
1012.173	1694.11
1012.466	1701.57
1012.759	1672.64
1013.052	1679.87
1013.344	1653.66
1013.637	1664.73
1013.93	1655.46
1014.222	1624.28
1014.514	1630.83
1014.807	1645.52
1015.099	1620.66
1015.391	1592.42
1015.683	1569.59
1015.976	1603.26
1016.268	1550.83
1016.56	1563.04
1016.851	1572.3
1017.143	1549.03
1017.435	1520.78
1017.727	1522.36
1018.018	1524.17
1018.31	1495.24
1018.602	1530.95
1018.893	1474
1019.185	1467.22
1019.476	1475.81
1019.767	1454.79
1020.058	1466.77
1020.35	1430.39
1020.641	1433.1
1020.932	1393.78
1021.223	1426.32
1021.514	1434
1021.804	1405.08
1022.095	1386.09
1022.386	1395.36
1022.677	1372.99
1022.967	1350.61
1023.258	1355.59
1023.548	1349.48
1023.839	1325.76
1024.129	1317.17
1024.419	1316.49
1024.709	1289.6
1025	1324.63
1025.29	1264.97
1025.58	1290.73
1025.87	1253.67
1026.16	1276.49
1026.449	1281.69
1026.739	1240.79
1027.029	1244.63
1027.319	1251.18
1027.608	1207.57
1027.898	1214.35
1028.187	1218.41
1028.477	1206.66
1028.766	1176.16
1029.055	1180.9
1029.344	1182.03
1029.634	1177.29
1029.923	1167.79
1030.212	1132.09
1030.501	1148.36
1030.79	1156.5
1031.078	1128.47
1031.367	1124.18
1031.656	1111.75
1031.945	1094.8
1032.233	1089.6
1032.522	1101.58
1032.81	1100
1033.099	1079.89
1033.387	1097.51
1033.675	1086.67
1033.963	1077.18
1034.251	1087.8
1034.54	1047.8
1034.828	1049.83
1035.116	1031.53
1035.403	1052.54
1035.691	1043.73
1035.979	1019.78
1036.267	1028.59
1036.554	999.89
1036.842	987.91
1037.129	970.74
1037.417	973.9
1037.704	1000.34
1037.992	965.31
1038.279	987.23
1038.566	955.14
1038.853	955.14
1039.14	955.14
