Data from hue_290_FLMS001491_00053.txt Node
Date: Tue Feb 07 15:52:55 GMT 2017
User: dcchb
Spectrometer: FLMS00149
Trigger mode: 0
Integration Time (sec): 2.000000E-2
Scans to average: 10
Electric dark correction enabled: true
Nonlinearity correction enabled: false
Boxcar width: 0
XAxis mode: Wavelengths
Number of Pixels in Spectrum: 2048
>>>>>Begin Spectral Data<<<<<
341.393	-2.98
341.776	-2.98
342.16	-2.98
342.543	-45.69
342.927	-68.06
343.31	-52.92
343.693	-93.37
344.077	-68.74
344.46	-18.8
344.843	-55.86
345.226	-44.33
345.61	-34.62
345.993	-23.77
346.376	-17.67
346.759	5.83
347.142	34.08
347.525	44.93
347.908	41.31
348.291	80.41
348.674	91.25
349.057	112.27
349.44	125.83
349.823	149.56
350.206	149.33
350.588	176.45
350.971	193.62
351.354	208.31
351.737	248.76
352.119	255.09
352.502	263.23
352.884	263.68
353.267	271.59
353.65	281.53
354.032	278.37
354.414	294.64
354.797	288.76
355.179	311.59
355.562	329.89
355.944	330.57
356.326	305.71
356.709	322.89
357.091	329.21
357.473	339.38
357.855	343.68
358.238	336.67
358.62	339.84
359.002	325.37
359.384	340.51
359.766	334.64
360.148	349.33
360.53	335.77
360.912	355.43
361.294	312.27
361.676	330.12
362.057	338.71
362.439	324.24
362.821	315.88
363.203	340.74
363.584	303.45
363.966	321.76
364.348	307.07
364.729	337.12
365.111	321.08
365.493	323.11
365.874	298.93
366.256	306.39
366.637	313.4
367.019	288.76
367.4	312.04
367.781	322.89
368.163	303
368.544	309.55
368.925	312.04
369.306	305.03
369.688	294.64
370.069	288.99
370.45	295.09
370.831	291.25
371.212	306.16
371.593	311.59
371.974	295.54
372.355	308.65
372.736	307.52
373.117	299.84
373.498	327.86
373.879	318.37
374.26	314.3
374.641	309.78
375.021	293.96
375.402	321.98
375.783	339.16
376.163	311.81
376.544	333.73
376.925	309.33
377.305	332.6
377.686	319.27
378.066	328.08
378.447	321.76
378.827	308.65
379.208	309.78
379.588	323.56
379.968	325.6
380.349	334.19
380.729	315.2
381.109	333.96
381.489	347.29
381.87	312.94
382.25	331.7
382.63	333.06
383.01	329.89
383.39	344.81
383.77	333.96
384.15	337.12
384.53	343.68
384.91	351.59
385.29	345.71
385.67	346.62
386.049	346.62
386.429	365.82
386.809	338.93
387.189	336.45
387.568	327.86
387.948	362.43
388.328	347.29
388.707	338.93
389.087	352.72
389.466	361.76
389.846	370.12
390.225	361.98
390.605	363.34
390.984	352.72
391.363	368.08
391.743	376.44
392.122	377.35
392.501	364.24
392.881	368.54
393.26	369.21
393.639	370.57
394.018	363.56
394.397	397.69
394.776	389.33
395.155	385.03
395.534	382.55
395.913	372.38
396.292	388.65
396.671	375.54
397.05	387.97
397.429	399.72
397.808	391.36
398.186	393.62
398.565	403.79
398.944	412.83
399.323	391.59
399.701	406.5
400.08	400.4
400.458	411.92
400.837	405.14
401.215	396.56
401.594	427.07
401.972	422.55
402.351	412.15
402.729	414.86
403.107	420.51
403.486	438.14
403.864	412.83
404.242	425.48
404.62	434.3
404.999	454.86
405.377	447.63
405.755	449.44
406.133	437.01
406.511	435.43
406.889	448.76
407.267	452.15
407.645	467.52
408.023	472.26
408.401	492.83
408.779	490.34
409.156	479.49
409.534	498.7
409.912	509.55
410.29	495.09
410.667	533.95
411.045	518.81
411.422	542.09
411.8	524.46
412.178	521.3
412.555	541.86
412.933	538.93
413.31	556.33
413.687	549.55
414.065	591.81
414.442	580.06
414.819	579.83
415.197	584.12
415.574	610.79
415.951	599.26
416.328	597.91
416.705	623.67
417.082	638.36
417.46	636.33
417.837	639.94
418.214	665.93
418.591	657.79
418.967	671.13
419.344	646.04
419.721	677
420.098	706.83
420.475	717
420.852	695.31
421.228	691.92
421.605	729.66
421.982	749.77
422.358	745.7
422.735	735.53
423.111	758.81
423.488	781.86
423.864	794.51
424.241	783.67
424.617	778.47
424.994	806.94
425.37	820.05
425.746	815.76
426.123	835.64
426.499	826.6
426.875	836.32
427.251	849.2
427.627	869.09
428.003	861.63
428.379	888.52
428.756	911.12
429.132	887.84
429.507	893.49
429.883	942.76
430.259	953.83
430.635	942.76
431.011	950.44
431.387	985.24
431.763	992.93
432.138	1008.52
432.514	1025.47
432.89	1026.15
433.265	1052.36
433.641	1062.3
434.016	1081.29
434.392	1086.71
434.767	1065.92
435.143	1098.91
435.518	1096.88
435.894	1152.02
436.269	1149.76
436.644	1135.75
437.02	1148.4
437.395	1159.25
437.77	1146.14
438.145	1193.6
438.52	1203.54
438.895	1232.92
439.271	1258.23
439.646	1242.18
440.021	1260.94
440.395	1288.74
440.77	1265.46
441.145	1283.31
441.52	1285.8
441.895	1298.23
442.27	1333.26
442.645	1306.59
443.019	1345.91
443.394	1349.53
443.769	1335.74
444.143	1347.04
444.518	1378.23
444.892	1360.83
445.267	1352.69
445.641	1387.04
446.016	1386.59
446.39	1379.36
446.764	1395.63
447.139	1358.11
447.513	1385.23
447.887	1393.14
448.262	1439.02
448.636	1430.65
449.01	1426.13
449.384	1449.64
449.758	1441.95
450.132	1436.98
450.506	1439.69
450.88	1490.54
451.254	1451.9
451.628	1508.17
452.002	1500.26
452.376	1523.76
452.75	1515.62
453.123	1528.73
453.497	1548.17
453.871	1542.74
454.244	1571.44
454.618	1589.52
454.992	1574.15
455.365	1608.05
455.739	1641.5
456.112	1629.97
456.486	1637.43
456.859	1638.56
457.232	1642.85
457.606	1676.98
457.979	1674.49
458.352	1731.89
458.725	1715.17
459.099	1711.33
459.472	1750.42
459.845	1749.74
460.218	1769.63
460.591	1799.68
460.964	1787.71
461.337	1795.16
461.71	1831.32
462.083	1845.33
462.456	1850.08
462.829	1856.86
463.201	1865.9
463.574	1894.15
463.947	1910.42
464.32	1921.04
464.692	1945.67
465.065	1959.91
465.438	1964.88
465.81	1977.08
466.183	1971.66
466.555	2033.35
466.928	2065.21
467.3	2086.91
467.672	2088.49
468.045	2128.04
468.417	2118.32
468.789	2107.47
469.161	2149.05
469.534	2182.73
469.906	2201.48
470.278	2210.75
470.65	2256.4
471.022	2273.12
471.394	2296.17
471.766	2286.68
472.138	2302.5
472.51	2334.81
472.882	2367.35
473.253	2413.68
473.625	2422.94
473.997	2472.89
474.369	2460.46
474.74	2483.73
475.112	2519.21
475.484	2510.17
475.855	2614.13
476.227	2601.47
476.598	2636.5
476.97	2687.8
477.341	2668.59
477.713	2732.77
478.084	2730.28
478.455	2803.73
478.827	2818.41
479.198	2896.38
479.569	2895.7
479.94	2944.51
480.311	2963.95
480.682	3021.57
481.053	3051.4
481.424	3122.59
481.795	3111.74
482.166	3127.78
482.537	3149.93
482.908	3234.45
483.279	3236.26
483.65	3286.2
484.021	3314.45
484.391	3339.53
484.762	3370.04
485.133	3371.17
485.503	3403.03
485.874	3463.37
486.244	3554.21
486.615	3548.34
486.985	3584.72
487.356	3615.91
487.726	3626.3
488.097	3727.32
488.467	3752.4
488.837	3770.48
489.207	3813.87
489.578	3850.25
489.948	3858.61
490.318	3922.57
490.688	3892.96
491.058	3987.88
491.428	3981.77
491.798	4013.64
492.168	4098.38
492.538	4075.1
492.908	4114.88
493.278	4160.98
493.648	4148.32
494.017	4220.19
494.387	4236.23
494.757	4278.94
495.126	4273.52
495.496	4310.13
495.866	4350.35
496.235	4374.31
496.605	4365.94
496.974	4407.98
497.344	4410.01
497.713	4375.21
498.082	4437.81
498.452	4498.14
498.821	4512.16
499.19	4520.97
499.559	4506.05
499.928	4569.78
500.298	4595.77
500.667	4603
501.036	4647.52
501.405	4664.47
501.774	4620.4
502.143	4711.25
502.512	4686.61
502.88	4747.86
503.249	4722.55
503.618	4772.04
503.987	4770.45
504.356	4766.39
504.724	4806.38
505.093	4821.3
505.462	4837.8
505.83	4832.15
506.199	4859.49
506.567	4897
506.936	4901.07
507.304	4974.29
507.672	4980.84
508.041	4989.43
508.409	5008.87
508.777	5067.17
509.145	5073.27
509.514	5032.59
509.882	5050.9
510.25	5071.91
510.618	5127.05
510.986	5108.52
511.354	5120.73
511.722	5157.34
512.09	5209.76
512.458	5129.77
512.826	5200.27
513.193	5210.44
513.561	5188.97
513.929	5254.96
514.297	5256.99
514.664	5284.79
515.032	5331.12
515.4	5344.45
515.767	5303.1
516.135	5339.7
516.502	5324.79
516.869	5406.82
517.237	5365.92
517.604	5363.21
517.972	5434.84
518.339	5405.92
518.706	5398.69
519.073	5466.71
519.44	5458.8
519.808	5522.98
520.175	5456.99
520.542	5578.12
520.909	5571.79
521.276	5531.79
521.643	5548.74
522.009	5605.69
522.376	5680.71
522.743	5666.25
523.11	5665.57
523.477	5732.46
523.843	5722.07
524.21	5761.61
524.577	5803.42
524.943	5840.93
525.31	5810.88
525.676	5872.8
526.043	5846.58
526.409	5892.01
526.776	5980.59
527.142	5994.6
527.508	6000.7
527.874	6027.37
528.241	6065.56
528.607	6047.71
528.973	6037.76
529.339	6083.19
529.705	6154.37
530.071	6196.86
530.437	6155.05
530.803	6236.18
531.169	6267.59
531.535	6247.25
531.901	6261.26
532.267	6303.29
532.632	6267.36
532.998	6341.49
533.364	6411.99
533.73	6368.83
534.095	6352.56
534.461	6393.24
534.826	6434.36
535.192	6429.39
535.557	6501.26
535.923	6475.04
536.288	6555.72
536.653	6524.08
537.019	6541.71
537.384	6566.56
537.749	6554.36
538.114	6579.22
538.479	6598.2
538.845	6655.15
539.21	6595.26
539.575	6626.68
539.94	6670.74
540.305	6748.71
540.67	6719.1
541.034	6802.72
541.399	6761.14
541.764	6784.64
542.129	6761.14
542.494	6806.78
542.858	6843.17
543.223	6863.96
543.587	6802.49
543.952	6861.7
544.316	6923.84
544.681	6946.89
545.045	6926.1
545.41	6997.74
545.774	7003.62
546.138	7016.27
546.503	7016.72
546.867	6992.32
547.231	7080.68
547.595	7023.95
547.959	7100.56
548.324	7094.23
548.688	7146.66
549.052	7089.04
549.416	7114.57
549.779	7168.13
550.143	7164.06
550.507	7214.23
550.871	7231.18
551.235	7242.93
551.599	7242.93
551.962	7297.39
552.326	7331.06
552.689	7360.89
553.053	7284.06
553.417	7331.97
553.78	7432.3
554.143	7393.89
554.507	7333.1
554.87	7390.05
555.234	7463.49
555.597	7467.33
555.96	7458.52
556.323	7503.49
556.686	7476.15
557.05	7548.46
557.413	7567.67
557.776	7561.11
558.139	7604.73
558.502	7589.59
558.865	7566.09
559.228	7695.8
559.59	7711.62
559.953	7674.56
560.316	7772.86
560.679	7719.53
561.041	7731.05
561.404	7771.96
561.767	7874.1
562.129	7816.7
562.492	7867.1
562.854	7882.01
563.217	7905.29
563.579	7798.17
563.941	7922.24
564.304	7974.66
564.666	7973.31
565.028	7967.66
565.39	8051.27
565.753	8104.15
566.115	8057.82
566.477	8157.71
566.839	8071.61
567.201	8163.13
567.563	8181.44
567.925	8172.85
568.287	8277.48
568.648	8268.44
569.01	8288.1
569.372	8340.53
569.734	8322.9
570.095	8374.2
570.457	8451.49
570.819	8405.39
571.18	8438.15
571.542	8500.75
571.903	8546.17
572.265	8503.91
572.626	8590.69
572.987	8637.24
573.349	8687.86
573.71	8692.38
574.071	8741.2
574.432	8837.92
574.794	8838.14
575.155	8891.48
575.516	8884.02
575.877	9018.03
576.238	8971.93
576.599	9036.78
576.96	9073.17
577.32	9124.46
577.681	9186.38
578.042	9220.73
578.403	9330.56
578.763	9370.33
579.124	9364.91
579.485	9496.66
579.845	9544.34
580.206	9631.57
580.566	9752.47
580.927	9764.9
581.287	9851.9
581.648	9911.56
582.008	10018.68
582.368	10077.88
582.728	10188.84
583.089	10276.98
583.449	10336.41
583.809	10457.54
584.169	10509.51
584.529	10575.05
584.889	10830.86
585.249	10747.47
585.609	10903.17
585.969	11037.63
586.329	11165.31
586.688	11338.42
587.048	11422.48
587.408	11476.49
587.768	11655.7
588.127	11762.36
588.487	11799.87
588.846	12107.21
589.206	12151.73
589.565	12244.16
589.925	12398.5
590.284	12521.21
590.643	12639.4
591.003	12847.3
591.362	13015.66
591.721	13090.01
592.08	13190.8
592.44	13435.54
592.799	13563.89
593.158	13678.92
593.517	13790.78
593.876	13986.26
594.235	14074.39
594.593	14213.37
594.952	14343.31
595.311	14459.46
595.67	14555.96
596.029	14776.07
596.387	14950.75
596.746	15064.42
597.104	15160.01
597.463	15202.72
597.822	15414.92
598.18	15492.66
598.538	15641.35
598.897	15851.29
599.255	15910.95
599.613	16169.93
599.972	16272.07
600.33	16307.33
600.688	16381.22
601.046	16510.71
601.404	16717.71
601.762	16844.94
602.12	17034.54
602.478	17167.87
602.836	17304.81
603.194	17149.79
603.552	17333.29
603.91	17369.67
604.268	17619.38
604.625	17559.72
604.983	17672.94
605.341	17854.63
605.698	18019.14
606.056	18046.94
606.413	18078.35
606.771	18305.69
607.128	18288.06
607.485	18320.15
607.843	18461.85
608.2	18567.61
608.557	18829.52
608.914	18697.32
609.272	18853.25
609.629	18959.91
609.986	19094.14
610.343	18996.52
610.7	19172.11
611.057	19208.94
611.414	19283.97
611.771	19411.65
612.127	19519.9
612.484	19537.52
612.841	19652.77
613.198	19658.88
613.554	19733.45
613.911	19908.36
614.267	19902.26
614.624	19980
614.98	19982.94
615.337	20116.94
615.693	20166.88
616.05	20213.89
616.406	20354.22
616.762	20323.04
617.118	20462.7
617.475	20445.75
617.831	20465.86
618.187	20514.67
618.543	20538.85
618.899	20723.93
619.255	20669.7
619.611	20743.82
619.967	20804.83
620.323	20948.11
620.678	20819.98
621.034	20832.63
621.39	20893.65
621.746	20903.59
622.101	21226.29
622.457	21040.99
622.812	21063.81
623.168	21264.03
623.523	21229.91
623.879	21343.13
624.234	21177.25
624.589	21239.85
624.945	21303.58
625.3	21343.8
625.655	21358.04
626.01	21280.75
626.365	21363.92
626.72	21426.29
627.075	21448.43
627.43	21504.25
627.785	21384.71
628.14	21388.32
628.495	21471.71
628.85	21407.08
629.205	21447.3
629.559	21563.68
629.914	21396.01
630.269	21521.65
630.623	21370.47
630.978	21451.37
631.332	21493.63
631.687	21622.44
632.041	21489.11
632.396	21467.87
632.75	21398.49
633.104	21412.5
633.459	21329.34
633.813	21316.69
634.167	21404.37
634.521	21375.21
634.875	21341.32
635.229	21400.75
635.583	21259.06
635.937	21203.92
636.291	21310.58
636.645	21245.73
636.999	21289.12
637.352	21197.82
637.706	21233.52
638.06	21201.89
638.413	21171.6
638.767	21155.33
639.121	21273.07
639.474	21093.87
639.828	21200.53
640.181	21103.58
640.534	21123.7
640.888	21051.83
641.241	21006.18
641.594	21048.9
641.947	21024.49
642.301	21092.06
642.654	21169.8
643.007	21135.67
643.36	20996.02
643.713	21068.78
644.066	21146.75
644.419	21033.75
644.771	20923.02
645.124	20718.73
645.477	20649.81
645.83	20583.37
646.182	20502.02
646.535	20486.2
646.888	20528.91
647.24	20411.62
647.593	20459.08
647.945	20473.54
648.298	20511.96
648.65	20429.7
649.002	20403.71
649.355	20455.69
649.707	20478.29
650.059	20559.87
650.411	20737.27
650.763	20757.38
651.115	20993.08
651.467	20974.55
651.819	20937.49
652.171	20921.67
652.523	20884.61
652.875	20864.49
653.227	20908.11
653.578	20983.59
653.93	20915.34
654.282	20869.92
654.633	20831.27
654.985	20834.21
655.337	20949.46
655.688	20936.13
656.039	20960.31
656.391	20793.54
656.742	20926.64
657.094	20934.77
657.445	20984.49
657.796	20932.06
658.147	20883.93
658.498	21035.56
658.849	20983.59
659.2	21002.8
659.551	20912.63
659.902	21033.53
660.253	20878.05
660.604	20911.27
660.955	20874.89
661.306	20998.28
661.656	20976.36
662.007	20919.41
662.358	21010.93
662.708	20951.95
663.059	20975.68
663.409	20760.54
663.76	21051.61
664.11	21050.7
664.461	21008.67
664.811	21111.04
665.161	21065.39
665.511	20926.87
665.862	21032.4
666.212	21094.54
666.562	21037.14
666.912	20960.76
667.262	20993.3
667.612	20943.81
667.962	21043.02
668.312	20906.53
668.662	21043.92
669.011	20914.21
669.361	21045.28
669.711	20944.72
670.06	20961.21
670.41	20916.02
670.76	20862.46
671.109	20884.83
671.459	20942.91
671.808	20927.77
672.157	20920.09
672.507	20774.33
672.856	20848.9
673.205	20885.28
673.554	20906.98
673.904	20810.03
674.253	20990.59
674.602	20937.94
674.951	20596.93
675.3	20411.85
675.649	20816.13
675.998	20745.17
676.346	20775.23
676.695	20811.16
677.044	20711.73
677.393	20734.55
677.741	20786.3
678.09	20681
678.438	20558.97
678.787	20649.36
679.135	20599.87
679.484	20528.46
679.832	20627.66
680.181	20431.96
680.529	20570.49
680.877	20516.03
681.225	20369.82
681.573	20473.09
681.922	20418.86
682.27	20250.95
682.618	20253.66
682.966	20209.82
683.314	20274.9
683.661	20290.05
684.009	20032.43
684.357	20183.83
684.705	20077.17
685.053	20014.8
685.4	20019.32
685.748	19941.58
686.095	19814.35
686.443	19803.73
686.79	19797.18
687.138	19862.26
687.485	19903.62
687.832	19664.3
688.18	19715.6
688.527	19592.21
688.874	19552.66
689.221	19566.22
689.568	19510.41
689.915	19406.9
690.262	19378.21
690.609	19433.34
690.956	19266.34
691.303	19267.02
691.65	19192.45
691.997	19242.62
692.344	18975.28
692.69	18974.83
693.037	19057.08
693.383	18904.32
693.73	18961.49
694.077	18845.56
694.423	18731.89
694.769	18798.11
695.116	18697.77
695.462	18629.07
695.808	18658.68
696.155	18659.81
696.501	18413.03
696.847	18365.35
697.193	18424.78
697.539	18400.15
697.885	18192.02
698.231	18112.7
698.577	18087.62
698.923	18169.88
699.269	17992.25
699.614	17841.52
699.96	17885.36
700.306	17876.78
700.651	17754.75
700.997	17746.84
701.342	17627.29
701.688	17712.49
702.033	17535.99
702.379	17521.08
702.724	17497.35
703.069	17484.02
703.415	17258.49
703.76	17317.47
704.105	17250.13
704.45	17152.5
704.795	17087.42
705.14	17042.45
705.485	16921.32
705.83	16952.96
706.175	16955.22
706.52	16861.44
706.865	16949.34
707.209	16803.81
707.554	16815.56
707.899	16710.7
708.243	16691.04
708.588	16656.92
708.932	16602.46
709.277	16515
709.621	16621.67
709.966	16364.73
710.31	16408.11
710.654	16218.29
710.998	16231.4
711.342	16319.08
711.687	16235.24
712.031	16152.53
712.375	16178.52
712.719	16266.42
713.063	16066.65
713.407	16068.91
713.75	15964.74
714.094	15999.76
714.438	15923.61
714.782	15985.07
715.125	15879.09
715.469	15865.3
715.812	15752.54
716.156	15719.32
716.499	15766.55
716.843	15697.85
717.186	15639.77
717.53	15721.13
717.873	15668.47
718.216	15683.84
718.559	15649.72
718.902	15475.26
719.246	15486.33
719.589	15529.27
719.932	15384.86
720.275	15427.8
720.617	15457.18
720.96	15397.29
721.303	15419.44
721.646	15527.68
721.989	15382.83
722.331	15415.15
722.674	15341.93
723.016	15363.62
723.359	15289.73
723.701	15309.61
724.044	15209.73
724.386	15181.93
724.729	15196.85
725.071	15287.92
725.413	15118.66
725.755	15159.11
726.097	15154.81
726.439	15034.82
726.782	15128.6
727.124	15131.99
727.465	15046.79
727.807	15059.22
728.149	15033.91
728.491	15055.61
728.833	15080.47
729.175	14943.29
729.516	14944.65
729.858	15057.41
730.199	14953.24
730.541	15033.46
730.882	14969.28
731.224	14907.81
731.565	14809.29
731.906	14868.95
732.248	14929.96
732.589	14867.36
732.93	14801.38
733.271	14927.25
733.612	14888.38
733.953	14926.34
734.294	14865.78
734.635	14753.69
734.976	14853.58
735.317	14758.67
735.658	14829.4
735.999	14765.9
736.339	14802.28
736.68	14771.32
737.021	14807.48
737.361	14829.4
737.702	14893.58
738.042	14844.54
738.383	14860.13
738.723	14827.36
739.063	14817.65
739.404	14881.37
739.744	14904.88
740.084	14732.45
740.424	14879.79
740.764	14890.41
741.104	14915.05
741.444	14811.55
741.784	14766.58
742.124	14808.61
742.464	14871.43
742.804	14921.15
743.143	14830.98
743.483	14966.8
743.823	14946.68
744.162	14942.16
744.502	14916.18
744.841	14889.51
745.181	15029.84
745.52	15083.4
745.86	15110.97
746.199	15071.88
746.538	15175.38
746.877	15286.79
747.216	15272.1
747.556	15275.71
747.895	15292.44
748.234	15370.85
748.573	15396.16
748.911	15482.49
749.25	15549.83
749.589	15542.37
749.928	15636.38
750.267	15666.89
750.605	15680.68
750.944	15746.89
751.283	15844.29
751.621	15967.9
751.96	16011.29
752.298	16162.47
752.636	16179.42
752.975	16208.8
753.313	16223.26
753.651	16385.97
753.989	16460.77
754.327	16606.07
754.666	16551.39
755.004	16683.81
755.342	16908.67
755.679	16956.57
756.017	16990.92
756.355	17193.4
756.693	17205.38
757.031	17291.48
757.368	17367.86
757.706	17533.06
758.044	17550.23
758.381	17686.95
758.719	17709.1
759.056	17922.42
759.394	17964.68
759.731	18050.56
760.068	18106.15
760.405	18154.51
760.743	18330.55
761.08	18507.49
761.417	18440.38
761.754	18675.17
762.091	18772.8
762.428	18715.17
762.765	18759.92
763.102	18942.06
763.438	19032
763.775	18975.73
764.112	19205.1
764.449	19357.19
764.785	19330.97
765.122	19351.31
765.458	19334.82
765.795	19424.08
766.131	19429.73
766.467	19570.74
766.804	19606.45
767.14	19502.5
767.476	19719.89
767.812	19724.18
768.148	19744.75
768.485	19789.72
768.821	19809.38
769.157	19772.32
769.492	19855.71
769.828	19925.31
770.164	19746.56
770.5	19872.2
770.836	19928.93
771.171	19899.77
771.507	19960.56
771.842	19871.3
772.178	19914.01
772.513	19876.27
772.849	19933.22
773.184	19829.94
773.519	19945.42
773.855	20007.57
774.19	19910.17
774.525	19875.14
774.86	19909.94
775.195	19900.23
775.53	19910.85
775.865	19803.05
776.2	19734.81
776.535	19640.57
776.87	19710.63
777.205	19667.46
777.539	19564.19
777.874	19706.78
778.209	19626.11
778.543	19570.06
778.878	19475.83
779.212	19521.03
779.547	19475.83
779.881	19534.13
780.215	19351.77
780.55	19438.54
780.884	19298.89
781.218	19354.7
781.552	19246.23
781.886	19195.61
782.22	19104.99
782.554	19116.29
782.888	19027.25
783.222	18933.02
783.556	18797.2
783.889	18889.4
784.223	18830.42
784.557	18792.68
784.89	18803.08
785.224	18700.71
785.557	18637.43
785.891	18663.87
786.224	18561.73
786.558	18436.31
786.891	18351.79
787.224	18328.06
787.557	18286.26
787.891	18333.71
788.224	18297.1
788.557	18265.01
788.89	18171.46
789.223	18172.36
789.556	18034.96
789.888	18053.95
790.221	17961.75
790.554	17912.03
790.887	17832.26
791.219	17818.7
791.552	17756.33
791.884	17694.86
792.217	17729.21
792.549	17577.8
792.882	17410.8
793.214	17399.73
793.546	17500.74
793.879	17410.12
794.211	17244.93
794.543	17311.14
794.875	17317.47
795.207	17335.1
795.539	17231.37
795.871	17214.87
796.203	17041.77
796.535	17050.81
796.867	16907.99
797.198	16879.06
797.53	16889.46
797.862	16723.13
798.193	16855.33
798.525	16672.29
798.856	16770.82
799.188	16557.26
799.519	16533.76
799.85	16424.84
800.182	16485.17
800.513	16386.42
800.844	16306.2
801.175	16376.25
801.506	16250.15
801.837	16141.68
802.168	16202.02
802.499	16169.7
802.83	16110.04
803.161	16025.3
803.491	16007.22
803.822	16043.6
804.153	15918.64
804.483	15770.84
804.814	15817.39
805.145	15775.81
805.475	15795.02
805.805	15696.95
806.136	15668.47
806.466	15710.5
806.796	15640.45
807.126	15509.83
807.457	15542.83
807.787	15517.29
808.117	15464.64
808.447	15380.34
808.777	15417.63
809.107	15290.4
809.436	15296.96
809.766	15204.53
810.096	15224.42
810.426	15166.56
810.755	15058.32
811.085	15031.88
811.414	15222.61
811.744	14968.6
812.073	14994.14
812.403	14933.8
812.732	14894.26
813.061	14896.97
813.39	14764.54
813.719	14756.63
814.049	14901.26
814.378	14746.69
814.707	14757.54
815.036	14744.2
815.365	14638.22
815.693	14443.65
816.022	14468.96
816.351	14498.79
816.68	14328.39
817.008	14422.4
817.337	14343.54
817.665	14243.88
817.994	14327.94
818.322	14291.11
818.651	14216.98
818.979	14172.01
819.307	14267.38
819.636	14224.67
819.964	14125.01
820.292	14206.14
820.62	14124.11
820.948	14152.58
821.276	14139.47
821.604	14128.63
821.932	14096.76
822.259	14180.6
822.587	14095.41
822.915	13975.86
823.243	14033.03
823.57	14083.43
823.898	14032.13
824.225	13978.35
824.553	14043.66
824.88	14085.01
825.207	14058.35
825.535	14090.43
825.862	14014.28
826.189	14044.79
826.516	14051.34
826.843	14076.42
827.17	14026.71
827.497	14076.2
827.824	14093.37
828.151	14060.6
828.478	14063.99
828.805	14116.65
829.131	14025.58
829.458	14005.47
829.785	13968.63
830.111	13968.18
830.438	13999.82
830.764	14031.91
831.09	14038.68
831.417	14019.93
831.743	13985.58
832.069	13958.91
832.395	13992.36
832.722	13992.58
833.048	13876.43
833.374	13938.57
833.7	13819.48
834.026	13938.35
834.351	13845.92
834.677	13852.25
835.003	13863.32
835.329	13863.55
835.654	13859.48
835.98	13675.76
836.306	13776.54
836.631	13700.16
836.956	13762.99
837.282	13738.81
837.607	13674.4
837.932	13655.19
838.258	13625.81
838.583	13606.61
838.908	13588.98
839.233	13541.97
839.558	13539.04
839.883	13532.94
840.208	13500.85
840.533	13514.63
840.858	13525.93
841.182	13397.12
841.507	13423.33
841.832	13375.2
842.156	13361.41
842.481	13364.58
842.805	13263.34
843.13	13276.9
843.454	13283.9
843.778	13220.17
844.103	13235.32
844.427	13112.16
844.751	13102.89
845.075	13116.67
845.399	13068.09
845.723	12993.06
846.047	12946.28
846.371	12897.92
846.695	13024.93
847.019	12770.7
847.343	12731.37
847.666	12674.43
847.99	12694.99
848.313	12665.16
848.637	12640.53
848.96	12530.93
849.284	12490.02
849.607	12416.35
849.931	12385.39
850.254	12342.23
850.577	12217.72
850.9	12163.48
851.223	12121.67
851.546	12105.85
851.869	12121.9
852.192	12080.32
852.515	11929.36
852.838	11916.03
853.161	11902.02
853.483	11851.17
853.806	11796.48
854.129	11711.97
854.451	11727.33
854.774	11686.66
855.096	11706.54
855.419	11613.89
855.741	11589.26
856.063	11529.6
856.385	11514.91
856.708	11461.35
857.03	11423.84
857.352	11367.79
857.674	11367.57
857.996	11375.93
858.318	11308.13
858.64	11292.09
858.961	11234.01
859.283	11182.26
859.605	11128.03
859.926	11132.55
860.248	11118.08
860.57	11088.03
860.891	11082.38
861.212	11052.1
861.534	11026.11
861.855	10974.13
862.176	10983.17
862.498	10991.31
862.819	10908.82
863.14	10902.5
863.461	10932.1
863.782	10847.13
864.103	10853.01
864.424	10763.29
864.745	10797.19
865.065	10707.47
865.386	10689.39
865.707	10738.66
866.027	10694.82
866.348	10681.94
866.668	10726.91
866.989	10676.97
867.309	10656.4
867.63	10639.45
867.95	10589.06
868.27	10504.99
868.59	10570.98
868.91	10487.14
869.23	10486.24
869.55	10485.56
869.87	10542.28
870.19	10500.25
870.51	10473.81
870.83	10493.92
871.15	10376.86
871.469	10469.06
871.789	10401.27
872.109	10473.35
872.428	10317.2
872.748	10377.31
873.067	10370.31
873.386	10324.43
873.706	10352.68
874.025	10216.86
874.344	10219.12
874.663	10209.18
874.982	10256.64
875.301	10235.62
875.62	10236.75
875.939	10175.28
876.258	10189.75
876.577	10107.26
876.896	10139.35
877.214	10050.77
877.533	10119.92
877.852	10072.91
878.17	10070.2
878.489	10059.58
878.807	10056.19
879.125	9995.4
879.444	9999.69
879.762	9968.51
880.08	9999.69
880.398	9917.89
880.716	9980.03
881.034	9896.42
881.352	9863.2
881.67	9855.74
881.988	9844.67
882.306	9814.16
882.624	9804.9
882.941	9753.83
883.259	9679.93
883.577	9754.05
883.894	9657.78
884.212	9698.01
884.529	9648.07
884.846	9649.87
885.164	9579.37
885.481	9588.18
885.798	9634.05
886.115	9559.71
886.432	9526.26
886.75	9474.06
887.067	9549.31
887.383	9470.9
887.7	9424.12
888.017	9334.63
888.334	9389.54
888.651	9364.68
888.967	9336.89
889.284	9256.89
889.6	9268.64
889.917	9251.69
890.233	9243.56
890.55	9167.4
890.866	9172.82
891.182	9129.21
891.498	9142.99
891.815	9040.85
892.131	9051.7
892.447	8989.78
892.763	8976.44
893.079	9026.39
893.395	8967.41
893.71	8942.1
894.026	8907.75
894.342	8879.5
894.657	8823.91
894.973	8815.55
895.289	8782.55
895.604	8767.86
895.92	8754.53
896.235	8737.13
896.55	8647.64
896.865	8664.36
897.181	8622.33
897.496	8661.88
897.811	8492.16
898.126	8562.9
898.441	8513.18
898.756	8478.83
899.071	8440.19
899.386	8407.87
899.7	8323.13
900.015	8382.11
900.33	8301.43
900.644	8231.15
900.959	8326.29
901.273	8180.76
901.588	8215.11
901.902	8136.69
902.216	8155.45
902.531	8123.13
902.845	8078.84
903.159	8000.43
903.473	7974.89
903.787	8031.16
904.101	7905.74
904.415	7925.4
904.729	7894.44
905.042	7835.91
905.356	7844.27
905.67	7786.65
905.984	7799.75
906.297	7813.99
906.611	7717.49
906.924	7730.6
907.237	7645.63
907.551	7640.21
907.864	7599.98
908.177	7643.6
908.491	7595.01
908.804	7553.88
909.117	7477.73
909.43	7506.43
909.743	7405.86
910.056	7459.65
910.368	7472.76
910.681	7362.25
910.994	7381.23
911.307	7286.32
911.619	7290.84
911.932	7210.84
912.244	7210.39
912.557	7195.47
912.869	7165.87
913.181	7124.29
913.494	7132.88
913.806	7025.76
914.118	7030.96
914.43	6962.49
914.742	7013.56
915.054	6949.15
915.366	6927.23
915.678	6901.92
915.99	6862.15
916.302	6830.06
916.613	6795.03
916.925	6749.61
917.236	6774.24
917.548	6684.3
917.859	6741.7
918.171	6648.6
918.482	6604.08
918.794	6590.07
919.105	6561.59
919.416	6549.84
919.727	6527.92
920.038	6442.5
920.349	6390.52
920.66	6397.98
920.971	6467.36
921.282	6395.72
921.593	6341.94
921.903	6349.62
922.214	6261.94
922.525	6286.8
922.835	6245.44
923.146	6205.44
923.456	6211.55
923.767	6212.22
924.077	6178.55
924.387	6114.15
924.697	6102.17
925.008	6026.92
925.318	6046.13
925.628	6043.87
925.938	6029.4
926.248	5985.79
926.558	5893.36
926.867	5881.61
927.177	5837.32
927.487	5815.62
927.796	5782.86
928.106	5817.43
928.416	5780.14
928.725	5765.46
929.034	5735.85
929.344	5774.27
929.653	5657.89
929.962	5628.28
930.271	5622.63
930.581	5610.88
930.89	5586.93
931.199	5549.42
931.508	5538.57
931.817	5576.53
932.125	5550.77
932.434	5480.94
932.743	5454.5
933.051	5409.31
933.36	5383.77
933.669	5388.74
933.977	5326.6
934.286	5334.05
934.594	5341.51
934.902	5328.63
935.21	5279.59
935.519	5228.52
935.827	5236.2
936.135	5187.62
936.443	5126.15
936.751	5104.46
937.059	5166.6
937.367	5110.33
937.674	5060.39
937.982	5116.66
938.29	5118.02
938.597	5081.41
938.905	4998.24
939.213	5002.54
939.52	4952.14
939.827	4914.63
940.135	4934.52
940.442	4907.63
940.749	4915.53
941.056	4889.77
941.363	4839.38
941.67	4818.59
941.977	4821.3
942.284	4782.2
942.591	4772.04
942.898	4741.75
943.205	4734.97
943.511	4699.72
943.818	4691.59
944.125	4609.1
944.431	4603.45
944.738	4635.09
945.044	4578.37
945.35	4594.87
945.657	4548.54
945.963	4534.3
946.269	4497.01
946.575	4531.82
946.881	4469.67
947.187	4495.88
947.493	4403.46
947.799	4402.1
948.105	4379.5
948.41	4411.37
948.716	4349
949.022	4350.35
949.327	4331.14
949.633	4319.39
949.938	4273.97
950.244	4323.46
950.549	4238.49
950.854	4252.28
951.16	4233.97
951.465	4205.5
951.77	4191.94
952.075	4149
952.38	4156.91
952.685	4138.38
952.99	4095.44
953.294	4060.87
953.599	4080.3
953.904	4073.3
954.209	3999.4
954.513	4000.98
954.818	3969.34
955.122	3950.81
955.426	4001.89
955.731	3986.07
956.035	3892.96
956.339	3942.23
956.643	3885.05
956.948	3885.96
957.252	3865.62
957.556	3845.73
957.86	3840.31
958.163	3845.73
958.467	3845.05
958.771	3827.2
959.075	3788.56
959.378	3728.9
959.682	3745.62
959.985	3707.66
960.289	3674.66
960.592	3647.32
960.896	3659.52
961.199	3646.19
961.502	3627.88
961.805	3604.16
962.108	3579.98
962.411	3609.35
962.714	3560.54
963.017	3545.18
963.32	3526.87
963.623	3512.86
963.926	3512.86
964.228	3490.04
964.531	3502.69
964.833	3519.87
965.136	3464.05
965.438	3428.57
965.741	3412.07
966.043	3414.56
966.345	3412.07
966.648	3377.04
966.95	3360.32
967.252	3361.9
967.554	3294.11
967.856	3309.7
968.158	3286.65
968.46	3347.89
968.761	3262.47
969.063	3276.26
969.365	3228.12
969.666	3282.58
969.968	3234.45
970.269	3211.4
970.571	3220.44
970.872	3214.11
971.174	3182.02
971.475	3130.04
971.776	3135.47
972.077	3130.72
972.378	3102.02
972.679	3087.56
972.98	3061.35
973.281	3050.95
973.582	3066.09
973.883	3017.28
974.183	3050.95
974.484	2983.38
974.785	2968.24
975.085	3026.32
975.386	3004.85
975.686	2952.65
975.986	2930.5
976.287	2924.4
976.587	2929.82
976.887	2892.08
977.187	2895.93
977.487	2877.62
977.787	2852.31
978.087	2843.72
978.387	2871.75
978.687	2838.53
978.987	2846.44
979.286	2793.56
979.586	2797.4
979.885	2805.76
980.185	2776.16
980.484	2732.77
980.784	2769.6
981.083	2733.9
981.382	2683.95
981.682	2707.46
981.981	2700.68
982.28	2682.15
982.579	2664.29
982.878	2690.51
983.177	2640.57
983.475	2618.65
983.774	2624.97
984.073	2627.91
984.372	2586.1
984.67	2575.48
984.969	2615.48
985.267	2593.56
985.566	2585.65
985.864	2536.39
986.162	2544.52
986.461	2517.41
986.759	2487.35
987.057	2513.79
987.355	2495.26
987.653	2465.66
987.951	2472.66
988.249	2419.56
988.547	2465.2
988.844	2446
989.142	2440.35
989.44	2404.19
989.737	2390.86
990.035	2353.34
990.332	2370.97
990.63	2412.1
990.927	2365.55
991.224	2354.92
991.521	2325.55
991.819	2311.08
992.116	2285.32
992.413	2304.53
992.71	2271.31
993.006	2250.29
993.303	2257.3
993.6	2277.41
993.897	2278.32
994.193	2234.93
994.49	2252.55
994.787	2232.44
995.083	2221.37
995.379	2203.74
995.676	2162.61
995.972	2196.51
996.268	2190.18
996.565	2171.88
996.861	2147.02
997.157	2129.17
997.453	2159.45
997.749	2113.12
998.044	2092.78
998.34	2082.84
998.636	2093.91
998.932	2048.04
999.227	2032.9
999.523	2046.68
999.818	2052.56
1000.114	2012.33
1000.409	2013.92
1000.704	2013.24
1001	1996.74
1001.295	1993.35
1001.59	1989.51
1001.885	1949.74
1002.18	1922.39
1002.475	1920.36
1002.77	1933.92
1003.065	1908.83
1003.359	1911.09
1003.654	1927.59
1003.949	1879.91
1004.243	1868.38
1004.538	1855.95
1004.832	1880.36
1005.127	1856.86
1005.421	1841.72
1005.715	1839.68
1006.009	1811.66
1006.304	1825.9
1006.598	1796.29
1006.892	1792.68
1007.186	1746.35
1007.48	1759.23
1007.773	1772.79
1008.067	1737.99
1008.361	1740.48
1008.655	1721.49
1008.948	1716.52
1009.242	1733.25
1009.535	1697.99
1009.829	1691.89
1010.122	1656.86
1010.415	1673.59
1010.708	1637.65
1011.001	1666.13
1011.295	1610.76
1011.588	1624.55
1011.881	1603.31
1012.173	1613.47
1012.466	1613.47
1012.759	1622.97
1013.052	1585.9
1013.344	1563.31
1013.637	1556.53
1013.93	1547.94
1014.222	1536.64
1014.514	1538.67
1014.807	1544.55
1015.099	1504.78
1015.391	1523.31
1015.683	1508.17
1015.976	1518.56
1016.268	1479.47
1016.56	1472.01
1016.851	1470.2
1017.143	1476.98
1017.435	1456.42
1017.727	1437.21
1018.018	1432.69
1018.31	1422.75
1018.602	1415.97
1018.893	1423.87
1019.185	1375.51
1019.476	1399.69
1019.767	1389.3
1020.058	1392.01
1020.35	1354.05
1020.641	1359.02
1020.932	1339.36
1021.223	1342.97
1021.514	1318.12
1021.804	1324.67
1022.095	1317.66
1022.386	1294.16
1022.677	1275.4
1022.967	1289.42
1023.258	1269.08
1023.548	1261.17
1023.839	1253.48
1024.129	1263.65
1024.419	1241.96
1024.709	1224.56
1025	1218
1025.29	1221.85
1025.58	1209.64
1025.87	1179.14
1026.16	1192.02
1026.449	1164.9
1026.739	1178.68
1027.029	1176.42
1027.319	1152.7
1027.608	1176.2
1027.898	1160.38
1028.187	1144.56
1028.477	1144.79
1028.766	1126.26
1029.055	1095.52
1029.344	1107.05
1029.634	1112.47
1029.923	1113.37
1030.212	1070.44
1030.501	1065.24
1030.79	1078.57
1031.078	1078.8
1031.367	1058.91
1031.656	1052.81
1031.945	1065.24
1032.233	1057.56
1032.522	1047.61
1032.81	1038.57
1033.099	1039.03
1033.387	1021.17
1033.675	1023.21
1033.963	1018.46
1034.251	1001.29
1034.54	993.83
1034.828	985.92
1035.116	998.58
1035.403	984.56
1035.691	963.77
1035.979	978.24
1036.267	974.17
1036.554	935.98
1036.842	951.12
1037.129	929.2
1037.417	940.72
1037.704	919.26
1037.992	939.59
1038.279	907.96
1038.566	902.08
1038.853	902.08
1039.14	902.08
