Data from hue_220_FLMS001491_00066.txt Node
Date: Tue Feb 07 16:39:47 GMT 2017
User: dcchb
Spectrometer: FLMS00149
Trigger mode: 0
Integration Time (sec): 2.000000E-2
Scans to average: 10
Electric dark correction enabled: true
Nonlinearity correction enabled: false
Boxcar width: 0
XAxis mode: Wavelengths
Number of Pixels in Spectrum: 2048
>>>>>Begin Spectral Data<<<<<
341.393	-23.95
341.776	-23.95
342.16	-23.95
342.543	-67.57
342.927	-70.05
343.31	-69.15
343.693	-75.48
344.077	-69.83
344.46	-69.15
344.843	-70.05
345.226	-47.23
345.61	-20.11
345.993	-16.72
346.376	12.88
346.759	2.94
347.142	36.38
347.525	32.99
347.908	78.64
348.291	65.99
348.674	96.49
349.057	111.41
349.44	130.39
349.823	136.72
350.206	151.86
350.588	194.8
350.971	198.41
351.354	224.4
351.737	224.63
352.119	244.97
352.502	253.1
352.884	268.69
353.267	268.24
353.65	275.02
354.032	288.35
354.414	325.64
354.797	308.92
355.179	318.41
355.562	311.4
355.944	321.35
356.326	318.64
356.709	334
357.091	337.62
357.473	330.84
357.855	324.51
358.238	329.26
358.62	325.87
359.002	332.19
359.384	348.01
359.766	327.68
360.148	350.95
360.53	353.21
360.912	326.32
361.294	310.95
361.676	311.4
362.057	330.39
362.439	324.06
362.821	330.16
363.203	306.21
363.584	305.98
363.966	307.79
364.348	336.26
364.729	299.2
365.111	326.55
365.493	317.05
365.874	305.75
366.256	304.85
366.637	334.45
367.019	318.86
367.4	305.3
367.781	304.17
368.163	300.33
368.544	305.08
368.925	315.47
369.306	325.64
369.688	322.7
370.069	303.72
370.45	305.3
370.831	314.34
371.212	317.28
371.593	308.69
371.974	305.75
372.355	305.53
372.736	314.12
373.117	329.26
373.498	319.09
373.879	314.12
374.26	292.87
374.641	330.61
375.021	331.29
375.402	324.29
375.783	311.18
376.163	316.6
376.544	304.4
376.925	322.25
377.305	316.6
377.686	331.06
378.066	313.44
378.447	337.84
378.827	321.12
379.208	325.87
379.588	293.55
379.968	340.33
380.349	325.64
380.729	320.67
381.109	337.84
381.489	334.68
381.87	329.26
382.25	331.97
382.63	338.07
383.01	324.96
383.39	325.64
383.77	346.66
384.15	337.39
384.53	320.9
384.91	325.19
385.29	346.21
385.67	328.8
386.049	334.68
386.429	337.62
386.809	354.11
387.189	355.92
387.568	341.23
387.948	354.11
388.328	354.79
388.707	360.22
389.087	358.18
389.466	336.71
389.846	344.17
390.225	349.14
390.605	373.1
390.984	354.34
391.363	361.12
391.743	367.22
392.122	352.76
392.501	350.73
392.881	374.23
393.26	366.54
393.639	369.26
394.018	356.15
394.397	372.19
394.776	379.43
395.155	391.63
395.534	349.6
395.913	364.96
396.292	363.15
396.671	394.11
397.05	363.15
397.429	384.85
397.808	407.9
398.186	378.75
398.565	381.68
398.944	367.45
399.323	414.9
399.701	373.32
400.08	376.71
400.458	392.76
400.837	399.76
401.215	390.5
401.594	408.58
401.972	416.94
402.351	393.89
402.729	410.84
403.107	428.46
403.486	441.12
403.864	405.19
404.242	402.02
404.62	435.47
404.999	438.86
405.377	430.05
405.755	430.05
406.133	443.38
406.511	443.83
406.889	444.96
407.267	453.32
407.645	458.97
408.023	466.43
408.401	471.85
408.779	477.05
409.156	477.73
409.534	477.28
409.912	495.13
410.29	498.29
410.667	494
411.045	520.89
411.422	511.17
411.8	512.98
412.178	541
412.555	545.52
412.933	537.84
413.31	568.12
413.687	580.1
414.065	569.7
414.442	566.09
414.819	586.2
415.197	599.08
415.574	612.19
415.951	607.44
416.328	607.89
416.705	625.75
417.082	620.32
417.46	635.69
417.837	618.06
418.214	629.36
418.591	644.95
418.967	659.19
419.344	674.11
419.721	688.34
420.098	688.12
420.475	696.93
420.852	692.64
421.228	715.69
421.605	712.52
421.982	752.97
422.358	748
422.735	780.09
423.111	787.32
423.488	785.74
423.864	801.56
424.241	829.58
424.617	831.16
424.994	840.88
425.37	856.47
425.746	842.01
426.123	868
426.499	868.45
426.875	887.21
427.251	903.25
427.627	918.17
428.003	929.47
428.379	949.81
428.756	963.14
429.132	945.06
429.507	967.88
429.883	983.93
430.259	994.78
430.635	1010.14
431.011	1046.3
431.387	1061.89
431.763	1048.11
432.138	1063.93
432.514	1079.75
432.89	1086.98
433.265	1122
433.641	1142.12
434.016	1152.74
434.392	1182.12
434.767	1195.9
435.143	1202
435.518	1251.72
435.894	1258.5
436.269	1284.94
436.644	1281.1
437.02	1294.88
437.395	1334.2
437.77	1365.61
438.145	1389.57
438.52	1375.56
438.895	1425.05
439.271	1424.82
439.646	1477.48
440.021	1487.64
440.395	1487.64
440.77	1505.95
441.145	1518.38
441.52	1551.15
441.895	1555.89
442.27	1589.11
442.645	1597.92
443.019	1613.29
443.394	1626.85
443.769	1650.8
444.143	1627.53
444.518	1673.18
444.892	1670.24
445.267	1701.65
445.641	1714.53
446.016	1734.87
446.39	1750.46
446.764	1751.82
447.139	1772.16
447.513	1784.13
447.887	1793.4
448.262	1828.65
448.636	1845.6
449.01	1845.15
449.384	1856.9
449.758	1844.47
450.132	1909.55
450.506	1865.26
450.88	1877.46
451.254	1903
451.628	1935.77
452.002	1940.06
452.376	1983.68
452.75	1979.61
453.123	1987.52
453.497	2013.28
453.871	2033.84
454.244	2072.49
454.618	2067.52
454.992	2098.93
455.365	2118.81
455.739	2164.46
456.112	2168.76
456.486	2209.43
456.859	2213.5
457.232	2245.82
457.606	2229.55
457.979	2240.39
458.352	2324.91
458.725	2361.97
459.099	2353.16
459.472	2401.74
459.845	2450.33
460.218	2426.6
460.591	2463.66
460.964	2462.08
461.337	2533.49
461.71	2562.19
462.083	2566.03
462.456	2573.27
462.829	2564.68
463.201	2623.89
463.574	2606.03
463.947	2692.81
464.32	2740.72
464.692	2758.35
465.065	2747.95
465.438	2859.13
465.81	2845.57
466.183	2874.95
466.555	2929.87
466.928	2933.48
467.3	2927.83
467.672	2964.67
468.045	3043.99
468.417	3044.44
468.789	3057.32
469.161	3083.53
469.534	3114.49
469.906	3184.32
470.278	3241.72
470.65	3257.09
471.022	3316.97
471.394	3387.71
471.766	3391.55
472.138	3412.34
472.51	3481.94
472.882	3497.08
473.253	3540.02
473.625	3606.46
473.997	3650.75
474.369	3670.64
474.74	3654.59
475.112	3770.3
475.484	3827.02
475.855	3853.23
476.227	3904.53
476.598	3991.99
476.97	4011.42
477.341	4137.74
477.713	4154.69
478.084	4131.19
478.455	4239.21
478.827	4255.26
479.198	4413.9
479.569	4413.67
479.94	4506.1
480.311	4532.99
480.682	4629.93
481.053	4719.88
481.424	4747.9
481.795	4817.5
482.166	4859.31
482.537	4886.43
482.908	5004.61
483.279	5040.32
483.65	5080.77
484.021	5246.42
484.391	5247.09
484.762	5266.98
485.133	5335.68
485.503	5382.68
485.874	5441.89
486.244	5535.45
486.615	5607.54
486.985	5654.09
487.356	5746.29
487.726	5759.62
488.097	5838.26
488.467	5905.83
488.837	5951.03
489.207	6052.04
489.578	6077.58
489.948	6160.97
490.318	6181.08
490.688	6215.88
491.058	6320.51
491.428	6372.26
491.798	6394.18
492.168	6534.29
492.538	6507.85
492.908	6597.11
493.278	6648.86
493.648	6645.47
494.017	6736.32
494.387	6758.01
494.757	6866.71
495.126	6861.29
495.496	6900.61
495.866	6936.31
496.235	6953.04
496.605	7029.65
496.974	7069.19
497.344	7125.46
497.713	7101.96
498.082	7202.97
498.452	7267.15
498.821	7279.58
499.19	7289.53
499.559	7282.75
499.928	7293.82
500.298	7335.17
500.667	7460.82
501.036	7406.13
501.405	7457.88
501.774	7462.4
502.143	7481.61
502.512	7536.52
502.88	7549.18
503.249	7545.11
503.618	7507.15
503.987	7592.79
504.356	7586.02
504.724	7675.28
505.093	7662.85
505.462	7692.91
505.83	7683.64
506.199	7739.68
506.567	7875.5
506.936	7749.17
507.304	7865.56
507.672	7877.76
508.041	7811.32
508.409	7977.42
508.777	7958.89
509.145	7969.06
509.514	7975.38
509.882	7991.2
510.25	7986
510.618	8037.53
510.986	8062.39
511.354	8051.77
511.722	8085.44
512.09	8131.76
512.458	8073.01
512.826	8153.68
513.193	8203.85
513.561	8122.72
513.929	8160.69
514.297	8190.75
514.664	8249.05
515.032	8176.28
515.4	8309.84
515.767	8204.3
516.135	8252.44
516.502	8159.33
516.869	8293.57
517.237	8270.74
517.604	8218.99
517.972	8289.05
518.339	8316.17
518.706	8233
519.073	8321.14
519.44	8241.14
519.808	8313.23
520.175	8237.52
520.542	8396.39
520.909	8382.83
521.276	8380.34
521.643	8352.1
522.009	8414.69
522.376	8351.64
522.743	8350.97
523.11	8381.7
523.477	8473.45
523.843	8447.46
524.21	8520
524.577	8489.04
524.943	8470.74
525.31	8490.17
525.676	8569.04
526.043	8537.85
526.409	8534.46
526.776	8605.65
527.142	8501.25
527.508	8580.34
527.874	8518.19
528.241	8559.55
528.607	8531.3
528.973	8571.75
529.339	8550.06
529.705	8598.87
530.071	8608.59
530.437	8541.7
530.803	8558.42
531.169	8578.08
531.535	8497.4
531.901	8478.87
532.267	8461.92
532.632	8487.46
532.998	8482.49
533.364	8541.47
533.73	8436.16
534.095	8467.12
534.461	8497.18
534.826	8477.74
535.192	8434.81
535.557	8454.01
535.923	8435.94
536.288	8377.86
536.653	8398.88
537.019	8294.02
537.384	8307.8
537.749	8338.76
538.114	8257.41
538.479	8314.81
538.845	8261.48
539.21	8193.68
539.575	8242.27
539.94	8199.33
540.305	8210.18
540.67	8120.69
541.034	8171.31
541.399	8127.92
541.764	8133.57
542.129	8111.65
542.494	8117.98
542.858	8066.45
543.223	7985.33
543.587	8007.02
543.952	7988.49
544.316	7977.87
544.681	7938.1
545.045	7898.78
545.41	7929.96
545.774	7863.97
546.138	7891.09
546.503	7800.02
546.867	7812.45
547.231	7793.92
547.595	7783.75
547.959	7715.5
548.324	7794.15
548.688	7675.05
549.052	7699.01
549.416	7657.88
549.779	7612.91
550.143	7569.29
550.507	7642.06
550.871	7659.01
551.235	7505.34
551.599	7574.49
551.962	7544.66
552.326	7504.89
552.689	7535.17
553.053	7464.21
553.417	7459.01
553.78	7468.05
554.143	7412.91
554.507	7416.3
554.87	7399.35
555.234	7473.02
555.597	7360.48
555.96	7375.17
556.323	7413.14
556.686	7329.98
557.05	7418.11
557.413	7282.52
557.776	7319.13
558.139	7335.17
558.502	7244.78
558.865	7311.22
559.228	7267.61
559.59	7279.36
559.953	7277.32
560.316	7352.8
560.679	7266.48
561.041	7285.46
561.404	7320.03
561.767	7313.71
562.129	7287.49
562.492	7315.51
562.854	7248.85
563.217	7266.93
563.579	7245.46
563.941	7273.93
564.304	7295.18
564.666	7281.62
565.028	7331.56
565.39	7294.95
565.753	7323.42
566.115	7284.33
566.477	7400.48
566.839	7337.21
567.201	7384.21
567.563	7324.1
567.925	7348.73
568.287	7332.69
568.648	7357.55
569.01	7352.8
569.372	7448.39
569.734	7362.97
570.095	7466.47
570.457	7385.79
570.819	7451.1
571.18	7485.45
571.542	7482.97
571.903	7439.8
572.265	7517.54
572.626	7439.13
572.987	7512.57
573.349	7524.77
573.71	7474.61
574.071	7542.85
574.432	7553.25
574.794	7554.6
575.155	7499.69
575.516	7561.16
575.877	7556.41
576.238	7582.85
576.599	7617.65
576.96	7646.13
577.32	7584.66
577.681	7666.47
578.042	7663.53
578.403	7642.74
578.763	7703.53
579.124	7711.21
579.485	7703.98
579.845	7762.28
580.206	7768.61
580.566	7762.28
580.927	7797.08
581.287	7807.93
581.648	7833.47
582.008	7826.01
582.368	7804.31
582.728	7816.52
583.089	7815.84
583.449	7875.05
583.809	7902.84
584.169	7840.47
584.529	7861.26
584.889	7946.01
585.249	7892.9
585.609	7869.85
585.969	7938.77
586.329	7940.58
586.688	7948.04
587.048	7978.1
587.408	7929.28
587.768	7982.39
588.127	8047.47
588.487	8037.98
588.846	8135.15
589.206	8028.94
589.565	7969.06
589.925	8059.68
590.284	7971.54
590.643	8065.32
591.003	8098.77
591.362	8109.17
591.721	8133.35
592.08	8126.34
592.44	8117.3
592.799	8164.31
593.158	8125.66
593.517	8158.66
593.876	8186.23
594.235	8166.56
594.593	8155.94
594.952	8196.62
595.311	8153.23
595.67	8198.43
596.029	8221.7
596.387	8256.51
596.746	8307.8
597.104	8229.61
597.463	8204.98
597.822	8220.12
598.18	8243.17
598.538	8250.86
598.897	8281.36
599.255	8234.36
599.613	8352.32
599.972	8315.04
600.33	8321.36
600.688	8267.81
601.046	8289.5
601.404	8292.66
601.762	8311.19
602.12	8358.65
602.478	8345.32
602.836	8377.86
603.194	8362.27
603.552	8306
603.91	8300.35
604.268	8317.52
604.625	8324.53
604.983	8356.39
605.341	8287.47
605.698	8373.79
606.056	8427.12
606.413	8371.31
606.771	8354.13
607.128	8426.45
607.485	8364.98
607.843	8358.2
608.2	8456.73
608.557	8412.21
608.914	8402.49
609.272	8485.65
609.629	8443.85
609.986	8475.94
610.343	8469.38
610.7	8454.47
611.057	8492.66
611.414	8497.18
611.771	8544.41
612.127	8518.87
612.484	8521.58
612.841	8507.12
613.198	8555.71
613.554	8521.58
613.911	8639.32
614.267	8549.38
614.624	8580.11
614.98	8553
615.337	8585.76
615.693	8625.54
616.05	8631.41
616.406	8661.02
616.762	8616.5
617.118	8613.78
617.475	8622.37
617.831	8622.6
618.187	8691.52
618.543	8628.93
618.899	8735.82
619.255	8615.37
619.611	8648.59
619.967	8714.12
620.323	8664.4
620.678	8690.84
621.034	8704.4
621.39	8648.13
621.746	8707.57
622.101	8803.16
622.457	8724.74
622.812	8713.67
623.168	8711.18
623.523	8643.39
623.879	8668.7
624.234	8703.05
624.589	8728.13
624.945	8665.76
625.3	8686.78
625.655	8637.06
626.01	8677.06
626.365	8653.33
626.72	8679.55
627.075	8705.31
627.43	8703.05
627.785	8685.2
628.14	8735.14
628.495	8704.86
628.85	8642.94
629.205	8660.34
629.559	8673.44
629.914	8597.29
630.269	8670.51
630.623	8607.23
630.978	8625.31
631.332	8641.35
631.687	8628.02
632.041	8555.03
632.396	8589.6
632.75	8535.82
633.104	8607.01
633.459	8575.14
633.813	8551.87
634.167	8504.86
634.521	8543.73
634.875	8567.01
635.229	8554.13
635.583	8515.93
635.937	8483.17
636.291	8417.18
636.645	8448.14
636.999	8462.6
637.352	8454.47
637.706	8433.9
638.06	8485.65
638.413	8448.59
638.767	8461.47
639.121	8479.78
639.474	8423.51
639.828	8391.19
640.181	8367.69
640.534	8394.13
640.888	8371.53
641.241	8377.41
641.594	8383.96
641.947	8363.85
642.301	8367.24
642.654	8388.03
643.007	8389.16
643.36	8361.36
643.713	8303.96
644.066	8338.54
644.419	8289.73
644.771	8248.82
645.124	8217.64
645.477	8217.19
645.83	8115.72
646.182	8084.08
646.535	8082.27
646.888	8181.25
647.24	8035.95
647.593	8114.59
647.945	8092.67
648.298	8022.16
648.65	8080.24
649.002	8063.06
649.355	8031.88
649.707	8085.44
650.059	8120.46
650.411	8148.26
650.763	8127.47
651.115	8292.89
651.467	8249.05
651.819	8206.56
652.171	8232.1
652.523	8181.71
652.875	8239.78
653.227	8201.37
653.578	8240.69
653.93	8191.88
654.282	8177.41
654.633	8214.25
654.985	8195.49
655.337	8199.11
655.688	8221.93
656.039	8250.63
656.391	8127.47
656.742	8152.55
657.094	8200.91
657.445	8230.74
657.796	8226
658.147	8234.36
658.498	8255.83
658.849	8293.12
659.2	8260.8
659.551	8220.12
659.902	8253.79
660.253	8271.65
660.604	8266
660.955	8218.31
661.306	8287.24
661.656	8282.95
662.007	8303.28
662.358	8290.86
662.708	8256.28
663.059	8272.1
663.409	8265.77
663.76	8286.11
664.11	8270.07
664.461	8290.4
664.811	8286.56
665.161	8283.62
665.511	8277.3
665.862	8310.06
666.212	8271.42
666.562	8366.33
666.912	8363.17
667.262	8310.06
667.612	8324.98
667.962	8335.37
668.312	8285.43
668.662	8370.4
669.011	8324.3
669.361	8295.38
669.711	8290.63
670.06	8306.45
670.41	8307.35
670.76	8313.68
671.109	8258.31
671.459	8311.42
671.808	8231.65
672.157	8325.66
672.507	8201.59
672.856	8240.01
673.205	8304.19
673.554	8244.98
673.904	8204.3
674.253	8265.77
674.602	8269.61
674.951	8170.63
675.3	8070.75
675.649	8171.08
675.998	8144.87
676.346	8169.28
676.695	8253.34
677.044	8211.08
677.393	8179.67
677.741	8197.75
678.09	8170.18
678.438	8156.85
678.787	8157.53
679.135	8098.09
679.484	8063.06
679.832	8139.67
680.181	8035.27
680.529	8054.48
680.877	8088.83
681.225	8046.57
681.573	8104.42
681.922	8038.88
682.27	7990.3
682.618	8008.83
682.966	7975.84
683.314	7972.9
683.661	7950.3
684.009	7874.37
684.357	7895.16
684.705	7883.63
685.053	7886.57
685.4	7879.34
685.748	7817.65
686.095	7786.46
686.443	7768.16
686.79	7788.72
687.138	7758.89
687.485	7750.3
687.832	7717.99
688.18	7714.37
688.527	7684.77
688.874	7658.78
689.221	7681.15
689.568	7637.77
689.915	7653.13
690.262	7580.82
690.609	7560.03
690.956	7559.58
691.303	7536.07
691.65	7496.3
691.997	7482.06
692.344	7487.26
692.69	7397.55
693.037	7458.56
693.383	7313.93
693.73	7358.9
694.077	7367.72
694.423	7345.57
694.769	7289.07
695.116	7238.68
695.462	7281.62
695.808	7236.87
696.155	7233.93
696.501	7131.34
696.847	7145.57
697.193	7126.82
697.539	7134.28
697.885	7090.21
698.231	7078.46
698.577	7053.15
698.923	7004.34
699.269	6946.94
699.614	6961.17
699.96	6922.53
700.306	6899.25
700.651	6868.75
700.997	6811.12
701.342	6845.92
701.688	6808.63
702.033	6808.63
702.379	6785.36
702.724	6732.03
703.069	6758.24
703.415	6665.59
703.76	6660.62
704.105	6643.44
704.45	6666.27
704.795	6563.22
705.14	6600.5
705.485	6572.93
705.83	6508.98
706.175	6536.78
706.52	6532.48
706.865	6487.29
707.209	6478.93
707.554	6409.55
707.899	6442.77
708.243	6407.97
708.588	6398.48
708.932	6328.65
709.277	6338.14
709.621	6306.27
709.966	6310.57
710.31	6243.45
710.654	6247.52
710.998	6226.5
711.342	6245.49
711.687	6245.94
712.031	6191.02
712.375	6199.16
712.719	6240.06
713.063	6171.14
713.407	6173.17
713.75	6153.28
714.094	6118.26
714.438	6106.73
714.782	6141.08
715.125	6124.36
715.469	6101.99
715.812	6087.3
716.156	6075.77
716.499	6078.94
716.843	6044.13
717.186	6061.08
717.53	6064.7
717.873	6069.44
718.216	6043.91
718.559	6012.72
718.902	6021.08
719.246	5987.64
719.589	5964.14
719.932	5902.67
720.275	5949
720.617	5949.45
720.96	5919.84
721.303	5990.12
721.646	5943.57
721.989	5946.74
722.331	5942.67
722.674	5932.05
723.016	5948.77
723.359	5889.79
723.701	5937.92
724.044	5889.34
724.386	5861.54
724.729	5904.03
725.071	5892.73
725.413	5941.76
725.755	5877.13
726.097	5892.05
726.439	5850.92
726.782	5812.73
727.124	5890.01
727.465	5852.73
727.807	5874.65
728.149	5829.9
728.491	5826.97
728.833	5873.52
729.175	5832.84
729.516	5844.37
729.858	5821.99
730.199	5857.93
730.541	5771.15
730.882	5840.98
731.224	5878.94
731.565	5800.98
731.906	5832.16
732.248	5840.98
732.589	5796.46
732.93	5819.96
733.271	5796.01
733.612	5858.83
733.953	5865.83
734.294	5829
734.635	5817.7
734.976	5833.74
735.317	5826.51
735.658	5821.09
735.999	5826.06
736.339	5890.01
736.68	5863.35
737.021	5835.33
737.361	5844.14
737.702	5838.49
738.042	5861.31
738.383	5848.21
738.723	5889.11
739.063	5883.46
739.404	5823.12
739.744	5923.23
740.084	5924.59
740.424	5903.8
740.764	5945.61
741.104	6013.18
741.444	5909.45
741.784	5882.56
742.124	6009.56
742.464	5962.56
742.804	6016.11
743.143	6024.7
743.483	6025.38
743.823	6008.43
744.162	6087.07
744.502	6122.32
744.841	6153.51
745.181	6172.72
745.52	6134.98
745.86	6188.99
746.199	6254.52
746.538	6269.89
746.877	6279.61
747.216	6332.49
747.556	6416.33
747.895	6430.11
748.234	6494.74
748.573	6509.43
748.911	6572.48
749.25	6641.18
749.589	6672.59
749.928	6792.14
750.267	6824.23
750.605	6893.38
750.944	6923.89
751.283	6993.49
751.621	7051.34
751.96	7180.38
752.298	7261.5
752.636	7284.78
752.975	7423.31
753.313	7462.4
753.651	7619.01
753.989	7704.66
754.327	7826.23
754.666	7854.26
755.004	8006.34
755.342	8140.58
755.679	8313.23
756.017	8380.57
756.355	8494.47
756.693	8621.92
757.031	8764.74
757.368	8894.46
757.706	9026.88
758.044	9218.29
758.381	9344.84
758.719	9470.49
759.056	9720.87
759.394	9725.39
759.731	9859.4
760.068	10047.19
760.405	10179.62
760.743	10378.03
761.08	10556.56
761.417	10620.29
761.754	10863.22
762.091	11072.25
762.428	11136.43
762.765	11246.71
763.102	11507.49
763.438	11684.44
763.775	11812.34
764.112	11958.33
764.449	12192
764.785	12368.26
765.122	12420.69
765.458	12638.31
765.795	12796.95
766.131	12996.27
766.467	13055.7
766.804	13137.06
767.14	13290.95
767.476	13497.27
767.812	13657.27
768.148	13786.3
768.485	13910.82
768.821	14045.96
769.157	14156.01
769.492	14355.1
769.828	14388.1
770.164	14454.76
770.5	14643.91
770.836	14724.13
771.171	14843.9
771.507	15005.71
771.842	14948.99
772.178	15179.49
772.513	15277.11
772.849	15351.01
773.184	15443.21
773.519	15515.52
773.855	15591.91
774.19	15700.83
774.525	15735.86
774.86	15948.73
775.195	15904.44
775.53	15942.86
775.865	15926.13
776.2	15966.81
776.535	16021.95
776.87	16183.3
777.205	16216.3
777.539	16170.2
777.874	16430.98
778.209	16239.12
778.543	16340.59
778.878	16351.21
779.212	16404.54
779.547	16433.47
779.881	16551.43
780.215	16501.71
780.55	16565.44
780.884	16598.43
781.218	16575.61
781.552	16642.95
781.886	16540.58
782.22	16574.93
782.554	16657.64
782.888	16523.63
783.222	16506.01
783.556	16558.89
783.889	16538.55
784.223	16436.86
784.557	16529.51
784.89	16674.14
785.224	16546.68
785.557	16479.57
785.891	16516.85
786.224	16500.81
786.558	16534.93
786.891	16472.79
787.224	16460.81
787.557	16438.21
787.891	16520.02
788.224	16548.49
788.557	16431.66
788.89	16409.51
789.223	16432.34
789.556	16401.38
789.888	16447.03
790.221	16339.91
790.554	16282.06
790.887	16372.45
791.219	16284.09
791.552	16253.81
791.884	16213.58
792.217	16257.43
792.549	16222.62
792.882	16095.85
793.214	16102.85
793.546	16163.19
793.879	16135.17
794.211	15975.17
794.543	16084.55
794.875	15979.92
795.207	16043.87
795.539	15990.31
795.871	16019.01
796.203	15902.86
796.535	15881.84
796.867	15748.51
797.198	15798.23
797.53	15804.78
797.862	15693.82
798.193	15765.24
798.525	15642.98
798.856	15661.06
799.188	15543.55
799.519	15496.77
799.85	15413.15
800.182	15493.83
800.513	15491.8
800.844	15350.56
801.175	15442.08
801.506	15368.18
801.837	15418.13
802.168	15258.81
802.499	15352.14
802.83	15253.38
803.161	15191.46
803.491	15230.56
803.822	15135.2
804.153	15104.69
804.483	15048.64
804.814	14992.6
805.145	14913.28
805.475	15024.46
805.805	14880.29
806.136	14915.77
806.466	14871.93
806.796	14846.16
807.126	14773.85
807.457	14734.3
807.787	14677.81
808.117	14755.32
808.447	14740.4
808.777	14697.01
809.107	14624.7
809.436	14541.99
809.766	14499.96
810.096	14533.4
810.426	14525.49
810.755	14535.89
811.085	14465.61
811.414	14401.66
811.744	14351.26
812.073	14288.89
812.403	14387.42
812.732	14206.63
813.061	14203.47
813.39	14236.91
813.719	14253.18
814.049	14278.49
814.378	14186.07
814.707	14109.46
815.036	14106.3
815.365	14094.32
815.693	13932.29
816.022	13986.07
816.351	13946.98
816.68	13914.89
817.008	13901.33
817.337	13792.86
817.665	13806.64
817.994	13856.81
818.322	13836.7
818.651	13768
818.979	13718.06
819.307	13831.73
819.636	13712.63
819.964	13678.51
820.292	13811.84
820.62	13777.04
820.948	13546.99
821.276	13796.47
821.604	13625.4
821.932	13730.03
822.259	13792.86
822.587	13662.24
822.915	13622.01
823.243	13676.25
823.57	13647.78
823.898	13663.82
824.225	13610.49
824.553	13557.38
824.88	13649.81
825.207	13664.73
825.535	13632.41
825.862	13694.56
826.189	13656.82
826.516	13739.98
826.843	13719.41
827.17	13742.46
827.497	13766.19
827.824	13737.94
828.151	13699.75
828.478	13686.19
828.805	13697.72
829.131	13691.62
829.458	13669.92
829.785	13681
830.111	13603.48
830.438	13791.5
830.764	13737.27
831.09	13754.67
831.417	13586.08
831.743	13712.41
832.069	13684.84
832.395	13617.04
832.722	13658.62
833.048	13673.99
833.374	13639.87
833.7	13545.18
834.026	13673.54
834.351	13654.78
834.677	13556.03
835.003	13723.25
835.329	13570.72
835.654	13610.72
835.98	13482.81
836.306	13560.1
836.631	13548.34
836.956	13504.5
837.282	13494.56
837.607	13394.68
837.932	13507.89
838.258	13537.72
838.583	13394.9
838.908	13329.59
839.233	13427.9
839.558	13291.4
839.883	13311.06
840.208	13205.3
840.533	13267
840.858	13260.89
841.182	13251.4
841.507	13155.13
841.832	13117.62
842.156	13198.07
842.481	13244.62
842.805	13071.97
843.13	13052.54
843.454	13088.47
843.778	12973.9
844.103	13054.35
844.427	12947.23
844.751	12963.05
845.075	12866.1
845.399	12802.83
845.723	12799.21
846.047	12853.9
846.371	12704.98
846.695	12709.04
847.019	12613.68
847.343	12560.12
847.666	12489.39
847.99	12402.61
848.313	12424.76
848.637	12364.42
848.96	12336.62
849.284	12266.57
849.607	12262.5
849.931	12166.23
850.254	12044.66
850.577	12062.96
850.9	11954.71
851.223	12017.09
851.546	11936.86
851.869	11825.45
852.192	11890.76
852.515	11827.94
852.838	11740.26
853.161	11747.71
853.483	11659.35
853.806	11636.76
854.129	11541.84
854.451	11650.32
854.774	11457.55
855.096	11493.26
855.419	11484.44
855.741	11368.29
856.063	11322.87
856.385	11278.57
856.708	11332.58
857.03	11267.27
857.352	11242.42
857.674	11188.86
857.996	11143.89
858.318	11129.88
858.64	11137.11
858.961	11124.91
859.283	11012.14
859.605	10992.03
859.926	11004.46
860.248	10966.49
860.57	10972.14
860.891	10965.36
861.212	10893.27
861.534	10826.16
861.855	10805.59
862.176	10790.68
862.498	10807.63
862.819	10842.2
863.14	10750.23
863.461	10754.07
863.782	10777.34
864.103	10745.71
864.424	10681.98
864.745	10733.5
865.065	10608.76
865.386	10625.94
865.707	10623.9
866.027	10606.5
866.348	10529.44
866.668	10555.88
866.989	10565.15
867.309	10460.06
867.63	10471.82
867.95	10524.92
868.27	10451.93
868.59	10478.59
868.91	10421.87
869.23	10440.63
869.55	10367.41
869.87	10312.72
870.19	10357.24
870.51	10387.98
870.83	10410.57
871.15	10304.14
871.469	10241.54
871.789	10254.87
872.109	10263.46
872.428	10243.12
872.748	10286.74
873.067	10214.65
873.386	10209
873.706	10210.8
874.025	10163.8
874.344	10085.16
874.663	10065.95
874.982	10155.44
875.301	10095.33
875.62	10097.59
875.939	10073.63
876.258	10056.01
876.577	9999.96
876.896	9959.51
877.214	10021.43
877.533	9966.29
877.852	9956.35
878.17	9936.01
878.489	9988.21
878.807	9904.82
879.125	9907.31
879.444	9932.39
879.762	9798.16
880.08	9930.36
880.398	9742.12
880.716	9822.34
881.034	9759.74
881.352	9770.82
881.67	9790.93
881.988	9765.62
882.306	9683.81
882.624	9645.17
882.941	9623.93
883.259	9620.76
883.577	9605.4
883.894	9538.73
884.212	9580.77
884.529	9530.14
884.846	9590.03
885.164	9562.01
885.481	9460.09
885.798	9465.29
886.115	9408.57
886.432	9421.67
886.75	9360.43
887.067	9388.91
887.383	9345.07
887.7	9400.43
888.017	9313.65
888.334	9290.6
888.651	9300.09
888.967	9284.5
889.284	9236.82
889.6	9155.92
889.917	9126.54
890.233	9143.71
890.55	9065.75
890.866	9158.63
891.182	9094
891.498	9051.97
891.815	8981.01
892.131	9032.08
892.447	8930.16
892.763	8935.13
893.079	8884.74
893.395	8838.86
893.71	8820.79
894.026	8797.06
894.342	8776.27
894.657	8750.05
894.973	8698.08
895.289	8714.8
895.604	8681.58
895.92	8662.82
896.235	8559.55
896.55	8574.46
896.865	8554.35
897.181	8503.51
897.496	8496.5
897.811	8470.51
898.126	8410.4
898.441	8350.06
898.756	8365.2
899.071	8365.2
899.386	8355.03
899.7	8229.84
900.015	8254.02
900.33	8132.89
900.644	8161.37
900.959	8221.93
901.273	8146.68
901.588	8105.55
901.902	8131.54
902.216	8092.67
902.531	8066.68
902.845	8066
903.159	7944.2
903.473	8015.38
903.787	7854.03
904.101	7855.39
904.415	7818.55
904.729	7840.7
905.042	7734.71
905.356	7681.83
905.67	7723.41
905.984	7691.78
906.297	7704.88
906.611	7668.05
906.924	7619.46
907.237	7570.42
907.551	7608.39
907.864	7503.31
908.177	7463.31
908.491	7473.7
908.804	7438.67
909.117	7374.72
909.43	7288.62
909.743	7285.91
910.056	7259.02
910.368	7263.99
910.681	7180.15
910.994	7205.69
911.307	7161.39
911.619	7188.96
911.932	7203.2
912.244	7066.03
912.557	7038.01
912.869	6988.52
913.181	6978.12
913.494	6996.43
913.806	6908.07
914.118	6900.61
914.43	6881.4
914.742	6873.27
915.054	6872.81
915.366	6838.01
915.678	6769.31
915.99	6750.33
916.302	6704.91
916.613	6709.2
916.925	6721.86
917.236	6711.24
917.548	6581.3
917.859	6621.97
918.171	6579.94
918.482	6484.8
918.794	6498.81
919.105	6496.33
919.416	6460.62
919.727	6461.07
920.038	6389.44
920.349	6400.51
920.66	6355.31
920.971	6355.99
921.282	6344.24
921.593	6261.76
921.903	6268.76
922.214	6203
922.525	6205.26
922.835	6148.76
923.146	6125.49
923.456	6120.74
923.767	6085.94
924.077	6088.2
924.387	6033.51
924.697	6000.07
925.008	5966.85
925.318	5991.25
925.628	5981.31
925.938	5916.91
926.248	5858.38
926.558	5928.43
926.867	5843.46
927.177	5808.89
927.487	5803.01
927.796	5800.3
928.106	5842.56
928.416	5744.26
928.725	5727.08
929.034	5629.23
929.344	5718.04
929.653	5715.1
929.962	5653.64
930.271	5581.1
930.581	5539.06
930.89	5570.02
931.199	5520.53
931.508	5473.98
931.817	5489.12
932.125	5464.26
932.434	5436.24
932.743	5396.92
933.051	5347.43
933.36	5362.34
933.669	5353.53
933.977	5324.15
934.286	5366.64
934.594	5320.09
934.902	5259.07
935.21	5245.74
935.519	5212.74
935.827	5186.53
936.135	5166.19
936.443	5126.19
936.751	5111.5
937.059	5142.24
937.367	5072.41
937.674	5107.44
937.982	5060.43
938.29	5017.04
938.597	5034.67
938.905	5008.23
939.213	5021.79
939.52	4967.78
939.827	4953.54
940.135	4916.03
940.442	4868.35
940.749	4865.86
941.056	4895.69
941.363	4831.74
941.67	4822.7
941.977	4757.84
942.284	4764.17
942.591	4749.25
942.898	4715.58
943.205	4729.82
943.511	4692.08
943.818	4706.99
944.125	4660.44
944.431	4627.9
944.738	4631.97
945.044	4578.86
945.35	4575.47
945.657	4564.85
945.963	4544.06
946.269	4492.76
946.575	4482.82
946.881	4455.7
947.187	4481.01
947.493	4438.08
947.799	4431.3
948.105	4364.41
948.41	4342.03
948.716	4367.12
949.022	4337.06
949.327	4358.76
949.633	4278.76
949.938	4273.11
950.244	4291.86
950.549	4255.93
950.854	4235.82
951.16	4223.39
951.465	4239.21
951.77	4158.08
952.075	4133.9
952.38	4141.81
952.685	4142.49
952.99	4096.84
953.294	4123.28
953.599	4044.19
953.904	4036.73
954.209	3996.96
954.513	4005.54
954.818	3994.7
955.122	3992.66
955.426	3968.48
955.731	3920.35
956.035	3935.04
956.339	3962.83
956.643	3879.22
956.948	3862.72
957.252	3885.1
957.556	3859.79
957.86	3814.59
958.163	3837.41
958.467	3766.91
958.771	3803.52
959.075	3759.45
959.378	3712.44
959.682	3755.61
959.985	3703.63
960.289	3716.96
960.592	3702.73
960.896	3641.94
961.199	3688.94
961.502	3637.19
961.805	3629.74
962.108	3600.58
962.411	3608.94
962.714	3613.01
963.017	3562.84
963.32	3583.86
963.623	3579.79
963.926	3547.25
964.228	3509.29
964.531	3458.89
964.833	3498.21
965.136	3453.92
965.438	3467.93
965.741	3428.61
966.043	3428.16
966.345	3379.57
966.648	3409.63
966.95	3378.22
967.252	3325.34
967.554	3328.73
967.856	3332.12
968.158	3301.38
968.46	3289.18
968.761	3319.69
969.063	3253.7
969.365	3262.97
969.666	3241.04
969.968	3205.34
970.269	3200.37
970.571	3191.33
970.872	3184.32
971.174	3174.15
971.475	3193.14
971.776	3144.78
972.077	3156.3
972.378	3139.13
972.679	3096.64
972.98	3100.48
973.281	3086.25
973.582	3067.94
973.883	3063.65
974.183	3050.09
974.484	3047.83
974.785	3018
975.085	3020.94
975.386	2980.71
975.686	2939.58
975.986	2966.93
976.287	2961.96
976.587	2913.6
976.887	2949.08
977.187	2929.87
977.487	2930.54
977.787	2920.83
978.087	2852.58
978.387	2896.2
978.687	2847.83
978.987	2819.36
979.286	2833.82
979.586	2807.61
979.885	2812.36
980.185	2785.92
980.484	2781.4
980.784	2749.98
981.083	2728.97
981.382	2715.18
981.682	2707.73
981.981	2732.58
982.28	2711.34
982.579	2689.19
982.878	2659.37
983.177	2678.8
983.475	2661.17
983.774	2664.56
984.073	2627.73
984.372	2642.64
984.67	2619.37
984.969	2607.16
985.267	2591.12
985.566	2587.5
985.864	2575.07
986.162	2557.45
986.461	2523.78
986.759	2498.69
987.057	2485.58
987.355	2490.56
987.653	2482.42
987.951	2494.4
988.249	2500.73
988.547	2472.93
988.844	2423.89
989.142	2410.11
989.44	2423.21
989.737	2408.75
990.035	2393.38
990.332	2407.62
990.63	2397.45
990.927	2384.8
991.224	2363.1
991.521	2350.22
991.819	2343.67
992.116	2351.12
992.413	2283.1
992.71	2320.84
993.006	2306.61
993.303	2298.92
993.6	2273.61
993.897	2302.31
994.193	2232.48
994.49	2223.67
994.787	2238.13
995.083	2214.41
995.379	2209.89
995.676	2191.58
995.972	2198.13
996.268	2179.38
996.565	2164.24
996.861	2168.08
997.157	2144.8
997.453	2113.16
997.749	2106.61
998.044	2119.27
998.34	2098.7
998.636	2094.86
998.932	2108.87
999.227	2074.52
999.523	2071.36
999.818	2037.23
1000.114	2032.49
1000.409	2032.04
1000.704	2000.17
1001	1999.04
1001.295	2002.89
1001.59	1980.74
1001.885	1960.17
1002.18	1951.36
1002.475	1976.22
1002.77	1931.7
1003.065	1909.1
1003.359	1914.07
1003.654	1922.21
1003.949	1905.71
1004.243	1912.49
1004.538	1871.59
1004.832	1870.01
1005.127	1849.22
1005.421	1879.05
1005.715	1856.22
1006.009	1822.1
1006.304	1797.01
1006.598	1804.02
1006.892	1802.66
1007.186	1802.66
1007.48	1791.37
1007.773	1758.6
1008.067	1798.14
1008.361	1749.78
1008.655	1768.32
1008.948	1747.98
1009.242	1710.92
1009.535	1729.67
1009.829	1703.01
1010.122	1700.97
1010.415	1687.64
1010.708	1641.09
1011.001	1668.88
1011.295	1652.61
1011.588	1644.93
1011.881	1657.36
1012.173	1628.88
1012.466	1608.77
1012.759	1601.31
1013.052	1594.99
1013.344	1583.91
1013.637	1591.37
1013.93	1565.38
1014.222	1548.43
1014.514	1550.02
1014.807	1554.99
1015.099	1513.18
1015.391	1503.92
1015.683	1523.8
1015.976	1497.36
1016.268	1506.4
1016.56	1481.77
1016.851	1465.5
1017.143	1456.91
1017.435	1440.64
1017.727	1472.05
1018.018	1451.26
1018.31	1434.99
1018.602	1415.56
1018.893	1408.55
1019.185	1378.72
1019.476	1385.95
1019.767	1407.65
1020.058	1394.99
1020.35	1375.33
1020.641	1352.73
1020.932	1363.58
1021.223	1334.43
1021.514	1322.23
1021.804	1344.82
1022.095	1325.84
1022.386	1315.45
1022.677	1265.96
1022.967	1298.72
1023.258	1298.5
1023.548	1300.76
1023.839	1260.76
1024.129	1262.79
1024.419	1262.79
1024.709	1258.72
1025	1236.8
1025.29	1245.17
1025.58	1211.72
1025.87	1217.6
1026.16	1209.23
1026.449	1208.33
1026.739	1210.82
1027.029	1180.53
1027.319	1165.17
1027.608	1180.99
1027.898	1166.97
1028.187	1148.9
1028.477	1132.85
1028.766	1160.87
1029.055	1121.33
1029.344	1115.22
1029.634	1102.34
1029.923	1138.73
1030.212	1110.25
1030.501	1093.98
1030.79	1105.73
1031.078	1068.9
1031.367	1079.75
1031.656	1071.84
1031.945	1067.77
1032.233	1056.7
1032.522	1053.98
1032.81	1049.92
1033.099	1051.5
1033.387	1030.48
1033.675	1029.13
1033.963	1032.97
1034.251	1017.6
1034.54	1013.08
1034.828	964.95
1035.116	997.94
1035.403	983.7
1035.691	938.51
1035.979	988.45
1036.267	965.85
1036.554	963.82
1036.842	947.32
1037.129	929.92
1037.417	929.69
1037.704	922.01
1037.992	939.41
1038.279	925.63
1038.566	925.85
1038.853	925.85
1039.14	925.85
