Data from hue_350_FLMS001491_57.txt Node
Date: Mon Feb 06 15:38:13 GMT 2017
User: dcchb
Spectrometer: FLMS00149
Trigger mode: 0
Integration Time (sec): 2.000000E-2
Scans to average: 10
Electric dark correction enabled: true
Nonlinearity correction enabled: false
Boxcar width: 0
XAxis mode: Wavelengths
Number of Pixels in Spectrum: 2048
>>>>>Begin Spectral Data<<<<<
341.393	-13.02
341.776	-13.02
342.16	-13.02
342.543	-47.82
342.927	-53.7
343.31	-85.11
343.693	-81.95
344.077	-50.76
344.46	-46.02
344.843	-39.91
345.226	-61.61
345.61	-29.29
345.993	-10.54
346.376	3.25
346.759	13.42
347.142	7.32
347.525	51.38
347.908	72.17
348.291	64.04
348.674	83.25
349.057	110.36
349.44	118.95
349.823	134.32
350.206	162.57
350.588	196.46
350.971	198.95
351.354	220.87
351.737	231.27
352.119	260.19
352.502	242.11
352.884	276.01
353.267	276.24
353.65	282.56
354.032	311.94
354.414	298.83
354.797	328.89
355.179	311.71
355.562	311.26
355.944	306.74
356.326	342.67
356.709	340.64
357.091	331.15
357.473	337.48
357.855	322.56
358.238	353.07
358.62	350.13
359.002	341.09
359.384	322.79
359.766	344.48
360.148	336.8
360.53	339.28
360.912	334.99
361.294	331.38
361.676	325.73
362.057	325.73
362.439	325.27
362.821	338.61
363.203	327.99
363.584	324.37
363.966	323.47
364.348	321.43
364.729	322.56
365.111	324.14
365.493	306.97
365.874	316.23
366.256	325.05
366.637	317.59
367.019	310.13
367.4	312.39
367.781	307.42
368.163	319.4
368.544	302.68
368.925	320.75
369.306	299.29
369.688	304.71
370.069	315.1
370.45	331.6
370.831	309.46
371.212	297.25
371.593	307.42
371.974	300.64
372.355	316.23
372.736	304.94
373.117	339.51
373.498	331.6
373.879	319.62
374.26	327.76
374.641	298.38
375.021	307.65
375.402	305.39
375.783	308.33
376.163	333.86
376.544	327.08
376.925	321.21
377.305	330.25
377.686	326.18
378.066	314.43
378.447	334.77
378.827	323.92
379.208	348.32
379.588	323.01
379.968	308.55
380.349	318.04
380.729	320.53
381.109	325.27
381.489	355.78
381.87	324.6
382.25	323.01
382.63	299.29
383.01	346.06
383.39	351.04
383.77	328.89
384.15	341.77
384.53	324.14
384.91	344.93
385.29	349.23
385.67	351.26
386.049	351.26
386.429	343.13
386.809	351.71
387.189	348.1
387.568	321.88
387.948	329.57
388.328	345.39
388.707	353.97
389.087	341.54
389.466	339.96
389.846	376.35
390.225	346.74
390.605	344.03
390.984	344.48
391.363	357.36
391.743	364.82
392.122	344.71
392.501	353.75
392.881	359.17
393.26	359.17
393.639	355.56
394.018	367.98
394.397	390.58
394.776	374.99
395.155	377.48
395.534	373.86
395.913	392.84
396.292	358.49
396.671	384.26
397.05	356.23
397.429	372.73
397.808	369.79
398.186	390.81
398.565	376.8
398.944	377.48
399.323	380.87
399.701	376.35
400.08	383.8
400.458	383.13
400.837	386.06
401.215	384.48
401.594	388.32
401.972	393.29
402.351	391.26
402.729	384.93
403.107	377.48
403.486	370.24
403.864	392.84
404.242	394.88
404.62	372.5
404.999	395.55
405.377	396.91
405.755	393.97
406.133	410.47
406.511	398.94
406.889	411.83
407.267	417.7
407.645	387.42
408.023	419.06
408.401	403.24
408.779	424.48
409.156	445.5
409.534	429.23
409.912	430.58
410.29	424.93
410.667	426.74
411.045	442.33
411.422	436.68
411.8	430.58
412.178	453.18
412.555	442.33
412.933	468.32
413.31	478.26
413.687	447.3
414.065	447.3
414.442	466.51
414.819	472.16
415.197	483.91
415.574	475.55
415.951	485.27
416.328	469.22
416.705	464.71
417.082	452.05
417.46	501.09
417.837	476.68
418.214	505.61
418.591	499.28
418.967	492.05
419.344	498.6
419.721	512.16
420.098	515.1
420.475	530.24
420.852	491.15
421.228	519.17
421.605	505.61
421.982	518.04
422.358	525.95
422.735	542.44
423.111	508.09
423.488	535.21
423.864	531.14
424.241	551.03
424.617	547.19
424.994	549.22
425.37	568.88
425.746	545.83
426.123	553.97
426.499	561.2
426.875	558.71
427.251	574.53
427.627	569.34
428.003	561.65
428.379	574.53
428.756	582.22
429.132	587.87
429.507	610.24
429.883	592.84
430.259	603.23
430.635	592.61
431.011	602.33
431.387	615.66
431.763	638.94
432.138	628.32
432.514	621.99
432.89	636.68
433.265	631.93
433.641	634.87
434.016	662.67
434.392	654.3
434.767	656.79
435.143	669.67
435.518	676.9
435.894	682.55
436.269	698.15
436.644	695.66
437.02	707.64
437.395	673.97
437.77	692.04
438.145	701.76
438.52	718.26
438.895	705.15
439.271	706.96
439.646	736.56
440.021	740.18
440.395	741.53
440.77	741.76
441.145	730.91
441.52	730.46
441.895	756.45
442.27	744.7
442.645	759.61
443.019	783.12
443.394	742.44
443.769	763
444.143	773.85
444.518	784.7
444.892	784.02
445.267	792.15
445.641	788.99
446.016	791.93
446.39	805.94
446.764	799.16
447.139	791.48
447.513	786.28
447.887	831.48
448.262	817.46
448.636	831.02
449.01	813.4
449.384	808.43
449.758	821.08
450.132	812.49
450.506	821.98
450.88	835.54
451.254	825.83
451.628	832.61
452.002	840.97
452.376	875.77
452.75	853.17
453.123	857.69
453.497	854.07
453.871	886.62
454.244	875.77
454.618	880.29
454.992	899.27
455.365	912.6
455.739	893.39
456.112	910.57
456.486	934.98
456.859	925.26
457.232	947.86
457.606	965.48
457.979	944.69
458.352	946.95
458.725	989.44
459.099	955.99
459.472	981.53
459.845	1003.67
460.218	1006.61
460.591	1001.41
460.964	1008.19
461.337	1026.95
461.71	1037.35
462.083	1033.73
462.456	1057.23
462.829	1053.62
463.201	1059.49
463.574	1047.06
463.947	1084.8
464.32	1082.09
464.692	1098.59
465.065	1102.2
465.438	1122.54
465.81	1119.38
466.183	1129.55
466.555	1156.21
466.928	1144.91
467.3	1171.13
467.672	1195.76
468.045	1199.83
468.417	1233.05
468.789	1210.45
469.161	1242.99
469.534	1238.92
469.906	1263.55
470.278	1312.37
470.65	1272.37
471.022	1289.99
471.394	1337
471.766	1327.28
472.138	1351.46
472.51	1347.85
472.882	1385.36
473.253	1413.61
473.625	1414.06
473.997	1454.51
474.369	1499.93
474.74	1451.57
475.112	1499.03
475.484	1522.3
475.855	1592.13
476.227	1565.02
476.598	1606.82
476.97	1605.69
477.341	1669.42
477.713	1647.5
478.084	1696.09
478.455	1713.26
478.827	1735.63
479.198	1826.7
479.569	1792.81
479.94	1844.78
480.311	1867.61
480.682	1884.33
481.053	1922.97
481.424	1948.28
481.795	2005.68
482.166	2009.07
482.537	2037.09
482.908	2092.23
483.279	2102.4
483.65	2171.55
484.021	2161.38
484.391	2175.39
484.762	2188.05
485.133	2258.56
485.503	2240.48
485.874	2335.84
486.244	2368.38
486.615	2393.24
486.985	2396.86
487.356	2461.94
487.726	2508.95
488.097	2541.71
488.467	2537.19
488.837	2597.76
489.207	2631.88
489.578	2676.4
489.948	2714.82
490.318	2709.39
490.688	2726.11
491.058	2787.58
491.428	2797.53
491.798	2851.76
492.168	2901.25
492.538	2944.41
492.908	2977.86
493.278	3025.09
493.648	2993
494.017	3068.93
494.387	3060.8
494.757	3068.93
495.126	3165.2
495.496	3116.84
495.866	3158.87
496.235	3199.77
496.605	3261.69
496.974	3220.57
497.344	3308.7
497.713	3304.4
498.082	3347.34
498.452	3300.11
498.821	3337.85
499.19	3340.11
499.559	3380.33
499.928	3421.01
500.298	3418.98
500.667	3455.36
501.036	3477.51
501.405	3499.2
501.774	3539.65
502.143	3542.82
502.512	3543.49
502.88	3566.09
503.249	3601.8
503.618	3609.93
503.987	3640.22
504.356	3649.48
504.724	3658.97
505.093	3683.83
505.462	3722.92
505.83	3717.28
506.199	3736.71
506.567	3773.09
506.936	3784.84
507.304	3767.67
507.672	3799.53
508.041	3816.93
508.409	3878.63
508.777	3826.42
509.145	3874.33
509.514	3856.93
509.882	3913.43
510.25	3946.42
510.618	3920.89
510.986	3967.21
511.354	3975.8
511.722	3975.12
512.09	4019.41
512.458	4009.24
512.826	4051.28
513.193	4048.11
513.561	4040.43
513.929	4066.42
514.297	4089.02
514.664	4095.34
515.032	4119.98
515.4	4157.04
515.767	4176.47
516.135	4168.11
516.502	4207.21
516.869	4173.31
517.237	4204.72
517.604	4206.98
517.972	4218.96
518.339	4233.87
518.706	4238.84
519.073	4277.49
519.44	4284.27
519.808	4292.4
520.175	4306.64
520.542	4304.15
520.909	4351.38
521.276	4348.22
521.643	4374.21
522.009	4384.83
522.376	4402.45
522.743	4452.62
523.11	4448.1
523.477	4466.63
523.843	4470.7
524.21	4499.63
524.577	4563.58
524.943	4552.28
525.31	4574.43
525.676	4629.34
526.043	4684.26
526.409	4667.76
526.776	4688.1
527.142	4703.46
527.508	4665.5
527.874	4684.48
528.241	4759.96
528.607	4767.87
528.973	4812.84
529.339	4859.17
529.705	4879.05
530.071	4871.37
530.437	4903.91
530.803	4943.91
531.169	4908.43
531.535	4925.6
531.901	4950.01
532.267	5002.89
532.632	5023.46
532.998	5021.65
533.364	5074.98
533.73	5057.8
534.095	5127.63
534.461	5098.03
534.826	5156.11
535.192	5197.46
535.557	5166.05
535.923	5194.07
536.288	5240.17
536.653	5247.63
537.019	5265.93
537.384	5266.61
537.749	5306.61
538.114	5330.79
538.479	5265.93
538.845	5356.1
539.21	5376.67
539.575	5399.26
539.94	5381.86
540.305	5410.11
540.67	5417.12
541.034	5498.92
541.399	5456.89
541.764	5492.82
542.129	5508.87
542.494	5591.35
542.858	5576.66
543.223	5605.59
543.587	5623.21
543.952	5621.18
544.316	5705.02
544.681	5622.31
545.045	5687.62
545.41	5709.54
545.774	5730.33
546.138	5776.43
546.503	5785.92
546.867	5832.93
547.231	5860.04
547.595	5844.9
547.959	5885.58
548.324	5850.78
548.688	5938.23
549.052	5954.28
549.416	5961.74
549.779	5931.91
550.143	5957.44
550.507	5994.28
550.871	6062.52
551.235	6044.22
551.599	6111.34
551.962	6077.44
552.326	6093.48
552.689	6161.73
553.053	6158.57
553.417	6163.54
553.78	6182.52
554.143	6227.49
554.507	6207.83
554.87	6206.48
555.234	6275.63
555.597	6208.06
555.96	6367.6
556.323	6335.96
556.686	6309.75
557.05	6412.57
557.413	6367.6
557.776	6424.32
558.139	6464.1
558.502	6415.28
558.865	6469.07
559.228	6488.5
559.59	6538.22
559.953	6568.95
560.316	6565.34
560.679	6570.08
561.041	6554.71
561.404	6576.63
561.767	6634.94
562.129	6589.97
562.492	6714.94
562.854	6653.02
563.217	6698.44
563.579	6759
563.941	6789.28
564.304	6731.43
564.666	6829.28
565.028	6829.51
565.39	6841.49
565.753	6809.62
566.115	6908.83
566.477	6963.29
566.839	6959
567.201	7010.07
567.563	6960.81
567.925	7071.09
568.287	7039.45
568.648	7015.72
569.01	7130.97
569.372	7153.34
569.734	7112.44
570.095	7153.79
570.457	7195.83
570.819	7249.16
571.18	7246.45
571.542	7301.81
571.903	7292.32
572.265	7311.53
572.626	7401.25
572.987	7427.23
573.349	7402.6
573.71	7535.03
574.071	7584.74
574.432	7628.58
574.794	7748.36
575.155	7697.51
575.516	7731.18
575.877	7830.84
576.238	7885.08
576.599	7956.71
576.96	8015.47
577.32	8056.82
577.681	8190.6
578.042	8236.93
578.403	8280.09
578.763	8351.73
579.124	8439.64
579.485	8592.63
579.845	8661.78
580.206	8729.8
580.566	8834.2
580.927	8967.76
581.287	9111.94
581.648	9169.56
582.008	9327.07
582.368	9459.27
582.728	9561.87
583.089	9712.15
583.449	9873.72
583.809	10006.83
584.169	10236.2
584.529	10337.44
584.889	10572.24
585.249	10688.62
585.609	10839.8
585.969	11088.15
586.329	11291.99
586.688	11491.99
587.048	11682.26
587.408	11868.02
587.768	12069.82
588.127	12300.33
588.487	12557.27
588.846	12796.58
589.206	13017.82
589.565	13254.88
589.925	13579.84
590.284	13773.51
590.643	14021.41
591.003	14312.48
591.362	14610.77
591.721	14807.15
592.08	15084.21
592.44	15330.3
592.799	15618.21
593.158	15939.1
593.517	16246.21
593.876	16486.66
594.235	16758.51
594.593	17020.65
594.952	17415.9
595.311	17601.2
595.67	17933.4
596.029	18269.66
596.387	18656.77
596.746	18892.24
597.104	19181.73
597.463	19423.53
597.822	19807.93
598.18	20045.66
598.538	20293.34
598.897	20701.46
599.255	20900.1
599.613	21484.04
599.972	21621.89
600.33	21878.83
600.688	22107.75
601.046	22461.64
601.404	22849.43
601.762	23106.6
602.12	23397.44
602.478	23678.33
602.836	23977.76
603.194	24091.43
603.552	24439.89
603.91	24682.83
604.268	24996.26
604.625	25150.38
604.983	25625.17
605.341	25705.4
605.698	26057.7
606.056	26383.8
606.413	26575.88
606.771	26781.3
607.128	27111.91
607.485	27245.7
607.843	27439.59
608.2	27828.28
608.557	28137.65
608.914	28162.96
609.272	28619.67
609.629	28864.41
609.986	29176.94
610.343	29097.62
610.7	29578.29
611.057	29751.39
611.414	29900.32
611.771	30009.24
612.127	30364.94
612.484	30475.67
612.841	30771.71
613.198	30856.67
613.554	31037.69
613.911	31389.32
614.267	31516.09
614.624	31577.11
614.98	31861.39
615.337	32100.48
615.693	32168.5
616.05	32413.24
616.406	32666.12
616.762	32698.66
617.118	32873.34
617.475	32921.7
617.831	33230.17
618.187	33273.56
618.543	33691.18
618.899	33804.39
619.255	33804.85
619.611	33942.47
619.967	34082.13
620.323	34333.19
620.678	34427.65
621.034	34278.05
621.39	34332.06
621.746	34609.12
622.101	35008.88
622.457	34798.49
622.812	35006.4
623.168	35178.37
623.523	35093.17
623.879	35421.07
624.234	35156
624.589	35466.72
624.945	35637.11
625.3	35687.96
625.655	35740.61
626.01	35835.3
626.365	35960.04
626.72	35971.34
627.075	36090.66
627.43	36221.96
627.785	36037.78
628.14	36272.58
628.495	36308.96
628.85	36299.02
629.205	36181.51
629.559	36548.5
629.914	36397.77
630.269	36486.81
630.623	36333.59
630.978	36407.72
631.332	36610.2
631.687	36806.12
632.041	36566.13
632.396	36698.1
632.75	36611.55
633.104	36690.65
633.459	36604.77
633.813	36593.25
634.167	36675.73
634.521	36745.11
634.875	36852.45
635.229	36623.08
635.583	36601.16
635.937	36628.95
636.291	36670.53
636.645	36772
636.999	36687.26
637.352	36769.29
637.706	36543.98
638.06	36848.61
638.413	36624.43
638.767	36623.3
639.121	36791.43
639.474	36426.92
639.828	36623.53
640.181	36710.76
640.534	36681.38
640.888	36506.02
641.241	36427.83
641.594	36548.05
641.947	36730.87
642.301	36623.08
642.654	36621.27
643.007	36586.92
643.36	36565.23
643.713	36563.42
644.066	36640.48
644.419	36468.28
644.771	36227.38
645.124	35983.09
645.477	35832.59
645.83	35621.3
646.182	35607.06
646.535	35456.55
646.888	35632.37
647.24	35411.13
647.593	35665.36
647.945	35589.88
648.298	35462.66
648.65	35354.64
649.002	35337.91
649.355	35432.83
649.707	35409.1
650.059	35589.66
650.411	35994.62
650.763	35970.89
651.115	36391.44
651.467	36206.59
651.819	36169.76
652.171	36210.43
652.523	36217.21
652.875	36082.07
653.227	36139.02
653.578	36202.52
653.93	36085.46
654.282	35906.49
654.633	35972.7
654.985	36016.54
655.337	35957.56
655.688	35920.04
656.039	36083.66
656.391	35798.24
656.742	35884.56
657.094	35868.07
657.445	35900.38
657.796	35877.11
658.147	35859.93
658.498	35948.07
658.849	35919.14
659.2	36000.95
659.551	35922.3
659.902	36052.24
660.253	35831.23
660.604	36017.67
660.955	35729.31
661.306	35889.54
661.656	35875.07
662.007	35898.58
662.358	35819.48
662.708	35792.82
663.059	35793.04
663.409	35646.83
663.76	35928.41
664.11	35927.05
664.461	35805.92
664.811	35871.68
665.161	35794.4
665.511	35690.22
665.862	35764.57
666.212	35811.35
666.562	35746.94
666.912	35821.52
667.262	35630.79
667.612	35796.88
667.962	35759.37
668.312	35635.31
668.662	35904.9
669.011	35589.66
669.361	35624.23
669.711	35628.3
670.06	35493.39
670.41	35584.69
670.76	35456.1
671.109	35762.76
671.459	35501.52
671.808	35484.58
672.157	35787.62
672.507	35422.2
672.856	35373.84
673.205	35535.42
673.554	35650.22
673.904	35385.6
674.253	35674.4
674.602	35475.31
674.951	34993.29
675.3	34814.76
675.649	35387.85
675.998	35344.24
676.346	35312.6
676.695	35309.21
677.044	35185.83
677.393	35412.03
677.741	35298.14
678.09	35203.9
678.438	35112.83
678.787	35216.33
679.135	35238.03
679.484	34935.21
679.832	35198.71
680.181	34961.2
680.529	35067.64
680.877	35066.28
681.225	34831.03
681.573	35188.31
681.922	34784.48
682.27	34829.9
682.618	34744.93
682.966	34654.54
683.314	34853.18
683.661	34627.2
684.009	34514.21
684.357	34523.47
684.705	34424.26
685.053	34459.74
685.4	34406.64
685.748	34205.74
686.095	34222.01
686.443	34036.7
686.79	33944.28
687.138	34074.67
687.485	34185.4
687.832	33928.91
688.18	33982.92
688.527	33848.69
688.874	33799.87
689.221	33684.17
689.568	33653.66
689.915	33722.81
690.262	33597.39
690.609	33500.45
690.956	33333.22
691.303	33306.1
691.65	33222.94
691.997	33274.46
692.344	33066.33
692.69	32989.27
693.037	33018.65
693.383	32723.97
693.73	32865.66
694.077	32815.72
694.423	32640.81
694.769	32502.73
695.116	32572.34
695.462	32349.06
695.808	32341.83
696.155	32464.77
696.501	32165.79
696.847	32150.65
697.193	31675.86
697.539	31977.78
697.885	31803.99
698.231	31708.18
698.577	31729.42
698.923	31615.3
699.269	31482.65
699.614	31298.7
699.96	31207.63
700.306	31333.5
700.651	31171.24
700.997	31047.63
701.342	31056.67
701.688	31090.79
702.033	30872.49
702.379	30898.26
702.724	30681.54
703.069	30785.49
703.415	30542.56
703.76	30437.7
704.105	30500.3
704.45	30341.89
704.795	30293.3
705.14	30226.63
705.485	30127.65
705.83	30026.64
706.175	30132.4
706.52	29969.69
706.865	29879.07
707.209	29785.06
707.554	29730.38
707.899	29769.7
708.243	29628.68
708.588	29614.22
708.932	29364.96
709.277	29325.87
709.621	29531.74
709.966	29260.11
710.31	29362.7
710.654	29073.9
710.998	29051.98
711.342	29115.03
711.687	29027.12
712.031	28969.27
712.375	28748.03
712.719	28924.3
713.063	28864.86
713.407	28845.43
713.75	28612.44
714.094	28625.55
714.438	28522.05
714.782	28563.63
715.125	28398.66
715.469	28437.3
715.812	28232.56
716.156	28220.81
716.499	28205.22
716.843	28214.03
717.186	28034.38
717.53	28123.19
717.873	28151.43
718.216	28050.42
718.559	27863.08
718.902	27742.18
719.246	27768.62
719.589	27664.89
719.932	27640.94
720.275	27646.14
720.617	27585.8
720.96	27412.92
721.303	27529.3
721.646	27493.83
721.989	27344.22
722.331	27513.49
722.674	27320.5
723.016	27298.58
723.359	27309.42
723.701	27345.58
724.044	27108.75
724.386	26967.51
724.729	27115.98
725.071	27021.07
725.413	26918.02
725.755	27045.02
726.097	26993.95
726.439	26769.78
726.782	26733.62
727.124	26919.83
727.465	26662.89
727.807	26754.18
728.149	26643.9
728.491	26501.31
728.833	26571.82
729.175	26492.27
729.516	26476.22
729.858	26344.7
730.199	26527.52
730.541	26337.92
730.882	26356.23
731.224	26422.21
731.565	26256.57
731.906	26231.94
732.248	26174.31
732.589	26070.36
732.93	25983.81
733.271	26045.5
733.612	26073.52
733.953	26159.85
734.294	25905.84
734.635	25976.35
734.976	25885.28
735.317	25788.11
735.658	25884.83
735.999	25754.66
736.339	25838.73
736.68	25695.91
737.021	25685.06
737.361	25542.69
737.702	25692.52
738.042	25458.85
738.383	25500.66
738.723	25527.1
739.063	25442.58
739.404	25460.21
739.744	25432.41
740.084	25330.04
740.424	25216.6
740.764	25316.48
741.104	25354.45
741.444	25142.7
741.784	25101.35
742.124	25164.17
742.464	25217.73
742.804	25162.14
743.143	25035.13
743.483	25024.06
743.823	24757.85
744.162	24891.63
744.502	24944.06
744.841	24744.74
745.181	24930.73
745.52	24782.48
745.86	24744.29
746.199	24743.84
746.538	24719.89
746.877	24799.66
747.216	24711.53
747.556	24647.57
747.895	24566.22
748.234	24525.77
748.573	24456.84
748.911	24482.38
749.25	24468.14
749.589	24303.63
749.928	24345.21
750.267	24425.88
750.605	24300.69
750.944	24148.83
751.283	24213.46
751.621	24293.46
751.96	24061.82
752.298	24091.2
752.636	24045.78
752.975	23842.85
753.313	23843.07
753.651	23972.11
753.989	23775.5
754.327	23785.9
754.666	23611.44
755.004	23722.4
755.342	23650.76
755.679	23501.39
756.017	23372.13
756.355	23498
756.693	23451.9
757.031	23361.28
757.368	23257.1
757.706	23339.81
758.044	23331.22
758.381	23219.14
758.719	23091.91
759.056	23094.62
759.394	23081.74
759.731	22927.17
760.068	22968.07
760.405	22867.96
760.743	22820.73
761.08	22798.13
761.417	22691.47
761.754	22616.67
762.091	22501.19
762.428	22513.62
762.765	22351.59
763.102	22505.48
763.438	22299.61
763.775	22200.18
764.112	22246.96
764.449	22270.23
764.785	22050.13
765.122	21859.85
765.458	21823.92
765.795	21906.85
766.131	21815.33
766.467	21713.19
766.804	21652.85
767.14	21516.58
767.476	21546.18
767.812	21485.17
768.148	21445.62
768.485	21310.71
768.821	21182.58
769.157	21114.78
769.492	21154.33
769.828	21149.13
770.164	20848.58
770.5	20891.06
770.836	20835.92
771.171	20731.29
771.507	20785.98
771.842	20536.95
772.178	20543.27
772.513	20383.5
772.849	20431.86
773.184	20308.7
773.519	20261.92
773.855	20197.52
774.19	20143.74
774.525	20096.28
774.86	20067.58
775.195	19894.25
775.53	19911.88
775.865	19858.55
776.2	19637.31
776.535	19620.81
776.87	19557.08
777.205	19531.77
777.539	19412.91
777.874	19517.99
778.209	19283.65
778.543	19281.61
778.878	19104.44
779.212	19063.76
779.547	18967.27
779.881	18996.42
780.215	18787.16
780.55	18984.9
780.884	18711.91
781.218	18697.22
781.552	18744.45
781.886	18572.48
782.22	18516.43
782.554	18348.98
782.888	18262.2
783.222	18186.5
783.556	18137.69
783.889	18130.68
784.223	18007.29
784.557	17881.87
784.89	17921.42
785.224	17861.08
785.557	17698.15
785.891	17803.68
786.224	17680.07
786.558	17649.56
786.891	17436.24
787.224	17482.11
787.557	17342.45
787.891	17403.92
788.224	17295.68
788.557	17337.93
788.89	17225.39
789.223	17229.24
789.556	17045.96
789.888	17075.79
790.221	17001.45
790.554	16884.61
790.887	16811.62
791.219	16730.49
791.552	16648.46
791.884	16687.56
792.217	16615.69
792.549	16611.4
792.882	16446.43
793.214	16347
793.546	16513.32
793.879	16292.76
794.211	16172.31
794.543	16266.78
794.875	16187.46
795.207	16256.61
795.539	16071.75
795.871	16077.4
796.203	15976.16
796.535	15825.21
796.867	15874.47
797.198	15788.6
797.53	15771.42
797.862	15649.84
798.193	15663.63
798.525	15503.63
798.856	15615.27
799.188	15421.83
799.519	15444.65
799.85	15321.72
800.182	15336.4
800.513	15342.28
800.844	15115.62
801.175	15258.89
801.506	15180.02
801.837	15063.87
802.168	15050.99
802.499	15010.09
802.83	14886.25
803.161	14935.06
803.491	14862.29
803.822	14929.18
804.153	14771.67
804.483	14743.2
804.814	14586.82
805.145	14604.9
805.475	14576.65
805.805	14555.86
806.136	14585.69
806.466	14556.99
806.796	14499.36
807.126	14334.85
807.457	14406.49
807.787	14304.12
808.117	14300.73
808.447	14190.67
808.777	14310.22
809.107	14228.19
809.436	14175.08
809.766	14172.37
810.096	14045.37
810.426	14074.97
810.755	14074.29
811.085	14048.08
811.414	13955.65
811.744	13872.49
812.073	13863.45
812.403	13884.92
812.732	13757.69
813.061	13775.77
813.39	13677.24
813.719	13568.32
814.049	13658.03
814.378	13616
814.707	13507.98
815.036	13565.38
815.365	13519.05
815.693	13334.2
816.022	13299.85
816.351	13362.67
816.68	13274.09
817.008	13286.06
817.337	13189.12
817.665	13204.48
817.994	13268.89
818.322	13232.28
818.651	13129.68
818.979	13028.22
819.307	13232.96
819.636	13044.04
819.964	12935.34
820.292	13141.43
820.62	13017.82
820.948	12866.64
821.276	12983.47
821.604	12911.16
821.932	12897.15
822.259	12961.55
822.587	12873.64
822.915	12875.9
823.243	12894.43
823.57	12865.28
823.898	12943.47
824.225	12923.81
824.553	12866.64
824.88	12924.04
825.207	12918.16
825.535	12859.18
825.862	12906.19
826.189	12792.29
826.516	12894.43
826.843	12926.52
827.17	12856.92
827.497	12799.97
827.824	12858.5
828.151	12905.06
828.478	12870.48
828.805	12870.25
829.131	12816.24
829.458	12820.31
829.785	12752.74
830.111	12746.42
830.438	12830.71
830.764	12839.75
831.09	12960.87
831.417	12696.25
831.743	12730.6
832.069	12826.87
832.395	12728.11
832.722	12833.42
833.048	12618.28
833.374	12737.6
833.7	12754.55
834.026	12677.27
834.351	12782.57
834.677	12750.48
835.003	12729.92
835.329	12736.25
835.654	12693.54
835.98	12594.1
836.306	12575.8
836.631	12544.84
836.956	12576.48
837.282	12684.27
837.607	12542.13
837.932	12498.06
838.258	12514.33
838.583	12501.68
838.908	12395.47
839.233	12462.36
839.558	12406.76
839.883	12482.24
840.208	12312.3
840.533	12416.48
840.858	12367.44
841.182	12335.35
841.507	12268.46
841.832	12193.21
842.156	12210.61
842.481	12263.04
842.805	12196.83
843.13	12073.67
843.454	12152.53
843.778	12103.27
844.103	12056.26
844.427	12016.04
844.751	12018.3
845.075	11991.86
845.399	11947.34
845.723	11863.5
846.047	11909.38
846.371	11817.18
846.695	11745.31
847.019	11739.44
847.343	11682.04
847.666	11589.61
847.99	11572.21
848.313	11539.67
848.637	11466.22
848.96	11457.64
849.284	11434.81
849.607	11291.54
849.931	11315.04
850.254	11246.34
850.577	11180.58
850.9	11135.16
851.223	11089.74
851.546	11119.34
851.869	10965.22
852.192	11016.97
852.515	11001.83
852.838	10872.34
853.161	10880.93
853.483	10800.7
853.806	10733.14
854.129	10757.77
854.451	10729.75
854.774	10674.38
855.096	10589.64
855.419	10520.03
855.741	10571.11
856.063	10510.32
856.385	10465.8
856.708	10420.38
857.03	10477.78
857.352	10438.68
857.674	10390.55
857.996	10291.79
858.318	10342.64
858.64	10286.14
858.961	10232.58
859.283	10158.91
859.605	10144.9
859.926	10211.57
860.248	10195.07
860.57	10161.63
860.891	10063.55
861.212	10084.57
861.534	10034.62
861.855	10032.36
862.176	9972.7
862.498	10031.91
862.819	9961.63
863.14	9962.99
863.461	9844.35
863.782	9830.11
864.103	9904.01
864.424	9907.62
864.745	9880.95
865.065	9774.52
865.386	9764.57
865.707	9809.54
866.027	9687.97
866.348	9699.49
866.668	9741.52
866.989	9673.28
867.309	9628.76
867.63	9689.32
867.95	9718.47
868.27	9641.19
868.59	9593.5
868.91	9594.41
869.23	9568.87
869.55	9526.16
869.87	9598.25
870.19	9495.2
870.51	9567.29
870.83	9493.62
871.15	9443.68
871.469	9445.26
871.789	9497.91
872.109	9509.21
872.428	9407.97
872.748	9398.71
873.067	9433.28
873.386	9493.17
873.706	9378.6
874.025	9303.12
874.344	9290.46
874.663	9422.89
874.982	9250.46
875.301	9234.42
875.62	9268.99
875.939	9250.24
876.258	9236.9
876.577	9287.98
876.896	9201.42
877.214	9196.68
877.533	9240.52
877.852	9177.02
878.17	9207.07
878.489	9199.39
878.807	9199.62
879.125	9108.09
879.444	9142.67
879.762	9101.99
880.08	9107.19
880.398	9098.83
880.716	9061.32
881.034	9038.49
881.352	9086.63
881.67	9007.76
881.988	9006.18
882.306	8968.89
882.624	8968.21
882.941	8872.85
883.259	8847.08
883.577	8855.45
883.894	8787.65
884.212	8806.18
884.529	8830.59
884.846	8811.6
885.164	8790.36
885.481	8734.77
885.798	8799.85
886.115	8677.82
886.432	8689.8
886.75	8646.64
887.067	8694.09
887.383	8580.2
887.7	8647.99
888.017	8542.23
888.334	8574.32
888.651	8511.73
888.967	8547.88
889.284	8486.42
889.6	8427.66
889.917	8392.63
890.233	8390.6
890.55	8350.83
890.866	8369.36
891.182	8323.26
891.498	8301.79
891.815	8290.94
892.131	8242.13
892.447	8233.54
892.763	8192.86
893.079	8189.7
893.395	8191.28
893.71	8137.72
894.026	8180.66
894.342	8078.29
894.657	8048.69
894.973	8047.33
895.289	8046.88
895.604	8046.65
895.92	8019.99
896.235	8023.15
896.55	7872.87
896.865	7898.86
897.181	7897.28
897.496	7853.44
897.811	7814.79
898.126	7826.77
898.441	7763.27
898.756	7734.8
899.071	7704.06
899.386	7650.05
899.7	7620.22
900.015	7579.09
900.33	7525.54
900.644	7590.85
900.959	7590.85
901.273	7565.54
901.588	7470.62
901.902	7470.17
902.216	7421.58
902.531	7452.32
902.845	7420.23
903.159	7352.43
903.473	7344.3
903.787	7250.97
904.101	7320.34
904.415	7236.05
904.729	7240.57
905.042	7170.07
905.356	7182.04
905.67	7137.98
905.984	7139.11
906.297	7112.44
906.611	7031.54
906.924	7014.36
907.237	7011.2
907.551	6940.47
907.864	6935.04
908.177	6979.56
908.491	6971.2
908.804	6935.5
909.117	6845.33
909.43	6848.94
909.743	6761.71
910.056	6722.62
910.368	6772.79
910.681	6744.09
910.994	6690.53
911.307	6671.77
911.619	6632.23
911.932	6610.31
912.244	6627.03
912.557	6540.48
912.869	6529.4
913.181	6480.82
913.494	6520.37
913.806	6431.1
914.118	6448.73
914.43	6397.88
914.742	6384.32
915.054	6273.37
915.366	6334.83
915.678	6334.38
915.99	6286.47
916.302	6239.24
916.613	6254.61
916.925	6184.55
917.236	6194.5
917.548	6121.05
917.859	6147.72
918.171	6029.53
918.482	6079.7
918.794	6033.6
919.105	5995.41
919.416	5943.43
919.727	6015.75
920.038	5939.14
920.349	5958.12
920.66	5902.98
920.971	5870.21
921.282	5827.28
921.593	5844.22
921.903	5821.85
922.214	5808.07
922.525	5749.31
922.835	5760.84
923.146	5730.33
923.456	5696.88
923.767	5628.19
924.077	5659.14
924.387	5601.52
924.697	5588.86
925.008	5602.2
925.318	5550
925.628	5530.11
925.938	5532.82
926.248	5461.41
926.558	5421.64
926.867	5462.77
927.177	5394.07
927.487	5403.56
927.796	5370.57
928.106	5360.62
928.416	5308.87
928.725	5265.48
929.034	5269.32
929.344	5218.93
929.653	5256.9
929.962	5166.5
930.271	5147.97
930.581	5172.15
930.89	5135.99
931.199	5130.35
931.508	5114.98
931.817	5130.35
932.125	5041.76
932.434	5030.01
932.743	4978.71
933.051	4984.81
933.36	4967.64
933.669	4946.85
933.977	4939.16
934.286	4934.19
934.594	4843.35
934.902	4829.79
935.21	4817.81
935.519	4829.56
935.827	4785.95
936.135	4780.07
936.443	4755.21
936.751	4716.12
937.059	4665.27
937.367	4686.29
937.674	4649.23
937.982	4680.64
938.29	4676.35
938.597	4630.25
938.905	4625.95
939.213	4572.17
939.52	4608.1
939.827	4559.06
940.135	4580.3
940.442	4528.55
940.749	4530.14
941.056	4510.25
941.363	4422.12
941.67	4446.97
941.977	4429.57
942.284	4374.88
942.591	4432.96
942.898	4330.14
943.205	4350.03
943.511	4332.85
943.818	4297.37
944.125	4281.78
944.431	4295.57
944.738	4268.45
945.044	4260.31
945.35	4211.95
945.657	4186.19
945.963	4178.73
946.269	4153.2
946.575	4126.98
946.881	4099.41
947.187	4133.76
947.493	4045.63
947.799	4050.15
948.105	4037.72
948.41	4037.94
948.716	4036.36
949.022	3970.83
949.327	3966.53
949.633	3890.15
949.938	3944.84
950.244	3912.52
950.549	3917.04
950.854	3889.25
951.16	3873.2
951.465	3830.49
951.77	3812.64
952.075	3865.75
952.38	3830.04
952.685	3789.59
952.99	3814.67
953.294	3790.27
953.599	3730.83
953.904	3716.15
954.209	3767.22
954.513	3717.05
954.818	3663.49
955.122	3671.4
955.426	3671.63
955.731	3646.09
956.035	3628.92
956.339	3636.37
956.643	3577.62
956.948	3602.48
957.252	3538.75
957.556	3524.06
957.86	3538.97
958.163	3521.12
958.467	3494.46
958.771	3454.23
959.075	3475.7
959.378	3469.37
959.682	3453.55
959.985	3474.8
960.289	3414.68
960.592	3401.13
960.896	3367.23
961.199	3392.76
961.502	3349.38
961.805	3374.91
962.108	3321.81
962.411	3318.19
962.714	3276.83
963.017	3249.26
963.32	3276.61
963.623	3245.42
963.926	3237.51
964.228	3221.92
964.531	3199.77
964.833	3222.6
965.136	3178.08
965.438	3199.32
965.741	3175.37
966.043	3140.12
966.345	3102.6
966.648	3142.15
966.95	3125.43
967.252	3076.16
967.554	3031.87
967.856	3071.42
968.158	3034.36
968.46	3007.01
968.761	3053.56
969.063	3011.53
969.365	3019.21
969.666	2985.09
969.968	2975.83
970.269	2923.62
970.571	2924.75
970.872	2965.88
971.174	2901.7
971.475	2904.42
971.776	2917.97
972.077	2857.41
972.378	2857.18
972.679	2840.69
972.98	2901.25
973.281	2841.37
973.582	2818.32
973.883	2821.93
974.183	2799.56
974.484	2775.83
974.785	2788.94
975.085	2781.03
975.386	2753.23
975.686	2774.48
975.986	2706.45
976.287	2708.49
976.587	2722.73
976.887	2686.79
977.187	2708.49
977.487	2675.72
977.787	2633.01
978.087	2641.37
978.387	2632.78
978.687	2651.77
978.987	2605.44
979.286	2594.37
979.586	2621.48
979.885	2557.31
980.185	2517.31
980.484	2550.3
980.784	2519.57
981.083	2517.53
981.382	2533.8
981.682	2517.53
981.981	2525.22
982.28	2445.22
982.579	2456.52
982.878	2480.02
983.177	2470.3
983.475	2483.41
983.774	2400.02
984.073	2454.71
984.372	2427.14
984.67	2391.21
984.969	2388.27
985.267	2351.89
985.566	2365.45
985.864	2347.14
986.162	2388.27
986.461	2345.56
986.759	2325.22
987.057	2329.74
987.355	2301.72
987.653	2290.87
987.951	2279.57
988.249	2272.79
988.547	2259.46
988.844	2272.12
989.142	2227.82
989.44	2248.61
989.737	2242.06
990.035	2236.64
990.332	2217.88
990.63	2178.33
990.927	2161.16
991.224	2195.06
991.521	2183.53
991.819	2190.54
992.116	2155.51
992.413	2135.17
992.71	2116.87
993.006	2103.08
993.303	2119.13
993.6	2036.42
993.897	2113.93
994.193	2056.98
994.49	2059.24
994.787	2071.89
995.083	2051.33
995.379	2046.36
995.676	2034.16
995.972	2030.31
996.268	2003.87
996.565	1985.34
996.861	1994.16
997.157	1987.38
997.453	1964.33
997.749	1958.23
998.044	1969.07
998.34	1957.55
998.636	1940.15
998.932	1920.03
999.227	1903.31
999.523	1886.59
999.818	1887.27
1000.114	1884.78
1000.409	1887.94
1000.704	1859.7
1001	1842.97
1001.295	1854.05
1001.59	1841.62
1001.885	1827.61
1002.18	1811.34
1002.475	1820.38
1002.77	1813.82
1003.065	1774.95
1003.359	1780.83
1003.654	1768.4
1003.949	1771.11
1004.243	1751.23
1004.538	1740.83
1004.832	1761.39
1005.127	1699.02
1005.421	1707.84
1005.715	1696.31
1006.009	1704.67
1006.304	1683.88
1006.598	1682.3
1006.892	1662.87
1007.186	1640.72
1007.48	1657.67
1007.773	1625.35
1008.067	1643.43
1008.361	1635.3
1008.655	1610.66
1008.948	1596.88
1009.242	1618.35
1009.535	1587.61
1009.829	1571.79
1010.122	1555.07
1010.415	1569.99
1010.708	1539.71
1011.001	1536.32
1011.295	1546.48
1011.588	1526.15
1011.881	1521.4
1012.173	1511.46
1012.466	1510.33
1012.759	1487.5
1013.052	1505.58
1013.344	1486.83
1013.637	1482.76
1013.93	1481.4
1014.222	1454.96
1014.514	1422.87
1014.807	1476.43
1015.099	1422.65
1015.391	1382.2
1015.683	1404.12
1015.976	1424.23
1016.268	1398.69
1016.56	1407.51
1016.851	1394.4
1017.143	1390.78
1017.435	1375.19
1017.727	1386.26
1018.018	1351.91
1018.31	1321.18
1018.602	1341.29
1018.893	1310.78
1019.185	1306.72
1019.476	1327.51
1019.767	1306.27
1020.058	1313.72
1020.35	1269.43
1020.641	1278.47
1020.932	1252.71
1021.223	1279.6
1021.514	1268.07
1021.804	1232.59
1022.095	1253.39
1022.386	1231.01
1022.677	1207.51
1022.967	1220.17
1023.258	1224.46
1023.548	1177.68
1023.839	1191.24
1024.129	1213.61
1024.419	1163.44
1024.709	1172.71
1025	1164.12
1025.29	1162.54
1025.58	1150.79
1025.87	1134.74
1026.16	1132.26
1026.449	1141.98
1026.739	1137.46
1027.029	1098.13
1027.319	1120.51
1027.608	1105.82
1027.898	1121.86
1028.187	1073.28
1028.477	1094.75
1028.766	1068.98
1029.055	1065.14
1029.344	1084.58
1029.634	1064.69
1029.923	1055.42
1030.212	1055.88
1030.501	1041.87
1030.79	1047.97
1031.078	1051.36
1031.367	1018.14
1031.656	1008.87
1031.945	992.38
1032.233	983.11
1032.522	989.89
1032.81	969.78
1033.099	999.38
1033.387	967.52
1033.675	976.1
1033.963	951.92
1034.251	954.86
1034.54	950.34
1034.828	976.1
1035.116	937.46
1035.403	939.27
1035.691	922.32
1035.979	936.33
1036.267	929.55
1036.554	931.36
1036.842	910.12
1037.129	914.19
1037.417	892.72
1037.704	903.79
1037.992	885.71
1038.279	880.29
1038.566	873.96
1038.853	873.96
1039.14	873.96
