Data from hue_34_FLMS001491_00072.txt Node
Date: Tue Feb 07 17:26:06 GMT 2017
User: dcchb
Spectrometer: FLMS00149
Trigger mode: 0
Integration Time (sec): 2.000000E-2
Scans to average: 10
Electric dark correction enabled: true
Nonlinearity correction enabled: false
Boxcar width: 0
XAxis mode: Wavelengths
Number of Pixels in Spectrum: 2048
>>>>>Begin Spectral Data<<<<<
341.393	-21.47
341.776	-21.47
342.16	-21.47
342.543	-62.37
342.927	-69.38
343.31	-65.99
343.693	-63.73
344.077	-54.01
344.46	-67.57
344.843	-61.02
345.226	-31.41
345.61	-40.68
345.993	-12.66
346.376	-17.63
346.759	3.62
347.142	43.39
347.525	37.97
347.908	61.02
348.291	71.86
348.674	98.3
349.057	98.53
349.44	130.17
349.823	145.98
350.206	162.48
350.588	186.66
350.971	225.08
351.354	241.8
351.737	235.47
352.119	259.2
352.502	271.86
352.884	276.6
353.267	288.58
353.65	298.52
354.032	296.94
354.414	295.81
354.797	306.88
355.179	308.92
355.562	325.64
355.944	343.27
356.326	336.49
356.709	356.83
357.091	327.22
357.473	357.28
357.855	321.57
358.238	335.36
358.62	337.62
359.002	345.53
359.384	317.96
359.766	343.49
360.148	330.16
360.53	336.71
360.912	347.11
361.294	325.19
361.676	349.6
362.057	332.42
362.439	342.82
362.821	333.78
363.203	324.51
363.584	346.21
363.966	313.44
364.348	305.53
364.729	317.05
365.111	325.19
365.493	328.58
365.874	333.32
366.256	316.15
366.637	307.56
367.019	329.48
367.4	332.87
367.781	320.9
368.163	321.12
368.544	335.58
368.925	308.24
369.306	316.15
369.688	320.22
370.069	310.05
370.45	312.31
370.831	317.96
371.212	328.8
371.593	328.13
371.974	323.16
372.355	317.51
372.736	325.19
373.117	322.7
373.498	306.21
373.879	321.12
374.26	313.44
374.641	307.11
375.021	321.8
375.402	315.47
375.783	329.26
376.163	324.51
376.544	319.54
376.925	336.94
377.305	316.15
377.686	324.29
378.066	348.24
378.447	337.39
378.827	308.24
379.208	330.16
379.588	345.3
379.968	332.42
380.349	333.55
380.729	349.6
381.109	343.49
381.489	371.29
381.87	336.49
382.25	341.46
382.63	352.99
383.01	333.32
383.39	346.66
383.77	341.69
384.15	341.01
384.53	356.37
384.91	353.21
385.29	355.92
385.67	355.7
386.049	349.82
386.429	376.71
386.809	347.34
387.189	345.75
387.568	372.65
387.948	339.88
388.328	354.79
388.707	351.63
389.087	361.12
389.466	373.32
389.846	350.73
390.225	368.13
390.605	374.23
390.984	379.65
391.363	376.26
391.743	380.55
392.122	375.81
392.501	376.26
392.881	383.27
393.26	381.46
393.639	381.68
394.018	375.58
394.397	378.3
394.776	387.56
395.155	381.01
395.534	380.33
395.913	397.5
396.292	397.28
396.671	387.11
397.05	404.06
397.429	388.46
397.808	393.44
398.186	388.92
398.565	406.77
398.944	414.68
399.323	404.28
399.701	401.57
400.08	393.89
400.458	386.88
400.837	404.74
401.215	405.19
401.594	403.61
401.972	405.19
402.351	391.18
402.729	400.67
403.107	410.61
403.486	405.19
403.864	414.9
404.242	413.77
404.62	426.43
404.999	397.5
405.377	408.12
405.755	433.43
406.133	437.73
406.511	423.04
406.889	430.72
407.267	421.91
407.645	449.03
408.023	432.53
408.401	436.37
408.779	445.19
409.156	443.6
409.534	457.16
409.912	443.6
410.29	465.3
410.667	455.81
411.045	470.95
411.422	453.1
411.8	484.28
412.178	463.26
412.555	461.68
412.933	495.13
413.31	471.85
413.687	480.89
414.065	473.66
414.442	497.39
414.819	477.95
415.197	477.05
415.574	482.02
415.951	503.49
416.328	524.05
416.705	497.84
417.082	522.92
417.46	502.13
417.837	540.32
418.214	520.66
418.591	515.01
418.967	514.56
419.344	524.73
419.721	530.38
420.098	531.74
420.475	545.3
420.852	517.27
421.228	543.49
421.605	523.6
421.982	537.39
422.358	583.94
422.735	549.59
423.111	572.19
423.488	552.75
423.864	545.3
424.241	560.44
424.617	556.14
424.994	544.84
425.37	557.95
425.746	583.49
426.123	562.92
426.499	575.58
426.875	581.23
427.251	587.78
427.627	592.75
428.003	604.96
428.379	608.12
428.756	611.06
429.132	630.72
429.507	615.35
429.883	621.68
430.259	622.36
430.635	634.56
431.011	641.34
431.387	633.43
431.763	640.66
432.138	661.68
432.514	667.33
432.89	668.01
433.265	665.97
433.641	696.93
434.016	683.37
434.392	680.89
434.767	689.93
435.143	689.47
435.518	680.43
435.894	716.14
436.269	726.31
436.644	721.11
437.02	762.47
437.395	699.42
437.77	732.86
438.145	715.91
438.52	762.92
438.895	765.63
439.271	755.23
439.646	748.91
440.021	767.89
440.395	759.53
440.77	769.02
441.145	768.79
441.52	781
441.895	774.22
442.27	796.59
442.645	798.85
443.019	821.22
443.394	804.5
443.769	811.05
444.143	801.11
444.518	805.4
444.892	811.96
445.267	818.96
445.641	833.42
446.016	828.68
446.39	840.88
446.764	851.5
447.139	826.19
447.513	845.85
447.887	836.36
448.262	861.67
448.636	865.51
449.01	867.32
449.384	875.68
449.758	862.8
450.132	896.25
450.506	891.28
450.88	908.45
451.254	886.08
451.628	889.92
452.002	920.88
452.376	939.64
452.75	939.41
453.123	952.52
453.497	957.71
453.871	966.53
454.244	968.34
454.618	956.36
454.992	961.56
455.365	997.49
455.739	1014.89
456.112	1026.41
456.486	1015.57
456.859	1021.89
457.232	1051.72
457.606	1049.24
457.979	1060.54
458.352	1067.32
458.725	1068.9
459.099	1074.55
459.472	1080.65
459.845	1136.92
460.218	1119.97
460.591	1146.64
460.964	1151.16
461.337	1177.14
461.71	1198.84
462.083	1189.8
462.456	1192.96
462.829	1222.79
463.201	1225.5
463.574	1238.39
463.947	1265.96
464.32	1276.8
464.692	1290.14
465.065	1298.04
465.438	1331.72
465.81	1335.56
466.183	1341.43
466.555	1364.94
466.928	1365.39
467.3	1385.95
467.672	1406.52
468.045	1457.14
468.417	1442.22
468.789	1466.4
469.161	1483.35
469.534	1523.12
469.906	1533.97
470.278	1554.31
470.65	1574.87
471.022	1612.39
471.394	1609.22
471.766	1672.72
472.138	1700.29
472.51	1691.71
472.882	1765.83
473.253	1759.73
473.625	1796.11
473.997	1841.76
474.369	1875.43
474.74	1897.35
475.112	1938.25
475.484	1993.62
475.855	2038.14
476.227	2041.3
476.598	2111.58
476.97	2164.01
477.341	2186.38
477.713	2259.15
478.084	2299.6
478.455	2388.86
478.827	2408.07
479.198	2489.88
479.569	2539.14
479.94	2582.08
480.311	2642.64
480.682	2724
481.053	2804.67
481.424	2884.9
481.795	2919.47
482.166	2966.02
482.537	3041.05
482.908	3106.58
483.279	3219.35
483.65	3268.16
484.021	3360.36
484.391	3450.53
484.762	3480.36
485.133	3611.66
485.503	3642.62
485.874	3770.3
486.244	3844.19
486.615	3941.37
486.985	4017.52
487.356	4114.47
487.726	4163.96
488.097	4313.33
488.467	4380.68
488.837	4484.18
489.207	4543.61
489.578	4647.34
489.948	4804.85
490.318	4862.02
490.688	4915.58
491.058	5031.96
491.428	5118.51
491.798	5236.47
492.168	5358.5
492.538	5353.08
492.908	5513.98
493.278	5586.97
493.648	5619.97
494.017	5761.2
494.387	5848.89
494.757	5924.14
495.126	6018.15
495.496	6129.78
495.866	6192.38
496.235	6279.16
496.605	6358.48
496.974	6426.95
497.344	6535.87
497.713	6616.55
498.082	6701.74
498.452	6758.69
498.821	6861.74
499.19	6879.37
499.559	6956.65
499.928	7018.8
500.298	7127.04
500.667	7235.74
501.036	7247.95
501.405	7372.01
501.774	7419.92
502.143	7491.55
502.512	7553.25
502.88	7656.52
503.249	7668.5
503.618	7760.7
503.987	7787.37
504.356	7819
504.724	7897.42
505.093	7989.17
505.462	8014.03
505.83	8077.3
506.199	8164.98
506.567	8315.49
506.936	8327.92
507.304	8404.07
507.672	8441.13
508.041	8463.51
508.409	8533.33
508.777	8637.51
509.145	8693.78
509.514	8716.38
509.882	8776.27
510.25	8841.12
510.618	8930.16
510.986	8927.22
511.354	9000.89
511.722	9069.82
512.09	9211.96
512.458	9210.38
512.826	9285.63
513.193	9305.07
513.561	9340.32
513.929	9460.77
514.297	9583.25
514.664	9585.06
515.032	9620.54
515.4	9715.22
515.767	9700.31
516.135	9740.08
516.502	9760.87
516.869	9914.32
517.237	9825.28
517.604	9907.76
517.972	10033.86
518.339	10082.22
518.706	10104.37
519.073	10140.07
519.44	10213.52
519.808	10282.44
520.175	10319.5
520.542	10419.61
520.909	10476.56
521.276	10479.95
521.643	10539.84
522.009	10567.41
522.376	10649.21
522.743	10740.06
523.11	10855.76
523.477	10885.82
523.843	11001.52
524.21	11093.49
524.577	11180.5
524.943	11254.39
525.31	11354.28
525.676	11372.13
526.043	11453.26
526.409	11500.26
526.776	11650.54
527.142	11577.77
527.508	11690.54
527.874	11748.17
528.241	11873.36
528.607	11881.95
528.973	11903.87
529.339	12001.72
529.705	12087.59
530.071	12167.14
530.437	12134.37
530.803	12281.03
531.169	12402.61
531.535	12315.16
531.901	12371.65
532.267	12426.57
532.632	12510.63
532.998	12561.03
533.364	12615.49
533.73	12699.55
534.095	12780.45
534.461	12861.36
534.826	12885.76
535.192	12934.8
535.557	13044.4
535.923	12976.61
536.288	13090.05
536.653	13178.86
537.019	13147.22
537.384	13238.3
537.749	13274.91
538.114	13292.76
538.479	13337.5
538.845	13434.9
539.21	13374.79
539.575	13574.11
539.94	13560.77
540.305	13652.3
540.67	13685.97
541.034	13635.57
541.399	13793.31
541.764	13857.49
542.129	13865.85
542.494	13932.06
542.858	13926.64
543.223	13999.63
543.587	14120.98
543.952	14121.89
544.316	14135.67
544.681	14221.55
545.045	14275.33
545.41	14394.88
545.774	14396.46
546.138	14420.64
546.503	14515.78
546.867	14511.93
547.231	14581.76
547.595	14669.9
547.959	14647.3
548.324	14718.03
548.688	14741.76
549.052	14840.29
549.416	14873.51
549.779	14899.04
550.143	15011.13
550.507	15063.33
550.871	15167.28
551.235	15053.39
551.599	15254.51
551.962	15160.51
552.326	15249.54
552.689	15447.28
553.053	15335.64
553.417	15360.95
553.78	15583.55
554.143	15554.85
554.507	15593.26
554.87	15699.02
555.234	15894.72
555.597	15808.17
555.96	15802.97
556.323	15865.8
556.686	15869.19
557.05	15928.85
557.413	16059.92
557.776	16148.05
558.139	16172
558.502	16241.61
558.865	16230.08
559.228	16360.25
559.59	16425.1
559.953	16412.9
560.316	16573.8
560.679	16585.33
561.041	16693.8
561.404	16732.22
561.767	16907.13
562.129	16696.28
562.492	17037.07
562.854	16873.68
563.217	16923.17
563.579	17079.78
563.941	17223.28
564.304	17233.22
564.666	17336.72
565.028	17298.98
565.39	17411.97
565.753	17440.67
566.115	17484.06
566.477	17578.97
566.839	17715.24
567.201	17674.56
567.563	17700.1
567.925	17873.43
568.287	17853.99
568.648	17940.32
569.01	18073.2
569.372	18125.17
569.734	18124.5
570.095	18233.64
570.457	18293.3
570.819	18402
571.18	18380.76
571.542	18627.31
571.903	18586.18
572.265	18729.68
572.626	18827.08
572.987	18830.69
573.349	18926.51
573.71	18999.95
574.071	19049.44
574.432	19110.46
574.794	19341.41
575.155	19443.56
575.516	19437.91
575.877	19528.75
576.238	19582.99
576.599	19838.57
576.96	19868.18
577.32	19912.92
577.681	20073.14
578.042	20248.73
578.403	20337.77
578.763	20472
579.124	20626.8
579.485	20854.82
579.845	20979.34
580.206	21051.42
580.566	21260.23
580.927	21351.53
581.287	21629.26
581.648	21669.03
582.008	21969.82
582.368	22101.79
582.728	22241.68
583.089	22358.06
583.449	22509.69
583.809	22757.82
584.169	23047.53
584.529	23092.27
584.889	23499.72
585.249	23521.42
585.609	23754.63
585.969	24042.53
586.329	24141.96
586.688	24487.94
587.048	24695.4
587.408	24906.69
587.768	25219.22
588.127	25281.14
588.487	25524.07
588.846	25886.33
589.206	25949.15
589.565	26281.34
589.925	26738.51
590.284	26768.11
590.643	26990.25
591.003	27473.4
591.362	27655.77
591.721	27902.32
592.08	28068.87
592.44	28433.83
592.799	28662.3
593.158	28809.19
593.517	29168.95
593.876	29504.08
594.235	29607.58
594.593	29980.68
594.952	30076.95
595.311	30257.06
595.67	30525.07
596.029	31095
596.387	31174.55
596.746	31462.9
597.104	31609.79
597.463	31790.35
597.822	32165.48
598.18	32305.37
598.538	32536.55
598.897	32940.83
599.255	32837.33
599.613	33682.5
599.972	33541.26
600.33	33870.75
600.688	33970.18
601.046	34237.52
601.404	34420.79
601.762	34593.89
602.12	34875.92
602.478	35115.69
602.836	35326.53
603.194	35337.6
603.552	35620.76
603.91	35716.57
604.268	36190.91
604.625	36291.7
604.983	36422.77
605.341	36533.73
605.698	36907.5
606.056	37056.43
606.413	37119.25
606.771	37409.19
607.128	37640.37
607.485	37587.71
607.843	37914.48
608.2	38093.01
608.557	38391.76
608.914	38361.48
609.272	38679.43
609.629	38872.42
609.986	39151.51
610.343	39021.35
610.7	39312.19
611.057	39542.92
611.414	39506.31
611.771	39765.06
612.127	39874.88
612.484	40078.49
612.841	40315.32
613.198	40229
613.554	40384.02
613.911	40611.59
614.267	40852.26
614.624	40728.19
614.98	41012.48
615.337	41274.39
615.693	41244.79
616.05	41311
616.406	41607.27
616.762	41567.04
617.118	41661.73
617.475	41769.3
617.831	41965.68
618.187	42110.08
618.543	42152.79
618.899	42426.68
619.255	42360.24
619.611	42343.07
619.967	42588.71
620.323	42665.32
620.678	42709.84
621.034	42725.66
621.39	42831.19
621.746	42804.3
622.101	43291.74
622.457	43052.43
622.812	43256.94
623.168	43324.28
623.523	43438.18
623.879	43506.2
624.234	43318.63
624.589	43540.32
624.945	43659.19
625.3	43626.88
625.655	43699.87
626.01	43765.85
626.365	43898.51
626.72	43842.24
627.075	43800.43
627.43	43781.22
627.785	43784.61
628.14	44104.83
628.495	44015.57
628.85	44032.51
629.205	43872.07
629.559	44294.65
629.914	44043.14
630.269	44205.84
630.623	44031.84
630.978	43994.1
631.332	44201.78
631.687	44289
632.041	44147.99
632.396	44270.25
632.75	44071.16
633.104	44230.48
633.459	44109.35
633.813	44217.82
634.167	44181.21
634.521	44133.3
634.875	44319.29
635.229	44209.91
635.583	44037.26
635.937	44245.62
636.291	43930.14
636.645	44021.44
636.999	43900.99
637.352	44164.71
637.706	43819.41
638.06	44151.61
638.413	44171.95
638.767	43942.8
639.121	44094.89
639.474	43831.39
639.828	44000.2
640.181	43914.78
640.534	43952.52
640.888	43977.6
641.241	43798.4
641.594	43894.44
641.947	43979.63
642.301	43764.05
642.654	43855.57
643.007	43787.32
643.36	43804.05
643.713	43790.26
644.066	43903.7
644.419	43702.13
644.771	43307.79
645.124	43024.18
645.477	43061.69
645.83	42761.81
646.182	42536.51
646.535	42371.09
646.888	42670.97
647.24	42371.32
647.593	42552.78
647.945	42452.67
648.298	42269.4
648.65	42210.64
649.002	42237.53
649.355	42481.59
649.707	42436.85
650.059	42501.71
650.411	43009.72
650.763	43077.74
651.115	43336.71
651.467	43299.65
651.819	43266.21
652.171	43222.37
652.523	43175.36
652.875	43177.85
653.227	42911.64
653.578	43300.33
653.93	43167.9
654.282	43104.63
654.633	42906.67
654.985	42980.11
655.337	42988.47
655.688	42991.64
656.039	43164.06
656.391	42860.57
656.742	42915.26
657.094	42923.17
657.445	43101.24
657.796	42990.06
658.147	42821.92
658.498	42852.88
658.849	42915.03
659.2	42935.37
659.551	42682.04
659.902	42905.76
660.253	42828.93
660.604	42808.82
660.955	42857.18
661.306	42738.31
661.656	42833.45
662.007	42851.98
662.358	42872.77
662.708	42812.43
663.059	42878.19
663.409	42587.13
663.76	42899.44
664.11	42771.98
664.461	42810.85
664.811	42913.9
665.161	42687.24
665.511	42868.48
665.862	42709.16
666.212	42924.07
666.562	42668.48
666.912	42672.1
667.262	42474.14
667.612	42698.99
667.962	42611.31
668.312	42512.78
668.662	42844.52
669.011	42671.87
669.361	42570.63
669.711	42643.85
670.06	42577.86
670.41	42521.82
670.76	42518.43
671.109	42642.72
671.459	42678.2
671.808	42494.93
672.157	42456.51
672.507	42261.26
672.856	42465.78
673.205	42477.08
673.554	42487.7
673.904	42386.46
674.253	42534.47
674.602	42469.62
674.951	41849.75
675.3	41729.52
675.649	42293.58
675.998	42126.8
676.346	42373.35
676.695	42297.42
677.044	42212.9
677.393	42263.97
677.741	42336.29
678.09	42154.15
678.438	42050.87
678.787	42113.69
679.135	42106.69
679.484	41926.36
679.832	42067.82
680.181	41767.49
680.529	42027.82
680.877	41863.76
681.225	41802.97
681.573	42062.17
681.922	41647.04
682.27	41705.8
682.618	41775.62
682.966	41557.55
683.314	41454.73
683.661	41510.09
684.009	41349.42
684.357	41287.95
684.705	41112.14
685.053	41294.51
685.4	41224.45
685.748	41007.51
686.095	41055.19
686.443	40906.5
686.79	40767.06
687.138	40960.28
687.485	40934.97
687.832	40780.85
688.18	40784.46
688.527	40583.79
688.874	40612.27
689.221	40361.2
689.568	40357.81
689.915	40346.74
690.262	40297.02
690.609	40173.63
690.956	40027.87
691.303	40017.48
691.65	39756.24
691.997	39898.84
692.344	39506.76
692.69	39571.84
693.037	39418.17
693.383	39274.45
693.73	39330.94
694.077	39151.06
694.423	39171.63
694.769	39036.94
695.116	39045.08
695.462	39062.48
695.808	38965.98
696.155	38932.08
696.501	38707
696.847	38642.6
697.193	38338.65
697.539	38530.06
697.885	38248.71
698.231	38130.52
698.577	38236.28
698.923	38039.23
699.269	37834.94
699.614	37798.33
699.96	37752.45
700.306	37814.82
700.651	37677.65
700.997	37457.77
701.342	37503.87
701.688	37336.19
702.033	37211.22
702.379	37115.41
702.724	36973.94
703.069	37215.29
703.415	36721.97
703.76	36812.37
704.105	36764.68
704.45	36798.13
704.795	36420.96
705.14	36475.43
705.485	36309.55
705.83	36233.62
706.175	36213.06
706.52	36163.57
706.865	35981.65
707.209	35960.86
707.554	35878.83
707.899	35982.33
708.243	35682
708.588	35579.4
708.932	35513.87
709.277	35396.58
709.621	35483.36
709.966	35286.76
710.31	35432.74
710.654	35078.63
710.998	35115.01
711.342	35148.91
711.687	35004.96
712.031	34845.19
712.375	34732.87
712.719	34720.67
713.063	34674.12
713.407	34900.33
713.75	34531.97
714.094	34690.84
714.438	34559.09
714.782	34467.12
715.125	34240.23
715.469	34424.86
715.812	34350.06
716.156	34092.21
716.499	34107.58
716.843	34169.5
717.186	33863.52
717.53	34067.8
717.873	34020.57
718.216	33911.88
718.559	33743.07
718.902	33484.54
719.246	33540.59
719.589	33447.03
719.932	33475.73
720.275	33405.45
720.617	33315.73
720.96	33292.23
721.303	33381.72
721.646	33360.25
721.989	33085.46
722.331	33193.7
722.674	32962.52
723.016	33016.31
723.359	32970.66
723.701	32945.57
724.044	32766.37
724.386	32662.64
724.729	32894.73
725.071	32738.35
725.413	32672.59
725.755	32661.06
726.097	32568.64
726.439	32278.25
726.782	32315.08
727.124	32581.97
727.465	32351.69
727.807	32377.68
728.149	32346.72
728.491	32136.78
728.833	32299.72
729.175	32045.26
729.516	31807.98
729.858	31963.68
730.199	31906.73
730.541	31862.89
730.882	31792.61
731.224	31861.31
731.565	31728.21
731.906	31749.67
732.248	31821.99
732.589	31615.21
732.93	31476.01
733.271	31486.86
733.612	31461.32
733.953	31629.45
734.294	31284.6
734.635	31320.76
734.976	31395.78
735.317	31243.47
735.658	31128.22
735.999	31199.18
736.339	31118.73
736.68	31151.05
737.021	31059.07
737.361	30837.61
737.702	30979.07
738.042	30998.51
738.383	30915.8
738.723	30978.62
739.063	30878.51
739.404	30832.41
739.744	30732.53
740.084	30726.65
740.424	30833.99
740.764	30581.34
741.104	30665.86
741.444	30474.68
741.784	30308.81
742.124	30605.97
742.464	30475.36
742.804	30257.51
743.143	30316.72
743.483	30340.67
743.823	30142.26
744.162	30210.28
744.502	30280.56
744.841	30054.13
745.181	30297.51
745.52	29990.85
745.86	30001.7
746.199	30018.42
746.538	29904.75
746.877	30095.48
747.216	29978.87
747.556	29937.97
747.895	29833.34
748.234	29714.02
748.573	29582.5
748.911	29601.26
749.25	29502.28
749.589	29426.12
749.928	29483.52
750.267	29456.4
750.605	29401.03
750.944	29321.94
751.283	29140.7
751.621	29227.25
751.96	29185.9
752.298	29145.67
752.636	29063.87
752.975	28985.68
753.313	28849.18
753.651	28962.85
753.989	28781.16
754.327	28728.74
754.666	28519.02
755.004	28585.01
755.342	28721.28
755.679	28596.99
756.017	28448.52
756.355	28521.28
756.693	28427.73
757.031	28346.6
757.368	28194.51
757.706	28221.63
758.044	28126.27
758.381	28108.64
758.719	28015.53
759.056	27960.39
759.394	27982.77
759.731	27741.42
760.068	27720.85
760.405	27651.02
760.743	27468.43
761.08	27634.98
761.417	27451.93
761.754	27368.32
762.091	27177.36
762.428	27080.64
762.765	27032.96
763.102	27141.43
763.438	26955.45
763.775	26861.21
764.112	26902.8
764.449	26789.35
764.785	26690.15
765.122	26518.4
765.458	26428.23
765.795	26418.97
766.131	26440.21
766.467	26313.66
766.804	26242.47
767.14	26002.03
767.476	25971.52
767.812	25897.4
768.148	26000.9
768.485	25778.98
768.821	25569.95
769.157	25696.5
769.492	25507.13
769.828	25563.62
770.164	25263.74
770.5	25344.42
770.836	25187.81
771.171	25056.74
771.507	24963.19
771.842	24647.04
772.178	24797.54
772.513	24717.09
772.849	24756.19
773.184	24478.23
773.519	24619.24
773.855	24369.98
774.19	24229.42
774.525	24281.85
774.86	24283.43
775.195	24159.36
775.53	24012.02
775.865	23839.6
776.2	23705.59
776.535	23585.37
776.87	23584.01
777.205	23552.15
777.539	23412.27
777.874	23495.2
778.209	23212.95
778.543	23183.35
778.878	23132.5
779.212	23047.98
779.547	22867.2
779.881	22964.82
780.215	22806.18
780.55	22844.15
780.884	22666.52
781.218	22656.58
781.552	22579.29
781.886	22524.15
782.22	22315.8
782.554	22212.52
782.888	22085.97
783.222	22046.65
783.556	21829.71
783.889	21937.73
784.223	21721.91
784.557	21662.71
784.89	21680.56
785.224	21647.34
785.557	21456.16
785.891	21464.75
786.224	21372.55
786.558	21338.42
786.891	21068.37
787.224	21081.71
787.557	20999.9
787.891	20980.01
788.224	20911.31
788.557	20961.03
788.89	20912.22
789.223	20879.68
789.556	20679.46
789.888	20560.82
790.221	20495.28
790.554	20373.25
790.887	20376.19
791.219	20343.19
791.552	20238.11
791.884	20187.94
792.217	20101.39
792.549	20027.27
792.882	19907.05
793.214	19872.47
793.546	19838.8
793.879	19673.61
794.211	19639.48
794.543	19717
794.875	19588.86
795.207	19573.72
795.539	19433.84
795.871	19523.33
796.203	19368.3
796.535	19083.11
796.867	19167.18
797.198	19087.86
797.53	19096.45
797.862	18956.34
798.193	19009.22
798.525	18851.48
798.856	18908.66
799.188	18726.29
799.519	18575.1
799.85	18624.6
800.182	18640.87
800.513	18577.59
800.844	18444.49
801.175	18473.19
801.506	18416.69
801.837	18295.11
802.168	18296.92
802.499	18186.19
802.83	18189.8
803.161	18066.64
803.491	18091.73
803.822	18070.26
804.153	17920.66
804.483	17777.61
804.814	17686.31
805.145	17759.53
805.475	17684.28
805.805	17670.72
806.136	17588.24
806.466	17609.71
806.796	17474.79
807.126	17393.89
807.457	17485.87
807.787	17348.24
808.117	17396.15
808.447	17232.77
808.777	17227.34
809.107	17224.86
809.436	17147.35
809.766	17042.94
810.096	17041.59
810.426	17068.03
810.755	16974.24
811.085	16986.67
811.414	16923.62
811.744	16731.99
812.073	16708.71
812.403	16803.63
812.732	16625.55
813.061	16625.55
813.39	16553.46
813.719	16473.47
814.049	16570.41
814.378	16432.79
814.707	16357.31
815.036	16432.34
815.365	16202.29
815.693	16169.74
816.022	16210.2
816.351	16160.71
816.68	16068.96
817.008	16125
817.337	15854.5
817.665	15864.44
817.994	15982.63
818.322	15889.75
818.651	15816.53
818.979	15771.11
819.307	15847.04
819.636	15799.81
819.964	15727.04
820.292	15689.76
820.62	15724.33
820.948	15615.86
821.276	15744.44
821.604	15657.22
821.932	15687.5
822.259	15765.01
822.587	15570.44
822.915	15607.95
823.243	15675.52
823.57	15566.82
823.898	15656.76
824.225	15567.5
824.553	15631.23
824.88	15672.81
825.207	15585.8
825.535	15542.87
825.862	15558.69
826.189	15545.13
826.516	15607.27
826.843	15655.41
827.17	15650.21
827.497	15541.06
827.824	15605.24
828.151	15591.68
828.478	15553.72
828.805	15576.99
829.131	15576.99
829.458	15637.1
829.785	15524.34
830.111	15499.93
830.438	15552.36
830.764	15523.89
831.09	15574.05
831.417	15467.39
831.743	15464.45
832.069	15485.24
832.395	15421.97
832.722	15511.46
833.048	15477.11
833.374	15424.45
833.7	15454.51
834.026	15388.75
834.351	15422.42
834.677	15321.63
835.003	15318.24
835.329	15351.46
835.654	15377.45
835.98	15250.22
836.306	15238.92
836.631	15199.15
836.956	15301.29
837.282	15286.38
837.607	15223.55
837.932	15118.02
838.258	15140.62
838.583	15120.28
838.908	15055.42
839.233	15025.14
839.558	15020.62
839.883	14910.57
840.208	14896.11
840.533	14997.12
840.858	14964.8
841.182	14964.58
841.507	14946.05
841.832	14892.49
842.156	14763.23
842.481	14756
842.805	14765.71
843.13	14662.21
843.454	14637.13
843.778	14656.79
844.103	14608.66
844.427	14560.75
844.751	14556.68
845.075	14405.04
845.399	14429
845.723	14299.29
846.047	14323.24
846.371	14174.09
846.695	14236.46
847.019	14062.91
847.343	14084.6
847.666	14005.73
847.99	14030.14
848.313	13901.56
848.637	13866.98
848.96	13833.53
849.284	13707.66
849.607	13738.85
849.931	13592.41
850.254	13600.55
850.577	13456.14
850.9	13418.18
851.223	13410.27
851.546	13386.99
851.869	13228.58
852.192	13347.45
852.515	13166.21
852.838	13105.19
853.161	13121.69
853.483	13106.32
853.806	13108.13
854.129	13004.63
854.451	12984.29
854.774	12867.01
855.096	12867.91
855.419	12835.14
855.741	12763.73
856.063	12685.99
856.385	12710.85
856.708	12644.64
857.03	12616.62
857.352	12623.17
857.674	12485.55
857.996	12567.81
858.318	12506.11
858.64	12450.07
858.961	12439.45
859.283	12324.42
859.605	12266.8
859.926	12363.29
860.248	12332.33
860.57	12187.25
860.891	12247.36
861.212	12148.16
861.534	12122.39
861.855	12126.23
862.176	12155.61
862.498	12111.55
862.819	12142.51
863.14	12019.57
863.461	11953.36
863.782	12001.94
864.103	11954.94
864.424	12001.27
864.745	11942.96
865.065	11916.75
865.386	11808.73
865.707	11886.24
866.027	11902.74
866.348	11750.88
866.668	11785.9
866.989	11775.06
867.309	11623.65
867.63	11705.68
867.95	11725.34
868.27	11584.33
868.59	11559.02
868.91	11585.01
869.23	11570.77
869.55	11478.34
869.87	11666.36
870.19	11524.44
870.51	11525.35
870.83	11485.12
871.15	11485.57
871.469	11414.16
871.789	11456.87
872.109	11415.29
872.428	11353.15
872.748	11365.58
873.067	11385.69
873.386	11360.83
873.706	11365.35
874.025	11345.24
874.344	11302.3
874.663	11318.12
874.982	11177.79
875.301	11213.49
875.62	11237.67
875.939	11128.29
876.258	11207.16
876.577	11121.97
876.896	11094.17
877.214	11076.77
877.533	11093.27
877.852	11106.83
878.17	11036.77
878.489	11077.9
878.807	11007.62
879.125	11072.25
879.444	11020.95
879.762	10975.3
880.08	10938.02
880.398	10911.13
880.716	10872.48
881.034	10853.95
881.352	10821.41
881.67	10772.15
881.988	10872.03
882.306	10774.41
882.624	10843.78
882.941	10706.16
883.259	10634.07
883.577	10705.48
883.894	10655.09
884.212	10583.68
884.529	10567.86
884.846	10602.43
885.164	10527.63
885.481	10463.23
885.798	10570.12
886.115	10546.62
886.432	10525.6
886.75	10434.53
887.067	10405.38
887.383	10405.38
887.7	10429.56
888.017	10367.86
888.334	10387.98
888.651	10343.46
888.967	10305.94
889.284	10217.81
889.6	10233.4
889.917	10180.3
890.233	10204.93
890.55	10089.45
890.866	10097.59
891.182	10132.16
891.498	10112.28
891.815	10000.19
892.131	9987.31
892.447	9964.48
892.763	9983.01
893.079	9899.63
893.395	9861.66
893.71	9857.14
894.026	9846.97
894.342	9725.17
894.657	9765.84
894.973	9723.81
895.289	9658.05
895.604	9703.7
895.92	9646.98
896.235	9527.43
896.55	9583.02
896.865	9537.6
897.181	9487.21
897.496	9460.54
897.811	9434.55
898.126	9358.17
898.441	9413.99
898.756	9280.66
899.071	9295.57
899.386	9302.13
899.7	9202.7
900.015	9256.48
900.33	9145.07
900.644	9159.53
900.959	9172.19
901.273	9141.68
901.588	9055.36
901.902	8967.9
902.216	9039.76
902.531	8934
902.845	8961.35
903.159	8873.21
903.473	8856.94
903.787	8780.56
904.101	8767.91
904.415	8745.31
904.729	8669.38
905.042	8655.14
905.356	8678.87
905.67	8618.98
905.984	8588.7
906.297	8572.88
906.611	8494.69
906.924	8515.93
907.237	8444.52
907.551	8402.94
907.864	8430.06
908.177	8388.93
908.491	8400.68
908.804	8297.86
909.117	8302.61
909.43	8197.3
909.743	8218.99
910.056	8172.89
910.368	8197.75
910.681	8091.76
910.994	8089.05
911.307	7998.66
911.619	7994.59
911.932	8008.38
912.244	7895.61
912.557	7947.36
912.869	7862.17
913.181	7851.54
913.494	7819.23
913.806	7793.47
914.118	7731.1
914.43	7662.85
914.742	7658.78
915.054	7670.53
915.366	7670.53
915.678	7601.61
915.99	7553.02
916.302	7474.83
916.613	7482.74
916.925	7425.57
917.236	7448.62
917.548	7402.29
917.859	7382.86
918.171	7328.62
918.482	7257.89
918.794	7247.72
919.105	7266.93
919.416	7231
919.727	7228.74
920.038	7114.39
920.349	7066.93
920.66	7096.99
920.971	7037.1
921.282	7021.96
921.593	6944.68
921.903	6959.14
922.214	6924.34
922.525	6930.89
922.835	6894.51
923.146	6771.12
923.456	6855.64
923.767	6788.3
924.077	6791.01
924.387	6739.48
924.697	6717.11
925.008	6667.4
925.318	6659.71
925.628	6662.65
925.938	6593.72
926.248	6572.93
926.558	6530.22
926.867	6495.65
927.177	6443.9
927.487	6445.93
927.796	6417.68
928.106	6426.05
928.416	6345.37
928.725	6345.6
929.034	6248.65
929.344	6301.76
929.653	6285.26
929.962	6218.82
930.271	6178.37
930.581	6136.11
930.89	6136.11
931.199	6129.78
931.508	6070.8
931.817	6064.02
932.125	6039.16
932.434	6031.48
932.743	5967.07
933.051	5988.77
933.36	5942.67
933.669	5881.65
933.977	5893.63
934.286	5884.14
934.594	5843.91
934.902	5758.94
935.21	5778.83
935.519	5794.2
935.827	5741.77
936.135	5698.83
936.443	5667.2
936.751	5664.71
937.059	5664.71
937.367	5660.64
937.674	5581.1
937.982	5550.14
938.29	5549.23
938.597	5494.54
938.905	5504.04
939.213	5454.09
939.52	5437.6
939.827	5424.04
940.135	5387.43
940.442	5386.3
940.749	5388.78
941.056	5338.62
941.363	5332.29
941.67	5251.61
941.977	5230.82
942.284	5244.38
942.591	5206.87
942.898	5196.93
943.205	5173.42
943.511	5189.02
943.818	5182.69
944.125	5129.81
944.431	5061.34
944.738	5072.86
945.044	5045.29
945.35	5040.32
945.657	4965.07
945.963	4962.13
946.269	4943.37
946.575	4930.72
946.881	4936.82
947.187	4915.13
947.493	4854.34
947.799	4897.72
948.105	4825.64
948.41	4814.34
948.716	4849.59
949.022	4780.89
949.327	4724.62
949.633	4700.67
949.938	4733.66
950.244	4709.93
950.549	4656.6
950.854	4638.52
951.16	4582.03
951.465	4602.59
951.77	4580.9
952.075	4547.68
952.38	4581.12
952.685	4541.12
952.99	4468.58
953.294	4484.63
953.599	4465.19
953.904	4453.67
954.209	4430.84
954.513	4435.14
954.818	4377.51
955.122	4412.54
955.426	4390.39
955.731	4312.43
956.035	4302.71
956.339	4296.84
956.643	4300
956.948	4272.43
957.252	4237.18
957.556	4218.19
957.86	4165.09
958.163	4237.18
958.467	4189.72
958.771	4204.41
959.075	4103.85
959.378	4151.53
959.682	4085.54
959.985	4098.42
960.289	4055.71
960.592	4081.47
960.896	4028.14
961.199	3995.83
961.502	3982.27
961.805	3970.52
962.108	3938.65
962.411	3916.06
962.714	3942.27
963.017	3934.13
963.32	3962.38
963.623	3912.44
963.926	3879.45
964.228	3852.78
964.531	3837.19
964.833	3813.01
965.136	3781.82
965.438	3717.19
965.741	3745.66
966.043	3710.64
966.345	3717.19
966.648	3693.24
966.95	3725.33
967.252	3665.67
967.554	3650.53
967.856	3674.48
968.158	3620.7
968.46	3594.03
968.761	3566.91
969.063	3582.28
969.365	3584.99
969.666	3522.85
969.968	3474.26
970.269	3493.02
970.571	3498.44
970.872	3466.58
971.174	3405.56
971.475	3457.76
971.776	3448.27
972.077	3404.66
972.378	3428.84
972.679	3368.05
972.98	3365.11
973.281	3404.88
973.582	3360.36
973.883	3328.95
974.183	3354.94
974.484	3300.25
974.785	3270.42
975.085	3313.59
975.386	3309.07
975.686	3261.16
975.986	3280.59
976.287	3236.98
976.587	3195.17
976.887	3207.15
977.187	3191.1
977.487	3169.41
977.787	3136.19
978.087	3125.12
978.387	3118.56
978.687	3161.72
978.987	3079.02
979.286	3039.47
979.586	3057.55
979.885	3039.24
980.185	2961.96
980.484	2988.17
980.784	2989.3
981.083	2978.23
981.382	2982.97
981.682	2986.14
981.981	2963.54
982.28	2909.75
982.579	2902.75
982.878	2956.31
983.177	2904.56
983.475	2879.47
983.774	2872.24
984.073	2895.97
984.372	2842.19
984.67	2846.7
984.969	2849.19
985.267	2838.34
985.566	2823.2
985.864	2783.43
986.162	2792.69
986.461	2717.44
986.759	2747.05
987.057	2698.69
987.355	2718.12
987.653	2687.61
987.951	2694.17
988.249	2721.51
988.547	2667.95
988.844	2663.21
989.142	2639.03
989.44	2635.64
989.737	2642.64
990.035	2624.56
990.332	2595.41
990.63	2599.93
990.927	2597.9
991.224	2560.38
991.521	2543.21
991.819	2563.55
992.116	2533.04
992.413	2541.4
992.71	2488.75
993.006	2489.65
993.303	2477.67
993.6	2456.66
993.897	2427.51
994.193	2427.51
994.49	2470.67
994.787	2420.28
995.083	2435.64
995.379	2384.12
995.676	2379.15
995.972	2385.02
996.268	2356.55
996.565	2320.62
996.861	2359.94
997.157	2312.26
997.453	2321.52
997.749	2322.2
998.044	2293.27
998.34	2301.63
998.636	2276.1
998.932	2236.55
999.227	2225.03
999.523	2267.74
999.818	2267.29
1000.114	2213.5
1000.409	2193.39
1000.704	2203.11
1001	2200.85
1001.295	2164.69
1001.59	2164.24
1001.885	2142.77
1002.18	2126.27
1002.475	2105.93
1002.77	2068.42
1003.065	2116.55
1003.359	2106.61
1003.654	2077.46
1003.949	2050.34
1004.243	2041.98
1004.538	2035.43
1004.832	2063.45
1005.127	2026.39
1005.421	2016.67
1005.715	1985.48
1006.009	1983.68
1006.304	1989.33
1006.598	1973.28
1006.892	1950.23
1007.186	1938.25
1007.48	1931.93
1007.773	1896.45
1008.067	1906.16
1008.361	1918.59
1008.655	1909.78
1008.948	1891.25
1009.242	1896.45
1009.535	1868.88
1009.829	1867.97
1010.122	1819.84
1010.415	1816.9
1010.708	1829.78
1011.001	1799.95
1011.295	1776
1011.588	1764.47
1011.881	1752.27
1012.173	1774.42
1012.466	1795.21
1012.759	1747.75
1013.052	1729.45
1013.344	1712.27
1013.637	1686.06
1013.93	1710.69
1014.222	1698.71
1014.514	1698.26
1014.807	1698.94
1015.099	1685.38
1015.391	1686.51
1015.683	1674.76
1015.976	1636.57
1016.268	1616.68
1016.56	1617.13
1016.851	1618.26
1017.143	1570.58
1017.435	1619.62
1017.727	1562.9
1018.018	1582.33
1018.31	1555.67
1018.602	1536.68
1018.893	1529.68
1019.185	1541.88
1019.476	1542.56
1019.767	1530.81
1020.058	1500.07
1020.35	1459.85
1020.641	1484.93
1020.932	1488.55
1021.223	1441.09
1021.514	1468.89
1021.804	1451.49
1022.095	1412.84
1022.386	1423.92
1022.677	1417.82
1022.967	1429.57
1023.258	1421.88
1023.548	1403.13
1023.839	1375.33
1024.129	1363.13
1024.419	1333.98
1024.709	1361.77
1025	1359.29
1025.29	1341.89
1025.58	1336.46
1025.87	1316.35
1026.16	1317.03
1026.449	1295.33
1026.739	1309.12
1027.029	1291.72
1027.319	1299.85
1027.608	1255.11
1027.898	1278.16
1028.187	1239.52
1028.477	1270.93
1028.766	1225.28
1029.055	1232.96
1029.344	1255.79
1029.634	1205.84
1029.923	1207.65
1030.212	1188.44
1030.501	1190.7
1030.79	1177.14
1031.078	1129.24
1031.367	1147.54
1031.656	1166.07
1031.945	1154.09
1032.233	1134.21
1032.522	1115.68
1032.81	1132.85
1033.099	1108.9
1033.387	1093.08
1033.675	1087.2
1033.963	1109.58
1034.251	1097.15
1034.54	1103.25
1034.828	1074.55
1035.116	1061.44
1035.403	1062.57
1035.691	1035.45
1035.979	1041.55
1036.267	1040.65
1036.554	1036.13
1036.842	1019.18
1037.129	1020.54
1037.417	1012.18
1037.704	995.68
1037.992	979.86
1038.279	992.29
1038.566	986.19
1038.853	986.19
1039.14	986.19
