Data from hue_28_FLMS001491_00075.txt Node
Date: Tue Feb 07 17:17:47 GMT 2017
User: dcchb
Spectrometer: FLMS00149
Trigger mode: 0
Integration Time (sec): 2.000000E-2
Scans to average: 10
Electric dark correction enabled: true
Nonlinearity correction enabled: false
Boxcar width: 0
XAxis mode: Wavelengths
Number of Pixels in Spectrum: 2048
>>>>>Begin Spectral Data<<<<<
341.393	-6.74
341.776	-6.74
342.16	-6.74
342.543	-39.05
342.927	-61.88
343.31	-55.78
343.693	-57.81
344.077	-84.02
344.46	-66.4
344.843	-55.1
345.226	-15.55
345.61	-38.83
345.993	-16.68
346.376	-17.81
346.759	-0.86
347.142	11.34
347.525	40.72
347.908	45.01
348.291	84.56
348.674	112.81
349.057	114.39
349.44	123.43
349.823	142.64
350.206	169.98
350.588	209.75
350.971	203.65
351.354	203.88
351.737	246.14
352.119	288.17
352.502	273.03
352.884	270.09
353.267	280.26
353.65	289.07
354.032	301.5
354.414	293.82
354.797	316.87
355.179	310.99
355.562	325.91
355.944	322.97
356.326	311.67
356.709	342.63
357.091	336.98
357.473	350.99
357.855	353.93
358.238	339.92
358.62	347.6
359.002	325.46
359.384	344.89
359.766	334.04
360.148	339.24
360.53	332.24
360.912	334.5
361.294	335.85
361.676	369.98
362.057	332.01
362.439	329.75
362.821	315.06
363.203	311.67
363.584	347.6
363.966	325.91
364.348	320.71
364.729	340.6
365.111	309.64
365.493	314.16
365.874	331.33
366.256	297.89
366.637	296.76
367.019	346.02
367.4	318.23
367.781	310.54
368.163	327.72
368.544	317.55
368.925	318.68
369.306	328.62
369.688	301.73
370.069	329.3
370.45	330.66
370.831	322.52
371.212	309.86
371.593	319.58
371.974	328.85
372.355	298.79
372.736	321.39
373.117	291.79
373.498	315.06
373.879	295.4
374.26	316.19
374.641	338.11
375.021	306.25
375.402	325.68
375.783	345.8
376.163	332.01
376.544	318.45
376.925	324.33
377.305	325.01
377.686	323.65
378.066	329.07
378.447	325.68
378.827	318.9
379.208	319.58
379.588	332.24
379.968	327.49
380.349	335.4
380.729	343.76
381.109	337.66
381.489	317.32
381.87	331.79
382.25	363.65
382.63	361.16
383.01	347.6
383.39	333.59
383.77	343.08
384.15	332.69
384.53	329.98
384.91	330.88
385.29	358.68
385.67	353.25
386.049	369.52
386.429	359.13
386.809	353.71
387.189	356.42
387.568	365.23
387.948	374.95
388.328	344.89
388.707	365.23
389.087	352.8
389.466	364.55
389.846	359.81
390.225	382.18
390.605	376.76
390.984	384.21
391.363	352.58
391.743	363.65
392.122	363.42
392.501	362.97
392.881	384.21
393.26	383.31
393.639	361.39
394.018	383.99
394.397	366.36
394.776	370.65
395.155	376.53
395.534	389.64
395.913	396.64
396.292	399.13
396.671	387.15
397.05	402.29
397.429	394.16
397.808	397.09
398.186	399.58
398.565	405
398.944	410.43
399.323	400.94
399.701	398.9
400.08	412.69
400.458	400.03
400.837	404.1
401.215	382.18
401.594	418.56
401.972	397.55
402.351	399.81
402.729	383.54
403.107	404.33
403.486	421.5
403.864	410.65
404.242	432.8
404.62	416.3
404.999	402.07
405.377	430.54
405.755	414.49
406.133	414.95
406.511	435.74
406.889	414.95
407.267	407.49
407.645	405
408.023	459.92
408.401	445.23
408.779	442.97
409.156	439.58
409.534	438.22
409.912	461.95
410.29	462.63
410.667	455.62
411.045	460.37
411.422	475.96
411.8	461.05
412.178	471.89
412.555	442.52
412.933	471.22
413.31	475.06
413.687	464.21
414.065	480.48
414.442	477.54
414.819	484.32
415.197	480.48
415.574	482.52
415.951	508.05
416.328	496.98
416.705	502.4
417.082	500.37
417.46	508.05
417.837	518.22
418.214	507.6
418.591	506.7
418.967	518.67
419.344	528.16
419.721	511.89
420.098	528.84
420.475	523.19
420.852	516.19
421.228	538.11
421.605	555.06
421.982	548.28
422.358	546.24
422.735	549.86
423.111	561.16
423.488	573.13
423.864	542.4
424.241	558.45
424.617	548.05
424.994	569.52
425.37	572.23
425.746	581.5
426.123	592.12
426.499	575.85
426.875	583.98
427.251	577.2
427.627	594.6
428.003	601.83
428.379	598.22
428.756	588.05
429.132	595.51
429.507	633.02
429.883	602.29
430.259	622.85
430.635	624.21
431.011	616.3
431.387	644.32
431.763	637.09
432.138	661.04
432.514	657.2
432.89	634.83
433.265	666.24
433.641	662.4
434.016	669.86
434.392	677.99
434.767	708.27
435.143	695.84
435.518	698.78
435.894	704.88
436.269	708.5
436.644	694.04
437.02	727.48
437.395	721.83
437.77	727.25
438.145	740.59
438.52	750.98
438.895	750.98
439.271	751.66
439.646	756.86
440.021	760.93
440.395	746.69
440.77	748.27
441.145	776.52
441.52	777.65
441.895	777.2
442.27	797.08
442.645	767.93
443.019	804.77
443.394	788.04
443.769	814.94
444.143	808.38
444.518	808.16
444.892	793.47
445.267	820.81
445.641	849.96
446.016	841.83
446.39	816.29
446.764	820.13
447.139	828.27
447.513	847.7
447.887	861.04
448.262	857.87
448.636	834.82
449.01	838.44
449.384	856.29
449.758	866.23
450.132	879.12
450.506	863.52
450.88	883.41
451.254	873.69
451.628	881.83
452.002	913.01
452.376	905.33
452.75	901.04
453.123	930.41
453.497	939.9
453.871	914.14
454.244	950.07
454.618	944.2
454.992	969.51
455.365	964.54
455.739	989.17
456.112	996.85
456.486	996.85
456.859	985.1
457.232	985.33
457.606	1028.94
457.979	1035.27
458.352	1043.18
458.725	1059
459.099	1088.38
459.472	1078.43
459.845	1093.57
460.218	1095.38
460.591	1115.95
460.964	1103.52
461.337	1113.01
461.71	1173.12
462.083	1161.14
462.456	1166.34
462.829	1157.75
463.201	1196.62
463.574	1181.93
463.947	1226
464.32	1234.13
464.692	1235.94
465.065	1262.83
465.438	1293.34
465.81	1274.59
466.183	1309.84
466.555	1304.87
466.928	1311.87
467.3	1325.43
467.672	1376.73
468.045	1386.9
468.417	1412.21
468.789	1408.37
469.161	1415.6
469.534	1463.51
469.906	1494.47
470.278	1478.2
470.65	1479.33
471.022	1510.96
471.394	1553.67
471.766	1578.53
472.138	1580.11
472.51	1618.08
472.882	1648.59
473.253	1658.53
473.625	1699.88
473.997	1736.27
474.369	1750.05
474.74	1805.42
475.112	1792.31
475.484	1841.12
475.855	1836.83
476.227	1896.04
476.598	1943.95
476.97	1990.95
477.341	2013.32
477.713	2041.8
478.084	2085.19
478.455	2150.27
478.827	2129.25
479.198	2235.69
479.569	2218.74
479.94	2285.41
480.311	2339.87
480.682	2373.54
481.053	2446.08
481.424	2484.27
481.795	2546.87
482.166	2572.63
482.537	2576.02
482.908	2656.02
483.279	2702.8
483.65	2769.01
484.021	2840.42
484.391	2904.6
484.762	2917.71
485.133	2948.67
485.503	2980.98
485.874	3068.21
486.244	3102.11
486.615	3183.24
486.985	3241.77
487.356	3289.45
487.726	3347.07
488.097	3392.72
488.467	3451.48
488.837	3536.45
489.207	3587.07
489.578	3653.51
489.948	3741.64
490.318	3772.6
490.688	3816.44
491.058	3847.85
491.428	3963.33
491.798	3992.71
492.168	4040.16
492.538	4104.57
492.908	4158.13
493.278	4189.99
493.648	4246.71
494.017	4314.51
494.387	4304.79
494.757	4425.46
495.126	4452.81
495.496	4506.36
495.866	4590.88
496.235	4597.44
496.605	4682.18
496.974	4723.08
497.344	4762.4
497.713	4752.01
498.082	4808.05
498.452	4883.3
498.821	4882.4
499.19	4937.77
499.559	4970.76
499.928	5014.15
500.298	5020.7
500.667	5180.7
501.036	5099.12
501.405	5172.11
501.774	5239.9
502.143	5246.46
502.512	5293.01
502.88	5387.25
503.249	5357.64
503.618	5372.1
503.987	5432.67
504.356	5512.21
504.724	5511.76
505.093	5491.2
505.462	5553.34
505.83	5603.74
506.199	5644.64
506.567	5694.13
506.936	5685.54
507.304	5782.04
507.672	5811.64
508.041	5806.22
508.409	5894.8
508.777	5878.08
509.145	5957.85
509.514	5904.97
509.882	5962.37
510.25	5976.38
510.618	6048.47
510.986	6042.82
511.354	6109.71
511.722	6192.87
512.09	6180.44
512.458	6181.57
512.826	6247.11
513.193	6282.59
513.561	6243.95
513.929	6323.27
514.297	6396.03
514.664	6360.78
515.032	6412.53
515.4	6492.98
515.767	6492.53
516.135	6592.86
516.502	6469.7
516.869	6640.77
517.237	6557.84
517.604	6647.78
517.972	6655.46
518.339	6656.14
518.706	6657.27
519.073	6699.53
519.44	6787.21
519.808	6823.59
520.175	6826.3
520.542	6834.66
520.909	6880.77
521.276	6894.32
521.643	6964.83
522.009	7016.58
522.376	7008.67
522.743	7096.13
523.11	7156.69
523.477	7202.79
523.843	7188.33
524.21	7269.91
524.577	7251.6
524.943	7317.36
525.31	7342
525.676	7429.9
526.043	7441.43
526.409	7509.68
526.776	7570.01
527.142	7567.08
527.508	7620.63
527.874	7674.87
528.241	7690.01
528.607	7686.17
528.973	7820.63
529.339	7820.63
529.705	7910.34
530.071	7981.98
530.437	7911.25
530.803	8027.63
531.169	8015.65
531.535	8030.79
531.901	8125.93
532.267	8081.86
532.632	8160.28
532.998	8162.31
533.364	8207.51
533.73	8281.18
534.095	8320.5
534.461	8353.72
534.826	8421.97
535.192	8366.83
535.557	8529.76
535.923	8555.3
536.288	8513.72
536.653	8566.6
537.019	8529.76
537.384	8556.65
537.749	8686.37
538.114	8595.97
538.479	8662.64
538.845	8722.75
539.21	8829.41
539.575	8767.5
539.94	8802.75
540.305	8963.2
540.67	8899.92
541.034	8875.06
541.399	8978.79
541.764	9001.16
542.129	9031.22
542.494	9027.83
542.858	9102.85
543.223	9122.74
543.587	9234.83
543.952	9165.9
544.316	9239.57
544.681	9327.48
545.045	9369.06
545.41	9378.33
545.774	9386.46
546.138	9427.37
546.503	9494.71
546.867	9466.23
547.231	9515.95
547.595	9551.88
547.959	9560.02
548.324	9612.9
548.688	9772.44
549.052	9641.37
549.416	9701.26
549.779	9739.45
550.143	9761.82
550.507	9849.5
550.871	9805.43
551.235	9824.19
551.599	9935.6
551.962	9953
552.326	9902.83
552.689	10126.78
553.053	10010.85
553.417	10075.71
553.78	10200.68
554.143	10065.31
554.507	10179.89
554.87	10209.72
555.234	10312.99
555.597	10276.16
555.96	10252.2
556.323	10380.11
556.686	10364.97
557.05	10404.74
557.413	10409.49
557.776	10510.5
558.139	10505.3
558.502	10487
558.865	10531.74
559.228	10590.95
559.59	10682.47
559.953	10672.53
560.316	10729.25
560.679	10757.73
561.041	10816.48
561.404	10884.95
561.767	10964.05
562.129	10890.83
562.492	11001.56
562.854	10909.13
563.217	10940.32
563.579	11047.89
563.941	11104.84
564.304	11213.53
564.666	11246.07
565.028	11212.63
565.39	11248.11
565.753	11320.42
566.115	11304.38
566.477	11349.12
566.839	11356.13
567.201	11474.32
567.563	11446.75
567.925	11564.26
568.287	11574.43
568.648	11645.61
569.01	11678.15
569.372	11759.51
569.734	11750.02
570.095	11775.33
570.457	11912.95
570.819	11933.51
571.18	11920.41
571.542	12033.4
571.903	12042.66
572.265	12107.07
572.626	12274.3
572.987	12194.3
573.349	12244.92
573.71	12386.84
574.071	12403.78
574.432	12476.78
574.794	12581.86
575.155	12701.18
575.516	12594.06
575.877	12729.43
576.238	12907.05
576.599	12931.23
576.96	13009.87
577.32	13079.25
577.681	13207.38
578.042	13334.38
578.403	13363.08
578.763	13505.22
579.124	13620.02
579.485	13755.39
579.845	13908.15
580.206	13906.12
580.566	14035.38
580.927	14201.93
581.287	14414.13
581.648	14515.37
582.008	14620.9
582.368	14853.89
582.728	14901.12
583.089	15134.11
583.449	15339.98
583.809	15493.19
584.169	15728.67
584.529	15883.01
584.889	16116.91
585.249	16228.32
585.609	16416.79
585.969	16742.2
586.329	16899.03
586.688	17158.46
587.048	17354.61
587.408	17567.94
587.768	17816.3
588.127	18052.9
588.487	18248.83
588.846	18536.05
589.206	18644.52
589.565	18988.92
589.925	19416.03
590.284	19546.2
590.643	19842.01
591.003	20127.65
591.362	20566.06
591.721	20801.3
592.08	20971.47
592.44	21262.53
592.799	21621.17
593.158	21930.54
593.517	22114.26
593.876	22479.68
594.235	22693.23
594.593	23085.54
594.952	23290.73
595.311	23569.59
595.67	23866.31
596.029	24300.87
596.387	24525.73
596.746	24956
597.104	25083.68
597.463	25293.16
597.822	25757.56
598.18	25847.5
598.538	26158.22
598.897	26657.19
599.255	26639.57
599.613	27402.49
599.972	27408.59
600.33	27814.45
600.688	27974.9
601.046	28308
601.404	28730.81
601.762	28976.68
602.12	29301.64
602.478	29559.49
602.836	29873.83
603.194	29841.52
603.552	30195.63
603.91	30296.19
604.268	30849.63
604.625	30955.61
604.983	31275.6
605.341	31390.86
605.698	31860.67
606.056	32126.2
606.413	32339.08
606.771	32540.43
607.128	32866.75
607.485	32865.17
607.843	33059.74
608.2	33385.61
608.557	33788.76
608.914	33817.46
609.272	34210.89
609.629	34224.45
609.986	34714.38
610.343	34708.06
610.7	35245.67
611.057	35159.12
611.414	35426.23
611.771	35668.48
612.127	35946.44
612.484	36106.44
612.841	36373.32
613.198	36302.14
613.554	36563.37
613.911	36857.83
614.267	36934.66
614.624	37160.2
614.98	37417.14
615.337	37720.18
615.693	37822.32
616.05	37836.34
616.406	38180.51
616.762	38054.41
617.118	38276.55
617.475	38253.05
617.831	38661.85
618.187	38756.09
618.543	38752.24
618.899	39161.95
619.255	39183.64
619.611	39146.81
619.967	39406.46
620.323	39542.96
620.678	39522.84
621.034	39665.89
621.39	39681.71
621.746	39786.11
622.101	40318.3
622.457	40050.74
622.812	40298.42
623.168	40351.07
623.523	40412.99
623.879	40649.14
624.234	40443.5
624.589	40599.43
624.945	40918.74
625.3	40908.57
625.655	40907.44
626.01	41059.3
626.365	41130.03
626.72	41163.48
627.075	41012.3
627.43	41203.03
627.785	41137.94
628.14	41274.44
628.495	41368.45
628.85	41415
629.205	41344.04
629.559	41600.08
629.914	41373.64
630.269	41439.63
630.623	41451.38
630.978	41485.73
631.332	41731.15
631.687	41811.37
632.041	41646.18
632.396	41780.41
632.75	41664.71
633.104	41821.32
633.459	41728.44
633.813	41760.75
634.167	41626.07
634.521	41809.79
634.875	41744.03
635.229	42030.35
635.583	41583.36
635.937	41864.25
636.291	41596.69
636.645	41757.14
636.999	41630.59
637.352	41883.46
637.706	41549.91
638.06	41916
638.413	41826.74
638.767	41546.07
639.121	41783.8
639.474	41558.05
639.828	41534.77
640.181	41692.51
640.534	41615.45
640.888	41544.03
641.241	41445.28
641.594	41500.65
641.947	41593.07
642.301	41552.4
642.654	41641.89
643.007	41518.72
643.36	41619.29
643.713	41556.46
644.066	41803.91
644.419	41389.91
644.771	41318.73
645.124	40948.8
645.477	40791.96
645.83	40680.78
646.182	40447.11
646.535	40453.44
646.888	40506.32
647.24	40364.4
647.593	40493.89
647.945	40352.88
648.298	40217.29
648.65	40185.88
649.002	40085.77
649.355	40341.58
649.707	40173.68
650.059	40344.29
650.411	40885.52
650.763	40887.78
651.115	41517.14
651.467	41190.37
651.819	41205.29
652.171	40991.73
652.523	40943.15
652.875	40939.53
653.227	40775.47
653.578	41063.6
653.93	40875.35
654.282	40963.03
654.633	40794
654.985	40950.38
655.337	40988.57
655.688	40928.01
656.039	40996.7
656.391	40655.02
656.742	40899.31
657.094	40984.73
657.445	40965.29
657.796	40802.59
658.147	40875.58
658.498	40695.47
658.849	40877.61
659.2	40814.56
659.551	40751.74
659.902	40760.33
660.253	40949.47
660.604	40767.78
660.955	40589.94
661.306	40849.36
661.656	40740.21
662.007	40858.18
662.358	40815.47
662.708	40794.45
663.059	40712.87
663.409	40483.27
663.76	40733.21
664.11	40645.75
664.461	40837.61
664.811	40745.41
665.161	40759.87
665.511	40681.46
665.862	40639.2
666.212	40659.76
666.562	40774.11
666.912	40660.22
667.262	40627
667.612	40665.41
667.962	40603.04
668.312	40664.51
668.662	40889.81
669.011	40593.55
669.361	40633.1
669.711	40582.25
670.06	40490.73
670.41	40513.78
670.76	40485.98
671.109	40476.27
671.459	40545.64
671.808	40324.18
672.157	40584.29
672.507	40243.5
672.856	40249.61
673.205	40467.9
673.554	40444.18
673.904	40299.32
674.253	40641.23
674.602	40424.52
674.951	39694.14
675.3	39669.73
675.649	40217.06
675.998	40271.53
676.346	40071.53
676.695	40413.89
677.044	39970.74
677.393	40387
677.741	40223.84
678.09	40038.31
678.438	40022.04
678.787	40030.63
679.135	40177.29
679.484	39906.79
679.832	40050.51
680.181	39665.21
680.529	39838.09
680.877	39788.6
681.225	39772.56
681.573	39904.98
681.922	39751.09
682.27	39517.87
682.618	39672.22
682.966	39494.82
683.314	39562.39
683.661	39474.03
684.009	39453.92
684.357	39333.92
684.705	39207.37
685.053	39312.46
685.4	39219.12
685.748	39041.5
686.095	39098.45
686.443	38885.57
686.79	38906.82
687.138	39044.89
687.485	38918.79
687.832	38752.92
688.18	38865.46
688.527	38577.33
688.874	38645.13
689.221	38504.34
689.568	38425.25
689.915	38412.37
690.262	38310.45
690.609	38110.23
690.956	38119.04
691.303	38040.4
691.65	37880.4
691.997	37921.53
692.344	37561.99
692.69	37541.65
693.037	37753.63
693.383	37396.12
693.73	37409.45
694.077	37172.4
694.423	37297.59
694.769	37230.93
695.116	37051.5
695.462	37024.38
695.808	37053.98
696.155	36880.65
696.501	36582.81
696.847	36730.38
697.193	36430.95
697.539	36647.67
697.885	36314.57
698.231	36232.31
698.577	36260.78
698.923	36206.77
699.269	36019.66
699.614	35931.75
699.96	35820.34
700.306	35785.09
700.651	35864.18
700.997	35622.61
701.342	35480.92
701.688	35445.89
702.033	35504.65
702.379	35394.37
702.724	35207.03
703.069	35314.59
703.415	34905.57
703.76	35016.52
704.105	34998.9
704.45	34836.19
704.795	34676.19
705.14	34626.25
705.485	34585.35
705.83	34387.61
706.175	34467.84
706.52	34332.92
706.865	34314.39
707.209	34170.9
707.554	34100.39
707.899	34047.51
708.243	33889.55
708.588	33968.19
708.932	33734.3
709.277	33760.28
709.621	33641.19
709.966	33431.25
710.31	33606.16
710.654	33217.47
710.998	33325.95
711.342	33381.99
711.687	33174.09
712.031	33111.26
712.375	33009.8
712.719	33068.33
713.063	33085.73
713.407	33059.29
713.75	32890.7
714.094	32879.86
714.438	32683.02
714.782	32777.03
715.125	32497.04
715.469	32632.18
715.812	32511.5
716.156	32336.14
716.499	32314.67
716.843	32275.35
717.186	32266.09
717.53	32254.79
717.873	32251.4
718.216	32162.13
718.559	32009.6
718.902	31854.57
719.246	31856.38
719.589	31890.73
719.932	31763.5
720.275	31732.99
720.617	31516.73
720.96	31590.85
721.303	31602.83
721.646	31617.52
721.989	31385.21
722.331	31473.34
722.674	31370.06
723.016	31370.74
723.359	31270.41
723.701	31260.24
724.044	31232.44
724.386	30985.22
724.729	31190.63
725.071	30999.23
725.413	31013.01
725.755	30999.45
726.097	30838.78
726.439	30745
726.782	30657.09
727.124	30870.64
727.465	30765.11
727.807	30561.5
728.149	30660.71
728.491	30468.85
728.833	30640.59
729.175	30497.77
729.516	30459.35
729.858	30338.91
730.199	30383.65
730.541	30378.45
730.882	30361.28
731.224	30365.35
731.565	30131.23
731.906	30210.77
732.248	30189.98
732.589	30067.05
732.93	30004
733.271	30034.05
733.612	29994.28
733.953	30119.93
734.294	29922.65
734.635	29781.63
734.976	29985.02
735.317	29605.82
735.658	29733.72
735.999	29659.15
736.339	29548.19
736.68	29601.75
737.021	29515.65
737.361	29398.37
737.702	29484.69
738.042	29374.64
738.383	29396.11
738.723	29450.34
739.063	29230.91
739.404	29228.65
739.744	29089
740.084	29105.27
740.424	29309.33
740.764	29096.23
741.104	29140.52
741.444	29038.6
741.784	28827.98
742.124	29042.22
742.464	28844.71
742.804	28838.61
743.143	28853.52
743.483	28740.53
743.823	28619.63
744.162	28637.03
744.502	28666.18
744.841	28522.46
745.181	28628.44
745.52	28541.66
745.86	28566.97
746.199	28424.15
746.538	28537.6
746.877	28475
747.216	28521.1
747.556	28389.8
747.895	28259.86
748.234	28260.99
748.573	28285.4
748.911	28242.92
749.25	28179.87
749.589	28088.57
749.928	27939.65
750.267	27961.12
750.605	27994.11
750.944	27883.38
751.283	27934.45
751.621	27889.03
751.96	27797.05
752.298	27686.55
752.636	27689.26
752.975	27571.52
753.313	27517.74
753.651	27498.98
753.989	27474.12
754.327	27371.75
754.666	27327.91
755.004	27346.22
755.342	27344.86
755.679	27207.69
756.017	27041.59
756.355	27144.87
756.693	27146.22
757.031	27104.64
757.368	26834.14
757.706	26928.15
758.044	26858.55
758.381	26900.35
758.719	26655.16
759.056	26739.45
759.394	26616.74
759.731	26380.14
760.068	26404.32
760.405	26223.99
760.743	26224.21
761.08	26307.6
761.417	26131.56
761.754	25966.82
762.091	26048.85
762.428	26011.11
762.765	25709.42
763.102	25825.35
763.438	25711.91
763.775	25656.09
764.112	25504
764.449	25708.97
764.785	25544.91
765.122	25270.11
765.458	25273.73
765.795	25256.55
766.131	25212.49
766.467	25139.49
766.804	24956.45
767.14	24887.3
767.476	24870.57
767.812	24638.49
768.148	24821.99
768.485	24575.22
768.821	24471.49
769.157	24589
769.492	24398.27
769.828	24403.24
770.164	24148.79
770.5	24102.23
770.836	24069.47
771.171	23950.15
771.507	24013.87
771.842	23738.4
772.178	23622.02
772.513	23642.13
772.849	23552.42
773.184	23503.61
773.519	23445.08
773.855	23371.18
774.19	23197.17
774.525	23145.87
774.86	23156.5
775.195	23140.45
775.53	22934.81
775.865	22782.95
776.2	22792.89
776.535	22589.96
776.87	22559.68
777.205	22500.24
777.539	22417.98
777.874	22431.54
778.209	22185.45
778.543	22221.6
778.878	22110.42
779.212	22024.55
779.547	21926.25
779.881	21929.64
780.215	21838.34
780.55	21794.27
780.884	21536.65
781.218	21644.22
781.552	21650.09
781.886	21335.07
782.22	21358.12
782.554	21242.2
782.888	21098.7
783.222	21022.54
783.556	21006.95
783.889	20944.12
784.223	20787.74
784.557	20747.29
784.89	20721.53
785.224	20603.57
785.557	20516.79
785.891	20492.38
786.224	20430.47
786.558	20484.93
786.891	20195.9
787.224	20145.05
787.557	20079.51
787.891	20072.73
788.224	20038.16
788.557	20015.11
788.89	20008.1
789.223	19888.33
789.556	19689.47
789.888	19688.34
790.221	19585.97
790.554	19483.6
790.887	19498.51
791.219	19404.73
791.552	19366.09
791.884	19236.37
792.217	19178.97
792.549	19200.67
792.882	19025.08
793.214	18887.23
793.546	19008.36
793.879	18897.4
794.211	18787.8
794.543	18785.76
794.875	18760.23
795.207	18801.13
795.539	18680.91
795.871	18608.14
796.203	18517.97
796.535	18409.28
796.867	18435.94
797.198	18295.38
797.53	18342.61
797.862	18172.9
798.193	18214.7
798.525	17961.15
798.856	18105.78
799.188	17956.63
799.519	17799.12
799.85	17759.58
800.182	17791.89
800.513	17757.99
800.844	17508.96
801.175	17704.66
801.506	17619.01
801.837	17555.96
802.168	17532.91
802.499	17417.66
802.83	17324.78
803.161	17316.88
803.491	17212.47
803.822	17215.41
804.153	17188.29
804.483	17002.76
804.814	16993.27
805.145	16989.43
805.475	16846.38
805.805	16824.01
806.136	16823.33
806.466	16967.28
806.796	16885.25
807.126	16621.98
807.457	16603.67
807.787	16604.8
808.117	16546.73
808.447	16421.76
808.777	16463.11
809.107	16302.89
809.436	16362.55
809.766	16386.73
810.096	16196.9
810.426	16230.12
810.755	16229.22
811.085	16204.36
811.414	16098.83
811.744	15948.55
812.073	15967.31
812.403	15941.77
812.732	15926.4
813.061	15924.37
813.39	15747.65
813.719	15763.92
814.049	15843.92
814.378	15703.81
814.707	15673.08
815.036	15612.06
815.365	15536.58
815.693	15410.94
816.022	15396.02
816.351	15446.19
816.68	15367.32
817.008	15397.15
817.337	15288.45
817.665	15172.07
817.994	15282.58
818.322	15176.82
818.651	15116.26
818.979	15118.29
819.307	15137.95
819.636	15080.1
819.964	14976.37
820.292	15109.25
820.62	15048.91
820.948	14952.64
821.276	15013.43
821.604	14948.8
821.932	14970.5
822.259	14961.46
822.587	14922.14
822.915	14915.36
823.243	14995.35
823.57	14944.28
823.898	14935.02
824.225	14858.18
824.553	14824.51
824.88	14871.06
825.207	14937.73
825.535	14828.58
825.862	14908.35
826.189	14780.9
826.516	14877.39
826.843	14873.32
827.17	14805.08
827.497	14942.7
827.824	14902.25
828.151	14900.22
828.478	14892.76
828.805	14939.54
829.131	14806.66
829.458	14814.12
829.785	14762.14
830.111	14898.18
830.438	14918.52
830.764	14875.13
831.09	14861.35
831.417	14765.53
831.743	14907.22
832.069	14737.06
832.395	14696.15
832.722	14768.02
833.048	14734.34
833.374	14900.89
833.7	14726.89
834.026	14687.34
834.351	14744.74
834.677	14734.34
835.003	14715.59
835.329	14741.58
835.654	14609.6
835.98	14591.07
836.306	14582.26
836.631	14618.42
836.956	14624.52
837.282	14562.6
837.607	14480.57
837.932	14457.52
838.258	14416.61
838.583	14359.21
838.908	14328.71
839.233	14392.43
839.558	14268.37
839.883	14330.06
840.208	14364.86
840.533	14234.24
840.858	14247.8
841.182	14258.65
841.507	14238.54
841.832	14236.28
842.156	14091.65
842.481	14106.34
842.805	14104.53
843.13	14032.89
843.454	14078.99
843.778	13943.4
844.103	13924.2
844.427	13944.31
844.751	13931.88
845.075	13883.75
845.399	13819.79
845.723	13748.61
846.047	13797.65
846.371	13677.65
846.695	13648.5
847.019	13528.27
847.343	13437.88
847.666	13383.87
847.99	13431.1
848.313	13314.95
848.637	13303.87
848.96	13197.66
849.284	13144.33
849.607	13073.82
849.931	13036.76
850.254	12930.32
850.577	12931.45
850.9	12814.85
851.223	12869.99
851.546	12704.79
851.869	12719.93
852.192	12717.67
852.515	12648.98
852.838	12573.95
853.161	12557.23
853.483	12517.45
853.806	12447.4
854.129	12392.03
854.451	12338.93
854.774	12319.49
855.096	12295.31
855.419	12294.41
855.741	12205.82
856.063	12230
856.385	12135.99
856.708	12112.27
857.03	12111.81
857.352	11991.37
857.674	12040.86
857.996	11992.04
858.318	11906.4
858.64	11938.03
858.961	11893.97
859.283	11813.07
859.605	11758.15
859.926	11831.14
860.248	11755.67
860.57	11681.09
860.891	11731.26
861.212	11609.45
861.534	11602.9
861.855	11559.51
862.176	11634.99
862.498	11527.65
862.819	11552.06
863.14	11534.43
863.461	11486.07
863.782	11432.06
864.103	11522.23
864.424	11372.4
864.745	11381.89
865.065	11327.65
865.386	11253.53
865.707	11280.88
866.027	11284.27
866.348	11309.8
866.668	11317.71
866.989	11219.63
867.309	11185.28
867.63	11194.1
867.95	11191.16
868.27	11085.17
868.59	11122.91
868.91	11140.09
869.23	11043.59
869.55	10978.06
869.87	11081.11
870.19	10987.1
870.51	10981.45
870.83	11068
871.15	10948.46
871.469	10984.84
871.789	11000.43
872.109	10933.77
872.428	10864.39
872.748	10939.19
873.067	10882.47
873.386	10897.61
873.706	10912.52
874.025	10771.28
874.344	10721.34
874.663	10802.24
874.982	10791.62
875.301	10758.4
875.62	10713.66
875.939	10664.17
876.258	10696.71
876.577	10640.89
876.896	10671.17
877.214	10564.28
877.533	10639.08
877.852	10644.28
878.17	10611.51
878.489	10625.07
878.807	10515.7
879.125	10523.38
879.444	10490.84
879.762	10526.09
880.08	10435.7
880.398	10494.46
880.716	10466.21
881.034	10470.73
881.352	10449.49
881.67	10404.29
881.988	10347.34
882.306	10318.42
882.624	10321.13
882.941	10245.65
883.259	10157.29
883.577	10207.23
883.894	10253.56
884.212	10159.32
884.529	10129.49
884.846	10174.01
885.164	10128.82
885.481	10064.86
885.798	10143.73
886.115	10054.47
886.432	10036.39
886.75	9936.96
887.067	9991.64
887.383	9932.44
887.7	9914.58
888.017	9895.6
888.334	9881.14
888.651	9837.07
888.967	9868.71
889.284	9818.99
889.6	9748.49
889.917	9658.55
890.233	9740.58
890.55	9636.85
890.866	9695.83
891.182	9655.61
891.498	9644.53
891.815	9623.74
892.131	9508.72
892.447	9545.1
892.763	9427.59
893.079	9429.62
893.395	9476.86
893.71	9340.14
894.026	9431.66
894.342	9340.36
894.657	9330.64
894.973	9253.81
895.289	9327.03
895.604	9296.3
895.92	9153.02
896.235	9177.43
896.55	9157.77
896.865	9122.97
897.181	9049.07
897.496	9062.4
897.811	9035.06
898.126	9004.55
898.441	8939.02
898.756	8975.4
899.071	8909.19
899.386	8881.16
899.7	8849.53
900.015	8827.83
900.33	8722.52
900.644	8681.62
900.959	8648.18
901.273	8658.35
901.588	8698.12
901.902	8639.59
902.216	8615.64
902.531	8593.26
902.845	8485.24
903.159	8436.43
903.473	8405.47
903.787	8481.4
904.101	8439.14
904.415	8359.14
904.729	8299.26
905.042	8293.84
905.356	8285.02
905.67	8256.1
905.984	8239.37
906.297	8229.43
906.611	8208.87
906.924	8197.79
907.237	8136.78
907.551	8108.08
907.864	8060.17
908.177	8066.27
908.491	8065.14
908.804	7977.69
909.117	7924.58
909.43	7847.97
909.743	7799.84
910.056	7820.18
910.368	7809.33
910.681	7733.85
910.994	7777.01
911.307	7710.35
911.619	7605.27
911.932	7643.46
912.244	7580.41
912.557	7604.59
912.869	7590.13
913.181	7527.53
913.494	7462.22
913.806	7456.12
914.118	7436.23
914.43	7386.06
914.742	7330.7
915.054	7308.32
915.366	7265.84
915.678	7210.47
915.99	7220.42
916.302	7206.86
916.613	7097.03
916.925	7180.42
917.236	7127.31
917.548	7127.99
917.859	7079.4
918.171	7022.68
918.482	6978.62
918.794	6959.63
919.105	6956.92
919.416	6834.89
919.727	6906.08
920.038	6853.65
920.349	6823.37
920.66	6841.67
920.971	6746.08
921.282	6736.36
921.593	6739.98
921.903	6651.17
922.214	6681.9
922.525	6652.52
922.835	6622.02
923.146	6576.82
923.456	6519.19
923.767	6459.31
924.077	6477.16
924.387	6403.26
924.697	6423.6
925.008	6421.79
925.318	6434.9
925.628	6373.66
925.938	6346.77
926.248	6272.87
926.558	6212.08
926.867	6206.21
927.177	6242.82
927.487	6148.81
927.796	6134.57
928.106	6164.17
928.416	6130.5
928.725	6092.09
929.034	6110.84
929.344	6007.79
929.653	5998.75
929.962	5945.42
930.271	5978.19
930.581	5915.37
930.89	5825.65
931.199	5863.17
931.508	5836.27
931.817	5828.82
932.125	5803.73
932.434	5812.09
932.743	5740.46
933.051	5673.79
933.36	5709.95
933.669	5610.74
933.977	5621.36
934.286	5650.52
934.594	5625.88
934.902	5544.3
935.21	5505.21
935.519	5521.25
935.827	5482.84
936.135	5492.55
936.443	5486.68
936.751	5450.29
937.059	5444.64
937.367	5371.88
937.674	5388.38
937.982	5342.05
938.29	5270.86
938.597	5302.5
938.905	5222.28
939.213	5245.78
939.52	5247.14
939.827	5218.21
940.135	5239.23
940.442	5137.99
940.749	5130.75
941.056	5123.3
941.363	5070.42
941.67	5066.8
941.977	4996.3
942.284	5025.67
942.591	5046.69
942.898	4960.36
943.205	4917.65
943.511	4920.59
943.818	4927.82
944.125	4911.55
944.431	4869.97
944.738	4894.38
945.044	4858.9
945.35	4829.75
945.657	4764.66
945.963	4759.92
946.269	4720.6
946.575	4742.97
946.881	4697.09
947.187	4711.1
947.493	4714.72
947.799	4674.5
948.105	4667.26
948.41	4595.4
948.716	4629.53
949.022	4562.63
949.327	4535.29
949.633	4535.29
949.938	4502.97
950.244	4470.89
950.549	4452.35
950.854	4468.85
951.16	4450.09
951.465	4397.67
951.77	4399.7
952.075	4374.16
952.38	4377.33
952.685	4356.54
952.99	4332.36
953.294	4292.36
953.599	4257.56
953.904	4263.43
954.209	4255.98
954.513	4215.98
954.818	4211.46
955.122	4220.5
955.426	4171.01
955.731	4165.13
956.035	4099.37
956.339	4097.79
956.643	4127.39
956.948	4086.94
957.252	4079.26
957.556	4039.94
957.86	3989.54
958.163	3979.6
958.467	3985.93
958.771	3969.2
959.075	3968.3
959.378	3951.35
959.682	3945.02
959.985	3853.05
960.289	3852.6
960.592	3847.85
960.896	3867.74
961.199	3850.79
961.502	3820.51
961.805	3807.63
962.108	3772.37
962.411	3785.03
962.714	3796.55
963.017	3737.8
963.32	3775.99
963.623	3687.86
963.926	3714.75
964.228	3660.29
964.531	3681.98
964.833	3657.12
965.136	3626.39
965.438	3618.48
965.741	3598.14
966.043	3580.29
966.345	3610.57
966.648	3566.95
966.95	3522.89
967.252	3508.65
967.554	3540.06
967.856	3543.45
968.158	3482.21
968.46	3459.39
968.761	3436.56
969.063	3413.06
969.365	3400.4
969.666	3410.8
969.968	3390.69
970.269	3371.48
970.571	3334.64
970.872	3357.24
971.174	3314.31
971.475	3338.03
971.776	3317.02
972.077	3293.74
972.378	3237.25
972.679	3264.14
972.98	3273.4
973.281	3241.09
973.582	3246.51
973.883	3201.09
974.183	3201.99
974.484	3203.35
974.785	3150.47
975.085	3117.47
975.386	3092.62
975.686	3130.36
975.986	3106.63
976.287	3104.59
976.587	3077.25
976.887	3086.51
977.187	3037.48
977.487	3016.01
977.787	3033.41
978.087	3024.82
978.387	3000.19
978.687	2976.46
978.987	2981.66
979.286	2982.11
979.586	2939.17
979.885	2897.37
980.185	2940.53
980.484	2917.48
980.784	2874.77
981.083	2880.64
981.382	2851.04
981.682	2865.05
981.981	2825.28
982.28	2850.81
982.579	2808.56
982.878	2819.63
983.177	2768.56
983.475	2778.5
983.774	2732.4
984.073	2756.35
984.372	2718.84
984.67	2746.64
984.969	2711.84
985.267	2740.76
985.566	2703.93
985.864	2695.56
986.162	2676.36
986.461	2660.09
986.759	2637.26
987.057	2641.33
987.355	2607.43
987.653	2585.51
987.951	2588.9
988.249	2616.7
988.547	2626.64
988.844	2549.81
989.142	2542.35
989.44	2538.05
989.737	2527.89
990.035	2529.92
990.332	2508.9
990.63	2473.2
990.927	2456.93
991.224	2459.41
991.521	2458.96
991.819	2446.31
992.116	2429.13
992.413	2428
992.71	2421
993.006	2410.83
993.303	2421.22
993.6	2378.96
993.897	2365.4
994.193	2362.24
994.49	2352.97
994.787	2342.35
995.083	2344.84
995.379	2293.09
995.676	2300.32
995.972	2303.71
996.268	2284.5
996.565	2285.86
996.861	2271.85
997.157	2258.06
997.453	2231.17
997.749	2197.27
998.044	2214.45
998.34	2162.47
998.636	2192.08
998.932	2133.55
999.227	2180.32
999.523	2156.14
999.818	2127.44
1000.114	2176.71
1000.409	2124.96
1000.704	2110.04
1001	2103.72
1001.295	2091.29
1001.59	2078.86
1001.885	2094.68
1002.18	2094.9
1002.475	2057.84
1002.77	2049.25
1003.065	2031.63
1003.359	2034.57
1003.654	1998.86
1003.949	1995.02
1004.243	1949.82
1004.538	2013.32
1004.832	1994.11
1005.127	1965.87
1005.421	1916.83
1005.715	1942.36
1006.009	1921.57
1006.304	1920.22
1006.598	1877.51
1006.892	1892.42
1007.186	1861.01
1007.48	1876.38
1007.773	1847.9
1008.067	1855.36
1008.361	1814.23
1008.655	1825.98
1008.948	1835.7
1009.242	1796.83
1009.535	1766.32
1009.829	1780.11
1010.122	1791.41
1010.415	1774.46
1010.708	1795.48
1011.001	1701.69
1011.295	1695.37
1011.588	1715.93
1011.881	1712.77
1012.173	1698.3
1012.466	1691.3
1012.759	1696.95
1013.052	1658.53
1013.344	1644.07
1013.637	1663.73
1013.93	1621.92
1014.222	1626.89
1014.514	1608.36
1014.807	1609.72
1015.099	1615.14
1015.391	1584.41
1015.683	1579.44
1015.976	1581.92
1016.268	1571.07
1016.56	1547.12
1016.851	1525.88
1017.143	1541.24
1017.435	1522.94
1017.727	1527.23
1018.018	1510.96
1018.31	1498.53
1018.602	1486.78
1018.893	1474.58
1019.185	1470.74
1019.476	1463.51
1019.767	1459.21
1020.058	1442.04
1020.35	1456.73
1020.641	1427.35
1020.932	1426.67
1021.223	1381.25
1021.514	1397.52
1021.804	1402.94
1022.095	1387.12
1022.386	1398.2
1022.677	1363.4
1022.967	1340.8
1023.258	1357.29
1023.548	1329.72
1023.839	1325.43
1024.129	1321.14
1024.419	1323.4
1024.709	1294.47
1025	1300.57
1025.29	1297.41
1025.58	1317.75
1025.87	1256.73
1026.16	1289.95
1026.449	1244.53
1026.739	1237.52
1027.029	1252.66
1027.319	1222.61
1027.608	1224.42
1027.898	1203.17
1028.187	1212.89
1028.477	1208.15
1028.766	1219.67
1029.055	1189.39
1029.344	1194.81
1029.634	1178.54
1029.923	1178.99
1030.212	1147.58
1030.501	1152.55
1030.79	1139
1031.078	1168.6
1031.367	1155.04
1031.656	1108.94
1031.945	1096.74
1032.233	1115.95
1032.522	1102.16
1032.81	1097.41
1033.099	1099
1033.387	1086.34
1033.675	1079.56
1033.963	1073.01
1034.251	1065.55
1034.54	1041.14
1034.828	1036.4
1035.116	1042.95
1035.403	1044.99
1035.691	1000.02
1035.979	1007.47
1036.267	999.34
1036.554	986.01
1036.842	971.99
1037.129	960.7
1037.417	971.09
1037.704	985.1
1037.992	970.19
1038.279	979.9
1038.566	964.76
1038.853	964.76
1039.14	964.76
