Data from hue_220_FLMS001491_00081.txt Node
Date: Tue Feb 07 16:40:03 GMT 2017
User: dcchb
Spectrometer: FLMS00149
Trigger mode: 0
Integration Time (sec): 2.000000E-2
Scans to average: 10
Electric dark correction enabled: true
Nonlinearity correction enabled: false
Boxcar width: 0
XAxis mode: Wavelengths
Number of Pixels in Spectrum: 2048
>>>>>Begin Spectral Data<<<<<
341.393	-16.85
341.776	-16.85
342.16	-16.85
342.543	-60.92
342.927	-76.74
343.31	-70.63
343.693	-78.32
344.077	-78.09
344.46	-51.88
344.843	-43.74
345.226	-42.39
345.61	-38.77
345.993	-13.69
346.376	-12.56
346.759	17.05
347.142	46.65
347.525	32.64
347.908	47.33
348.291	56.14
348.674	100.44
349.057	129.81
349.44	137.72
349.823	133.43
350.206	162.35
350.588	192.86
350.971	186.31
351.354	233.54
351.737	249.13
352.119	245.97
352.502	252.07
352.884	277.61
353.267	278.51
353.65	272.86
354.032	292.75
354.414	313.76
354.797	313.54
355.179	305.18
355.562	335.91
355.944	321.22
356.326	326.19
356.709	330.26
357.091	337.94
357.473	333.65
357.855	323.71
358.238	330.26
358.62	356.47
359.002	352.41
359.384	359.19
359.766	349.02
360.148	338.62
360.53	330.71
360.912	330.71
361.294	326.19
361.676	330.71
362.057	320.32
362.439	330.03
362.821	317.15
363.203	320.32
363.584	315.12
363.966	332.52
364.348	320.77
364.729	315.12
365.111	317.38
365.493	303.14
365.874	313.76
366.256	300.2
366.637	315.34
367.019	305.63
367.4	299.3
367.781	322.12
368.163	302.46
368.544	293.88
368.925	310.37
369.306	327.77
369.688	316.02
370.069	309.47
370.45	294.1
370.831	307.44
371.212	308.11
371.593	320.77
371.974	316.25
372.355	295.01
372.736	325.74
373.117	310.37
373.498	319.19
373.879	319.86
374.26	295.91
374.641	312.18
375.021	317.6
375.402	332.97
375.783	321.67
376.163	318.06
376.544	316.25
376.925	314.89
377.305	308.11
377.686	316.25
378.066	335.68
378.447	322.58
378.827	319.64
379.208	318.51
379.588	328.45
379.968	356.02
380.349	328.23
380.729	344.27
381.109	328
381.489	346.98
381.87	324.16
382.25	327.1
382.63	331.62
383.01	334.1
383.39	347.89
383.77	322.58
384.15	340.2
384.53	344.72
384.91	343.82
385.29	341.56
385.67	346.53
386.049	336.14
386.429	334.33
386.809	341.11
387.189	362.12
387.568	350.6
387.948	342.46
388.328	362.58
388.707	363.93
389.087	359.19
389.466	345.17
389.846	376.59
390.225	359.86
390.605	381.33
390.984	363.71
391.363	372.29
391.743	354.67
392.122	368.68
392.501	372.07
392.881	358.28
393.26	384.5
393.639	375
394.018	380.88
394.397	369.58
394.776	373.65
395.155	377.72
395.534	385.63
395.913	383.14
396.292	386.3
396.671	389.02
397.05	373.87
397.429	385.85
397.808	411.39
398.186	389.02
398.565	389.69
398.944	401.22
399.323	408.68
399.701	408.68
400.08	404.38
400.458	400.31
400.837	410.03
401.215	399.41
401.594	418.39
401.972	426.3
402.351	432.4
402.729	436.02
403.107	425.62
403.486	441.9
403.864	427.21
404.242	440.54
404.62	435.57
404.999	451.16
405.377	455.23
405.755	445.96
406.133	460.65
406.511	458.39
406.889	460.65
407.267	468.34
407.645	459.75
408.023	469.01
408.401	485.74
408.779	478.28
409.156	497.03
409.534	506.98
409.912	511.95
410.29	526.86
410.667	520.54
411.045	531.38
411.422	556.02
411.8	524.6
412.178	557.82
412.555	562.12
412.933	594.21
413.31	577.03
413.687	579.97
414.065	580.2
414.442	597.37
414.819	616.81
415.197	609.8
415.574	633.98
415.951	634.43
416.328	641.44
416.705	640.08
417.082	643.02
417.46	659.29
417.837	667.88
418.214	677.14
418.591	704.04
418.967	691.38
419.344	709.91
419.721	700.19
420.098	710.81
420.475	741.77
420.852	740.87
421.228	746.52
421.605	772.06
421.982	772.51
422.358	780.42
422.735	813.86
423.111	813.18
423.488	819.51
423.864	836.46
424.241	858.16
424.617	868.1
424.994	860.64
425.37	879.4
425.746	889.12
426.123	907.19
426.499	926.18
426.875	927.31
427.251	927.31
427.627	974.54
428.003	960.53
428.379	993.29
428.756	1005.27
429.132	996.46
429.507	1039.39
429.883	1028.09
430.259	1057.92
430.635	1043.91
431.011	1040.52
431.387	1062.44
431.763	1129.11
432.138	1103.12
432.514	1107.87
432.89	1146.28
433.265	1177.02
433.641	1214.76
434.016	1196.9
434.392	1219.28
434.767	1239.39
435.143	1283.68
435.518	1265.6
435.894	1320.97
436.269	1331.14
436.644	1338.59
437.02	1361.64
437.395	1378.59
437.77	1420.85
438.145	1445.03
438.52	1435.77
438.895	1445.26
439.271	1492.94
439.646	1527.06
440.021	1546.72
440.395	1564.8
440.77	1552.6
441.145	1558.7
441.52	1602.77
441.895	1616.33
442.27	1633.73
442.645	1649.77
443.019	1681.86
443.394	1684.35
443.769	1701.3
444.143	1684.12
444.518	1748.08
444.892	1715.31
445.267	1753.05
445.641	1769.77
446.016	1752.6
446.39	1817.45
446.764	1822.42
447.139	1827.62
447.513	1833.05
447.887	1817.68
448.262	1872.59
448.636	1861.07
449.01	1919.6
449.384	1932.25
449.758	1916.66
450.132	1935.19
450.506	1961.4
450.88	1947.39
451.254	1974.51
451.628	1985.81
452.002	2049.08
452.376	2059.93
452.75	2021.51
453.123	2064.45
453.497	2097.22
453.871	2092.93
454.244	2135.64
454.618	2135.18
454.992	2161.85
455.365	2159.82
455.739	2188.97
456.112	2256.76
456.486	2260.38
456.859	2260.6
457.232	2318.23
457.606	2325.24
457.979	2363.65
458.352	2387.83
458.725	2450.2
459.099	2418.79
459.472	2468.96
459.845	2499.69
460.218	2507.83
460.591	2533.14
460.964	2561.61
461.337	2589.18
461.71	2641.39
462.083	2662.4
462.456	2643.19
462.829	2678.67
463.201	2717.77
463.574	2751.66
463.947	2776.75
464.32	2850.87
464.692	2881.83
465.065	2835.73
465.438	2893.36
465.81	2964.99
466.183	2908.72
466.555	3016.29
466.928	3012.9
467.3	3031.66
467.672	3084.31
468.045	3132.22
468.417	3136.51
468.789	3146.91
469.161	3226
469.534	3243.63
469.906	3313.01
470.278	3345.32
470.65	3364.98
471.022	3416.51
471.394	3458.09
471.766	3466.45
472.138	3536.96
472.51	3607.24
472.882	3623.73
473.253	3697.18
473.625	3720.9
473.997	3767.01
474.369	3807
474.74	3854.23
475.112	3914.35
475.484	3972.2
475.855	3965.64
476.227	4068.92
476.598	4123.61
476.97	4130.16
477.341	4212.87
477.713	4264.17
478.084	4324.05
478.455	4442.24
478.827	4408.12
479.198	4608.57
479.569	4586.64
479.94	4661.67
480.311	4716.36
480.682	4735.57
481.053	4871.16
481.424	4893.98
481.795	4910.25
482.166	5021.66
482.537	5071.83
482.908	5194.31
483.279	5194.76
483.65	5312.5
484.021	5366.29
484.391	5399.05
484.762	5461.88
485.133	5512.5
485.503	5573.74
485.874	5689.21
486.244	5668.42
486.615	5801.53
486.985	5835.88
487.356	5964.69
487.726	5958.81
488.097	6134.85
488.467	6138.24
488.837	6192.48
489.207	6256.66
489.578	6347.28
489.948	6303.21
490.318	6483.32
490.688	6485.35
491.058	6544.56
491.428	6627.95
491.798	6670.21
492.168	6805.34
492.538	6807.38
492.908	6874.95
493.278	6886.25
493.648	6957.66
494.017	7032.46
494.387	7078.1
494.757	7101.61
495.126	7162.85
495.496	7157.42
495.866	7145
496.235	7264.54
496.605	7321.71
496.974	7404.42
497.344	7405.1
497.713	7411.43
498.082	7502.95
498.452	7535.27
498.821	7517.64
499.19	7580.69
499.559	7628.6
499.928	7636.28
500.298	7648.49
500.667	7744.3
501.036	7728.94
501.405	7791.76
501.774	7741.36
502.143	7794.7
502.512	7831.31
502.88	7909.04
503.249	7876.05
503.618	7930.74
503.987	7883.96
504.356	7959.44
504.724	8003.96
505.093	8046.67
505.462	8003.73
505.83	8085.76
506.199	8093.67
506.567	8133.44
506.936	8100.9
507.304	8185.42
507.672	8198.75
508.041	8281.92
508.409	8229.26
508.777	8298.41
509.145	8324.63
509.514	8281.24
509.882	8301.8
510.25	8361.91
510.618	8394.45
510.986	8357.62
511.354	8409.6
511.722	8464.74
512.09	8479.42
512.458	8479.42
512.826	8415.02
513.193	8462.93
513.561	8455.7
513.929	8512.64
514.297	8531.63
514.664	8565.52
515.032	8624.96
515.4	8645.97
515.767	8657.5
516.135	8624.05
516.502	8543.38
516.869	8644.39
517.237	8645.3
517.604	8569.59
517.972	8695.01
518.339	8660.66
518.706	8733.43
519.073	8674.67
519.44	8680.1
519.808	8763.26
520.175	8656.59
520.542	8762.81
520.909	8738.17
521.276	8716.71
521.643	8746.08
522.009	8782.47
522.376	8882.8
522.743	8778.85
523.11	8848.23
523.477	8913.99
523.843	8890.71
524.21	8945.63
524.577	8985.4
524.943	8912.18
525.31	8985.4
525.676	8996.7
526.043	9017.04
526.409	8968.22
526.776	9061.1
527.142	8953.76
527.508	8977.26
527.874	9032.4
528.241	8988.56
528.607	8990.82
528.973	9093.65
529.339	8929.81
529.705	9012.07
530.071	9046.41
530.437	9004.16
530.803	8994.66
531.169	9068.79
531.535	8963.25
531.901	8954.44
532.267	9009.13
532.632	8944.72
532.998	8976.13
533.364	8990.37
533.73	8946.53
534.095	9012.52
534.461	9040.54
534.826	8982.01
535.192	8952.41
535.557	8972.29
535.923	8868.11
536.288	8918.06
536.653	8913.08
537.019	8870.83
537.384	8870.6
537.749	8887.77
538.114	8826.99
538.479	8808.91
538.845	8878.06
539.21	8676.48
539.575	8789.02
539.94	8696.14
540.305	8779.3
540.67	8768.46
541.034	8775.24
541.399	8676.48
541.764	8653.66
542.129	8659.31
542.494	8643.26
542.858	8621.34
543.223	8591.74
543.587	8572.3
543.952	8494.11
544.316	8573.21
544.681	8528.01
545.045	8516.26
545.41	8462.48
545.774	8423.61
546.138	8484.17
546.503	8418.86
546.867	8355.59
547.231	8459.76
547.595	8369.37
547.959	8391.29
548.324	8301.8
548.688	8281.01
549.052	8269.03
549.416	8291.41
549.779	8261.35
550.143	8251.18
550.507	8290.05
550.871	8206.89
551.235	8174.8
551.599	8169.15
551.962	8185.19
552.326	8096.84
552.689	8141.58
553.053	8035.82
553.417	8094.12
553.78	8147.91
554.143	8053.9
554.507	7994.92
554.87	7999.44
555.234	8108.13
555.597	7977.74
555.96	8015.03
556.323	7970.06
556.686	8008.48
557.05	8031.07
557.413	7994.24
557.776	7980.91
558.139	8031.07
558.502	7955.37
558.865	7952.88
559.228	8029.94
559.59	8008.02
559.953	7989.27
560.316	8015.71
560.679	8009.61
561.041	7960.12
561.404	7984.3
561.767	8001.02
562.129	7933.68
562.492	7994.46
562.854	7980
563.217	7937.74
563.579	8007.8
563.941	7996.72
564.304	7954.69
564.666	8005.09
565.028	8012.54
565.39	7957.4
565.753	8055.25
566.115	8026.78
566.477	8092.77
566.839	8064.75
567.201	8097.97
567.563	8119.21
567.925	8111.07
568.287	8132.31
568.648	8041.47
569.01	8091.19
569.372	8169.38
569.734	8129.38
570.095	8150.39
570.457	8228.58
570.819	8168.47
571.18	8158.75
571.542	8225.42
571.903	8218.87
572.265	8267.9
572.626	8240.56
572.987	8252.31
573.349	8296.15
573.71	8274.01
574.071	8304.97
574.432	8360.56
574.794	8324.17
575.155	8308.58
575.516	8295.02
575.877	8364.62
576.238	8392.42
576.599	8405.53
576.96	8372.08
577.32	8425.41
577.681	8441.91
578.042	8493.21
578.403	8478.75
578.763	8496.6
579.124	8527.78
579.485	8536.6
579.845	8538.63
580.206	8539.54
580.566	8620.44
580.927	8577.73
581.287	8638.97
581.648	8583.6
582.008	8669.7
582.368	8566.2
582.728	8640.1
583.089	8629.25
583.449	8669.02
583.809	8651.17
584.169	8720.32
584.529	8764.16
584.889	8704.05
585.249	8721
585.609	8734.78
585.969	8733.65
586.329	8732.3
586.688	8763.94
587.048	8765.07
587.408	8803.26
587.768	8758.96
588.127	8815.01
588.487	8801.22
588.846	8906.08
589.206	8842.58
589.565	8887.55
589.925	8919.64
590.284	8931.16
590.643	8896.81
591.003	8913.31
591.362	8971.16
591.721	8913.31
592.08	8961.67
592.44	8976.13
592.799	8975.46
593.158	8927.77
593.517	8993.99
593.876	9039.86
594.235	9045.06
594.593	8989.24
594.952	9040.31
595.311	9045.06
595.67	9064.49
596.029	9123.93
596.387	9118.5
596.746	9149.24
597.104	9045.06
597.463	9040.99
597.822	9158.95
598.18	9085.28
598.538	9094.1
598.897	9121.89
599.255	9048.45
599.613	9220.65
599.972	9119.63
600.33	9110.14
600.688	9095
601.046	9136.81
601.404	9179.07
601.762	9151.5
602.12	9189.46
602.478	9189.01
602.836	9277.37
603.194	9201.44
603.552	9195.34
603.91	9130.93
604.268	9190.37
604.625	9214.32
604.983	9265.39
605.341	9212.06
605.698	9307.42
606.056	9188.78
606.413	9175.45
606.771	9350.59
607.128	9298.39
607.485	9214.55
607.843	9197.37
608.2	9303.36
608.557	9251.61
608.914	9251.61
609.272	9345.39
609.629	9337.93
609.986	9387.87
610.343	9261.1
610.7	9327.31
611.057	9319.18
611.414	9305.39
611.771	9322.57
612.127	9404.6
612.484	9366.41
612.841	9436.23
613.198	9407.08
613.554	9400.3
613.911	9400.08
614.267	9432.85
614.624	9453.86
614.98	9391.49
615.337	9480.98
615.693	9439.17
616.05	9420.64
616.406	9510.13
616.762	9444.6
617.118	9468.1
617.475	9478.49
617.831	9477.82
618.187	9506.74
618.543	9525.27
618.899	9565.27
619.255	9508.32
619.611	9499.96
619.967	9596
620.323	9544.03
620.678	9580.41
621.034	9517.59
621.39	9542.67
621.746	9554.42
622.101	9580.19
622.457	9448.89
622.812	9622.22
623.168	9584.03
623.523	9462.9
623.879	9566.4
624.234	9508.55
624.589	9584.25
624.945	9567.98
625.3	9631.71
625.655	9515.33
626.01	9564.14
626.365	9594.87
626.72	9553.75
627.075	9518.94
627.43	9535.44
627.785	9472.62
628.14	9546.74
628.495	9600.98
628.85	9508.55
629.205	9450.02
629.559	9550.13
629.914	9452.96
630.269	9522.56
630.623	9488.44
630.978	9499.96
631.332	9528.21
631.687	9466.97
632.041	9420.64
632.396	9488.21
632.75	9392.39
633.104	9416.8
633.459	9344.49
633.813	9334.09
634.167	9371.15
634.521	9388.1
634.875	9412.51
635.229	9334.99
635.583	9328.67
635.937	9331.83
636.291	9317.14
636.645	9313.3
636.999	9328.89
637.352	9295.67
637.706	9276.01
638.06	9297.48
638.413	9244.6
638.767	9236.69
639.121	9229.23
639.474	9210.25
639.828	9232.85
640.181	9226.52
640.534	9240.31
640.888	9173.64
641.241	9172.97
641.594	9183.36
641.947	9163.93
642.301	9225.17
642.654	9242.79
643.007	9168.9
643.36	9170.03
643.713	9059.3
644.066	9150.59
644.419	9117.37
644.771	9072.4
645.124	8938.62
645.477	8925.51
645.83	8877.61
646.182	8921.22
646.535	8883.71
646.888	8891.84
647.24	8779.3
647.593	8873.99
647.945	8911.28
648.298	8829.7
648.65	8772.07
649.002	8760.09
649.355	8824.95
649.707	8849.58
650.059	8873.54
650.411	8973.42
650.763	8945.17
651.115	9022.46
651.467	9065.85
651.819	9016.81
652.171	9053.42
652.523	9006.64
652.875	9039.64
653.227	8913.31
653.578	9014.78
653.93	9005.06
654.282	8980.2
654.633	8990.6
654.985	9023.36
655.337	8943.14
655.688	9024.27
656.039	9037.6
656.391	8966.64
656.742	8949.02
657.094	8977.94
657.445	9001.44
657.796	8974.55
658.147	8955.34
658.498	9036.25
658.849	9020.43
659.2	8975.23
659.551	9029.01
659.902	9066.98
660.253	9059.52
660.604	9085.96
660.955	9012.97
661.306	9026.98
661.656	9099.52
662.007	9072.18
662.358	9062.91
662.708	9073.76
663.059	9033.76
663.409	9028.56
663.76	9099.07
664.11	9051.39
664.461	9072.85
664.811	9096.13
665.161	9043.7
665.511	9013.2
665.862	9149.91
666.212	9085.28
666.562	9052.52
666.912	9049.13
667.262	9058.62
667.612	9095.23
667.962	9049.8
668.312	9064.04
668.662	9078.28
669.011	9067.21
669.361	9048.67
669.711	9029.24
670.06	9077.83
670.41	8989.02
670.76	9051.39
671.109	9057.71
671.459	9005.29
671.808	9001.67
672.157	9002.57
672.507	8927.77
672.856	8955.12
673.205	9017.04
673.554	9001.67
673.904	8975.46
674.253	8981.78
674.602	8981.33
674.951	8839.41
675.3	8765.97
675.649	8902.92
675.998	8927.1
676.346	8911.5
676.695	8913.31
677.044	8925.29
677.393	8902.01
677.741	8968
678.09	8910.37
678.438	8893.65
678.787	8887.1
679.135	8867.89
679.484	8878.28
679.832	8883.71
680.181	8814.78
680.529	8830.38
680.877	8769.36
681.225	8755.12
681.573	8793.31
681.922	8749.02
682.27	8718.74
682.618	8706.54
682.966	8662.02
683.314	8683.71
683.661	8598.52
684.009	8592.19
684.357	8546.99
684.705	8647.33
685.053	8653.66
685.4	8639.19
685.748	8520.78
686.095	8522.36
686.443	8508.12
686.79	8498.18
687.138	8518.52
687.485	8564.85
687.832	8477.16
688.18	8428.13
688.527	8395.58
688.874	8377.96
689.221	8425.41
689.568	8307.45
689.915	8279.2
690.262	8330.95
690.609	8303.61
690.956	8224.52
691.303	8230.62
691.65	8209.6
691.997	8203.27
692.344	8110.39
692.69	8109.04
693.037	8061.13
693.383	8043.05
693.73	8066.33
694.077	7957.18
694.423	7971.19
694.769	7934.81
695.116	7881.93
695.462	7919.44
695.808	7876.73
696.155	7941.13
696.501	7883.28
696.847	7824.3
697.193	7707.69
697.539	7724.64
697.885	7668.82
698.231	7721.48
698.577	7679.67
698.923	7663.4
699.269	7616.4
699.614	7577.98
699.96	7538.21
700.306	7559.22
700.651	7528.49
700.997	7444.2
701.342	7391.09
701.688	7417.08
702.033	7359.68
702.379	7385.44
702.724	7365.33
703.069	7371.2
703.415	7215.73
703.76	7207.37
704.105	7257.08
704.45	7192.45
704.795	7234.71
705.14	7154.49
705.485	7163.98
705.83	7119.46
706.175	7115.39
706.52	7042.85
706.865	6997.88
707.209	7025.68
707.554	7007.6
707.899	6986.58
708.243	6926.02
708.588	6971.89
708.932	6893.25
709.277	6919.24
709.621	6887.38
709.966	6835.17
710.31	6859.13
710.654	6821.61
710.998	6803.99
711.342	6792.24
711.687	6745.68
712.031	6695.06
712.375	6751.56
712.719	6696.65
713.063	6702.52
713.407	6744.55
713.75	6681.51
714.094	6689.87
714.438	6674.05
714.782	6641.73
715.125	6572.81
715.469	6617.55
715.812	6635.4
716.156	6565.12
716.499	6589.3
716.843	6603.99
717.186	6538.91
717.53	6579.36
717.873	6563.32
718.216	6576.2
718.559	6563.32
718.902	6473.37
719.246	6538.91
719.589	6517.67
719.932	6466.14
720.275	6477.22
720.617	6422.53
720.96	6466.82
721.303	6485.8
721.646	6482.87
721.989	6410.55
722.331	6425.47
722.674	6424.11
723.016	6403.32
723.359	6331.46
723.701	6392.47
724.044	6398.12
724.386	6351.57
724.729	6350.89
725.071	6396.99
725.413	6314.28
725.755	6382.76
726.097	6394.06
726.439	6289.43
726.782	6328.07
727.124	6322.87
727.465	6320.61
727.807	6279.71
728.149	6306.37
728.491	6326.71
728.833	6312.48
729.175	6306.83
729.516	6283.78
729.858	6288.75
730.199	6327.84
730.541	6327.84
730.882	6308.41
731.224	6301.63
731.565	6252.14
731.906	6308.63
732.248	6302.53
732.589	6278.8
732.93	6279.71
733.271	6281.97
733.612	6321.29
733.953	6303.89
734.294	6267.28
734.635	6276.09
734.976	6273.15
735.317	6261.4
735.658	6292.81
735.999	6298.24
736.339	6314.96
736.68	6350.44
737.021	6315.19
737.361	6302.76
737.702	6410.33
738.042	6360.16
738.383	6359.71
738.723	6350.44
739.063	6404.9
739.404	6409.87
739.744	6354.51
740.084	6458.46
740.424	6455.3
740.764	6344.34
741.104	6437.22
741.444	6446.48
741.784	6469.53
742.124	6520.38
742.464	6491.45
742.804	6499.14
743.143	6460.72
743.483	6526.48
743.823	6504.33
744.162	6526.93
744.502	6574.84
744.841	6641.51
745.181	6665.69
745.52	6678.79
745.86	6722.86
746.199	6759.24
746.538	6771.22
746.877	6857.09
747.216	6895.51
747.556	6869.07
747.895	6954.04
748.234	6928.28
748.573	6982.74
748.911	7015.51
749.25	7126.92
749.589	7113.36
749.928	7194.49
750.267	7338.66
750.605	7370.07
750.944	7460.24
751.283	7498.21
751.621	7572.78
751.96	7644.87
752.298	7631.08
752.636	7851.87
752.975	7903.85
753.313	8008.7
753.651	8087.8
753.989	8160.79
754.327	8283.5
754.666	8342.03
755.004	8476.71
755.342	8653.43
755.679	8811.17
756.017	8936.81
756.355	9040.99
756.693	9116.24
757.031	9359.17
757.368	9361.89
757.706	9506.74
758.044	9643.91
758.381	9863.57
758.719	9997.35
759.056	10145.37
759.394	10326.16
759.731	10482.76
760.068	10598.69
760.405	10762.98
760.743	10911.9
761.08	11118.22
761.417	11176.75
761.754	11403.41
762.091	11582.17
762.428	11660.13
762.765	11891.31
763.102	12106.22
763.438	12221.47
763.775	12419.66
764.112	12619.2
764.449	12812.42
764.785	12926.09
765.122	13027.33
765.458	13133.54
765.795	13322.91
766.131	13611.94
766.467	13725.39
766.804	13835.67
767.14	13933.07
767.476	14119.73
767.812	14222.1
768.148	14481.53
768.485	14556.55
768.821	14603.1
769.157	14761.29
769.492	14933.49
769.828	15014.85
770.164	15167.61
770.5	15249.42
770.836	15384.33
771.171	15417.32
771.507	15594.49
771.842	15648.5
772.178	15831.1
772.513	15921.26
772.849	15942.73
773.184	16040.58
773.519	16207.13
773.855	16151.99
774.19	16335.94
774.525	16276.73
774.86	16483.73
775.195	16582.49
775.53	16585.88
775.865	16688.47
776.2	16596.5
776.535	16638.53
776.87	16811.18
777.205	16821.58
777.539	16772.31
777.874	16938.64
778.209	16840.79
778.543	16984.51
778.878	16921.24
779.212	17103.38
779.547	16984.51
779.881	17138.86
780.215	17140.21
780.55	17243.04
780.884	17171.17
781.218	17263.15
781.552	17262.47
781.886	17200.78
782.22	17241.45
782.554	17163.94
782.888	17199.87
783.222	17150.61
783.556	17148.35
783.889	17119.65
784.223	17074.9
784.557	17162.36
784.89	17142.47
785.224	17151.96
785.557	17098.41
785.891	17138.18
786.224	17117.39
786.558	17115.36
786.891	17036.71
787.224	16997.17
787.557	16948.35
787.891	17138.86
788.224	17092.98
788.557	17023.61
788.89	17122.13
789.223	17109.25
789.556	17024.96
789.888	17040.33
790.221	17014.11
790.554	16890.73
790.887	16897.73
791.219	16824.52
791.552	16824.52
791.884	16800.79
792.217	16777.06
792.549	16705.65
792.882	16670.85
793.214	16607.57
793.546	16751.75
793.879	16580.45
794.211	16669.49
794.543	16636.72
794.875	16561.47
795.207	16657.06
795.539	16599.66
795.871	16534.35
796.203	16445.54
796.535	16387.24
796.867	16358.31
797.198	16282.38
797.53	16368.48
797.862	16195.61
798.193	16289.39
798.525	16152.44
798.856	16154.7
799.188	16041.71
799.519	15903.18
799.85	15939.79
800.182	15944.99
800.513	16019.34
800.844	15950.19
801.175	15991.77
801.506	15907.7
801.837	15808.04
802.168	15785.67
802.499	15834.26
802.83	15721.95
803.161	15690.31
803.491	15688.95
803.822	15669.52
804.153	15557.2
804.483	15527.15
804.814	15529.18
805.145	15410.99
805.475	15482.18
805.805	15423.65
806.136	15421.16
806.466	15466.58
806.796	15443.76
807.126	15198.8
807.457	15280.38
807.787	15237.89
808.117	15210.32
808.447	15232.24
808.777	15139.81
809.107	15155.41
809.436	15105.92
809.766	15089.87
810.096	15008.07
810.426	14988.86
810.755	14983.21
811.085	14946.37
811.414	14937.11
811.744	14953.6
812.073	14815.98
812.403	14869.76
812.732	14740.95
813.061	14756.77
813.39	14699.83
813.719	14621.18
814.049	14719.26
814.378	14601.52
814.707	14662.99
815.036	14657.34
815.365	14528.08
815.693	14530.79
816.022	14530.56
816.351	14431.81
816.68	14433.17
817.008	14518.14
817.337	14328.54
817.665	14219.61
817.994	14358.37
818.322	14246.96
818.651	14265.03
818.979	14244.7
819.307	14236.56
819.636	14231.82
819.964	14120.41
820.292	14237.24
820.62	14173.06
820.948	14138.71
821.276	14085.83
821.604	14154.75
821.932	14144.36
822.259	14232.27
822.587	14112.27
822.915	14064.81
823.243	14066.17
823.57	13994.08
823.898	14151.37
824.225	14064.81
824.553	14096.9
824.88	14079.73
825.207	14190.01
825.535	14152.5
825.862	14136.22
826.189	14091.93
826.516	14189.78
826.843	14263.23
827.17	14197.01
827.497	14149.78
827.824	14203.79
828.151	14150.69
828.478	14189.78
828.805	14287.63
829.131	14213.51
829.458	14089.9
829.785	14136
830.111	14120.63
830.438	14204.92
830.764	14159.73
831.09	14206.73
831.417	14150.91
831.743	14165.15
832.069	14183.23
832.395	14081.76
832.722	14156.34
833.048	14038.83
833.374	14170.35
833.7	14092.38
834.026	14035.21
834.351	14056.68
834.677	14128.09
835.003	14037.24
835.329	13933.74
835.654	14067.98
835.98	13913.86
836.306	13964.25
836.631	13903.69
836.956	13981.2
837.282	13917.93
837.607	13931.94
837.932	13923.8
838.258	13911.6
838.583	13866.4
838.908	13781.21
839.233	13826.85
839.558	13808.32
839.883	13723.58
840.208	13773.75
840.533	13664.15
840.858	13729.46
841.182	13719.74
841.507	13626.41
841.832	13631.6
842.156	13561.32
842.481	13570.59
842.805	13588.67
843.13	13568.78
843.454	13481.33
843.778	13357.04
844.103	13475.22
844.427	13387.77
844.751	13364.27
845.075	13407.43
845.399	13306.19
845.723	13223.93
846.047	13345.28
846.371	13109.36
846.695	13169.02
847.019	13003.6
847.343	13017.16
847.666	12895.8
847.99	12922.92
848.313	12856.71
848.637	12799.76
848.96	12814.68
849.284	12694.45
849.607	12650.16
849.931	12592.99
850.254	12549.83
850.577	12472.54
850.9	12391.64
851.223	12377.4
851.546	12294.24
851.869	12283.39
852.192	12268.48
852.515	12168.37
852.838	12088.37
853.161	12190.06
853.483	12126.33
853.806	11971.31
854.129	12040.69
854.451	11974.25
854.774	11888.15
855.096	11889.96
855.419	11861.71
855.741	11742.16
856.063	11798.66
856.385	11680.92
856.708	11698.1
857.03	11692.45
857.352	11607.7
857.674	11633.01
857.996	11560.02
858.318	11464.66
858.64	11571.77
858.961	11432.57
859.283	11407.93
859.605	11408.61
859.926	11405.9
860.248	11363.87
860.57	11328.39
860.891	11341.5
861.212	11308.28
861.534	11259.46
861.855	11215.4
862.176	11201.16
862.498	11153.93
862.819	11194.61
863.14	11123.65
863.461	11064.89
863.782	11025.35
864.103	10997.55
864.424	11028.74
864.745	11034.16
865.065	11014.72
865.386	10880.72
865.707	10934.05
866.027	10958.68
866.348	10841.4
866.668	10896.31
866.989	10860.15
867.309	10718.01
867.63	10789.42
867.95	10774.5
868.27	10680.27
868.59	10749.65
868.91	10751.23
869.23	10783.77
869.55	10635.75
869.87	10720.04
870.19	10707.16
870.51	10712.81
870.83	10633.04
871.15	10570.89
871.469	10630.1
871.789	10617.22
872.109	10637.79
872.428	10580.61
872.748	10575.19
873.067	10556.43
873.386	10480.05
873.706	10522.31
874.025	10405.93
874.344	10455.64
874.663	10497.9
874.982	10393.95
875.301	10405.25
875.62	10368.41
875.939	10428.3
876.258	10367.51
876.577	10410.45
876.896	10305.14
877.214	10271.47
877.533	10271.47
877.852	10338.36
878.17	10268.76
878.489	10288.42
878.807	10226.5
879.125	10208.87
879.444	10179.27
879.762	10128.42
880.08	10145.14
880.398	10151.24
880.716	10152.83
881.034	10133.39
881.352	10149.21
881.67	10087.74
881.988	10072.15
882.306	10036.45
882.624	9948.76
882.941	9950.35
883.259	9978.14
883.577	9920.97
883.894	9928.88
884.212	9898.6
884.529	9816.79
884.846	9797.36
885.164	9780.41
885.481	9762.1
885.798	9815.43
886.115	9720.52
886.432	9684.82
886.75	9726.62
887.067	9772.27
887.383	9666.51
887.7	9704.93
888.017	9657.47
888.334	9640.52
888.651	9614.99
888.967	9554.65
889.284	9531.15
889.6	9504.48
889.917	9465.16
890.233	9432.39
890.55	9417.7
890.866	9383.81
891.182	9277.82
891.498	9330.48
891.815	9238.05
892.131	9254.54
892.447	9267.88
892.763	9179.74
893.079	9238.27
893.395	9152.17
893.71	9216.58
894.026	9130.71
894.342	9096.81
894.657	9068.11
894.973	8998.05
895.289	8976.13
895.604	9023.36
895.92	8899.75
896.235	8902.69
896.55	8816.59
896.865	8833.09
897.181	8799.42
897.496	8837.61
897.811	8778.4
898.126	8735.46
898.441	8682.58
898.756	8680.55
899.071	8577.95
899.386	8549.03
899.7	8469.25
900.015	8495.92
900.33	8398.75
900.644	8422.02
900.959	8480.1
901.273	8488.92
901.588	8376.83
901.902	8366.88
902.216	8356.72
902.531	8290.28
902.845	8251.63
903.159	8171.64
903.473	8153.56
903.787	8176.16
904.101	8116.04
904.415	8067.68
904.729	8048.93
905.042	8077.63
905.356	8003.28
905.67	7968.25
905.984	7961.92
906.297	7911.3
906.611	7838.08
906.924	7883.73
907.237	7858.42
907.551	7769.84
907.864	7751.99
908.177	7738.2
908.491	7720.35
908.804	7656.85
909.117	7616.17
909.43	7601.25
909.743	7549.96
910.056	7510.86
910.368	7450.75
910.681	7397.19
910.994	7383.18
911.307	7439.23
911.619	7358.55
911.932	7307.7
912.244	7266.8
912.557	7286.69
912.869	7215.5
913.181	7211.66
913.494	7207.82
913.806	7116.52
914.118	7157.2
914.43	7072.23
914.742	7085.56
915.054	7003.98
915.366	7015.06
915.678	7006.02
915.99	6988.62
916.302	6906.13
916.613	6888.51
916.925	6831.78
917.236	6861.16
917.548	6799.24
917.859	6753.37
918.171	6704.56
918.482	6664.33
918.794	6705.23
919.105	6740.26
919.416	6622.98
919.727	6642.86
920.038	6641.51
920.349	6552.69
920.66	6560.15
920.971	6548.18
921.282	6494.62
921.593	6461.4
921.903	6400.61
922.214	6417.56
922.525	6434.05
922.835	6363.55
923.146	6318.8
923.456	6329.2
923.767	6262.31
924.077	6270.67
924.387	6216.88
924.697	6171.69
925.008	6209.65
925.318	6215.98
925.628	6162.2
925.938	6131.69
926.248	6101.63
926.558	6031.8
926.867	6082.65
927.177	5983.67
927.487	6039.49
927.796	5973.73
928.106	5935.76
928.416	5868.42
928.725	5926.72
929.034	5880.62
929.344	5809.21
929.653	5863.22
929.962	5821.87
930.271	5730.8
930.581	5789.1
930.89	5661.42
931.199	5656.45
931.508	5704.36
931.817	5678.37
932.125	5636.79
932.434	5636.79
932.743	5604.47
933.051	5604.25
933.36	5510.01
933.669	5531.7
933.977	5517.92
934.286	5436.11
934.594	5459.16
934.902	5452.84
935.21	5470.69
935.519	5401.76
935.827	5367.42
936.135	5368.77
936.443	5298.94
936.751	5300.52
937.059	5282.67
937.367	5240.87
937.674	5245.38
937.982	5271.82
938.29	5203.58
938.597	5144.37
938.905	5177.82
939.213	5189.57
939.52	5089.68
939.827	5072.73
940.135	5083.81
940.442	5067.31
940.749	5039.74
941.056	5069.34
941.363	4958.16
941.67	4963.81
941.977	4895.34
942.284	4945.73
942.591	4904.15
942.898	4840.65
943.205	4900.31
943.511	4830.03
943.818	4823.47
944.125	4794.55
944.431	4782.12
944.738	4795.68
945.044	4722.69
945.35	4721.78
945.657	4681.33
945.963	4659.64
946.269	4643.82
946.575	4657.6
946.881	4600.88
947.187	4585.29
947.493	4586.87
947.799	4563.37
948.105	4561.33
948.41	4486.99
948.716	4496.03
949.022	4463.71
949.327	4473.88
949.633	4430.04
949.938	4485.86
950.244	4375.35
950.549	4383.03
950.854	4376.71
951.16	4344.17
951.465	4365.18
951.77	4326.99
952.075	4280.21
952.38	4276.37
952.685	4240.44
952.99	4219.2
953.294	4223.72
953.599	4229.37
953.904	4192.98
954.209	4171.29
954.513	4179.65
954.818	4148.01
955.122	4100.56
955.426	4101.46
955.731	4074.34
956.035	4069.37
956.339	4039.99
956.643	4044.51
956.948	4011.07
957.252	3991.63
957.556	3984.63
957.86	3917.51
958.163	3932.65
958.467	3913.44
958.771	3924.52
959.075	3910.05
959.378	3878.41
959.682	3841.58
959.985	3868.92
960.289	3870.28
960.592	3809.04
960.896	3778.3
961.199	3770.17
961.502	3800.22
961.805	3731.98
962.108	3694.24
962.411	3743.05
962.714	3655.37
963.017	3636.84
963.32	3657.63
963.623	3639.55
963.926	3665.77
964.228	3627.12
964.531	3578.08
964.833	3580.12
965.136	3555.26
965.438	3577.41
965.741	3528.82
966.043	3520.01
966.345	3491.53
966.648	3479.1
966.95	3525.66
967.252	3442.04
967.554	3454.02
967.856	3416.96
968.158	3404.76
968.46	3410.18
968.761	3417.64
969.063	3404.76
969.365	3358.65
969.666	3315.94
969.968	3310.52
970.269	3277.98
970.571	3271.2
970.872	3282.27
971.174	3263.06
971.475	3294.02
971.776	3243.63
972.077	3209.96
972.378	3192.78
972.679	3189.85
972.98	3193.01
973.281	3155.04
973.582	3190.07
973.883	3120.02
974.183	3153.01
974.484	3111.43
974.785	3108.72
975.085	3064.65
975.386	3117.31
975.686	3078.66
975.986	3063.75
976.287	3066.91
976.587	3020.58
976.887	2990.75
977.187	2988.72
977.487	2979.91
977.787	2957.54
978.087	2978.55
978.387	2937.87
978.687	2946.91
978.987	2918.21
979.286	2884.77
979.586	2878.22
979.885	2885.9
980.185	2854.26
980.484	2843.41
980.784	2872.34
981.083	2829.18
981.382	2820.14
981.682	2813.58
981.981	2836.86
982.28	2779.23
982.579	2764.55
982.878	2786.01
983.177	2762.51
983.475	2715.96
983.774	2726.58
984.073	2712.57
984.372	2696.98
984.67	2696.07
984.969	2692.68
985.267	2652.23
985.566	2615.62
985.864	2617.88
986.162	2643.42
986.461	2615.62
986.759	2570.43
987.057	2566.59
987.355	2569.3
987.653	2535.17
987.951	2566.81
988.249	2551.22
988.547	2586.92
988.844	2541.05
989.142	2511.22
989.44	2518.9
989.737	2454.05
990.035	2485.46
990.332	2465.12
990.63	2442.07
990.927	2454.5
991.224	2438
991.521	2421.5
991.819	2396.19
992.116	2390.32
992.413	2368.85
992.71	2352.58
993.006	2375.86
993.303	2368.17
993.6	2320.26
993.897	2339.92
994.193	2324.78
994.49	2354.39
994.787	2252.02
995.083	2245.46
995.379	2263.32
995.676	2239.14
995.972	2238.23
996.268	2247.72
996.565	2225.35
996.861	2235.75
997.157	2196.2
997.453	2206.14
997.749	2196.43
998.044	2155.07
998.34	2177.44
998.636	2130.66
998.932	2159.59
999.227	2136.09
999.523	2126.37
999.818	2111.23
1000.114	2075.07
1000.409	2068.75
1000.704	2065.81
1001	2063.32
1001.295	2057.45
1001.59	2038.92
1001.885	2062.87
1002.18	2003.66
1002.475	2017.9
1002.77	2000.05
1003.065	1955.75
1003.359	2009.54
1003.654	1962.31
1003.949	1953.95
1004.243	1899.48
1004.538	1910.78
1004.832	1924.12
1005.127	1903.78
1005.421	1868.3
1005.715	1853.61
1006.009	1889.31
1006.304	1855.64
1006.598	1856.1
1006.892	1860.84
1007.186	1839.6
1007.48	1851.12
1007.773	1838.02
1008.067	1794.85
1008.361	1792.82
1008.655	1750.34
1008.948	1768.64
1009.242	1783.33
1009.535	1765.7
1009.829	1749.21
1010.122	1745.59
1010.415	1712.37
1010.708	1757.79
1011.001	1711.01
1011.295	1672.15
1011.588	1693.61
1011.881	1678.47
1012.173	1678.47
1012.466	1688.87
1012.759	1650.9
1013.052	1632.6
1013.344	1634.63
1013.637	1630.34
1013.93	1602.54
1014.222	1594.63
1014.514	1595.76
1014.807	1581.75
1015.099	1567.29
1015.391	1595.76
1015.683	1547.85
1015.976	1551.92
1016.268	1565.48
1016.56	1530
1016.851	1513.51
1017.143	1528.42
1017.435	1521.41
1017.727	1482.32
1018.018	1452.04
1018.31	1450.23
1018.602	1476.9
1018.893	1472.6
1019.185	1427.63
1019.476	1453.62
1019.767	1405.03
1020.058	1425.6
1020.35	1405.71
1020.641	1421.08
1020.932	1393.06
1021.223	1385.6
1021.514	1394.86
1021.804	1358.48
1022.095	1348.09
1022.386	1343.11
1022.677	1350.8
1022.967	1346.96
1023.258	1319.16
1023.548	1339.5
1023.839	1294.3
1024.129	1309.22
1024.419	1297.92
1024.709	1284.58
1025	1283.45
1025.29	1266.05
1025.58	1251.82
1025.87	1240.29
1026.16	1213.63
1026.449	1229.9
1026.739	1227.86
1027.029	1210.01
1027.319	1203.46
1027.608	1193.29
1027.898	1175.44
1028.187	1210.01
1028.477	1176.34
1028.766	1146.74
1029.055	1164.59
1029.344	1133.18
1029.634	1165.04
1029.923	1146.06
1030.212	1144.93
1030.501	1120.75
1030.79	1145.15
1031.078	1115.1
1031.367	1098.15
1031.656	1074.87
1031.945	1103.35
1032.233	1065.83
1032.522	1079.17
1032.81	1073.52
1033.099	1053.63
1033.387	1069.68
1033.675	1031.48
1033.963	1030.13
1034.251	1045.5
1034.54	1028.32
1034.828	1017.93
1035.116	1019.73
1035.403	998.04
1035.691	1015.67
1035.979	1021.99
1036.267	981.54
1036.554	993.75
1036.842	996
1037.129	954.88
1037.417	942.22
1037.704	938.61
1037.992	959.17
1038.279	970.69
1038.566	942.9
1038.853	942.9
1039.14	942.9
