Data from hue_160_FLMS001491_00016.txt Node
Date: Tue Feb 07 16:50:49 GMT 2017
User: dcchb
Spectrometer: FLMS00149
Trigger mode: 0
Integration Time (sec): 2.000000E-2
Scans to average: 10
Electric dark correction enabled: true
Nonlinearity correction enabled: false
Boxcar width: 0
XAxis mode: Wavelengths
Number of Pixels in Spectrum: 2048
>>>>>Begin Spectral Data<<<<<
341.393	-14.89
341.776	-14.89
342.16	-14.89
342.543	-62.57
342.927	-76.35
343.31	-72.96
343.693	-70.03
344.077	-66.64
344.46	-58.05
344.843	-77.26
345.226	-56.24
345.61	-34.1
345.993	-20.08
346.376	0.71
346.759	28.73
347.142	15.62
347.525	49.74
347.908	68.28
348.291	74.38
348.674	107.14
349.057	110.76
349.44	117.31
349.823	122.74
350.206	153.7
350.588	150.08
350.971	206.35
351.354	235.5
351.737	230.53
352.119	252.45
352.502	245.22
352.884	259.91
353.267	282.51
353.65	293.81
354.032	300.13
354.414	309.85
354.797	299.23
355.179	321.83
355.562	311.88
355.944	328.83
356.326	315.73
356.709	307.82
357.091	320.02
357.473	340.81
357.855	338.1
358.238	342.84
358.62	333.13
359.002	328.83
359.384	335.39
359.766	329.96
360.148	319.57
360.53	328.16
360.912	322.51
361.294	329.96
361.676	342.84
362.057	323.86
362.439	317.31
362.821	318.44
363.203	326.8
363.584	323.18
363.966	319.34
364.348	309.85
364.729	313.47
365.111	303.3
365.493	306.23
365.874	321.6
366.256	306.91
366.637	312.11
367.019	311.43
367.4	327.93
367.781	298.1
368.163	317.31
368.544	303.52
368.925	297.42
369.306	319.34
369.688	295.61
370.069	316.63
370.45	324.99
370.831	304.65
371.212	322.28
371.593	306.23
371.974	302.39
372.355	305.56
372.736	307.59
373.117	306.69
373.498	296.29
373.879	303.75
374.26	299.23
374.641	327.7
375.021	315.5
375.402	315.27
375.783	338.78
376.163	322.73
376.544	316.86
376.925	314.14
377.305	317.08
377.686	325.22
378.066	320.25
378.447	332.9
378.827	319.34
379.208	326.8
379.588	328.38
379.968	319.34
380.349	317.76
380.729	325.9
381.109	326.8
381.489	339.23
381.87	336.97
382.25	334.26
382.63	346.01
383.01	336.06
383.39	343.07
383.77	360.47
384.15	323.86
384.53	330.42
384.91	336.06
385.29	330.19
385.67	333.35
386.049	339.68
386.429	342.84
386.809	345.78
387.189	343.52
387.568	337.87
387.948	352.56
388.328	352.11
388.707	357.08
389.087	354.6
389.466	368.15
389.846	346.46
390.225	351.43
390.605	345.1
390.984	342.17
391.363	354.82
391.743	368.61
392.122	352.11
392.501	361.15
392.881	352.11
393.26	354.37
393.639	363.41
394.018	357.31
394.397	371.54
394.776	386.01
395.155	383.97
395.534	363.18
395.913	376.52
396.292	386.46
396.671	365.22
397.05	394.37
397.429	383.07
397.808	387.14
398.186	385.33
398.565	389.17
398.944	374.26
399.323	382.17
399.701	367.25
400.08	400.92
400.458	415.38
400.837	393.24
401.215	407.02
401.594	389.17
401.972	394.59
402.351	401.6
402.729	431.2
403.107	413.12
403.486	405.89
403.864	408.83
404.242	389.62
404.62	423.29
404.999	426.91
405.377	413.8
405.755	411.09
406.133	417.87
406.511	424.88
406.889	411.99
407.267	409.28
407.645	435.72
408.023	425.55
408.401	436.17
408.779	459
409.156	435.05
409.534	449.51
409.912	444.76
410.29	473.24
410.667	440.69
411.045	432.11
411.422	452.9
411.8	459.9
412.178	452.67
412.555	465.1
412.933	465.33
413.31	477.3
413.687	474.37
414.065	481.37
414.442	494.48
414.819	487.93
415.197	484.99
415.574	485.89
415.951	505.78
416.328	501.71
416.705	481.15
417.082	496.06
417.46	503.07
417.837	513.24
418.214	520.01
418.591	517.75
418.967	520.01
419.344	550.52
419.721	523.86
420.098	521.82
420.475	519.56
420.852	535.16
421.228	540.58
421.605	539
421.982	523.63
422.358	528.15
422.735	536.96
423.111	564.08
423.488	565.44
423.864	555.95
424.241	559.34
424.617	563.18
424.994	549.39
425.37	569.73
425.746	578.09
426.123	600.24
426.499	600.24
426.875	598.66
427.251	592.1
427.627	604.53
428.003	626.23
428.379	613.8
428.756	610.41
429.132	640.46
429.507	618.09
429.883	642.27
430.259	651.08
430.635	639.33
431.011	661.03
431.387	643.85
431.763	671.87
432.138	668.49
432.514	672.78
432.89	653.57
433.265	706.22
433.641	693.8
434.016	712.33
434.392	700.35
434.767	698.09
435.143	708.03
435.518	704.64
435.894	736.96
436.269	738.99
436.644	727.24
437.02	765.21
437.395	731.99
437.77	749.61
438.145	767.69
438.52	762.72
438.895	779.22
439.271	777.18
439.646	781.93
440.021	814.47
440.395	803.85
440.77	788.26
441.145	805.66
441.52	815.15
441.895	830.06
442.27	834.81
442.645	828.48
443.019	831.42
443.394	818.31
443.769	884.3
444.143	849.72
444.518	867.58
444.892	863.73
445.267	854.47
445.641	884.3
446.016	889.72
446.39	881.59
446.764	890.85
447.139	867.58
447.513	881.81
447.887	910.51
448.262	907.58
448.636	883.17
449.01	921.59
449.384	934.47
449.758	929.27
450.132	957.07
450.506	953
450.88	954.81
451.254	977.18
451.628	973.79
452.002	944.86
452.376	980.12
452.75	1013.79
453.123	991.87
453.497	1040.23
453.871	1009.27
454.244	1039.32
454.618	1062.6
454.992	1062.83
455.365	1058.08
455.739	1053.79
456.112	1092.65
456.486	1093.56
456.859	1108.7
457.232	1147.79
457.606	1139.21
457.979	1150.73
458.352	1161.81
458.725	1182.37
459.099	1182.14
459.472	1182.6
459.845	1222.14
460.218	1241.13
460.591	1261.69
460.964	1252.65
461.337	1268.7
461.71	1309.37
462.083	1306.66
462.456	1334.23
462.829	1334
463.201	1331.74
463.574	1367.9
463.947	1377.85
464.32	1412.87
464.692	1422.59
465.065	1452.87
465.438	1433.66
465.81	1468.92
466.183	1518.63
466.555	1544.39
466.928	1579.87
467.3	1541
467.672	1601.34
468.045	1632.08
468.417	1620.1
468.789	1645.63
469.161	1685.63
469.534	1736.93
469.906	1749.81
470.278	1790.49
470.65	1806.53
471.022	1864.61
471.394	1914.78
471.766	1918.85
472.138	1940.77
472.51	1982.12
472.882	2021.22
473.253	2022.57
473.625	2105.74
473.997	2162.46
474.369	2199.97
474.74	2234.09
475.112	2252.4
475.484	2314.77
475.855	2416.24
476.227	2419.63
476.598	2528.32
476.97	2550.02
477.341	2637.92
477.713	2677.7
478.084	2719.73
478.455	2818.94
478.827	2863.68
479.198	2990.68
479.569	3025.49
479.94	3131.02
480.311	3139.61
480.682	3294.4
481.053	3342.54
481.424	3471.58
481.795	3539.14
482.166	3600.61
482.537	3677.45
482.908	3788.4
483.279	3886.03
483.65	4011.22
484.021	4141.39
484.391	4189.3
484.762	4321.04
485.133	4416.64
485.503	4496.63
485.874	4632.45
486.244	4672.22
486.615	4851.65
486.985	4928.49
487.356	5055.94
487.726	5213.45
488.097	5314.92
488.467	5393.56
488.837	5595.81
489.207	5708.8
489.578	5817.05
489.948	5934.56
490.318	6120.09
490.688	6146.99
491.058	6335
491.428	6456.13
491.798	6560.08
492.168	6698.61
492.538	6829.23
492.908	6983.12
493.278	7115.77
493.648	7205.71
494.017	7290.68
494.387	7426.05
494.757	7556.21
495.126	7682.09
495.496	7741.29
495.866	7890.22
496.235	8000.72
496.605	8105.58
496.974	8174.28
497.344	8337.21
497.713	8457.66
498.082	8499.92
498.452	8676.41
498.821	8667.82
499.19	8770.42
499.559	8934.26
499.928	8997.76
500.298	9078.89
500.667	9243.85
501.036	9216.51
501.405	9326.79
501.774	9402.72
502.143	9525.88
502.512	9581.02
502.88	9663.73
503.249	9720
503.618	9779.88
503.987	9771.97
504.356	9968.58
504.724	9969.48
505.093	10033.89
505.462	10104.85
505.83	10120.89
506.199	10268.01
506.567	10399.98
506.936	10378.51
507.304	10523.37
507.672	10529.69
508.041	10622.57
508.409	10675.23
508.777	10742.34
509.145	10812.4
509.514	10860.99
509.882	10896.69
510.25	11000.19
510.618	10994.32
510.986	10997.48
511.354	11089.68
511.722	11085.39
512.09	11235.21
512.458	11262.56
512.826	11258.26
513.193	11342.33
513.561	11380.29
513.929	11374.64
514.297	11433.85
514.664	11460.52
515.032	11523.79
515.4	11592.04
515.767	11594.3
516.135	11702.32
516.502	11530.57
516.869	11722.88
517.237	11662.09
517.604	11704.13
517.972	11823.67
518.339	11919.49
518.706	11801.3
519.073	11865.48
519.44	11888.53
519.808	11975.98
520.175	11916.1
520.542	12115.64
520.909	12044.23
521.276	12004.23
521.643	12039.71
522.009	12173.04
522.376	12155.41
522.743	12142.31
523.11	12277.67
523.477	12340.95
523.843	12268.18
524.21	12365.35
524.577	12418.23
524.943	12394.05
525.31	12443.99
525.676	12456.65
526.043	12464.79
526.409	12459.59
526.776	12614.39
527.142	12601.5
527.508	12536.42
527.874	12633.59
528.241	12665.01
528.607	12565.8
528.973	12605.8
529.339	12580.49
529.705	12640.15
530.071	12661.39
530.437	12674.72
530.803	12728.73
531.169	12687.38
531.535	12612.35
531.901	12614.61
532.267	12521.73
532.632	12623.88
532.998	12559.47
533.364	12667.27
533.73	12603.09
534.095	12681.05
534.461	12639.92
534.826	12615.29
535.192	12538.23
535.557	12628.85
535.923	12554.05
536.288	12526.93
536.653	12473.37
537.019	12401.28
537.384	12481.51
537.749	12507.04
538.114	12345.92
538.479	12348.4
538.845	12344.56
539.21	12225.02
539.575	12289.42
539.94	12252.59
540.305	12226.37
540.67	12166.26
541.034	12158.35
541.399	12071.58
541.764	12077.45
542.129	12165.58
542.494	12021.63
542.858	12089.65
543.223	11954.06
543.587	12018.02
543.952	11858.47
544.316	12004.68
544.681	11885.37
545.045	11954.97
545.41	11926.72
545.774	11857.12
546.138	11796.1
546.503	11805.14
546.867	11689.89
547.231	11776.67
547.595	11799.27
547.959	11740.96
548.324	11632.26
548.688	11589.55
549.052	11598.14
549.416	11506.39
549.779	11439.95
550.143	11504.36
550.507	11507.3
550.871	11420.29
551.235	11329.9
551.599	11480.86
551.962	11409.67
552.326	11385.94
552.689	11398.82
553.053	11355.44
553.417	11273.63
553.78	11301.65
554.143	11261.43
554.507	11238.6
554.87	11283.35
555.234	11298.26
555.597	11112.5
555.96	11229.56
556.323	11104.14
556.686	11181.66
557.05	11128.32
557.413	11146.18
557.776	11082.67
558.139	11126.29
558.502	11162.67
558.865	11073.86
559.228	11083.13
559.59	11121.32
559.953	11138.04
560.316	11123.8
560.679	11128.55
561.041	11129.68
561.404	11122.22
561.767	11144.59
562.129	11051.49
562.492	11179.62
562.854	11038.61
563.217	11088.78
563.579	11141.43
563.941	11131.49
564.304	11124.03
564.666	11187.53
565.028	11195.67
565.39	11242.22
565.753	11189.34
566.115	11161.99
566.477	11154.31
566.839	11232.5
567.201	11281.77
567.563	11252.84
567.925	11323.12
568.287	11265.72
568.648	11306.4
569.01	11325.15
569.372	11298.04
569.734	11239.73
570.095	11336.23
570.457	11360.63
570.819	11374.42
571.18	11318.37
571.542	11392.05
571.903	11399.73
572.265	11366.51
572.626	11419.84
572.987	11437.92
573.349	11319.28
573.71	11446.96
574.071	11357.24
574.432	11411.48
574.794	11429.11
575.155	11478.14
575.516	11387.75
575.877	11425.49
576.238	11434.98
576.599	11538.03
576.96	11543
577.32	11466.17
577.681	11495.09
578.042	11509.1
578.403	11489.22
578.763	11513.85
579.124	11524.02
579.485	11501.87
579.845	11507.07
580.206	11478.82
580.566	11491.03
580.927	11493.29
581.287	11547.52
581.648	11466.39
582.008	11561.53
582.368	11479.5
582.728	11410.58
583.089	11524.47
583.449	11472.04
583.809	11446.96
584.169	11447.18
584.529	11383.46
584.889	11483.12
585.249	11404.47
585.609	11341.2
585.969	11493.06
586.329	11363.8
586.688	11340.97
587.048	11423.46
587.408	11408.09
587.768	11380.97
588.127	11412.16
588.487	11359.28
588.846	11433.17
589.206	11365.15
589.565	11349.56
589.925	11401.76
590.284	11331.93
590.643	11318.37
591.003	11363.8
591.362	11367.64
591.721	11294.42
592.08	11317.7
592.44	11352.05
592.799	11258.94
593.158	11270.47
593.517	11293.52
593.876	11282.9
594.235	11258.94
594.593	11302.1
594.952	11295.55
595.311	11282.44
595.67	11280.86
596.029	11290.13
596.387	11281.99
596.746	11312.05
597.104	11229.11
597.463	11246.51
597.822	11274.08
598.18	11245.16
598.538	11174.88
598.897	11271.14
599.255	11203.8
599.613	11385.94
599.972	11203.35
600.33	11278.15
600.688	11189.56
601.046	11216.68
601.404	11322.44
601.762	11310.01
602.12	11338.71
602.478	11296
602.836	11283.35
603.194	11197.47
603.552	11246.29
603.91	11210.58
604.268	11235.44
604.625	11205.16
604.983	11281.99
605.341	11228.43
605.698	11240.86
606.056	11245.16
606.413	11204.48
606.771	11300.75
607.128	11306.17
607.485	11259.85
607.843	11208.77
608.2	11283.12
608.557	11362.22
608.914	11351.82
609.272	11356.11
609.629	11371.25
609.986	11375.55
610.343	11270.92
610.7	11428.43
611.057	11317.02
611.414	11303.23
611.771	11378.26
612.127	11383.68
612.484	11378.71
612.841	11434.76
613.198	11403.34
613.554	11380.07
613.911	11434.98
614.267	11401.31
614.624	11409.67
614.98	11498.03
615.337	11496
615.693	11431.82
616.05	11385.04
616.406	11472.04
616.762	11475.66
617.118	11512.72
617.475	11427.98
617.831	11540.29
618.187	11497.35
618.543	11542.1
618.899	11614.86
619.255	11569.22
619.611	11584.36
619.967	11603.56
620.323	11583
620.678	11562.66
621.034	11517.69
621.39	11570.8
621.746	11454.87
622.101	11637.91
622.457	11551.59
622.812	11568.76
623.168	11535.77
623.523	11565.83
623.879	11571.7
624.234	11612.83
624.589	11608.31
624.945	11572.83
625.3	11645.15
625.655	11640.4
626.01	11599.27
626.365	11637.46
626.72	11615.99
627.075	11560.85
627.43	11523.12
627.785	11542.32
628.14	11543.91
628.495	11609.21
628.85	11572.61
629.205	11559.05
629.559	11622.55
629.914	11463.68
630.269	11502.32
630.623	11506.62
630.978	11483.57
631.332	11543.91
631.687	11522.21
632.041	11539.39
632.396	11467.3
632.75	11391.14
633.104	11442.21
633.459	11444.25
633.813	11425.04
634.167	11373.29
634.521	11366.96
634.875	11383.23
635.229	11318.15
635.583	11369.22
635.937	11207.19
636.291	11310.24
636.645	11277.47
636.999	11314.76
637.352	11284.93
637.706	11249
638.06	11318.37
638.413	11227.53
638.767	11159.96
639.121	11189.34
639.474	11124.48
639.828	11192.73
640.181	11187.76
640.534	11150.47
640.888	11122.45
641.241	11082.22
641.594	11093.07
641.947	11143.01
642.301	11063.24
642.654	11101.88
643.007	11171.71
643.36	11074.99
643.713	11113.18
644.066	11148.89
644.419	11129.68
644.771	10954.77
645.124	10956.12
645.477	10830.48
645.83	10777.15
646.182	10732.85
646.535	10678.17
646.888	10764.26
647.24	10708.9
647.593	10739.41
647.945	10746.64
648.298	10740.76
648.65	10682.01
649.002	10687.43
649.355	10658.73
649.707	10691.5
650.059	10728.79
650.411	10778.73
650.763	10846.07
651.115	10994.99
651.467	10968.33
651.819	10990.25
652.171	11003.58
652.523	10906.18
652.875	10904.37
653.227	10859.4
653.578	11022.11
653.93	10937.14
654.282	10905.96
654.633	10831.61
654.985	10902.79
655.337	10924.71
655.688	10913.64
656.039	10996.58
656.391	10888.33
656.742	10883.36
657.094	10907.09
657.445	10930.36
657.796	10933.3
658.147	10943.7
658.498	10918.61
658.849	10964.71
659.2	10905.73
659.551	10900.53
659.902	10968.78
660.253	10917.03
660.604	10943.02
660.955	10988.67
661.306	10926.97
661.656	10952.73
662.007	11032.96
662.358	11000.64
662.708	10955.22
663.059	11028.21
663.409	10945.5
663.76	11016.46
664.11	11030.92
664.461	11026.63
664.811	11011.72
665.161	10999.51
665.511	10940.53
665.862	11013.07
666.212	10982.34
666.562	11012.39
666.912	11047.87
667.262	10943.92
667.612	10938.05
667.962	10952.96
668.312	10952.51
668.662	10997.71
669.011	10989.57
669.361	10920.19
669.711	10966.97
670.06	10926.29
670.41	10889.01
670.76	10911.61
671.109	10940.31
671.459	10978.04
671.808	10944.83
672.157	10963.58
672.507	10871.83
672.856	10924.71
673.205	10961.77
673.554	10900.53
673.904	10812.85
674.253	11005.39
674.602	10914.09
674.951	10739.18
675.3	10686.53
675.649	10888.78
675.998	10838.61
676.346	10830.03
676.695	10844.04
677.044	10825.73
677.393	10776.24
677.741	10815.11
678.09	10802.91
678.438	10733.98
678.787	10814.21
679.135	10755.9
679.484	10597.49
679.832	10717.26
680.181	10648.79
680.529	10682.91
680.877	10590.48
681.225	10646.75
681.573	10661.22
681.922	10594.33
682.27	10609.01
682.618	10557.94
682.966	10515.68
683.314	10525.85
683.661	10476.14
684.009	10469.13
684.357	10397.49
684.705	10489.47
685.053	10416.48
685.4	10406.53
685.748	10416.7
686.095	10319.53
686.443	10301.23
686.79	10364.05
687.138	10297.61
687.485	10267.55
687.832	10254.22
688.18	10265.97
688.527	10208.8
688.874	10189.82
689.221	10101.46
689.568	10183.49
689.915	10084.51
690.262	10087.22
690.609	9983.04
690.956	10007.9
691.303	10032.31
691.65	9961.35
691.997	9946.43
692.344	9912.76
692.69	9907.79
693.037	9843.39
693.383	9792.31
693.73	9830.96
694.077	9731.3
694.423	9732.43
694.769	9706.67
695.116	9684.52
695.462	9696.04
695.808	9607.01
696.155	9601.58
696.501	9533.11
696.847	9496.28
697.193	9417.63
697.539	9472.77
697.885	9349.16
698.231	9376.73
698.577	9360.46
698.923	9259.22
699.269	9282.5
699.614	9268.49
699.96	9198.66
700.306	9150.3
700.651	9213.35
700.997	9115.04
701.342	9111.2
701.688	9042.05
702.033	8968.61
702.379	9039.79
702.724	8953.24
703.069	9038.21
703.415	8836.18
703.76	8914.37
704.105	8821.72
704.45	8855.39
704.795	8776.75
705.14	8769.29
705.485	8745.79
705.83	8703.3
706.175	8683.42
706.52	8649.74
706.865	8620.59
707.209	8703.75
707.554	8567.49
707.899	8640.03
708.243	8556.64
708.588	8519.13
708.932	8533.36
709.277	8482.52
709.621	8431.44
709.966	8389.86
710.31	8413.14
710.654	8331.11
710.998	8302.41
711.342	8383.99
711.687	8351
712.031	8301.5
712.375	8287.95
712.719	8273.71
713.063	8276.65
713.407	8286.59
713.75	8200.49
714.094	8160.94
714.438	8160.27
714.782	8163.88
715.125	8208.63
715.469	8181.51
715.812	8084.56
716.156	8078.46
716.499	8099.7
716.843	8102.41
717.186	8012.92
717.53	8146.48
717.873	8105.35
718.216	8088.4
718.559	8010.44
718.902	8015.41
719.246	7947.39
719.589	8031
719.932	7899.71
720.275	7940.61
720.617	7986.26
720.96	7897.22
721.303	7947.39
721.646	7942.42
721.989	7892.93
722.331	7853.38
722.674	7883.89
723.016	7933.38
723.359	7821.52
723.701	7863.32
724.044	7763.44
724.386	7745.59
724.729	7843.44
725.071	7836.43
725.413	7798.02
725.755	7845.25
726.097	7752.14
726.439	7755.3
726.782	7738.13
727.124	7813.38
727.465	7711.92
727.807	7786.04
728.149	7746.72
728.491	7743.33
728.833	7809.09
729.175	7772.93
729.516	7702.2
729.858	7749.88
730.199	7749.65
730.541	7708.53
730.882	7753.27
731.224	7812.48
731.565	7693.39
731.906	7727.73
732.248	7762.54
732.589	7685.02
732.93	7685.7
733.271	7682.99
733.612	7695.87
733.953	7725.7
734.294	7734.06
734.635	7710.79
734.976	7786.94
735.317	7700.62
735.658	7694.97
735.999	7681.41
736.339	7741.75
736.68	7729.09
737.021	7729.54
737.361	7684.35
737.702	7744.23
738.042	7752.59
738.383	7790.33
738.723	7774.74
739.063	7741.07
739.404	7745.14
739.744	7745.59
740.084	7772.25
740.424	7824.46
740.764	7792.82
741.104	7830.78
741.444	7820.16
741.784	7750.78
742.124	7869.2
742.464	7888.41
742.804	7905.81
743.143	7899.48
743.483	7946.71
743.823	7873.27
744.162	7923.21
744.502	7985.13
744.841	7941.97
745.181	8086.82
745.52	8023.77
745.86	8100.83
746.199	8128.85
746.538	8125.69
746.877	8193.26
747.216	8220.6
747.556	8311.22
747.895	8303.76
748.234	8343.99
748.573	8404.1
748.911	8486.36
749.25	8530.43
749.589	8557.09
749.928	8619.91
750.267	8749.18
750.605	8660.14
750.944	8761.38
751.283	8774.94
751.621	8942.39
751.96	8993.69
752.298	9075.04
752.636	9159.11
752.975	9219.45
753.313	9364.98
753.651	9473.23
753.989	9479.78
754.327	9629.83
754.666	9680.68
755.004	9802.48
755.342	10051.52
755.679	10044.96
756.017	10152.76
756.355	10274.56
756.693	10413.09
757.031	10596.59
757.368	10651.73
757.706	10783.93
758.044	10942.11
758.381	11112.96
758.719	11240.86
759.056	11321.09
759.394	11575.77
759.731	11611.93
760.068	11768.53
760.405	11968.3
760.743	12023.89
761.08	12290.78
761.417	12348.18
761.754	12543.43
762.091	12690.77
762.428	12799.24
762.765	12928.5
763.102	13115.62
763.438	13319.45
763.775	13379.79
764.112	13566
764.449	13731.64
764.785	13853.45
765.122	13983.16
765.458	14103.84
765.795	14248.02
766.131	14509.93
766.467	14527.78
766.804	14674.9
767.14	14739.53
767.476	15058.16
767.812	14999.18
768.148	15238.72
768.485	15343.13
768.821	15265.39
769.157	15579.51
769.492	15708.99
769.828	15793.96
770.164	15908.76
770.5	15953.06
770.836	16104.01
771.171	16120.96
771.507	16219.49
771.842	16237.34
772.178	16388.3
772.513	16440.27
772.849	16568.41
773.184	16621.96
773.519	16793.94
773.855	16801.85
774.19	16833.71
774.525	17047.26
774.86	17010.88
775.195	17125.68
775.53	17133.82
775.865	17194.83
776.2	17135.4
776.535	17076.19
776.87	17135.62
777.205	17108.96
777.539	17263.53
777.874	17367.71
778.209	17394.37
778.543	17382.85
778.878	17262.63
779.212	17414.71
779.547	17334.94
779.881	17486.35
780.215	17459.68
780.55	17437.31
780.884	17456.07
781.218	17519.34
781.552	17444.32
781.886	17515.73
782.22	17479.57
782.554	17481.15
782.888	17342.62
783.222	17372.68
783.556	17475.5
783.889	17401.38
784.223	17302.17
784.557	17343.53
784.89	17390.98
785.224	17352.57
785.557	17306.92
785.891	17350.08
786.224	17288.84
786.558	17341.49
786.891	17203.19
787.224	17236.19
787.557	17217.88
787.891	17232.34
788.224	17286.81
788.557	17322.51
788.89	17216.52
789.223	17188.28
789.556	17141.27
789.888	17193.93
790.221	17111.89
790.554	16958.9
790.887	17085
791.219	16988.96
791.552	16996.64
791.884	16991.22
792.217	16771.11
792.549	16859.47
792.882	16707.39
793.214	16724.79
793.546	16713.71
793.879	16737.89
794.211	16526.15
794.543	16682.3
794.875	16669.19
795.207	16700.38
795.539	16616.99
795.871	16549.88
796.203	16387.39
796.535	16428.97
796.867	16396.43
797.198	16313.72
797.53	16367.06
797.862	16272.82
798.193	16137.91
798.525	16203.9
798.856	16142.2
799.188	16053.62
799.519	16021.3
799.85	15920.74
800.182	15993.28
800.513	16026.95
800.844	15796
801.175	15992.6
801.506	15952.83
801.837	15814.53
802.168	15880.29
802.499	15775.21
802.83	15687.07
803.161	15677.81
803.491	15683.46
803.822	15700.86
804.153	15705.15
804.483	15515.55
804.814	15454.09
805.145	15453.41
805.475	15440.98
805.805	15391.26
806.136	15418.83
806.466	15440.75
806.796	15379.06
807.126	15295.45
807.457	15180.87
807.787	15191.27
808.117	15170.25
808.447	15052.06
808.777	15073.98
809.107	15085.73
809.436	15109.91
809.766	15096.58
810.096	14995.34
810.426	14992.63
810.755	14927.55
811.085	14886.64
811.414	14980.2
811.744	14724.84
812.073	14735.46
812.403	14857.49
812.732	14768.91
813.061	14725.52
813.39	14624.95
813.719	14645.29
814.049	14664.5
814.378	14643.26
814.707	14505.41
815.036	14532.75
815.365	14463.38
815.693	14399.65
816.022	14372.76
816.351	14401.46
816.68	14306.09
817.008	14382.93
817.337	14231.07
817.665	14281.46
817.994	14340.44
818.322	14207.34
818.651	14180.67
818.979	14075.82
819.307	14178.86
819.636	14153.1
819.964	14055.48
820.292	14105.87
820.62	14138.64
820.948	14032.88
821.276	14090.05
821.604	14041.47
821.932	14056.38
822.259	14060.9
822.587	14014.12
822.915	13971.19
823.243	14104.97
823.57	14020.9
823.898	14004.63
824.225	14041.47
824.553	14017.29
824.88	13984.07
825.207	14063.84
825.535	13930.28
825.862	14057.51
826.189	13982.71
826.516	14019.09
826.843	14140.22
827.17	14036.72
827.497	14144.06
827.824	14062.03
828.151	14055.25
828.478	14067.45
828.805	14118.53
829.131	14062.48
829.458	14013.9
829.785	13962.82
830.111	13953.79
830.438	14072.65
830.764	14073.33
831.09	14018.19
831.417	13995.37
831.743	14096.83
832.069	14049.6
832.395	14038.76
832.722	14050.96
833.048	14033.33
833.374	13984.97
833.7	13964.18
834.026	14071.52
834.351	14050.96
834.677	13889.15
835.003	13923.28
835.329	13939.55
835.654	13884.18
835.98	13882.15
836.306	13895.26
836.631	13909.49
836.956	13925.76
837.282	13865.2
837.607	13814.81
837.932	13815.94
838.258	13699.33
838.583	13812.09
838.908	13674.24
839.233	13712.89
839.558	13692.32
839.883	13632.89
840.208	13534.14
840.533	13533.68
840.858	13551.31
841.182	13503.63
841.507	13553.12
841.832	13462.27
842.156	13427.02
842.481	13514.02
842.805	13457.3
843.13	13426.12
843.454	13393.57
843.778	13343.86
844.103	13348.6
844.427	13250.08
844.751	13305.22
845.075	13260.7
845.399	13254.82
845.723	13080.36
846.047	13085.56
846.371	13007.6
846.695	13036.97
847.019	12908.39
847.343	12956.3
847.666	12896.41
847.99	12776.42
848.313	12818
848.637	12661.84
848.96	12747.26
849.284	12658.45
849.607	12559.92
849.931	12524.9
850.254	12438.57
850.577	12429.76
850.9	12351.79
851.223	12286.48
851.546	12237.67
851.869	12119.26
852.192	12175.3
852.515	12150.44
852.838	12050.56
853.161	12003.55
853.483	12018.7
853.806	11885.82
854.129	11883.56
854.451	11875.65
854.774	11833.84
855.096	11728.08
855.419	11763.33
855.741	11717.69
856.063	11608.08
856.385	11653.96
856.708	11567.86
857.03	11522.44
857.352	11578.25
857.674	11503
857.996	11427.52
858.318	11419.16
858.64	11386.4
858.961	11293.97
859.283	11314.08
859.605	11329.9
859.926	11312.27
860.248	11263.46
860.57	11218.94
860.891	11190.92
861.212	11204.93
861.534	11168.77
861.855	11114.31
862.176	11078.16
862.498	11093.75
862.819	11107.98
863.14	11035.9
863.461	11020.76
863.782	11045.84
864.103	11013.75
864.424	10941.44
864.745	10940.53
865.065	10905.05
865.386	10814.21
865.707	10832.29
866.027	10862.34
866.348	10775.56
866.668	10844.49
866.989	10788.67
867.309	10674.1
867.63	10723.59
867.95	10726.3
868.27	10677.49
868.59	10713.87
868.91	10675.23
869.23	10630.94
869.55	10547.55
869.87	10680.88
870.19	10583.03
870.51	10612.4
870.83	10601.11
871.15	10549.81
871.469	10511.16
871.789	10537.15
872.109	10521.11
872.428	10480.88
872.748	10446.99
873.067	10421.68
873.386	10457.83
873.706	10516.81
874.025	10403.37
874.344	10349.36
874.663	10398.17
874.982	10295.8
875.301	10442.92
875.62	10304.62
875.939	10313.88
876.258	10357.72
876.577	10324.28
876.896	10308.23
877.214	10205.86
877.533	10191.17
877.852	10220.1
878.17	10207.9
878.489	10157.05
878.807	10113.43
879.125	10185.75
879.444	10180.1
879.762	10126.09
880.08	10153.43
880.398	9977.17
880.716	10102.14
881.034	10019.88
881.352	10050.84
881.67	10004.96
881.988	10001.57
882.306	9964.96
882.624	9908.47
882.941	9889.94
883.259	9850.84
883.577	9813.33
883.894	9859.88
884.212	9768.36
884.529	9820.11
884.846	9743.5
885.164	9679.1
885.481	9661.92
885.798	9702.82
886.115	9674.35
886.432	9586.22
886.75	9590.74
887.067	9644.75
887.383	9622.37
887.7	9652.2
888.017	9531.76
888.334	9577.18
888.651	9467.35
888.967	9493.79
889.284	9421.7
889.6	9407.46
889.917	9314.59
890.233	9391.19
890.55	9266
890.866	9320.69
891.182	9278.2
891.498	9268.03
891.815	9195.49
892.131	9184.19
892.447	9107.13
892.763	9132.9
893.079	9099.68
893.395	9082.95
893.71	9091.31
894.026	9055.38
894.342	9023.07
894.657	8932.22
894.973	8902.85
895.289	8930.41
895.604	8905.56
895.92	8856.29
896.235	8767.26
896.55	8796.41
896.865	8716.86
897.181	8692.46
897.496	8662.85
897.811	8701.49
898.126	8620.82
898.441	8597.54
898.756	8588.73
899.071	8603.64
899.386	8550.31
899.7	8380.15
900.015	8402.97
900.33	8350.32
900.644	8359.58
900.959	8351
901.273	8330.88
901.588	8298.57
901.902	8281.17
902.216	8263.31
902.531	8245.69
902.845	8138.12
903.159	8162.53
903.473	8119.81
903.787	8066.93
904.101	8062.87
904.415	8049.31
904.729	7989.87
905.042	7894.74
905.356	7922.31
905.67	7903.78
905.984	7917.56
906.297	7828.75
906.611	7858.13
906.924	7799.6
907.237	7741.52
907.551	7739.26
907.864	7722.31
908.177	7712.82
908.491	7644.12
908.804	7589.66
909.117	7548.98
909.43	7489.1
909.743	7512.83
910.056	7468.31
910.368	7406.61
910.681	7383.11
910.994	7351.47
911.307	7356.67
911.619	7313.06
911.932	7352.15
912.244	7216.11
912.557	7295.88
912.869	7193.29
913.181	7161.42
913.494	7169.11
913.806	7125.72
914.118	7041.2
914.43	7028.09
914.742	7049.79
915.054	6979.51
915.366	6958.26
915.678	6914.87
915.99	6955.55
916.302	6928.21
916.613	6806.63
916.925	6782.45
917.236	6838.94
917.548	6788.55
917.859	6833.97
918.171	6725.05
918.482	6672.85
918.794	6655.9
919.105	6633.07
919.416	6590.59
919.727	6596.69
920.038	6560.31
920.349	6528.9
920.66	6453.42
920.971	6518.73
921.282	6429.24
921.593	6364.61
921.903	6395.57
922.214	6426.75
922.525	6344.95
922.835	6290.03
923.146	6279.41
923.456	6232.41
923.767	6245.29
924.077	6205.74
924.387	6194.22
924.697	6123.26
925.008	6145.86
925.318	6074.44
925.628	6080.77
925.938	6084.61
926.248	6048.68
926.558	5999.87
926.867	5950.15
927.177	5980.66
927.487	5954.67
927.796	5868.8
928.106	5888.46
928.416	5876.71
928.725	5889.82
929.034	5816.6
929.344	5804.4
929.653	5779.09
929.962	5780.67
930.271	5737.73
930.581	5708.8
930.89	5682.59
931.199	5638.98
931.508	5679.88
931.817	5651.63
932.125	5638.75
932.434	5617.96
932.743	5507
933.051	5518.08
933.36	5475.14
933.669	5454.12
933.977	5413.45
934.286	5452.99
934.594	5446.66
934.902	5377.97
935.21	5416.16
935.519	5357.85
935.827	5394.69
936.135	5310.17
936.443	5299.78
936.751	5281.47
937.059	5268.36
937.367	5258.42
937.674	5199.44
937.982	5168.93
938.29	5100.01
938.597	5143.17
938.905	5100.69
939.213	5063.4
939.52	5081.48
939.827	5053.45
940.135	5031.31
940.442	4989.28
940.749	4991.76
941.056	4989.73
941.363	4923.51
941.67	4887.36
941.977	4895.04
942.284	4837.19
942.591	4858.21
942.898	4808.26
943.205	4839.9
943.511	4775.72
943.818	4828.6
944.125	4738.21
944.431	4745.89
944.738	4727.14
945.044	4692.11
945.35	4663.63
945.657	4643.52
945.963	4609.17
946.269	4561.49
946.575	4603.07
946.881	4541.83
947.187	4581.15
947.493	4529.85
947.799	4510.64
948.105	4479.68
948.41	4446.01
948.716	4457.99
949.022	4460.93
949.327	4407.37
949.633	4384.55
949.938	4407.14
950.244	4345.45
950.549	4327.15
950.854	4305.9
951.16	4330.76
951.465	4302.06
951.77	4274.27
952.075	4207.38
952.38	4209.18
952.685	4191.33
952.99	4162.18
953.294	4173.7
953.599	4140.48
953.904	4097.77
954.209	4098
954.513	4114.72
954.818	4082.41
955.122	4091.45
955.426	4043.54
955.731	4041.28
956.035	4007.83
956.339	4023.2
956.643	3972.35
956.948	3924.9
957.252	3941.62
957.556	3958.79
957.86	3915.63
958.163	3884.9
958.467	3879.25
958.771	3888.29
959.075	3854.16
959.378	3819.81
959.682	3806.93
959.985	3812.58
960.289	3818.46
960.592	3756.54
960.896	3731.68
961.199	3732.36
961.502	3709.31
961.805	3686.94
962.108	3687.39
962.411	3684.45
962.714	3649.65
963.017	3624.34
963.32	3629.99
963.623	3625.47
963.926	3602.87
964.228	3559.71
964.531	3553.16
964.833	3589.31
965.136	3515.87
965.438	3522.42
965.741	3485.13
966.043	3484.91
966.345	3472.48
966.648	3481.52
966.95	3431.8
967.252	3408.53
967.554	3414.63
967.856	3399.49
968.158	3411.69
968.46	3366.27
968.761	3352.93
969.063	3347.28
969.365	3345.25
969.666	3310
969.968	3280.17
970.269	3284.69
970.571	3239.49
970.872	3239.04
971.174	3260.51
971.475	3248.76
971.776	3207.63
972.077	3185.93
972.378	3205.59
972.679	3181.64
972.98	3168.98
973.281	3129.89
973.582	3107.97
973.883	3091.7
974.183	3091.47
974.484	3025.71
974.785	3078.37
975.085	3063
975.386	3087.86
975.686	3018.48
975.986	3007.18
976.287	3031.81
976.587	3014.41
976.887	2989.33
977.187	2976.22
977.487	2942.32
977.787	2928.09
978.087	2929.44
978.387	2911.36
978.687	2930.57
978.987	2881.53
979.286	2889.67
979.586	2881.53
979.885	2875.21
980.185	2829.33
980.484	2841.08
980.784	2829.33
981.083	2799.5
981.382	2771.71
981.682	2789.56
981.981	2780.75
982.28	2726.51
982.579	2711.6
982.878	2798.6
983.177	2759.73
983.475	2729.22
983.774	2686.51
984.073	2709.34
984.372	2637.92
984.67	2678.6
984.969	2693.97
985.267	2627.53
985.566	2618.26
985.864	2617.81
986.162	2622.11
986.461	2569.45
986.759	2562.45
987.057	2560.19
987.355	2538.49
987.653	2549.11
987.951	2525.39
988.249	2539.17
988.547	2512.73
988.844	2526.06
989.142	2514.09
989.44	2472.96
989.737	2430.47
990.035	2476.35
990.332	2444.71
990.63	2430.02
990.927	2453.75
991.224	2396.58
991.521	2383.69
991.819	2429.34
992.116	2342.34
992.413	2353.19
992.71	2326.29
993.006	2341.66
993.303	2342.34
993.6	2322.23
993.897	2326.97
994.193	2296.69
994.49	2294.21
994.787	2275.45
995.083	2262.79
995.379	2275.45
995.676	2224.83
995.972	2221.89
996.268	2205.39
996.565	2187.32
996.861	2184.15
997.157	2173.53
997.453	2171.27
997.749	2153.87
998.044	2147.99
998.34	2133.31
998.636	2098.96
998.932	2121.33
999.227	2145.51
999.523	2096.47
999.818	2079.97
1000.114	2064.15
1000.409	2068
1000.704	2049.69
1001	2058.73
1001.295	2053.76
1001.59	2028.45
1001.885	2002.01
1002.18	1979.64
1002.475	1994.33
1002.77	1999.98
1003.065	1972.86
1003.359	1968.11
1003.654	1952.29
1003.949	1919.3
1004.243	1922.69
1004.538	1889.47
1004.832	1898.74
1005.127	1874.56
1005.421	1882.92
1005.715	1870.26
1006.009	1879.98
1006.304	1820.77
1006.598	1856.25
1006.892	1843.6
1007.186	1788.46
1007.48	1833.2
1007.773	1823.48
1008.067	1797.95
1008.361	1799.53
1008.655	1775.8
1008.948	1781.45
1009.242	1739.87
1009.535	1730.6
1009.829	1764.95
1010.122	1740.32
1010.415	1701
1010.708	1713.2
1011.001	1667.78
1011.295	1694.67
1011.588	1682.92
1011.881	1657.16
1012.173	1660.55
1012.466	1646.99
1012.759	1651.28
1013.052	1621.23
1013.344	1608.35
1013.637	1620.1
1013.93	1578.29
1014.222	1605.18
1014.514	1579.65
1014.807	1569.03
1015.099	1572.19
1015.391	1542.36
1015.683	1558.41
1015.976	1563.38
1016.268	1536.03
1016.56	1534.9
1016.851	1487.67
1017.143	1518.41
1017.435	1471.4
1017.727	1495.58
1018.018	1457.62
1018.31	1465.98
1018.602	1465.53
1018.893	1442.02
1019.185	1435.47
1019.476	1411.06
1019.767	1418.97
1020.058	1410.61
1020.35	1416.04
1020.641	1375.81
1020.932	1368.35
1021.223	1352.08
1021.514	1370.39
1021.804	1348.02
1022.095	1337.62
1022.386	1312.31
1022.677	1334.68
1022.967	1329.26
1023.258	1294.23
1023.548	1302.59
1023.839	1301.91
1024.129	1297.85
1024.419	1278.86
1024.709	1251.07
1025	1263.05
1025.29	1239.54
1025.58	1221.92
1025.87	1245.42
1026.16	1221.69
1026.449	1227.57
1026.739	1237.96
1027.029	1206.1
1027.319	1185.31
1027.608	1197.51
1027.898	1181.92
1028.187	1202.26
1028.477	1166.55
1028.766	1148.7
1029.055	1160
1029.344	1122.03
1029.634	1132.2
1029.923	1146.21
1030.212	1121.13
1030.501	1111.41
1030.79	1117.51
1031.078	1071.86
1031.367	1114.58
1031.656	1108.7
1031.945	1080.9
1032.233	1086.55
1032.522	1068.7
1032.81	1073.67
1033.099	1053.79
1033.387	1020.79
1033.675	1031.19
1033.963	1023.5
1034.251	1010.4
1034.54	1033
1034.828	1006.78
1035.116	1027.12
1035.403	986.89
1035.691	994.58
1035.979	1006.33
1036.267	986.89
1036.554	970.85
1036.842	965.43
1037.129	967.01
1037.417	958.65
1037.704	956.84
1037.992	962.94
1038.279	943.73
1038.566	952.32
1038.853	952.32
1039.14	952.32
