Data from hue_100_FLMS001491_00051.txt Node
Date: Tue Feb 07 17:03:21 GMT 2017
User: dcchb
Spectrometer: FLMS00149
Trigger mode: 0
Integration Time (sec): 2.000000E-2
Scans to average: 10
Electric dark correction enabled: true
Nonlinearity correction enabled: false
Boxcar width: 0
XAxis mode: Wavelengths
Number of Pixels in Spectrum: 2048
>>>>>Begin Spectral Data<<<<<
341.393	0.93
341.776	0.93
342.16	0.93
342.543	-57.15
342.927	-80.65
343.31	-55.11
343.693	-91.95
344.077	-61.21
344.46	-69.12
344.843	-72.51
345.226	-23.02
345.61	-33.64
345.993	-4.72
346.376	-12.4
346.759	13.36
347.142	17.2
347.525	33.25
347.908	68.28
348.291	77.54
348.674	108.05
349.057	106.01
349.44	115.28
349.823	149.4
350.206	158.89
350.588	177.88
350.971	203.86
351.354	237.76
351.737	221.27
352.119	256.07
352.502	256.07
352.884	266.91
353.267	292.22
353.65	291.09
354.032	306.46
354.414	298.55
354.797	289.74
355.179	317.08
355.562	333.58
355.944	332.9
356.326	332.67
356.709	315.5
357.091	324.54
357.473	347.59
357.855	323.64
358.238	343.07
358.62	357.31
359.002	338.55
359.384	356.63
359.766	357.53
360.148	327.93
360.53	327.7
360.912	329.06
361.294	326.57
361.676	335.16
362.057	347.14
362.439	322.28
362.821	340.13
363.203	320.7
363.584	322.73
363.966	327.25
364.348	337.65
364.729	321.38
365.111	318.89
365.493	320.92
365.874	306.69
366.256	312.11
366.637	308.95
367.019	320.47
367.4	305.78
367.781	332
368.163	309.62
368.544	310.53
368.925	321.15
369.306	332.45
369.688	333.35
370.069	314.14
370.45	317.53
370.831	324.54
371.212	338.32
371.593	334.48
371.974	308.49
372.355	305.56
372.736	337.65
373.117	334.71
373.498	316.4
373.879	337.87
374.26	335.39
374.641	316.18
375.021	310.53
375.402	317.31
375.783	333.8
376.163	321.15
376.544	327.93
376.925	338.55
377.305	329.74
377.686	313.69
378.066	333.58
378.447	324.09
378.827	332.45
379.208	343.97
379.588	323.64
379.968	341.26
380.349	337.19
380.729	334.03
381.109	322.05
381.489	305.78
381.87	326.57
382.25	366.57
382.63	324.54
383.01	347.14
383.39	354.37
383.77	338.78
384.15	351.43
384.53	342.62
384.91	357.08
385.29	346.23
385.67	364.99
386.049	356.18
386.429	367.7
386.809	360.24
387.189	348.04
387.568	343.3
387.948	363.63
388.328	390.98
388.707	351.88
389.087	346.01
389.466	386.01
389.846	375.61
390.225	367.93
390.605	371.54
390.984	381.04
391.363	364.76
391.743	379
392.122	379.68
392.501	371.09
392.881	377.19
393.26	391.43
393.639	368.38
394.018	366.57
394.397	393.46
394.776	372
395.155	428.94
395.534	370.41
395.913	393.46
396.292	377.87
396.671	387.59
397.05	378.1
397.429	396.18
397.808	394.82
398.186	396.4
398.565	412.67
398.944	414.71
399.323	404.31
399.701	421.94
400.08	394.59
400.458	430.53
400.837	412.9
401.215	416.06
401.594	410.19
401.972	428.72
402.351	417.64
402.729	409.51
403.107	407.48
403.486	426.91
403.864	432.33
404.242	431.66
404.62	426.01
404.999	415.16
405.377	435.05
405.755	435.27
406.133	447.25
406.511	446.57
406.889	468.26
407.267	433.69
407.645	430.75
408.023	459.23
408.401	470.07
408.779	453.58
409.156	462.61
409.534	470.52
409.912	465.78
410.29	470.75
410.667	475.04
411.045	471.43
411.422	467.59
411.8	484.54
412.178	495.38
412.555	488.6
412.933	476.63
413.31	492.44
413.687	507.59
414.065	506.68
414.442	517.3
414.819	500.35
415.197	512.33
415.574	504.2
415.951	506
416.328	520.47
416.705	520.69
417.082	518.43
417.46	526.12
417.837	544.87
418.214	524.99
418.591	534.03
418.967	557.08
419.344	540.13
419.721	547.58
420.098	534.48
420.475	572.89
420.852	564.08
421.228	556.4
421.605	567.24
421.982	576.06
422.358	582.16
422.735	576.51
423.111	599.56
423.488	577.64
423.864	568.83
424.241	610.63
424.617	583.74
424.994	591.65
425.37	578.09
425.746	606.57
426.123	598.88
426.499	603.4
426.875	596.62
427.251	641.59
427.627	631.42
428.003	635.72
428.379	645.21
428.756	631.42
429.132	630.07
429.507	649.95
429.883	660.35
430.259	649.05
430.635	662.38
431.011	661.71
431.387	660.12
431.763	700.8
432.138	692.67
432.514	703.29
432.89	706.45
433.265	717.75
433.641	720.24
434.016	720.01
434.392	730.63
434.767	739.67
435.143	737.86
435.518	746.68
435.894	748.26
436.269	764.75
436.644	761.36
437.02	785.77
437.395	780.57
437.77	799.1
438.145	795.71
438.52	781.7
438.895	784.19
439.271	783.96
439.646	800.91
440.021	827.35
440.395	817.63
440.77	790.97
441.145	836.16
441.52	866.9
441.895	825.32
442.27	862.6
442.645	850.63
443.019	860.34
443.394	856.5
443.769	880.01
444.143	865.32
444.518	873.23
444.892	883.17
445.267	893.79
445.641	909.61
446.016	899.44
446.39	911.87
446.764	914.35
447.139	924.52
447.513	925.88
447.887	909.83
448.262	917.97
448.636	938.76
449.01	941.7
449.384	943.73
449.758	967.01
450.132	965.2
450.506	987.57
450.88	974.24
451.254	989.83
451.628	996.16
452.002	1002.71
452.376	1021.7
452.75	1022.15
453.123	1017.18
453.497	1037.97
453.871	1046.33
454.244	1052.88
454.618	1099.43
454.992	1073.9
455.365	1094.69
455.739	1115.25
456.112	1120.68
456.486	1131.3
456.859	1149.38
457.232	1154.35
457.606	1162.71
457.979	1167.46
458.352	1220.56
458.725	1187.12
459.099	1199.77
459.472	1242.93
459.845	1255.36
460.218	1259.43
460.591	1255.59
460.964	1266.44
461.337	1302.82
461.71	1344.4
462.083	1324.74
462.456	1337.62
462.829	1356.6
463.201	1386.88
463.574	1388.47
463.947	1405.87
464.32	1451.29
464.692	1441.57
465.065	1434.57
465.438	1504.17
465.81	1506.43
466.183	1536.03
466.555	1535.36
466.928	1574.9
467.3	1565.64
467.672	1609.93
468.045	1636.37
468.417	1656.71
468.789	1679.31
469.161	1716.14
469.534	1704.16
469.906	1773.99
470.278	1807.66
470.65	1812.64
471.022	1856.48
471.394	1910.94
471.766	1941.22
472.138	1946.42
472.51	1999.98
472.882	2054.66
473.253	2073.65
473.625	2114.1
473.997	2158.16
474.369	2202
474.74	2265.05
475.112	2302.79
475.484	2360.64
475.855	2393.41
476.227	2464.37
476.598	2554.99
476.97	2573.07
477.341	2643.57
477.713	2723.8
478.084	2710.47
478.455	2809.45
478.827	2946.17
479.198	3006.5
479.569	3078.82
479.94	3185.48
480.311	3253.05
480.682	3284.69
481.053	3449.2
481.424	3522.65
481.795	3611.68
482.166	3700.5
482.537	3730.78
482.908	3916.54
483.279	4012.35
483.65	4097.77
484.021	4208.51
484.391	4313.14
484.762	4399.23
485.133	4497.54
485.503	4604.2
485.874	4830.64
486.244	4881.03
486.615	5008.48
486.985	5091.65
487.356	5249.83
487.726	5383.62
488.097	5496.38
488.467	5637.39
488.837	5783.38
489.207	5928.01
489.578	6097.04
489.948	6204.61
490.318	6427.2
490.688	6419.75
491.058	6600.08
491.428	6773.41
491.798	6889.11
492.168	7126.85
492.538	7201.65
492.908	7336.11
493.278	7431.7
493.648	7559.83
494.017	7804.12
494.387	7875.53
494.757	8030.55
495.126	8182.41
495.496	8302.41
495.866	8371.56
496.235	8534.95
496.605	8700.36
496.974	8855.39
497.344	8913.47
497.713	9003.86
498.082	9124.53
498.452	9320.91
498.821	9342.83
499.19	9465.77
499.559	9657.4
499.928	9753.44
500.298	9925.19
500.667	9968.58
501.036	10054.68
501.405	10140.78
501.774	10265.07
502.143	10399.75
502.512	10470.04
502.88	10597.72
503.249	10609.24
503.618	10712.06
503.987	10847.65
504.356	10920.65
504.724	11085.39
505.093	11117.93
505.462	11154.99
505.83	11278.38
506.199	11399.05
506.567	11519.27
506.936	11497.35
507.304	11677.69
507.672	11689.21
508.041	11800.85
508.409	11918.36
508.777	11972.14
509.145	12139.37
509.514	12074.96
509.882	12079.48
510.25	12185.92
510.618	12301.63
510.986	12327.16
511.354	12364
511.722	12519.93
512.09	12626.36
512.458	12542.75
512.826	12715.4
513.193	12720.37
513.561	12731.44
513.929	12846.02
514.297	12954.04
514.664	12996.97
515.032	13049.63
515.4	13022.96
515.767	13135.73
516.135	13168.95
516.502	13162.62
516.869	13232.45
517.237	13318.32
517.604	13160.81
517.972	13472.67
518.339	13409.17
518.706	13430.18
519.073	13434.03
519.44	13489.62
519.808	13654.13
520.175	13608.03
520.542	13751.53
520.909	13798.99
521.276	13676.28
521.643	13780.91
522.009	13840.79
522.376	13895.93
522.743	13930.06
523.11	13938.64
523.477	14081.92
523.843	14153.55
524.21	14235.81
524.577	14251.63
524.943	14282.36
525.31	14333.21
525.676	14248.92
526.043	14308.35
526.409	14340.22
526.776	14483.94
527.142	14458.41
527.508	14494.79
527.874	14569.59
528.241	14572.98
528.607	14508.57
528.973	14574.11
529.339	14534.56
529.705	14636.25
530.071	14589.48
530.437	14651.62
530.803	14731.17
531.169	14736.82
531.535	14628.8
531.901	14557.39
532.267	14660.43
532.632	14693.43
532.998	14627.67
533.364	14643.71
533.73	14731.17
534.095	14719.19
534.461	14668.12
534.826	14732.97
535.192	14667.44
535.557	14741.56
535.923	14634.67
536.288	14698.85
536.653	14636.93
537.019	14615.92
537.384	14577.05
537.749	14587.67
538.114	14491.17
538.479	14543.6
538.845	14563.94
539.21	14398.52
539.575	14454.79
539.94	14465.18
540.305	14462.7
540.67	14423.83
541.034	14402.81
541.399	14359.65
541.764	14314.68
542.129	14358.52
542.494	14310.84
542.858	14274.23
543.223	14182.25
543.587	14325.08
543.952	14170.5
544.316	14164.18
544.681	14143.39
545.045	14157.85
545.41	14079.21
545.774	14034.69
546.138	14098.41
546.503	13930.74
546.867	13970.73
547.231	14013.9
547.595	13904.75
547.959	13960.79
548.324	13863.39
548.688	13918.76
549.052	13830.4
549.416	13842.6
549.779	13851.42
550.143	13794.69
550.507	13838.99
550.871	13766.9
551.235	13697.07
551.599	13684.64
551.962	13665.66
552.326	13688.48
552.689	13715.6
553.053	13633.34
553.417	13623.85
553.78	13703.17
554.143	13558.09
554.507	13589.73
554.87	13554.47
555.234	13678.99
555.597	13591.08
555.96	13500.01
556.323	13561.93
556.686	13439.45
557.05	13532.78
557.413	13481.48
557.776	13483.74
558.139	13546.11
558.502	13460.69
558.865	13437.64
559.228	13488.71
559.59	13571.65
559.953	13556.51
560.316	13573.23
560.679	13545.43
561.041	13511.99
561.404	13570.52
561.767	13634.47
562.129	13562.16
562.492	13676.05
562.854	13494.59
563.217	13531.88
563.579	13575.94
563.941	13594.7
564.304	13586.34
564.666	13647.58
565.028	13640.35
565.39	13698.43
565.753	13739.1
566.115	13728.93
566.477	13794.24
566.839	13752.66
567.201	13797.86
567.563	13820.23
567.925	13737.75
568.287	13844.86
568.648	13810.96
569.01	13811.64
569.372	13890.51
569.734	13810.96
570.095	13820.46
570.457	13931.87
570.819	13892.09
571.18	13903.62
571.542	13988.36
571.903	13977.51
572.265	14053.9
572.626	14018.19
572.987	14008.47
573.349	13996.72
573.71	14055.25
574.071	14082.14
574.432	14053.22
574.794	14091.64
575.155	14113.56
575.516	14062.03
575.877	14111.07
576.238	14106.55
576.599	14081.47
576.96	14128.92
577.32	14113.33
577.681	14127.79
578.042	14102.26
578.403	14118.53
578.763	14121.24
579.124	14157.62
579.485	14197.85
579.845	14281.46
580.206	14172.76
580.566	14176.6
580.927	14136.61
581.287	14193.1
581.648	14125.98
582.008	14154.01
582.368	14153.1
582.728	14167.79
583.089	14086.89
583.449	14120.33
583.809	14156.72
584.169	14088.7
584.529	14130.5
584.889	14169.15
585.249	14110.17
585.609	14052.99
585.969	14142.26
586.329	14103.61
586.688	14119.88
587.048	14109.49
587.408	14030.39
587.768	14023.16
588.127	14073.78
588.487	14002.15
588.846	14086.89
589.206	13925.31
589.565	13965.54
589.925	14069.71
590.284	13940.45
590.643	14035.37
591.003	14045.76
591.362	14040.79
591.721	13986.55
592.08	14021.13
592.44	14016.38
592.799	13983.84
593.158	13913.79
593.517	13918.31
593.876	13994.69
594.235	14020.45
594.593	13919.89
594.952	13918.31
595.311	13923.05
595.67	13942.94
596.029	13989.49
596.387	14042.6
596.746	13972.32
597.104	13902.49
597.463	13872.43
597.822	13923.96
598.18	13788.59
598.538	13875.82
598.897	13936.61
599.255	13739.55
599.613	13987.23
599.972	13910.62
600.33	13896.84
600.688	13901.36
601.046	13889.38
601.404	13917.63
601.762	13857.07
602.12	13911.75
602.478	13935.03
602.836	13891.41
603.194	13839.66
603.552	13900
603.91	13839.21
604.268	13895.26
604.625	13882.38
604.983	13863.62
605.341	13846.9
605.698	13944.29
606.056	13885.54
606.413	13910.17
606.771	13974.58
607.128	13977.06
607.485	13887.12
607.843	13953.56
608.2	13935.71
608.557	13976.84
608.914	13923.96
609.272	14023.39
609.629	14029.72
609.986	14060.68
610.343	14053.9
610.7	13997.63
611.057	14023.16
611.414	14039.89
611.771	14057.96
612.127	14115.14
612.484	14045.99
612.841	14166.66
613.198	14152.2
613.554	14048.25
613.911	14205.76
614.267	14228.13
614.624	14169.83
614.98	14198.07
615.337	14225.87
615.693	14192.65
616.05	14195.36
616.406	14244.17
616.762	14181.8
617.118	14144.97
617.475	14196.94
617.831	14279.88
618.187	14193.55
618.543	14290.95
618.899	14329.37
619.255	14341.57
619.611	14261.8
619.967	14363.49
620.323	14316.94
620.678	14249.15
621.034	14243.04
621.39	14240.78
621.746	14244.17
622.101	14479.87
622.457	14257.51
622.812	14377.73
623.168	14342.02
623.523	14403.27
623.879	14470.38
624.234	14324.17
624.589	14348.8
624.945	14284.85
625.3	14296.15
625.655	14351.52
626.01	14347.22
626.365	14304.06
626.72	14352.19
627.075	14239.65
627.43	14383.38
627.785	14182.71
628.14	14264.51
628.495	14311.29
628.85	14278.52
629.205	14226.55
629.559	14290.05
629.914	14195.14
630.269	14267.9
630.623	14261.35
630.978	14186.1
631.332	14331.85
631.687	14274.68
632.041	14170.5
632.396	14223.38
632.75	14153.33
633.104	14210.95
633.459	14062.26
633.813	14094.35
634.167	14125.31
634.521	14070.17
634.875	14161.69
635.229	14076.04
635.583	13993.56
635.937	13995.37
636.291	13947.23
636.645	14037.85
636.999	13970.06
637.352	13912.2
637.706	13907.91
638.06	13889.38
638.413	13982.49
638.767	13904.52
639.121	13919.21
639.474	13820.23
639.828	13761.02
640.181	13850.74
640.534	13869.04
640.888	13871.75
641.241	13759.67
641.594	13785.43
641.947	13753.34
642.301	13785.88
642.654	13775.71
643.007	13749.95
643.36	13740.68
643.713	13678.09
644.066	13766.67
644.419	13614.81
644.771	13608.94
645.124	13535.49
645.477	13417.53
645.83	13365.1
646.182	13359.23
646.535	13265.67
646.888	13300.24
647.24	13201.26
647.593	13340.69
647.945	13259.34
648.298	13189.06
648.65	13189.06
649.002	13206.91
649.355	13299.79
649.707	13305.67
650.059	13316.51
650.411	13436.51
650.763	13485.32
651.115	13663.62
651.467	13535.27
651.819	13495.94
652.171	13560.35
652.523	13516.73
652.875	13479.45
653.227	13524.64
653.578	13561.25
653.93	13577.3
654.282	13488.71
654.633	13481.26
654.985	13548.6
655.337	13509.05
655.688	13514.25
656.039	13604.42
656.391	13477.19
656.742	13524.42
657.094	13490.52
657.445	13535.72
657.796	13538.66
658.147	13503.85
658.498	13449.62
658.849	13569.61
659.2	13464.08
659.551	13415.72
659.902	13535.04
660.253	13483.29
660.604	13503.4
660.955	13508.6
661.306	13573.46
661.656	13600.57
662.007	13599.67
662.358	13607.13
662.708	13645.77
663.059	13544.76
663.409	13527.58
663.76	13546.34
664.11	13551.76
664.461	13619.56
664.811	13576.85
665.161	13659.78
665.511	13492.1
665.862	13580.69
666.212	13586.11
666.562	13717.63
666.912	13537.07
667.262	13519.45
667.612	13539.11
667.962	13634.02
668.312	13594.93
668.662	13627.69
669.011	13565.32
669.361	13555.15
669.711	13580.69
670.06	13530.07
670.41	13507.24
670.76	13489.84
671.109	13565.55
671.459	13537.07
671.808	13495.72
672.157	13486.23
672.507	13466.34
672.856	13431.77
673.205	13390.64
673.554	13459.11
673.904	13349.96
674.253	13464.31
674.602	13439.67
674.951	13312.67
675.3	13194.03
675.649	13445.1
675.998	13343.18
676.346	13416.85
676.695	13385.66
677.044	13296.18
677.393	13349.51
677.741	13341.82
678.09	13352.22
678.438	13291.66
678.787	13272
679.135	13301.6
679.484	13215.73
679.832	13266.57
680.181	13201.94
680.529	13144.99
680.877	13204.2
681.225	13118.1
681.573	13120.36
681.922	13108.61
682.27	13067.03
682.618	13014.38
682.966	13041.27
683.314	13120.81
683.661	13009.86
684.009	12877.66
684.357	12872.01
684.705	12958.56
685.053	12865
685.4	12791.33
685.748	12790.88
686.095	12775.06
686.443	12698.9
686.79	12721.73
687.138	12705.91
687.485	12776.87
687.832	12662.75
688.18	12652.8
688.527	12582.07
688.874	12560.15
689.221	12514.95
689.568	12511.34
689.915	12488.51
690.262	12498.68
690.609	12425.69
690.956	12386.37
691.303	12341.17
691.65	12272.47
691.997	12300.72
692.344	12175.53
692.69	12197.45
693.037	12179.14
693.383	12015.31
693.73	12030.22
694.077	12044.01
694.423	11943.44
694.769	11858.93
695.116	11908.42
695.462	11776.44
695.808	11807.63
696.155	11852.15
696.501	11773.96
696.847	11733.73
697.193	11634.52
697.539	11672.94
697.885	11573.74
698.231	11582.1
698.577	11546.62
698.923	11470.46
699.269	11438.15
699.614	11415.77
699.96	11361.09
700.306	11327.87
700.651	11222.56
700.997	11291.93
701.342	11180.98
701.688	11155.22
702.033	11064.82
702.379	11121.77
702.724	11077.48
703.069	11098.49
703.415	10935.33
703.76	10936.69
704.105	10910.93
704.45	10890.14
704.795	10811.5
705.14	10777.6
705.485	10762.91
705.83	10749.8
706.175	10743.25
706.52	10721.55
706.865	10689.01
707.209	10659.63
707.554	10648.56
707.899	10631.84
708.243	10523.59
708.588	10566.76
708.932	10467.78
709.277	10460.09
709.621	10406.99
709.966	10361.56
710.31	10341.68
710.654	10385.74
710.998	10299.42
711.342	10364.5
711.687	10286.99
712.031	10217.39
712.375	10195.69
712.719	10254
713.063	10121.34
713.407	10213.55
713.75	10112.08
714.094	10096.03
714.438	10050.39
714.782	10099.88
715.125	10053.55
715.469	10007
715.812	9966.55
716.156	9940.78
716.499	9940.33
716.843	9973.55
717.186	9872.76
717.53	9965.64
717.873	9939.88
718.216	9905.08
718.559	9864.63
718.902	9820.34
719.246	9837.51
719.589	9769.26
719.932	9785.53
720.275	9732.88
720.617	9720.45
720.96	9730.39
721.303	9759.55
721.646	9725.2
721.989	9706.21
722.331	9741.47
722.674	9746.89
723.016	9755.93
723.359	9669.6
723.701	9709.15
724.044	9637.29
724.386	9612.43
724.729	9652.2
725.071	9618.98
725.413	9628.25
725.755	9626.89
726.097	9598.42
726.439	9539.21
726.782	9489.95
727.124	9599.1
727.465	9557.97
727.807	9527.46
728.149	9473
728.491	9477.97
728.833	9569.72
729.175	9549.61
729.516	9461.47
729.858	9478.88
730.199	9500.12
730.541	9510.96
730.882	9451.76
731.224	9529.27
731.565	9403.17
731.906	9499.89
732.248	9468.93
732.589	9397.75
732.93	9388.03
733.271	9426.9
733.612	9414.47
733.953	9448.14
734.294	9430.51
734.635	9392.32
734.976	9410.4
735.317	9370.4
735.658	9412.89
735.999	9438.2
736.339	9376.05
736.68	9436.62
737.021	9437.07
737.361	9401.14
737.702	9428.48
738.042	9503.06
738.383	9471.64
738.723	9463.73
739.063	9442.04
739.404	9574.47
739.744	9491.3
740.084	9467.58
740.424	9548.7
740.764	9510.06
741.104	9482.94
741.444	9504.19
741.784	9497.86
742.124	9570.17
742.464	9474.13
742.804	9548.93
743.143	9675.25
743.483	9607.91
743.823	9627.8
744.162	9680.23
744.502	9770.17
744.841	9734.01
745.181	9802.93
745.52	9774.91
745.86	9861.24
746.199	9868.47
746.538	9792.99
746.877	9973.1
747.216	10023.95
747.556	10054.45
747.895	10082.7
748.234	10120.89
748.573	10103.04
748.911	10275.01
749.25	10217.39
749.589	10333.09
749.928	10496.93
750.267	10494.89
750.605	10571.95
750.944	10591.61
751.283	10687.2
751.621	10792.29
751.96	10812.63
752.298	10843.81
752.636	11050.59
752.975	11117.93
753.313	11216.91
753.651	11349.11
753.989	11378.49
754.327	11549.56
754.666	11553.85
755.004	11770.11
755.342	11893.95
755.679	11967.62
756.017	12048.07
756.355	12261.4
756.693	12357.22
757.031	12502.07
757.368	12629.98
757.706	12793.14
758.044	12947.03
758.381	13166.69
758.719	13144.54
759.056	13394.93
759.394	13541.59
759.731	13690.97
760.068	13856.39
760.405	13965.76
760.743	14111.75
761.08	14253.21
761.417	14396.03
761.754	14655.69
762.091	14753.76
762.428	14942.01
762.765	15051.61
763.102	15256.58
763.438	15278.04
763.775	15447.53
764.112	15626.06
764.449	15852.72
764.785	15911.02
765.122	16090.9
765.458	16254.06
765.795	16312.82
766.131	16528.41
766.467	16652.02
766.804	16723.66
767.14	16820.6
767.476	16996.87
767.812	17112.35
768.148	17292
768.485	17384.2
768.821	17456.97
769.157	17560.7
769.492	17689.96
769.828	17742.61
770.164	17811.76
770.5	17858.99
770.836	18082.26
771.171	18037.29
771.507	18276.16
771.842	18200.23
772.178	18370.62
772.513	18407.68
772.849	18485.64
773.184	18517.73
773.519	18659.2
773.855	18720.44
774.19	18659.65
774.525	18753.89
774.86	18764.05
775.195	18916.82
775.53	18959.3
775.865	18977.38
776.2	18875.92
776.535	18809.48
776.87	18873.2
777.205	18915.92
777.539	19054.44
777.874	19186.19
778.209	19037.72
778.543	19041.56
778.878	19054.22
779.212	19079.98
779.547	19111.84
779.881	19273.42
780.215	19056.7
780.55	19249.69
780.884	19195.46
781.218	19146.64
781.552	19144.16
781.886	19174.67
782.22	19198.62
782.554	19159.07
782.888	18992.52
783.222	19061.9
783.556	19086.08
783.889	19047.21
784.223	18848.35
784.557	18949.59
784.89	19084.95
785.224	18898.97
785.557	18903.03
785.891	18785.07
786.224	18807.44
786.558	18850.15
786.891	18687.45
787.224	18687.67
787.557	18672.08
787.891	18729.25
788.224	18708.24
788.557	18653.78
788.89	18700.1
789.223	18742.36
789.556	18681.8
789.888	18568.81
790.221	18500.11
790.554	18381.92
790.887	18401.35
791.219	18405.19
791.552	18365.2
791.884	18408.81
792.217	18279.77
792.549	18237.97
792.882	18201.36
793.214	18169.04
793.546	18190.28
793.879	18141.7
794.211	17976.28
794.543	18167.91
794.875	18027.35
795.207	18083.17
795.539	17998.2
795.871	18002.27
796.203	17829.16
796.535	17712.1
796.867	17788.71
797.198	17603.63
797.53	17662.16
797.862	17578.32
798.193	17640.69
798.525	17548.27
798.856	17617.42
799.188	17406.58
799.519	17292.68
799.85	17269.18
800.182	17335.84
800.513	17324.09
800.844	17257.88
801.175	17218.33
801.506	17214.49
801.837	17143.53
802.168	17102.63
802.499	17101.95
802.83	16853.37
803.161	16908.51
803.491	16852.24
803.822	16888.85
804.153	16805.01
804.483	16692.24
804.814	16686.14
805.145	16734.5
805.475	16730.21
805.805	16525.92
806.136	16650.89
806.466	16596.43
806.796	16522.53
807.126	16385.59
807.457	16429.43
807.787	16424.91
808.117	16271.46
808.447	16300.39
808.777	16349.88
809.107	16222.65
809.436	16199.6
809.766	16075.31
810.096	16106.05
810.426	16064.69
810.755	16076.89
811.085	16057.01
811.414	16034.18
811.744	16058.59
812.073	15972.04
812.403	15945.6
812.732	15754.87
813.061	15878.93
813.39	15751.7
813.719	15725.04
814.049	15800.74
814.378	15672.61
814.707	15699.05
815.036	15588.54
815.365	15520.52
815.693	15469.45
816.022	15560.98
816.351	15423.58
816.68	15403.69
817.008	15497.02
817.337	15273.52
817.665	15251.6
817.994	15276.46
818.322	15258.84
818.651	15193.75
818.979	15127.77
819.307	15222
819.636	15187.65
819.964	15151.49
820.292	15182.68
820.62	15168.67
820.948	15013.64
821.276	15168.67
821.604	15053.87
821.932	15079.41
822.259	15028.79
822.587	15081.67
822.915	14991.5
823.243	15009.58
823.57	15142.23
823.898	14965.51
824.225	15002.12
824.553	14955.34
824.88	14997.15
825.207	15079.63
825.535	15012.51
825.862	15176.35
826.189	15016.36
826.516	15064.49
826.843	15120.53
827.17	15135
827.497	15049.8
827.824	15119.4
828.151	15020.42
828.478	14991.05
828.805	15044.83
829.131	15124.6
829.458	15042.8
829.785	14980.43
830.111	14987.66
830.438	15116.92
830.764	15013.19
831.09	15144.94
831.417	15017.94
831.743	15113.76
832.069	15086.41
832.395	14978.62
832.722	15022.91
833.048	14978.62
833.374	15026.3
833.7	14937.26
834.026	14982.69
834.351	14993.53
834.677	14984.04
835.003	14865.17
835.329	14910.37
835.654	14897.49
835.98	14857.72
836.306	14784.72
836.631	14794.67
836.956	14874.21
837.282	14883.48
837.607	14803.93
837.932	14694.78
838.258	14727.55
838.583	14776.81
838.908	14662.69
839.233	14720.09
839.558	14579.76
839.883	14556.26
840.208	14466.99
840.533	14461.57
840.858	14613.43
841.182	14565.75
841.507	14462.47
841.832	14419.99
842.156	14472.19
842.481	14372.31
842.805	14372.08
843.13	14368.92
843.454	14278.75
843.778	14252.31
844.103	14240.56
844.427	14186.32
844.751	14222.48
845.075	14045.53
845.399	14130.5
845.723	14002.6
846.047	14058.19
846.371	13924.63
846.695	13987.68
847.019	13775.94
847.343	13832.21
847.666	13676.05
847.99	13653.45
848.313	13686.9
848.637	13512.22
848.96	13562.38
849.284	13417.75
849.607	13394.03
849.931	13404.65
850.254	13296.85
850.577	13177.31
850.9	13154.71
851.223	13128.04
851.546	13087.14
851.869	12980.7
852.192	13006.24
852.515	12890.08
852.838	12834.04
853.161	12865.9
853.483	12716.98
853.806	12720.82
854.129	12680.37
854.451	12722.86
854.774	12615.74
855.096	12586.59
855.419	12587.27
855.741	12585.91
856.063	12495.52
856.385	12397.89
856.708	12334.17
857.03	12378.23
857.352	12416.88
857.674	12246.94
857.996	12309.99
858.318	12256.43
858.64	12184.57
858.961	12112.03
859.283	12176.43
859.605	12062.31
859.926	12017.34
860.248	12081.07
860.57	11961.52
860.891	11994.29
861.212	11912.03
861.534	11875.2
861.855	11853.73
862.176	11820.28
862.498	11815.08
862.819	11814.18
863.14	11761.98
863.461	11769.44
863.782	11698.93
864.103	11705.03
864.424	11726.5
864.745	11707.07
865.065	11586.39
865.386	11571.93
865.707	11526.73
866.027	11528.54
866.348	11548.43
866.668	11486.73
866.989	11528.31
867.309	11461.2
867.63	11414.19
867.95	11449.9
868.27	11364.02
868.59	11406.96
868.91	11385.27
869.23	11363.57
869.55	11290.35
869.87	11402.21
870.19	11282.22
870.51	11333.29
870.83	11279.96
871.15	11282.67
871.469	11234.31
871.789	11276.79
872.109	11212.84
872.428	11157.47
872.748	11144.82
873.067	11130.81
873.386	11197.25
873.706	11094.88
874.025	11046.52
874.344	11048.1
874.663	11070.47
874.982	11034.77
875.301	11059.85
875.62	11023.24
875.939	10976.69
876.258	10985.73
876.577	10891.27
876.896	10928.1
877.214	10901.66
877.533	10913.87
877.852	10851.27
878.17	10849.23
878.489	10846.97
878.807	10772.85
879.125	10749.58
879.444	10738.05
879.762	10773.76
880.08	10754.55
880.398	10720.42
880.716	10703.48
881.034	10649.69
881.352	10657.15
881.67	10681.56
881.988	10660.31
882.306	10547.32
882.624	10553.88
882.941	10487.44
883.259	10517.49
883.577	10407.66
883.894	10515.91
884.212	10486.76
884.529	10380.09
884.846	10374.22
885.164	10365.63
885.481	10344.39
885.798	10383.48
886.115	10277.27
886.432	10278.4
886.75	10247.22
887.067	10214.67
887.383	10191.17
887.7	10266.42
888.017	10140.55
888.334	10103.94
888.651	10132.64
888.967	10122.25
889.284	9956.6
889.6	9989.82
889.917	9955.47
890.233	9962.93
890.55	9884.06
890.866	9895.59
891.182	9890.62
891.498	9890.16
891.815	9830.28
892.131	9829.15
892.447	9772.65
892.763	9742.6
893.079	9720.9
893.395	9703.05
893.71	9677.06
894.026	9577.63
894.342	9587.8
894.657	9483.62
894.973	9552.09
895.289	9554.81
895.604	9464.41
895.92	9440.68
896.235	9383.06
896.55	9432.32
896.865	9337.86
897.181	9306.22
897.496	9275.94
897.811	9324.08
898.126	9228.94
898.441	9147.81
898.756	9139.67
899.071	9086.57
899.386	9162.5
899.7	8970.87
900.015	9004.99
900.33	8908.04
900.644	8910.3
900.959	8890.87
901.273	8915.73
901.588	8821.72
901.902	8795.73
902.216	8769.29
902.531	8793.92
902.845	8692.23
903.159	8665.79
903.473	8617.88
903.787	8625.34
904.101	8548.73
904.415	8551.44
904.729	8516.41
905.042	8466.92
905.356	8458.56
905.67	8466.47
905.984	8424.89
906.297	8352.35
906.611	8345.57
906.924	8362.75
907.237	8279.36
907.551	8204.78
907.864	8268.74
908.177	8200.72
908.491	8185.8
908.804	8133.15
909.117	8099.02
909.43	7987.16
909.743	7991
910.056	8000.04
910.368	7930.67
910.681	7907.39
910.994	7908.75
911.307	7834.17
911.619	7777.68
911.932	7773.61
912.244	7811.8
912.557	7715.53
912.869	7680.05
913.181	7630.34
913.494	7641.86
913.806	7536.1
914.118	7575.42
914.43	7510.79
914.742	7473.05
915.054	7443.67
915.366	7469.89
915.678	7394.86
915.99	7380.4
916.302	7353.51
916.613	7312.83
916.925	7338.82
917.236	7192.83
917.548	7235.77
917.859	7253.4
918.171	7137.92
918.482	7080.75
918.794	7071.25
919.105	7098.6
919.416	7005.49
919.727	7028.32
920.038	6946.74
920.349	6950.58
920.66	6912.39
920.971	6908.32
921.282	6920.75
921.593	6781.77
921.903	6806.63
922.214	6775.44
922.525	6753.97
922.835	6727.76
923.146	6684.6
923.456	6662.45
923.767	6623.81
924.077	6616.35
924.387	6581.1
924.697	6566.86
925.008	6535
925.318	6469.24
925.628	6516.69
925.938	6460.65
926.248	6462.23
926.558	6365.74
926.867	6346.75
927.177	6342.91
927.487	6311.73
927.796	6285.74
928.106	6250.03
928.416	6246.87
928.725	6273.99
929.034	6208.23
929.344	6192.86
929.653	6146.31
929.962	6094.56
930.271	6115.57
930.581	6027.67
930.89	6081.9
931.199	5986.09
931.508	5962.58
931.817	6003.71
932.125	5940.66
932.434	5996.48
932.743	5910.38
933.051	5859.76
933.36	5861.8
933.669	5804.85
933.977	5848.24
934.286	5793.77
934.594	5793.1
934.902	5711.52
935.21	5692.99
935.519	5688.69
935.827	5621.58
936.135	5595.36
936.443	5578.19
936.751	5601.24
937.059	5573.44
937.367	5517.62
937.674	5534.12
937.982	5491.86
938.29	5431.52
938.597	5448.25
938.905	5425.42
939.213	5419.77
939.52	5337.29
939.827	5366.44
940.135	5299.55
940.442	5281.7
940.749	5310.17
941.056	5273.11
941.363	5183.85
941.67	5244.18
941.977	5191.53
942.284	5142.72
942.591	5153.11
942.898	5095.71
943.205	5098.2
943.511	5067.69
943.818	5089.61
944.125	4993.57
944.431	5025.43
944.738	5061.59
945.044	4921.93
945.35	4965.55
945.657	4926.68
945.963	4943.85
946.269	4850.07
946.575	4844.19
946.881	4845.78
947.187	4843.06
947.493	4793.57
947.799	4831.54
948.105	4724.88
948.41	4723.75
948.716	4725.33
949.022	4728.27
949.327	4682.39
949.633	4628.83
949.938	4643.07
950.244	4655.5
950.549	4565.33
950.854	4582.51
951.16	4587.03
951.465	4582.28
951.77	4505.22
952.075	4500.7
952.38	4502.06
952.685	4517.42
952.99	4405.79
953.294	4436.97
953.599	4398.33
953.904	4383.19
954.209	4321.95
954.513	4380.48
954.818	4357.43
955.122	4298.22
955.426	4275.85
955.731	4309.07
956.035	4293.25
956.339	4230.88
956.643	4235.4
956.948	4171.22
957.252	4164.44
957.556	4148.85
957.86	4118.34
958.163	4118.79
958.467	4086.02
958.771	4133.03
959.075	4105.23
959.378	4040.37
959.682	4036.31
959.985	4025.01
960.289	4031.56
960.592	3946.82
960.896	3994.05
961.199	3952.92
961.502	3916.54
961.805	3918.57
962.108	3874.28
962.411	3861.4
962.714	3887.16
963.017	3860.27
963.32	3875.41
963.623	3816.2
963.926	3831.57
964.228	3802.41
964.531	3780.49
964.833	3780.04
965.136	3760.61
965.438	3715.18
965.741	3738.46
966.043	3700.5
966.345	3650.33
966.648	3643.77
966.95	3646.49
967.252	3616.43
967.554	3604.45
967.856	3564.45
968.158	3574.4
968.46	3563.1
968.761	3525.59
969.063	3489.43
969.365	3515.87
969.666	3483.55
969.968	3493.5
970.269	3448.75
970.571	3464.8
970.872	3446.72
971.174	3436.55
971.475	3426.15
971.776	3399.26
972.077	3385.7
972.378	3408.07
972.679	3391.8
972.98	3371.24
973.281	3340.96
973.582	3302.09
973.883	3296.89
974.183	3292.82
974.484	3273.61
974.785	3266.61
975.085	3240.62
975.386	3253.5
975.686	3225.03
975.986	3174.63
976.287	3198.36
976.587	3177.57
976.887	3186.84
977.187	3110.91
977.487	3138.48
977.787	3146.84
978.087	3087.86
978.387	3093.05
978.687	3070.23
978.987	3052.38
979.286	3025.94
979.586	3055.99
979.885	3003.79
980.185	2995.2
980.484	2971.25
980.784	2987.97
981.083	2999.95
981.382	2959.72
981.682	2948.65
981.981	2933.28
982.28	2919.95
982.579	2901.42
982.878	2920.4
983.177	2881.99
983.475	2886.96
983.774	2860.07
984.073	2837.47
984.372	2823.91
984.67	2818.71
984.969	2803.12
985.267	2785.49
985.566	2755.21
985.864	2746.62
986.162	2730.8
986.461	2723.57
986.759	2719.28
987.057	2691.93
987.355	2700.75
987.653	2667.53
987.951	2669.34
988.249	2653.29
988.547	2677.92
988.844	2633.41
989.142	2625.95
989.44	2616.46
989.737	2610.81
990.035	2604.48
990.332	2588.43
990.63	2578.49
990.927	2551.83
991.224	2544.14
991.521	2518.15
991.819	2501.88
992.116	2525.61
992.413	2491.49
992.71	2478.83
993.006	2445.84
993.303	2466.4
993.6	2456.23
993.897	2445.61
994.193	2452.85
994.49	2394.77
994.787	2418.27
995.083	2372.17
995.379	2370.59
995.676	2349.35
995.972	2361.77
996.268	2344.6
996.565	2305.5
996.861	2295.34
997.157	2320.87
997.453	2315.9
997.749	2291.27
998.044	2254.88
998.34	2278.84
998.636	2234.77
998.932	2226.18
999.227	2255.56
999.523	2213.3
999.818	2206.98
1000.114	2197.26
1000.409	2178.05
1000.704	2172.4
1001	2134.89
1001.295	2188.9
1001.59	2136.92
1001.885	2113.42
1002.18	2113.87
1002.475	2102.35
1002.77	2076.81
1003.065	2069.35
1003.359	2067.54
1003.654	2061.44
1003.949	2054.89
1004.243	2034.55
1004.538	2035.45
1004.832	1997.04
1005.127	1986.64
1005.421	1971.05
1005.715	1979.19
1006.009	1972.86
1006.304	1946.64
1006.598	1969.92
1006.892	1947.32
1007.186	1907.77
1007.48	1951.39
1007.773	1894.44
1008.067	1881.11
1008.361	1877.49
1008.655	1858.74
1008.948	1884.27
1009.242	1850.6
1009.535	1837.72
1009.829	1822.13
1010.122	1799.08
1010.415	1817.16
1010.708	1775.57
1011.001	1797.04
1011.295	1742.58
1011.588	1765.63
1011.881	1766.76
1012.173	1769.47
1012.466	1723.37
1012.759	1734.9
1013.052	1719.31
1013.344	1695.8
1013.637	1708.23
1013.93	1692.87
1014.222	1670.72
1014.514	1678.4
1014.807	1661.45
1015.099	1644.5
1015.391	1646.31
1015.683	1623.94
1015.976	1620.78
1016.268	1591.4
1016.56	1611.51
1016.851	1556.15
1017.143	1558.18
1017.435	1585.52
1017.727	1535.13
1018.018	1544.62
1018.31	1525.19
1018.602	1525.86
1018.893	1524.51
1019.185	1523.15
1019.476	1503.49
1019.767	1509.82
1020.058	1486.32
1020.35	1483.83
1020.641	1470.27
1020.932	1452.87
1021.223	1408.35
1021.514	1426.66
1021.804	1407.67
1022.095	1399.09
1022.386	1397.05
1022.677	1389.37
1022.967	1364.06
1023.258	1358.86
1023.548	1361.35
1023.839	1372.2
1024.129	1351.86
1024.419	1334.91
1024.709	1331.97
1025	1307.56
1025.29	1308.92
1025.58	1311.18
1025.87	1277.28
1026.16	1301.24
1026.449	1265.98
1026.739	1277.73
1027.029	1259.2
1027.319	1268.02
1027.608	1254.01
1027.898	1240.67
1028.187	1239.09
1028.477	1219.43
1028.766	1207.68
1029.055	1191.41
1029.344	1203.61
1029.634	1204.52
1029.923	1189.83
1030.212	1156.38
1030.501	1170.17
1030.79	1172.43
1031.078	1150.51
1031.367	1124.74
1031.656	1138.53
1031.945	1120.22
1032.233	1149.6
1032.522	1109.38
1032.81	1105.76
1033.099	1089.04
1033.387	1096.27
1033.675	1096.95
1033.963	1116.38
1034.251	1092.2
1034.54	1080
1034.828	1077.97
1035.116	1054.69
1035.403	1040
1035.691	1047.46
1035.979	1023.96
1036.267	1036.39
1036.554	1006.56
1036.842	1006.78
1037.129	1005.65
1037.417	1000
1037.704	1016.5
1037.992	1009.04
1038.279	981.47
1038.566	965.2
1038.853	965.2
1039.14	965.2
