Data from hue_130_FLMS001491_00062.txt Node
Date: Tue Feb 07 16:57:55 GMT 2017
User: dcchb
Spectrometer: FLMS00149
Trigger mode: 0
Integration Time (sec): 2.000000E-2
Scans to average: 10
Electric dark correction enabled: true
Nonlinearity correction enabled: false
Boxcar width: 0
XAxis mode: Wavelengths
Number of Pixels in Spectrum: 2048
>>>>>Begin Spectral Data<<<<<
341.393	4.31
341.776	4.31
342.16	4.31
342.543	-56.71
342.927	-75.92
343.31	-73.2
343.693	-63.49
344.077	-76.59
344.46	-53.09
344.843	-53.09
345.226	-29.82
345.61	-34.56
345.993	-0.66
346.376	-26.2
346.759	17.87
347.142	14.93
347.525	45.21
347.908	57.87
348.291	84.76
348.674	79.11
349.057	110.97
349.44	128.37
349.823	141.25
350.206	164.3
350.588	196.17
350.971	204.3
351.354	202.04
351.737	235.26
352.119	242.72
352.502	263.74
352.884	264.64
353.267	278.42
353.65	311.64
354.032	286.11
354.414	297.41
354.797	304.64
355.179	308.25
355.562	322.04
355.944	329.95
356.326	346.9
356.709	326.11
357.091	348.93
357.473	326.56
357.855	332.43
358.238	333.79
358.62	336.73
359.002	328.14
359.384	342.83
359.766	326.11
360.148	374.02
360.53	348.48
360.912	336.05
361.294	322.27
361.676	344.41
362.057	328.14
362.439	310.74
362.821	318.2
363.203	298.99
363.584	336.28
363.966	346.45
364.348	348.48
364.729	341.47
365.111	315.03
365.493	311.42
365.874	319.1
366.256	335.37
366.637	328.37
367.019	307.58
367.4	317.52
367.781	325.88
368.163	314.81
368.544	329.72
368.925	299.89
369.306	314.58
369.688	308.48
370.069	329.05
370.45	305.77
370.831	288.59
371.212	312.77
371.593	315.71
371.974	299.44
372.355	321.14
372.736	326.11
373.117	317.52
373.498	332.43
373.879	310.06
374.26	303.06
374.641	321.36
375.021	294.47
375.402	322.49
375.783	327.01
376.163	343.73
376.544	338.99
376.925	330.4
377.305	327.92
377.686	336.05
378.066	338.99
378.447	321.14
378.827	349.16
379.208	324.53
379.588	348.03
379.968	342.6
380.349	332.66
380.729	332.89
381.109	330.85
381.489	359.33
381.87	344.41
382.25	328.82
382.63	331.76
383.01	353.23
383.39	350.51
383.77	345.77
384.15	344.64
384.53	350.29
384.91	346.45
385.29	342.83
385.67	369.72
386.049	393.9
386.429	361.13
386.809	370.63
387.189	392.32
387.568	360.23
387.948	363.17
388.328	361.81
388.707	356.16
389.087	358.65
389.466	382.83
389.846	372.43
390.225	387.12
390.605	360
390.984	367.46
391.363	383.05
391.743	370.17
392.122	369.27
392.501	394.13
392.881	362.26
393.26	373.11
393.639	379.21
394.018	375.15
394.397	381.02
394.776	397.97
395.155	397.29
395.534	390.29
395.913	381.92
396.292	380.34
396.671	399.33
397.05	413.11
397.429	413.56
397.808	407.91
398.186	399.1
398.565	402.72
398.944	414.69
399.323	406.78
399.701	410.4
400.08	423.28
400.458	414.01
400.837	411.98
401.215	423.73
401.594	399.78
401.972	429.38
402.351	402.94
402.729	417.86
403.107	433.68
403.486	434.8
403.864	444.07
404.242	416.5
404.62	430.51
404.999	444.75
405.377	451.53
405.755	463.05
406.133	440.68
406.511	464.18
406.889	458.76
407.267	451.53
407.645	473.22
408.023	462.83
408.401	470.96
408.779	483.17
409.156	449.04
409.534	447.01
409.912	460.79
410.29	469.83
410.667	485.88
411.045	495.37
411.422	467.57
411.8	484.75
412.178	484.07
412.555	499.44
412.933	494.24
413.31	506.44
413.687	483.84
414.065	510.74
414.442	508.93
414.819	526.1
415.197	512.32
415.574	536.05
415.951	511.19
416.328	518.87
416.705	515.25
417.082	530.62
417.46	522.71
417.837	524.29
418.214	516.84
418.591	541.02
418.967	535.59
419.344	549.38
419.721	557.29
420.098	553.45
420.475	570.39
420.852	565.65
421.228	588.47
421.605	580.11
421.982	587.34
422.358	557.51
422.735	585.99
423.111	576.95
423.488	584.63
423.864	606.1
424.241	598.42
424.617	593.22
424.994	600.68
425.37	599.32
425.746	620.79
426.123	612.88
426.499	639.32
426.875	631.64
427.251	639.55
427.627	629.6
428.003	662.6
428.379	656.04
428.756	680
429.132	654.23
429.507	674.12
429.883	647
430.259	672.54
430.635	689.04
431.011	693.33
431.387	695.59
431.763	689.26
432.138	712.54
432.514	729.71
432.89	710.5
433.265	719.09
433.641	736.72
434.016	730.39
434.392	742.14
434.767	747.34
435.143	769.26
435.518	758.41
435.894	744.63
436.269	778.07
436.644	792.99
437.02	800.22
437.395	815.13
437.77	829.82
438.145	804.06
438.52	824.17
438.895	814.46
439.271	812.42
439.646	852.42
440.021	850.84
440.395	849.03
440.77	821.01
441.145	864.17
441.52	881.57
441.895	879.31
442.27	869.6
442.645	865.98
443.019	910.5
443.394	890.39
443.769	896.26
444.143	889.48
444.518	888.8
444.892	902.36
445.267	909.82
445.641	936.94
446.016	953.89
446.39	941.23
446.764	945.98
447.139	942.36
447.513	975.13
447.887	962.47
448.262	954.79
448.636	960.89
449.01	979.2
449.384	973.77
449.758	979.88
450.132	1010.61
450.506	987.11
450.88	996.82
451.254	1006.09
451.628	1018.74
452.002	1029.59
452.376	1007.22
452.75	1038.4
453.123	1048.35
453.497	1074.34
453.871	1069.59
454.244	1090.61
454.618	1131.06
454.992	1130.38
455.365	1131.96
455.739	1132.64
456.112	1153.66
456.486	1162.7
456.859	1167.67
457.232	1177.38
457.606	1200.89
457.979	1203.6
458.352	1235.46
458.725	1235.91
459.099	1254.9
459.472	1284.95
459.845	1296.7
460.218	1305.06
460.591	1308.68
460.964	1329.92
461.337	1355.23
461.71	1381.45
462.083	1378.96
462.456	1417.15
462.829	1399.98
463.201	1425.29
463.574	1446.53
463.947	1437.94
464.32	1489.01
464.692	1520.43
465.065	1535.12
465.438	1537.37
465.81	1579.86
466.183	1614.66
466.555	1609.69
466.928	1637.71
467.3	1640.42
467.672	1660.76
468.045	1713.19
468.417	1716.58
468.789	1759.29
469.161	1789.57
469.534	1800.64
469.906	1856.24
470.278	1867.31
470.65	1908.66
471.022	1947.53
471.394	2003.8
471.766	1994.09
472.138	2056.01
472.51	2101.65
472.882	2095.1
473.253	2172.61
473.625	2205.61
473.997	2265.94
474.369	2288.32
474.74	2338.48
475.112	2416.67
475.484	2465.94
475.855	2550.46
476.227	2564.47
476.598	2643.79
476.97	2689.21
477.341	2751.58
477.713	2833.84
478.084	2887.4
478.455	2979.82
478.827	3054.85
479.198	3145.24
479.569	3197.67
479.94	3329.19
480.311	3356.31
480.682	3444.22
481.053	3574.84
481.424	3687.15
481.795	3740.48
482.166	3839.46
482.537	3913.13
482.908	4013.92
483.279	4120.36
483.65	4258.89
484.021	4439.67
484.391	4459.11
484.762	4597.18
485.133	4685.54
485.503	4791.75
485.874	4989.49
486.244	5043.72
486.615	5207.11
486.985	5308.35
487.356	5500.66
487.726	5636.02
488.097	5702.92
488.467	5829.92
488.837	5997.37
489.207	6172.28
489.578	6276.46
489.948	6396
490.318	6582.21
490.688	6711.7
491.058	6820.63
491.428	6926.16
491.798	7095.87
492.168	7357.11
492.538	7441.85
492.908	7575.63
493.278	7744.44
493.648	7809.98
494.017	8030.54
494.387	8174.49
494.757	8284.09
495.126	8420.36
495.496	8482.95
495.866	8666.45
496.235	8848.6
496.605	8903.06
496.974	9031.87
497.344	9123.62
497.713	9296.94
498.082	9398.64
498.452	9586.65
498.821	9688.8
499.19	9747.78
499.559	9872.3
499.928	9991.62
500.298	10067.55
500.667	10251.04
501.036	10322.23
501.405	10416.46
501.774	10537.36
502.143	10626.85
502.512	10730.81
502.88	10811.48
503.249	10858.26
503.618	10938.71
503.987	11027.07
504.356	11098.25
504.724	11251.92
505.093	11285.37
505.462	11371.69
505.83	11415.53
506.199	11628.41
506.567	11776.65
506.936	11730.78
507.304	11891.9
507.672	11991.56
508.041	11931
508.409	12189.75
508.777	12281.73
509.145	12250.77
509.514	12229.3
509.882	12383.19
510.25	12435.39
510.618	12476.3
510.986	12492.57
511.354	12678.55
511.722	12813.24
512.09	12823.63
512.458	12831.77
512.826	12983.63
513.193	12953.12
513.561	12977.3
513.929	13126
514.297	13183.4
514.664	13220.01
515.032	13237.41
515.4	13309.95
515.767	13382.49
516.135	13345.2
516.502	13321.25
516.869	13542.26
517.237	13555.14
517.604	13475.14
517.972	13604.4
518.339	13660.45
518.706	13561.92
519.073	13667
519.44	13738.86
519.808	13841.23
520.175	13847.56
520.542	13910.61
520.909	14051.62
521.276	14017.05
521.643	14147.89
522.009	14080.55
522.376	14055.46
522.743	14184.05
523.11	14259.3
523.477	14374.33
523.843	14362.35
524.21	14344.27
524.577	14511.72
524.943	14511.5
525.31	14498.39
525.676	14597.37
526.043	14671.04
526.409	14601.21
526.776	14760.76
527.142	14705.39
527.508	14681.44
527.874	14806.86
528.241	14751.04
528.607	14827.19
528.973	14857.7
529.339	14744.49
529.705	14895.89
530.071	14896.35
530.437	14934.76
530.803	14885.5
531.169	14925.95
531.535	14855.44
531.901	14894.31
532.267	14949.23
532.632	14909
532.998	14950.58
533.364	14889.11
533.73	14878.94
534.095	14986.74
534.461	15011.82
534.826	14957.13
535.192	15011.14
535.557	14979.73
535.923	14923.92
536.288	14921.2
536.653	14928.21
537.019	14886.63
537.384	14815.67
537.749	14903.13
538.114	14758.27
538.479	14803.24
538.845	14781.55
539.21	14731.15
539.575	14713.07
539.94	14714.43
540.305	14735.67
540.67	14610.93
541.034	14761.43
541.399	14652.74
541.764	14523.7
542.129	14511.27
542.494	14534.55
542.858	14523.93
543.223	14467.88
543.587	14500.88
543.952	14387.66
544.316	14458.84
544.681	14415.45
545.045	14384.95
545.41	14340.2
545.774	14297.27
546.138	14260.43
546.503	14303.14
546.867	14290.26
547.231	14327.77
547.595	14220.43
547.959	14158.96
548.324	14093.65
548.688	14094.11
549.052	14135.24
549.416	14031.96
549.779	14102.24
550.143	13986.31
550.507	13995.35
550.871	14047.78
551.235	13909.25
551.599	13972.75
551.962	13923.94
552.326	13919.2
552.689	13893.43
553.053	13786.77
553.417	13824.96
553.78	13855.24
554.143	13763.49
554.507	13787.22
554.87	13785.19
555.234	13897.05
555.597	13786.32
555.96	13762.59
556.323	13824.28
556.686	13693.44
557.05	13745.87
557.413	13764.85
557.776	13759.2
558.139	13843.94
558.502	13760.56
558.865	13776.6
559.228	13848.92
559.59	13825.64
559.953	13777.28
560.316	13912.87
560.679	13820.89
561.041	13785.19
561.404	13933.43
561.767	13812.76
562.129	13754
562.492	13931.63
562.854	13809.37
563.217	13810.5
563.579	13901.57
563.941	13872.64
564.304	13838.29
564.666	13878.75
565.028	13911.06
565.39	13994.9
565.753	14012.53
566.115	13972.98
566.477	13943.38
566.839	13969.59
567.201	14019.08
567.563	14029.93
567.925	14113.32
568.287	14067.21
568.648	14022.02
569.01	14120.55
569.372	14222.24
569.734	14099.08
570.095	14154.67
570.457	14198.96
570.819	14201.45
571.18	14246.42
571.542	14245.74
571.903	14193.54
572.265	14248.91
572.626	14356.92
572.987	14318.73
573.349	14409.35
573.71	14373.87
574.071	14373.42
574.432	14373.87
574.794	14478.28
575.155	14431.27
575.516	14349.69
575.877	14392.4
576.238	14443.7
576.599	14411.16
576.96	14340.43
577.32	14411.39
577.681	14518.73
578.042	14484.38
578.403	14518.28
578.763	14437.37
579.124	14509.46
579.485	14494.32
579.845	14491.61
580.206	14511.95
580.566	14472.85
580.927	14585.85
581.287	14476.47
581.648	14431.5
582.008	14556.47
582.368	14474.89
582.728	14598.05
583.089	14480.99
583.449	14445.51
583.809	14534.77
584.169	14583.81
584.529	14485.06
584.889	14577.71
585.249	14418.39
585.609	14468.79
585.969	14489.8
586.329	14426.08
586.688	14418.62
587.048	14441.44
587.408	14359.41
587.768	14344.95
588.127	14371.39
588.487	14282.8
588.846	14394.44
589.206	14344.27
589.565	14332.07
589.925	14420.88
590.284	14387.66
590.643	14299.98
591.003	14285.29
591.362	14347.66
591.721	14272.63
592.08	14271.96
592.44	14269.7
592.799	14332.29
593.158	14284.84
593.517	14309.69
593.876	14263.82
594.235	14258.17
594.593	14204.84
594.952	14339.07
595.311	14229.92
595.67	14228.34
596.029	14237.83
596.387	14301.78
596.746	14250.26
597.104	14226.08
597.463	14220.66
597.822	14233.54
598.18	14171.84
598.538	14224.27
598.897	14330.94
599.255	14165.29
599.613	14339.75
599.972	14209.13
600.33	14212.75
600.688	14213.88
601.046	14266.08
601.404	14325.74
601.762	14219.53
602.12	14344.95
602.478	14309.69
602.836	14322.12
603.194	14280.99
603.552	14215.23
603.91	14178.17
604.268	14279.86
604.625	14239.87
604.983	14300.2
605.341	14219.98
605.698	14265.4
606.056	14374.78
606.413	14295.23
606.771	14280.54
607.128	14322.58
607.485	14213.65
607.843	14305.4
608.2	14373.87
608.557	14391.73
608.914	14382.91
609.272	14368.9
609.629	14414.78
609.986	14438.28
610.343	14382.23
610.7	14416.81
611.057	14395.34
611.414	14396.92
611.771	14443.7
612.127	14504.72
612.484	14487.09
612.841	14577.71
613.198	14492.97
613.554	14474.89
613.911	14527.99
614.267	14532.29
614.624	14455
614.98	14467.2
615.337	14580.2
615.693	14637.37
616.05	14616.8
616.406	14636.47
616.762	14594.21
617.118	14483.7
617.475	14599.86
617.831	14703.58
618.187	14683.7
618.543	14651.15
618.899	14763.92
619.255	14773.64
619.611	14652.96
619.967	14782.45
620.323	14710.36
620.678	14631.27
621.034	14636.92
621.39	14616.58
621.746	14631.49
622.101	14798.27
622.457	14699.74
622.812	14695.9
623.168	14788.78
623.523	14660.19
623.879	14790.13
624.234	14639.4
624.589	14735.67
624.945	14696.8
625.3	14663.13
625.655	14746.29
626.01	14785.84
626.365	14745.62
626.72	14640.31
627.075	14759.4
627.43	14706.97
627.785	14684.83
628.14	14662.68
628.495	14693.87
628.85	14718.72
629.205	14685.5
629.559	14770.93
629.914	14660.42
630.269	14576.81
630.623	14617.26
630.978	14572.29
631.332	14585.17
631.687	14684.6
632.041	14558.95
632.396	14536.13
632.75	14538.16
633.104	14534.55
633.459	14446.41
633.813	14491.38
634.167	14500.65
634.521	14465.85
634.875	14426.53
635.229	14448.67
635.583	14390.82
635.937	14388.79
636.291	14426.3
636.645	14392.86
636.999	14376.81
637.352	14418.84
637.706	14303.82
638.06	14331.16
638.413	14314.21
638.767	14281.67
639.121	14316.7
639.474	14217.04
639.828	14218.62
640.181	14206.87
640.534	14193.99
640.888	14154.22
641.241	14144.95
641.594	14163.48
641.947	14209.81
642.301	14143.82
642.654	14196.48
643.007	14172.3
643.36	14117.16
643.713	14138.17
644.066	14125.52
644.419	14045.52
644.771	13887.33
645.124	13787.9
645.477	13868.12
645.83	13730.27
646.182	13669.49
646.535	13644.4
646.888	13669.26
647.24	13671.52
647.593	13705.64
647.945	13526.44
648.298	13512.88
648.65	13559.21
649.002	13517.85
649.355	13596.27
649.707	13579.77
650.059	13697.51
650.411	13756.49
650.763	13847.33
651.115	13898.86
651.467	13901.12
651.819	13878.29
652.171	13856.6
652.523	13837.39
652.875	13820.22
653.227	13774.34
653.578	13933.43
653.93	13876.26
654.282	13816.15
654.633	13765.08
654.985	13912.19
655.337	13901.8
655.688	13869.93
656.039	13930.95
656.391	13834.68
656.742	13912.87
657.094	13864.28
657.445	13934.34
657.796	13905.41
658.147	13841.23
658.498	13922.81
658.849	13871.06
659.2	13889.82
659.551	13896.37
659.902	13874.23
660.253	13969.82
660.604	13931.63
660.955	13912.42
661.306	13836.71
661.656	13863.15
662.007	13864.73
662.358	13930.27
662.708	13941.57
663.059	13841.23
663.409	13774.57
663.76	13959.2
664.11	13855.7
664.461	13973.43
664.811	13948.35
665.161	13866.99
665.511	13871.51
665.862	13946.77
666.212	13881.46
666.562	13963.04
666.912	13914.9
667.262	13815.02
667.612	13920.1
667.962	13896.15
668.312	13965.75
668.662	14000.78
669.011	13897.28
669.361	13909.93
669.711	13915.35
670.06	13872.19
670.41	13807.33
670.76	13882.59
671.109	13904.96
671.459	13964.84
671.808	13792.19
672.157	13841.91
672.507	13768.69
672.856	13734.79
673.205	13827.22
673.554	13863.38
673.904	13867.67
674.253	13831.29
674.602	13804.17
674.951	13565.76
675.3	13490.73
675.649	13700.67
675.998	13779.76
676.346	13804.17
676.695	13799.65
677.044	13634.23
677.393	13713.1
677.741	13731.4
678.09	13638.98
678.438	13687.11
678.787	13629.71
679.135	13578.19
679.484	13573.89
679.832	13557.85
680.181	13557.17
680.529	13534.57
680.877	13431.75
681.225	13487.34
681.573	13550.84
681.922	13411.64
682.27	13293.68
682.618	13414.8
682.966	13272.21
683.314	13341.13
683.661	13280.34
684.009	13236.5
684.357	13236.73
684.705	13229.95
685.053	13323.28
685.4	13222.72
685.748	13118.99
686.095	13099.56
686.443	13049.16
686.79	13096.84
687.138	13029.5
687.485	13102.95
687.832	12932.33
688.18	12922.16
688.527	12865.21
688.874	12867.25
689.221	12851.2
689.568	12836.51
689.915	12798.1
690.262	12697.53
690.609	12744.31
690.956	12679.45
691.303	12613.69
691.65	12604.88
691.997	12568.72
692.344	12473.58
692.69	12499.12
693.037	12509.52
693.383	12427.48
693.73	12424.09
694.077	12336.41
694.423	12269.07
694.769	12293.93
695.116	12214.83
695.462	12248.28
695.808	12133.25
696.155	12227.04
696.501	12051.22
696.847	12082.41
697.193	11942.07
697.539	11978.46
697.885	11860.95
698.231	11865.92
698.577	11878.35
698.923	11815.52
699.269	11786.14
699.614	11745.24
699.96	11663.89
700.306	11649.88
700.651	11565.81
700.997	11484.46
701.342	11553.61
701.688	11537.34
702.033	11439.94
702.379	11408.08
702.724	11369.21
703.069	11376.89
703.415	11285.37
703.76	11277.46
704.105	11259.38
704.45	11207.63
704.795	11235.2
705.14	11105.26
705.485	11173.51
705.83	11027.75
706.175	11091.47
706.52	11006.96
706.865	10983
707.209	10872.72
707.554	10978.93
707.899	10887.19
708.243	10839.96
708.588	10863.01
708.932	10743.23
709.277	10832.27
709.621	10790.46
709.966	10684.03
710.31	10735.1
710.654	10649.45
710.998	10623.24
711.342	10609.45
711.687	10584.59
712.031	10520.42
712.375	10588.44
712.719	10472.51
713.063	10489
713.407	10515.44
713.75	10521.55
714.094	10476.8
714.438	10377.14
714.782	10420.98
715.125	10267.31
715.469	10404.26
715.812	10347.99
716.156	10341.21
716.499	10344.83
716.843	10247.88
717.186	10175.79
717.53	10258.28
717.873	10278.61
718.216	10228.45
718.559	10196.58
718.902	10154.78
719.246	10137.83
719.589	10169.46
719.932	10076.81
720.275	10115.91
720.617	10068.22
720.96	9995.01
721.303	10103.93
721.646	10091.5
721.989	10018.28
722.331	10100.31
722.674	9989.13
723.016	10002.46
723.359	9987.77
723.701	9986.42
724.044	9899.19
724.386	9835.46
724.729	9924.72
725.071	9894.22
725.413	9885.4
725.755	9906.42
726.097	9809.25
726.439	9883.6
726.782	9801.56
727.124	9832.52
727.465	9853.09
727.807	9765.86
728.149	9812.64
728.491	9779.64
728.833	9775.8
729.175	9778.06
729.516	9787.1
729.858	9773.77
730.199	9761.79
730.541	9721.79
730.882	9758.85
731.224	9746.2
731.565	9744.62
731.906	9818.96
732.248	9727.89
732.589	9738.52
732.93	9646.99
733.271	9732.41
733.612	9663.49
733.953	9764.73
734.294	9734
734.635	9691.28
734.976	9711.17
735.317	9687.89
735.658	9684.73
735.999	9749.14
736.339	9687.89
736.68	9724.28
737.021	9665.52
737.361	9672.3
737.702	9734
738.042	9801.11
738.383	9704.62
738.723	9712.98
739.063	9747.78
739.404	9803.15
739.744	9753.66
740.084	9738.29
740.424	9735.58
740.764	9771.51
741.104	9796.82
741.444	9824.16
741.784	9684.51
742.124	9787.55
742.464	9812.86
742.804	9887.66
743.143	9832.3
743.483	9897.61
743.823	9844.73
744.162	9884.73
744.502	10023.25
744.841	9887.44
745.181	10091.27
745.52	9985.29
745.86	10145.96
746.199	10093.53
746.538	10181.89
746.877	10205.85
747.216	10206.3
747.556	10218.05
747.895	10293.3
748.234	10304.15
748.573	10419.85
748.911	10418.27
749.25	10514.31
749.589	10580.75
749.928	10670.47
750.267	10714.99
750.605	10769.9
750.944	10855.1
751.283	10892.84
751.621	10956.56
751.96	11000.4
752.298	11167.4
752.636	11256.22
752.975	11299.6
753.313	11421.63
753.651	11542.76
753.989	11601.97
754.327	11680.38
754.666	11754.96
755.004	11932.81
755.342	12143.2
755.679	12212.8
756.017	12303.19
756.355	12460.48
756.693	12522.17
757.031	12695.27
757.368	12868.38
757.706	12973.23
758.044	13083.74
758.381	13302.94
758.719	13461.13
759.056	13649.82
759.394	13678.07
759.731	13775.7
760.068	13976.14
760.405	14083.71
760.743	14276.93
761.08	14500.42
761.417	14513.08
761.754	14822
762.091	14923.24
762.428	15066.74
762.765	15158.94
763.102	15426.05
763.438	15537.46
763.775	15647.51
764.112	15867.39
764.449	15965.02
764.785	16098.35
765.122	16289.76
765.458	16377.66
765.795	16508.28
766.131	16673.25
766.467	16811.55
766.804	16884.09
767.14	17001.6
767.476	17183.29
767.812	17345.77
768.148	17426
768.485	17468.93
768.821	17637.52
769.157	17795.25
769.492	17888.13
769.828	18048.35
770.164	18085.64
770.5	18200.44
770.836	18336.48
771.171	18348.46
771.507	18457.16
771.842	18589.36
772.178	18670.48
772.513	18715.68
772.849	18752.06
773.184	18777.37
773.519	18930.36
773.855	18872.74
774.19	18926.75
774.525	19085.39
774.86	19178.94
775.195	19202.45
775.53	19273.18
775.865	19284.93
776.2	19246.29
776.535	19263.69
776.87	19380.52
777.205	19435.89
777.539	19343.91
777.874	19527.18
778.209	19383.69
778.543	19415.32
778.878	19447.64
779.212	19498.03
779.547	19497.58
779.881	19656.9
780.215	19637.92
780.55	19609.67
780.884	19444.47
781.218	19562.44
781.552	19629.55
781.886	19604.02
782.22	19500.74
782.554	19544.81
782.888	19458.26
783.222	19430.69
783.556	19423.23
783.889	19370.35
784.223	19256.68
784.557	19402.67
784.89	19395.89
785.224	19331.26
785.557	19247.64
785.891	19191.83
786.224	19245.61
786.558	19328.32
786.891	19155.22
787.224	19157.48
787.557	19158.61
787.891	19154.76
788.224	19162
788.557	19193.18
788.89	19072.51
789.223	19204.03
789.556	18976.01
789.888	18971.49
790.221	18914.55
790.554	18818.5
790.887	18871.83
791.219	18764.04
791.552	18735.79
791.884	18746.87
792.217	18623.03
792.549	18681.1
792.882	18634.55
793.214	18472.52
793.546	18547.55
793.879	18419.64
794.211	18483.14
794.543	18498.96
794.875	18470.26
795.207	18499.87
795.539	18392.75
795.871	18430.04
796.203	18291.51
796.535	18199.31
796.867	18133.1
797.198	18087.45
797.53	18155.69
797.862	18008.81
798.193	18061.23
798.525	17993.67
798.856	17990.95
799.188	17814.91
799.519	17801.58
799.85	17703.5
800.182	17789.15
800.513	17837.29
800.844	17533.34
801.175	17609.27
801.506	17692.88
801.837	17599.78
802.168	17537.18
802.499	17405.66
802.83	17466.22
803.161	17356.39
803.491	17362.27
803.822	17243.85
804.153	17186.45
804.483	17133.35
804.814	17057.42
805.145	17108.26
805.475	17119.11
805.805	17023.07
806.136	16948.5
806.466	16982.62
806.796	17033.24
807.126	16936.07
807.457	16797.76
807.787	16899
808.117	16748.73
808.447	16687.48
808.777	16766.35
809.107	16696.07
809.436	16639.8
809.766	16581.05
810.096	16520.94
810.426	16410.88
810.755	16473.25
811.085	16419.47
811.414	16463.76
811.744	16297.66
812.073	16177.44
812.403	16245.01
812.732	16208.18
813.061	16210.66
813.39	16072.13
813.719	16063.32
814.049	16132.25
814.378	16090.21
814.707	16064.22
815.036	16010.44
815.365	15962.31
815.693	15794.4
816.022	15861.52
816.351	15824.91
816.68	15798.24
817.008	15859.94
817.337	15730.45
817.665	15688.42
817.994	15707.85
818.322	15662.65
818.651	15596.89
818.979	15719.15
819.307	15631.02
819.636	15590.56
819.964	15572.03
820.292	15676.66
820.62	15493.62
820.948	15465.14
821.276	15522.54
821.604	15431.92
821.932	15571.13
822.259	15484.58
822.587	15517.35
822.915	15442.77
823.243	15495.43
823.57	15447.74
823.898	15425.37
824.225	15447.97
824.553	15411.13
824.88	15467.18
825.207	15496.78
825.535	15402.55
825.862	15570
826.189	15413.39
826.516	15533.17
826.843	15492.49
827.17	15519.83
827.497	15528.65
827.824	15505.37
828.151	15541.07
828.478	15479.83
828.805	15575.88
829.131	15479.16
829.458	15471.25
829.785	15353.28
830.111	15319.39
830.438	15551.24
830.764	15448.2
831.09	15505.82
831.417	15366.84
831.743	15473.51
832.069	15351.7
832.395	15378.14
832.722	15380.85
833.048	15301.98
833.374	15413.17
833.7	15344.24
834.026	15325.94
834.351	15377.46
834.677	15335.2
835.003	15326.84
835.329	15237.13
835.654	15322.55
835.98	15218.15
836.306	15282.78
836.631	15223.57
836.956	15270.8
837.282	15167.3
837.607	15153.06
837.932	15111.03
838.258	15095.89
838.583	15198.71
838.908	15029.68
839.233	15095.66
839.558	14938.38
839.883	14996.68
840.208	14917.59
840.533	14939.51
840.858	14942.45
841.182	14974.08
841.507	14904.03
841.832	14833.52
842.156	14845.27
842.481	14838.27
842.805	14740.87
843.13	14752.39
843.454	14689.35
843.778	14623.81
844.103	14724.37
844.427	14630.82
844.751	14562.34
845.075	14450.48
845.399	14416.81
845.723	14437.15
846.047	14439.41
846.371	14267.44
846.695	14250.49
847.019	14213.43
847.343	14128.91
847.666	14086.65
847.99	14068.8
848.313	14030.83
848.637	13899.08
848.96	13913.77
849.284	13923.26
849.607	13759.43
849.931	13811.18
850.254	13629.26
850.577	13616.15
850.9	13455.93
851.223	13480.34
851.546	13515.82
851.869	13426.1
852.192	13396.72
852.515	13269.95
852.838	13216.84
853.161	13283.96
853.483	13103.62
853.806	13085.32
854.129	13100.23
854.451	12924.19
854.774	12898.43
855.096	12913.12
855.419	12898.66
855.741	12782.5
856.063	12796.06
856.385	12812.33
856.708	12716.97
857.03	12703.86
857.352	12678.32
857.674	12630.64
857.996	12587.71
858.318	12534.6
858.64	12534.37
858.961	12465.22
859.283	12456.18
859.605	12341.38
859.926	12355.4
860.248	12318.56
860.57	12372.57
860.891	12276.75
861.212	12259.35
861.534	12318.79
861.855	12151.33
862.176	12203.54
862.498	12124.67
862.819	12152.24
863.14	12083.76
863.461	12116.31
863.782	12067.49
864.103	12155.63
864.424	11952.92
864.745	12013.26
865.065	11930.55
865.386	11930.1
865.707	11912.92
866.027	11926.48
866.348	11869.31
866.668	11751.57
866.989	11841.06
867.309	11751.8
867.63	11755.19
867.95	11717.22
868.27	11658.92
868.59	11729.88
868.91	11650.56
869.23	11651.46
869.55	11633.83
869.87	11635.41
870.19	11588.41
870.51	11611.23
870.83	11618.47
871.15	11640.39
871.469	11556.09
871.789	11632.7
872.109	11536.89
872.428	11465.7
872.748	11518.81
873.067	11449.2
873.386	11492.82
873.706	11466.83
874.025	11317.68
874.344	11361.98
874.663	11295.99
874.982	11364.24
875.301	11295.31
875.62	11216.44
875.939	11240.62
876.258	11288.98
876.577	11252.83
876.896	11225.71
877.214	11204.92
877.533	11246.27
877.852	11148.42
878.17	11159.95
878.489	11144.58
878.807	11208.08
879.125	11085.82
879.444	11061.42
879.762	11062.32
880.08	11037.46
880.398	10979.61
880.716	11000.85
881.034	10998.14
881.352	10980.29
881.67	10978.26
881.988	11009.89
882.306	10912.5
882.624	10823.23
882.941	10729.9
883.259	10804.7
883.577	10727.64
883.894	10760.41
884.212	10784.36
884.529	10708.66
884.846	10698.49
885.164	10650.81
885.481	10688.55
885.798	10666.4
886.115	10641.09
886.432	10618.49
886.75	10591.15
887.067	10584.14
887.383	10527.65
887.7	10438.61
888.017	10468.89
888.334	10453.3
888.651	10413.75
888.967	10377.14
889.284	10357.26
889.6	10310.25
889.917	10215.11
890.233	10249.91
890.55	10234.55
890.866	10206.07
891.182	10176.02
891.498	10202.68
891.815	10125.85
892.131	10069.58
892.447	10029.35
892.763	9993.42
893.079	9970.6
893.395	10009.24
893.71	9949.36
894.026	9876.82
894.342	9889.92
894.657	9750.94
894.973	9726.76
895.289	9783.49
895.604	9672.08
895.92	9672.08
896.235	9654.68
896.55	9580.78
896.865	9578.75
897.181	9523.61
897.496	9540.33
897.811	9514.79
898.126	9489.26
898.441	9411.97
898.756	9430.5
899.071	9325.19
899.386	9356.83
899.7	9303.27
900.015	9192.99
900.33	9173.33
900.644	9117.29
900.959	9202.26
901.273	9127.01
901.588	9136.05
901.902	9046.1
902.216	9039.1
902.531	8999.33
902.845	8960.23
903.159	8917.75
903.473	8914.58
903.787	8855.15
904.101	8807.92
904.415	8843.4
904.729	8798.65
905.042	8731.08
905.356	8723.4
905.67	8693.8
905.984	8694.47
906.297	8623.97
906.611	8552.78
906.924	8538.77
907.237	8539.9
907.551	8544.65
907.864	8488.15
908.177	8475.05
908.491	8363.86
908.804	8330.87
909.117	8301.94
909.43	8262.62
909.743	8208.61
910.056	8155.05
910.368	8198.44
910.681	8086.81
910.994	8120.48
911.307	8045.23
911.619	7993.48
911.932	8012.01
912.244	7971.1
912.557	7960.93
912.869	7904.89
913.181	7862.86
913.494	7845.23
913.806	7805.23
914.118	7795.52
914.43	7747.16
914.742	7735.4
915.054	7653.37
915.366	7632.81
915.678	7621.06
915.99	7590.32
916.302	7540.61
916.613	7434.62
916.925	7540.15
917.236	7456.54
917.548	7417.45
917.859	7397.11
918.171	7358.01
918.482	7359.14
918.794	7303.32
919.105	7251.8
919.416	7270.78
919.727	7256.77
920.038	7177.45
920.349	7113.5
920.66	7128.64
920.971	7155.08
921.282	7073.73
921.593	7017.46
921.903	7003.45
922.214	6941.75
922.525	6982.88
922.835	6937.01
923.146	6872.15
923.456	6848.87
923.767	6800.29
924.077	6831.47
924.387	6759.16
924.697	6705.15
925.008	6715.77
925.318	6701.76
925.628	6688.88
925.938	6638.48
926.248	6556.9
926.558	6565.72
926.867	6534.76
927.177	6550.35
927.487	6499.05
927.796	6445.72
928.106	6432.84
928.416	6416.57
928.725	6428.09
929.034	6330.7
929.344	6403.69
929.653	6358.72
929.962	6287.31
930.271	6244.6
930.581	6226.07
930.89	6165.73
931.199	6137.93
931.508	6156.01
931.817	6199.63
932.125	6155.78
932.434	6090.25
932.743	6038.27
933.051	6026.75
933.36	6033.53
933.669	5986.98
933.977	5954.43
934.286	5965.28
934.594	6004.38
934.902	5886.41
935.21	5818.84
935.519	5835.34
935.827	5774.78
936.135	5798.96
936.443	5752.41
936.751	5772.07
937.059	5762.57
937.367	5711.28
937.674	5688.45
937.982	5654.1
938.29	5594.44
938.597	5615.69
938.905	5520.09
939.213	5563.48
939.52	5546.08
939.827	5552.18
940.135	5464.96
940.442	5472.19
940.749	5454.33
941.056	5383.38
941.363	5376.37
941.67	5322.59
941.977	5340.44
942.284	5289.37
942.591	5280.78
942.898	5256.83
943.205	5255.24
943.511	5217.5
943.818	5225.87
944.125	5186.32
944.431	5156.94
944.738	5106.32
945.044	5112.42
945.35	5096.83
945.657	5027.9
945.963	5068.58
946.269	5020.45
946.575	5036.72
946.881	4964.4
947.187	5002.14
947.493	4939.32
947.799	4950.17
948.105	4934.57
948.41	4851.19
948.716	4880.79
949.022	4852.99
949.327	4815.48
949.633	4732.09
949.938	4808.25
950.244	4794.01
950.549	4713.34
950.854	4711.53
951.16	4654.36
951.465	4690.74
951.77	4633.79
952.075	4634.47
952.38	4593.57
952.685	4630.4
952.99	4576.62
953.294	4516.28
953.599	4526.67
953.904	4529.84
954.209	4516.28
954.513	4450.74
954.818	4488.26
955.122	4420.69
955.426	4413.68
955.731	4407.81
956.035	4344.31
956.339	4370.52
956.643	4351.09
956.948	4317.87
957.252	4325.55
957.556	4307.7
957.86	4239.9
958.163	4237.19
958.467	4260.24
958.771	4228.15
959.075	4200.58
959.378	4146.12
959.682	4178.44
959.985	4124.65
960.289	4141.15
960.592	4121.26
960.896	4084.88
961.199	4056.86
961.502	4022.06
961.805	4012.34
962.108	3968.27
962.411	4035.61
962.714	4014.82
963.017	3967.59
963.32	3928.27
963.623	3933.7
963.926	3913.36
964.228	3851.21
964.531	3825.68
964.833	3858.22
965.136	3869.74
965.438	3843.08
965.741	3797.43
966.043	3800.82
966.345	3762.63
966.648	3783.87
966.95	3724.21
967.252	3719.46
967.554	3707.94
967.856	3684.66
968.158	3667.04
968.46	3626.81
968.761	3661.39
969.063	3619.35
969.365	3615.96
969.666	3579.36
969.968	3547.27
970.269	3567.6
970.571	3611.67
970.872	3549.53
971.174	3509.98
971.475	3484.67
971.776	3470.66
972.077	3447.83
972.378	3458.68
972.679	3471.34
972.98	3452.13
973.281	3383.43
973.582	3387.72
973.883	3375.52
974.183	3364.45
974.484	3370.55
974.785	3369.87
975.085	3328.97
975.386	3296.42
975.686	3275.18
975.986	3302.07
976.287	3276.99
976.587	3220.49
976.887	3232.92
977.187	3245.35
977.487	3193.6
977.787	3202.42
978.087	3181.4
978.387	3182.53
978.687	3145.92
978.987	3130.1
979.286	3107.5
979.586	3119.25
979.885	3104.79
980.185	3109.99
980.484	3067.28
980.784	3077.45
981.083	3062.08
981.382	3028.86
981.682	3004.45
981.981	3003.32
982.28	2959.71
982.579	2971.91
982.878	3013.72
983.177	2949.54
983.475	2945.93
983.774	2904.34
984.073	2877.45
984.372	2874.29
984.67	2887.4
984.969	2865.7
985.267	2860.5
985.566	2852.59
985.864	2844.69
986.162	2863.22
986.461	2789.55
986.759	2801.97
987.057	2775.53
987.355	2765.82
987.653	2772.37
987.951	2731.69
988.249	2765.82
988.547	2754.74
988.844	2728.08
989.142	2728.98
989.44	2690.11
989.737	2654.18
990.035	2668.19
990.332	2635.88
990.63	2634.75
990.927	2634.75
991.224	2584.58
991.521	2599.27
991.819	2595.88
992.116	2578.93
992.413	2547.97
992.71	2557.24
993.006	2571.92
993.303	2519.04
993.6	2527.41
993.897	2499.61
994.193	2472.04
994.49	2441.98
994.787	2464.58
995.083	2447.86
995.379	2420.29
995.676	2431.36
995.972	2434.3
996.268	2423.68
996.565	2389.78
996.861	2383.23
997.157	2375.09
997.453	2330.35
997.749	2324.7
998.044	2362.66
998.34	2317.24
998.636	2308.88
998.932	2321.54
999.227	2294.42
999.523	2275.43
999.818	2249.9
1000.114	2237.24
1000.409	2237.24
1000.704	2267.53
1001	2200.63
1001.295	2207.19
1001.59	2177.36
1001.885	2172.61
1002.18	2137.13
1002.475	2150.01
1002.77	2107.3
1003.065	2125.61
1003.359	2121.54
1003.654	2105.5
1003.949	2101.43
1004.243	2068.89
1004.538	2052.16
1004.832	2060.07
1005.127	2059.17
1005.421	2030.7
1005.715	2050.81
1006.009	2032.96
1006.304	1999.28
1006.598	1970.36
1006.892	1987.08
1007.186	1982.33
1007.48	1970.13
1007.773	1946.4
1008.067	1933.75
1008.361	1913.64
1008.655	1915.9
1008.948	1903.92
1009.242	1884.48
1009.535	1893.98
1009.829	1865.28
1010.122	1850.81
1010.415	1868.67
1010.708	1848.33
1011.001	1825.95
1011.295	1819.4
1011.588	1790.48
1011.881	1793.64
1012.173	1743.92
1012.466	1767.65
1012.759	1765.62
1013.052	1745.96
1013.344	1738.95
1013.637	1727.2
1013.93	1722.68
1014.222	1708.44
1014.514	1707.31
1014.807	1709.35
1015.099	1681.55
1015.391	1673.64
1015.683	1656.24
1015.976	1625.06
1016.268	1644.04
1016.56	1604.27
1016.851	1624.83
1017.143	1611.95
1017.435	1608.56
1017.727	1588.22
1018.018	1575.11
1018.31	1596.13
1018.602	1577.37
1018.893	1531.5
1019.185	1527.66
1019.476	1555.45
1019.767	1560.43
1020.058	1515
1020.35	1519.75
1020.641	1505.29
1020.932	1475.68
1021.223	1468.22
1021.514	1448.79
1021.804	1467.32
1022.095	1427.1
1022.386	1460.31
1022.677	1417.6
1022.967	1428.23
1023.258	1429.81
1023.548	1405.17
1023.839	1406.3
1024.129	1406.08
1024.419	1376.48
1024.709	1367.44
1025	1342.8
1025.29	1364.72
1025.58	1310.49
1025.87	1319.53
1026.16	1305.29
1026.449	1324.73
1026.739	1296.7
1027.029	1293.54
1027.319	1272.3
1027.608	1265.52
1027.898	1275.46
1028.187	1257.61
1028.477	1257.38
1028.766	1231.39
1029.055	1218.51
1029.344	1233.65
1029.634	1230.49
1029.923	1205.63
1030.212	1186.2
1030.501	1211.96
1030.79	1178.06
1031.078	1178.29
1031.367	1153.88
1031.656	1164.28
1031.945	1156.59
1032.233	1186.65
1032.522	1141.91
1032.81	1144.16
1033.099	1113.43
1033.387	1120.44
1033.675	1104.17
1033.963	1080.66
1034.251	1098.74
1034.54	1112.98
1034.828	1073.43
1035.116	1057.39
1035.403	1075.01
1035.691	1040.21
1035.979	1075.69
1036.267	1054.68
1036.554	1020.1
1036.842	1028.24
1037.129	1019.2
1037.417	1024.85
1037.704	987.33
1037.992	1003.15
1038.279	1002.47
1038.566	984.62
1038.853	984.62
1039.14	984.62
