Data from hue_22_FLMS001491_00044.txt Node
Date: Tue Feb 07 17:10:10 GMT 2017
User: dcchb
Spectrometer: FLMS00149
Trigger mode: 0
Integration Time (sec): 2.000000E-2
Scans to average: 10
Electric dark correction enabled: true
Nonlinearity correction enabled: false
Boxcar width: 0
XAxis mode: Wavelengths
Number of Pixels in Spectrum: 2048
>>>>>Begin Spectral Data<<<<<
341.393	-24.36
341.776	-24.36
342.16	-24.36
342.543	-73.63
342.927	-77.02
343.31	-83.35
343.693	-67.07
344.077	-64.59
344.46	-56.91
344.843	-61.88
345.226	-28.43
345.61	-28.66
345.993	-23.23
346.376	-12.16
346.759	13.38
347.142	15.86
347.525	33.49
347.908	68.74
348.291	82.75
348.674	114.84
349.057	97.21
349.44	116.65
349.823	144.9
350.206	160.72
350.588	176.76
350.971	206.36
351.354	231.67
351.737	214.27
352.119	249.53
352.502	260.83
352.884	265.8
353.267	287.94
353.65	302.63
354.032	290.2
354.414	306.93
354.797	290.88
355.179	324.78
355.562	335.4
355.944	322.97
356.326	325.91
356.709	327.04
357.091	341.5
357.473	324.33
357.855	316.19
358.238	334.04
358.62	343.99
359.002	329.75
359.384	352.35
359.766	323.42
360.148	350.99
360.53	351.67
360.912	324.55
361.294	321.16
361.676	318.9
362.057	335.4
362.439	313.48
362.821	329.3
363.203	337.43
363.584	316.87
363.966	319.81
364.348	336.98
364.729	305.57
365.111	297.89
365.493	326.14
365.874	328.17
366.256	290.88
366.637	310.09
367.019	321.39
367.4	316.19
367.781	325.01
368.163	320.94
368.544	311.67
368.925	311.45
369.306	319.58
369.688	303.09
370.069	322.75
370.45	291.79
370.831	314.84
371.212	324.33
371.593	309.19
371.974	317.77
372.355	284.1
372.736	326.14
373.117	318.45
373.498	305.57
373.879	307.6
374.26	329.75
374.641	301.05
375.021	301.05
375.402	306.7
375.783	298.57
376.163	323.88
376.544	327.04
376.925	303.99
377.305	327.94
377.686	339.69
378.066	317.55
378.447	332.01
378.827	339.02
379.208	339.69
379.588	343.99
379.968	325.91
380.349	336.76
380.729	335.63
381.109	351.67
381.489	334.04
381.87	328.17
382.25	332.01
382.63	339.24
383.01	332.91
383.39	325.01
383.77	326.14
384.15	325.46
384.53	331.33
384.91	340.15
385.29	340.6
385.67	341.95
386.049	362.74
386.429	333.37
386.809	370.43
387.189	372.46
387.568	369.98
387.948	359.81
388.328	350.54
388.707	367.04
389.087	346.7
389.466	374.04
389.846	350.09
390.225	369.75
390.605	383.76
390.984	348.96
391.363	375.63
391.743	386.47
392.122	368.62
392.501	360.26
392.881	351.9
393.26	381.28
393.639	390.54
394.018	381.05
394.397	372.24
394.776	366.81
395.155	376.76
395.534	393.25
395.913	378.56
396.292	385.12
396.671	370.2
397.05	372.46
397.429	379.02
397.808	376.3
398.186	378.79
398.565	390.77
398.944	396.42
399.323	386.02
399.701	393.48
400.08	372.24
400.458	398.68
400.837	391.22
401.215	371.11
401.594	376.76
401.972	399.35
402.351	413.14
402.729	391.67
403.107	413.14
403.486	408.62
403.864	409.07
404.242	406.13
404.62	399.58
404.999	397.55
405.377	400.03
405.755	411.78
406.133	428.96
406.511	413.36
406.889	435.96
407.267	421.73
407.645	443.65
408.023	452.23
408.401	440.26
408.779	442.29
409.156	445.45
409.534	426.7
409.912	439.8
410.29	454.49
410.667	439.58
411.045	452.23
411.422	470.09
411.8	465.34
412.178	447.49
412.555	455.17
412.933	470.31
413.31	466.47
413.687	442.06
414.065	466.7
414.442	459.24
414.819	462.86
415.197	489.07
415.574	480.26
415.951	500.14
416.328	475.28
416.705	488.39
417.082	467.6
417.46	478.45
417.837	505.57
418.214	494.49
418.591	502.4
418.967	497.2
419.344	515.74
419.721	484.1
420.098	525
420.475	489.97
420.852	541.72
421.228	502.85
421.605	506.92
421.982	534.49
422.358	496.07
422.735	511.44
423.111	539.01
423.488	547.82
423.864	560.03
424.241	555.96
424.617	544.21
424.994	545.34
425.37	567.94
425.746	522.29
426.123	567.94
426.499	555.06
426.875	561.16
427.251	566.36
427.627	573.81
428.003	567.71
428.379	574.49
428.756	582.85
429.132	586.24
429.507	612.68
429.883	589.86
430.259	621.27
430.635	605.45
431.011	592.34
431.387	620.37
431.763	604.32
432.138	609.29
432.514	636.41
432.89	619.46
433.265	635.05
433.641	653.13
434.016	655.84
434.392	630.31
434.767	665.79
435.143	646.13
435.518	652.68
435.894	670.76
436.269	681.15
436.644	692.68
437.02	689.06
437.395	685.45
437.77	689.74
438.145	700.59
438.52	690.19
438.895	723.87
439.271	721.83
439.646	713.92
440.021	716.86
440.395	722.74
440.77	716.41
441.145	713.24
441.52	743.3
441.895	743.75
442.27	754.82
442.645	757.54
443.019	744.66
443.394	753.02
443.769	776.07
444.143	783.52
444.518	776.07
444.892	755.73
445.267	770.64
445.641	790.98
446.016	800.02
446.39	798.21
446.764	791.43
447.139	804.54
447.513	814.26
447.887	804.54
448.262	813.58
448.636	810.64
449.01	842.05
449.384	825.56
449.758	813.58
450.132	841.15
450.506	837.76
450.88	841.6
451.254	834.6
451.628	868.04
452.002	878.89
452.376	863.97
452.75	892.45
453.123	890.19
453.497	896.74
453.871	886.57
454.244	918.66
454.618	918.21
454.992	911.88
455.365	931.32
455.739	962.73
456.112	973.35
456.486	968.38
456.859	960.7
457.232	992.33
457.606	993.46
457.979	987.59
458.352	992.33
458.725	1021.71
459.099	1015.38
459.472	1025.1
459.845	1056.96
460.218	1040.92
460.591	1050.64
460.964	1017.64
461.337	1114.82
461.71	1114.14
462.083	1112.56
462.456	1099.45
462.829	1136.28
463.201	1136.96
463.574	1145.1
463.947	1162.95
464.32	1173.57
464.692	1190.29
465.065	1205.89
465.438	1188.94
465.81	1236.17
466.183	1206.34
466.555	1272.1
466.928	1250.18
467.3	1238.88
467.672	1264.64
468.045	1307.35
468.417	1336.05
468.789	1338.76
469.161	1335.37
469.534	1360.91
469.906	1377.63
470.278	1414.02
470.65	1407.24
471.022	1448.82
471.394	1461.47
471.766	1465.99
472.138	1489.49
472.51	1540.57
472.882	1551.87
473.253	1580.34
473.625	1571.3
473.997	1601.81
474.369	1633.22
474.74	1663.95
475.112	1682.48
475.484	1709.15
475.855	1746.44
476.227	1771.3
476.598	1823.5
476.97	1858.75
477.341	1841.58
477.713	1918.86
478.084	1889.94
478.455	1931.07
478.827	1996.37
479.198	2044.28
479.569	2073.43
479.94	2098.74
480.311	2105.52
480.682	2168.8
481.053	2241.57
481.424	2245.63
481.795	2305.29
482.166	2324.5
482.537	2348.23
482.908	2415.57
483.279	2452.41
483.65	2468.45
484.021	2559.07
484.391	2564.04
484.762	2579.18
485.133	2630.48
485.503	2682.01
485.874	2734.66
486.244	2786.64
486.615	2811.04
486.985	2850.59
487.356	2935.56
487.726	2948.44
488.097	3025.5
488.467	3027.76
488.837	3110.24
489.207	3127.42
489.578	3201.09
489.948	3233.18
490.318	3295.32
490.688	3305.49
491.058	3346.17
491.428	3395.89
491.798	3461.42
492.168	3498.26
492.538	3549.55
492.908	3561.3
493.278	3629.55
493.648	3636.33
494.017	3713.17
494.387	3753.62
494.757	3795.65
495.126	3810.11
495.496	3845.36
495.866	3900.28
496.235	3907.06
496.605	3934.18
496.974	4027.28
497.344	4046.04
497.713	4045.13
498.082	4098.24
498.452	4146.83
498.821	4162.42
499.19	4180.5
499.559	4224.11
499.928	4262.76
500.298	4237.67
500.667	4274.96
501.036	4280.83
501.405	4306.37
501.774	4362.64
502.143	4403.77
502.512	4422.98
502.88	4452.35
503.249	4465.46
503.618	4523.99
503.987	4526.48
504.356	4530.54
504.724	4549.53
505.093	4613.48
505.462	4597.89
505.83	4658
506.199	4678.56
506.567	4762.63
506.936	4760.14
507.304	4768.96
507.672	4805.57
508.041	4848.95
508.409	4819.35
508.777	4874.94
509.145	4886.02
509.514	4866.13
509.882	4926.24
510.25	4916.75
510.618	5008.95
510.986	4962.62
511.354	5068.84
511.722	5069.74
512.09	5116.52
512.458	5084.88
512.826	5176.4
513.193	5183.18
513.561	5196.52
513.929	5168.95
514.297	5232.67
514.664	5300.24
515.032	5249.4
515.4	5315.83
515.767	5307.25
516.135	5345.44
516.502	5315.61
516.869	5417.75
517.237	5392.67
517.604	5389.28
517.972	5445.77
518.339	5444.64
518.706	5460.92
519.073	5500.01
519.44	5523.96
519.808	5551.99
520.175	5533.91
520.542	5637.41
520.909	5685.09
521.276	5596.73
521.643	5717.18
522.009	5660.46
522.376	5765.77
522.743	5745.88
523.11	5836.95
523.477	5869.04
523.843	5936.16
524.21	5895.93
524.577	5985.87
524.943	5948.36
525.31	6056.38
525.676	6051.63
526.043	6076.49
526.409	6107.68
526.776	6135.47
527.142	6217.51
527.508	6173.44
527.874	6243.95
528.241	6245.53
528.607	6293.44
528.973	6352.42
529.339	6289.82
529.705	6463.15
530.071	6432.87
530.437	6431.29
530.803	6491.62
531.169	6531.85
531.535	6546.31
531.901	6623.82
532.267	6536.37
532.632	6616.37
532.998	6640.09
533.364	6675.8
533.73	6689.13
534.095	6793.08
534.461	6751.96
534.826	6801.67
535.192	6825.4
535.557	6950.37
535.923	6882.8
536.288	6922.12
536.653	6918.73
537.019	6924.38
537.384	6948.33
537.749	6991.04
538.114	7019.74
538.479	6990.82
538.845	7115.56
539.21	7035.11
539.575	7127.54
539.94	7141.1
540.305	7187.42
540.67	7185.62
541.034	7252.96
541.399	7306.06
541.764	7290.47
542.129	7313.75
542.494	7330.02
542.858	7418.83
543.223	7385.61
543.587	7477.13
543.952	7455.67
544.316	7474.42
544.681	7440.07
545.045	7512.39
545.41	7643.91
545.774	7623.12
546.138	7666.51
546.503	7591.93
546.867	7630.12
547.231	7753.74
547.595	7690.69
547.959	7782.89
548.324	7765.94
548.688	7819.5
549.052	7849.33
549.416	7865.15
549.779	7914.64
550.143	7913.51
550.507	8042.99
550.871	7965.26
551.235	7962.09
551.599	8075.31
551.962	8068.98
552.326	8083.9
552.689	8122.99
553.053	8130
553.417	8083.67
553.78	8216.55
554.143	8222.43
554.507	8266.72
554.87	8197.79
555.234	8370.67
555.597	8278.24
555.96	8316.43
556.323	8347.62
556.686	8414.06
557.05	8437.56
557.413	8479.82
557.776	8421.06
558.139	8565.92
558.502	8553.04
558.865	8539.7
559.228	8582.42
559.59	8688.18
559.953	8661.06
560.316	8721.17
560.679	8753.71
561.041	8761.17
561.404	8816.08
561.767	8814.5
562.129	8781.73
562.492	9003.87
562.854	8855.4
563.217	8923.88
563.579	8995.96
563.941	9022.18
564.304	9101.95
564.666	9112.12
565.028	9108.73
565.39	9129.75
565.753	9176.3
566.115	9231.66
566.477	9259.69
566.839	9293.36
567.201	9322.74
567.563	9277.31
567.925	9354.37
568.287	9424.65
568.648	9417.42
569.01	9488.15
569.372	9515.05
569.734	9498.1
570.095	9625.1
570.457	9573.58
570.819	9678.88
571.18	9692.89
571.542	9785.55
571.903	9794.36
572.265	9745.55
572.626	9884.75
572.987	9878.65
573.349	10022.83
573.71	10012.66
574.071	9985.54
574.432	10068.03
574.794	10136.5
575.155	10242.03
575.516	10227.8
575.877	10360.67
576.238	10379.88
576.599	10462.82
576.96	10519.77
577.32	10615.58
577.681	10635.69
578.042	10740.78
578.403	10861.68
578.763	10962.24
579.124	10987.55
579.485	11109.13
579.845	11188
580.206	11237.71
580.566	11419.4
580.927	11493.53
581.287	11656.69
581.648	11717.93
582.008	11857.81
582.368	12019.39
582.728	12178.48
583.089	12304.8
583.449	12399.72
583.809	12594.29
584.169	12850.55
584.529	12874.96
584.889	13208.06
585.249	13302.29
585.609	13377.77
585.969	13654.6
586.329	13853.24
586.688	14062.95
587.048	14291.42
587.408	14446.67
587.768	14581.35
588.127	14952.42
588.487	15127.78
588.846	15475.57
589.206	15532.06
589.565	15782.68
589.925	16149.9
590.284	16451.14
590.643	16596.44
591.003	16876.66
591.362	17243.43
591.721	17568.17
592.08	17817.43
592.44	18037.53
592.799	18488.37
593.158	18717.29
593.517	18844.29
593.876	19212.87
594.235	19506.65
594.593	19791.84
594.952	20203.13
595.311	20399.73
595.67	20750.01
596.029	21163.33
596.387	21504.79
596.746	21769.87
597.104	22010.76
597.463	22270.87
597.822	22688.94
598.18	23068.81
598.538	23331.86
598.897	23635.35
599.255	23769.13
599.613	24397.37
599.972	24585.16
600.33	24925.26
600.688	25303.56
601.046	25592.36
601.404	25942.19
601.762	26232.35
602.12	26478.89
602.478	26719.34
602.836	27134.92
603.194	27196.39
603.552	27641.58
603.91	27771.97
604.268	28188.45
604.625	28489.24
604.983	28807.19
605.341	28828.44
605.698	29315.43
606.056	29640.17
606.413	29790.45
606.771	30182.07
607.128	30481.95
607.485	30579.13
607.843	30803.75
608.2	31170.52
608.557	31465.2
608.914	31648.48
609.272	31957.85
609.629	32271.06
609.986	32618.85
610.343	32642.35
610.7	33110.81
611.057	33241.65
611.414	33351.03
611.771	33547.63
612.127	33899.49
612.484	34003.22
612.841	34306.48
613.198	34364.56
613.554	34610.88
613.911	35031.21
614.267	35195.5
614.624	35189.17
614.98	35427.36
615.337	35844.3
615.693	35884.75
616.05	36119.32
616.406	36389.59
616.762	36372.65
617.118	36445.41
617.475	36695.35
617.831	37048.79
618.187	37187.77
618.543	37333.07
618.899	37539.62
619.255	37655.32
619.611	37604.93
619.967	37996.78
620.323	38132.15
620.678	38104.58
621.034	38150.68
621.39	38375.53
621.746	38433.83
622.101	38976.64
622.457	38598.8
622.812	38952.69
623.168	39089.18
623.523	39188.39
623.879	39286.47
624.234	39145.68
624.589	39473.81
624.945	39514.03
625.3	39680.81
625.655	39859.11
626.01	39850.29
626.365	39932.78
626.72	39966.68
627.075	39912.67
627.43	39981.36
627.785	39990.86
628.14	40174.58
628.495	40191.53
628.85	40265.2
629.205	40280.11
629.559	40650.72
629.914	40374.12
630.269	40533.89
630.623	40523.95
630.978	40425.42
631.332	40727.56
631.687	40729.37
632.041	40537.96
632.396	40746.54
632.75	40675.58
633.104	40774.79
633.459	40620.44
633.813	40730.5
634.167	40596.94
634.521	40714.68
634.875	40864.73
635.229	40848.69
635.583	40662.02
635.937	40668.35
636.291	40794.68
636.645	40792.42
636.999	40690.95
637.352	40895.46
637.706	40655.92
638.06	40823.38
638.413	40780.44
638.767	40798.52
639.121	40763.72
639.474	40702.25
639.828	40625.19
640.181	40800.55
640.534	40734.11
640.888	40710.16
641.241	40624.74
641.594	40621.8
641.947	40751.06
642.301	40672.87
642.654	40717.84
643.007	40811.4
643.36	40637.62
643.713	40756.48
644.066	40789.93
644.419	40664.28
644.771	40368.92
645.124	39991.99
645.477	39978.88
645.83	39701.82
646.182	39701.15
646.535	39462.51
646.888	39559
647.24	39449.63
647.593	39509.51
647.945	39512.68
648.298	39396.97
648.65	39460.02
649.002	39234.94
649.355	39507.7
649.707	39499.12
650.059	39461.15
650.411	40030.18
650.763	40124.64
651.115	40413.22
651.467	40478.53
651.819	40338.87
652.171	40351.3
652.523	40210.96
652.875	40257.51
653.227	40094.36
653.578	40262.71
653.93	40288.7
654.282	39982.72
654.633	40045.77
654.985	40177.52
655.337	40189.04
655.688	40135.03
656.039	40269.27
656.391	39997.18
656.742	39913.12
657.094	39878.99
657.445	40191.08
657.796	40024.75
658.147	40027.24
658.498	40039.44
658.849	40009.39
659.2	40016.84
659.551	40002.38
659.902	40003.74
660.253	39994.7
660.604	40015.94
660.955	39883.74
661.306	39984.53
661.656	40003.28
662.007	39958.99
662.358	39937.3
662.708	39953.57
663.059	39973.23
663.409	39661.37
663.76	39916.05
664.11	40048.71
664.461	39929.16
664.811	39928.48
665.161	39905.21
665.511	39830.63
665.862	39769.17
666.212	39928.94
666.562	39930.97
666.912	39906.11
667.262	39679.23
667.612	39833.12
667.962	39906.56
668.312	39799
668.662	39988.6
669.011	39825.89
669.361	39807.13
669.711	39786.11
670.06	39807.36
670.41	39660.24
670.76	39755.83
671.109	39861.59
671.459	39770.52
671.808	39745.66
672.157	39850.75
672.507	39484.65
672.856	39610.3
673.205	39679.23
673.554	39720.13
673.904	39536.63
674.253	39766
674.602	39570.75
674.951	39079.24
675.3	39001.5
675.649	39609.62
675.998	39508.83
676.346	39479.46
676.695	39481.94
677.044	39375.05
677.393	39275.62
677.741	39369.63
678.09	39385
678.438	39261.61
678.787	39324.43
679.135	39392.23
679.484	39095.51
679.832	39266.13
680.181	39005.12
680.529	39164.66
680.877	39055.74
681.225	39121.5
681.573	39119.69
681.922	38885.57
682.27	38914.73
682.618	38904.56
682.966	38724.9
683.314	38858.91
683.661	38597.45
684.009	38445.59
684.357	38462.76
684.705	38396.09
685.053	38545.7
685.4	38444.23
685.748	38221.64
686.095	38284.46
686.443	38167.85
686.79	38092.37
687.138	38247.62
687.485	38170.56
687.832	37995.43
688.18	37987.07
688.527	37794.75
688.874	37795.21
689.221	37701.65
689.568	37650.58
689.915	37538.49
690.262	37456.46
690.609	37501.43
690.956	37408.32
691.303	37324.26
691.65	37229.57
691.997	37205.39
692.344	36970.82
692.69	36973.99
693.037	36866.64
693.383	36510.95
693.73	36768.57
694.077	36568.12
694.423	36489.25
694.769	36433.89
695.116	36368.58
695.462	36241.8
695.808	36046.1
696.155	36283.83
696.501	35898.53
696.847	36012.2
697.193	35682.95
697.539	35899.89
697.885	35610.86
698.231	35588.94
698.577	35618.77
698.923	35520.46
699.269	35424.65
699.614	34984.66
699.96	35079.12
700.306	35078.89
700.651	34841.61
700.997	34862.4
701.342	34779.69
701.688	34635.97
702.033	34718
702.379	34602.52
702.724	34538.8
703.069	34630.54
703.415	34152.59
703.76	34288.86
704.105	34155.98
704.45	34146.72
704.795	33974.74
705.14	33744.92
705.485	33809.55
705.83	33731.81
706.175	33734.52
706.52	33600.29
706.865	33475.77
707.209	33619.72
707.554	33316.23
707.899	33361.2
708.243	33174.31
708.588	33252.5
708.932	32920.98
709.277	32966.63
709.621	33040.08
709.966	32721.22
710.31	32875.79
710.654	32593.99
710.998	32560.09
711.342	32605.96
711.687	32460.88
712.031	32323.49
712.375	32240.78
712.719	32369.36
713.063	32232.64
713.407	32405.97
713.75	32277.39
714.094	32097.5
714.438	31984.29
714.782	32125.53
715.125	31828.36
715.469	31982.03
715.812	31775.93
716.156	31651.87
716.499	31639.21
716.843	31646.22
717.186	31542.49
717.53	31649.61
717.873	31555.14
718.216	31444.87
718.559	31289.62
718.902	31214.81
719.246	31289.16
719.589	31053.69
719.932	30968.49
720.275	31077.64
720.617	31039.45
720.96	30990.41
721.303	31044.2
721.646	30866.8
721.989	30785.9
722.331	30843.3
722.674	30717.43
723.016	30700.03
723.359	30697.09
723.701	30777.09
724.044	30559.24
724.386	30366.02
724.729	30474.04
725.071	30389.53
725.413	30437.66
725.755	30339.36
726.097	30192.24
726.439	30056.88
726.782	30140.72
727.124	30220.49
727.465	29982.3
727.807	30018.01
728.149	29922.42
728.491	29791.8
728.833	29977.33
729.175	29963.77
729.516	29904.34
729.858	29704.12
730.199	29695.98
730.541	29662.77
730.882	29588.87
731.224	29706.61
731.565	29472.26
731.906	29450.57
732.248	29500.74
732.589	29279.27
732.93	29251.7
733.271	29377.12
733.612	29275.2
733.953	29235.88
734.294	29169.9
734.635	29084.02
734.976	29130.35
735.317	28976.46
735.658	28990.01
735.999	29092.16
736.339	28917.47
736.68	29051.48
737.021	28964.48
737.361	28841.32
737.702	28906.4
738.042	28792.05
738.383	28768.33
738.723	28812.84
739.063	28660.53
739.404	28747.54
739.744	28639.74
740.084	28572.17
740.424	28602.45
740.764	28529.01
741.104	28555
741.444	28410.82
741.784	28283.59
742.124	28384.15
742.464	28322.46
742.804	28207.89
743.143	28214.22
743.483	28265.06
743.823	27955.92
744.162	27966.99
744.502	28096.48
744.841	27909.37
745.181	28163.6
745.52	27877.28
745.86	27998.4
746.199	27882.47
746.538	27876.6
746.877	27968.35
747.216	27966.09
747.556	27829.37
747.895	27863.94
748.234	27736.94
748.573	27667.34
748.911	27614.01
749.25	27569.71
749.589	27450.85
749.928	27501.69
750.267	27642.71
750.605	27499.21
750.944	27429.6
751.283	27373.33
751.621	27407.91
751.96	27354.58
752.298	27194.58
752.636	27298.99
752.975	27010.63
753.313	27085.66
753.651	27235.26
753.989	26914.59
754.327	26948.03
754.666	26829.85
755.004	26864.42
755.342	26822.16
755.679	26864.65
756.017	26680.47
756.355	26790.07
756.693	26552.34
757.031	26656.74
757.368	26515.96
757.706	26466.69
758.044	26419.91
758.381	26450.87
758.719	26350.76
759.056	26278.9
759.394	26143.76
759.731	25990.32
760.068	25934.5
760.405	25992.81
760.743	25828.74
761.08	25815.18
761.417	25727.28
761.754	25753.49
762.091	25648.41
762.428	25626.71
762.765	25426.72
763.102	25584.23
763.438	25411.13
763.775	25289.55
764.112	25282.77
764.449	25310.11
764.785	25150.12
765.122	25044.81
765.458	24976.79
765.795	24861.99
766.131	24935.43
766.467	24746.74
766.804	24636.68
767.14	24578.83
767.476	24478.27
767.812	24352.17
768.148	24433.75
768.485	24296.58
768.821	24207.77
769.157	24154.44
769.492	24100.88
769.828	24186.98
770.164	23782.24
770.5	23788.57
770.836	23808.91
771.171	23693.43
771.507	23624.05
771.842	23458.86
772.178	23408.69
772.513	23415.47
772.849	23306.1
773.184	23243.72
773.519	23210.96
773.855	23033.79
774.19	22862.72
774.525	22837.63
774.86	22869.27
775.195	22868.59
775.53	22729.61
775.865	22664.98
776.2	22426.12
776.535	22349.96
776.87	22268.16
777.205	22183.64
777.539	22106.58
777.874	22203.98
778.209	21905
778.543	21938.9
778.878	21788.62
779.212	21837.66
779.547	21686.48
779.881	21676.31
780.215	21627.27
780.55	21638.12
780.884	21462.98
781.218	21331.91
781.552	21321.74
781.886	21224.57
782.22	21108.41
782.554	21128.75
782.888	20840.4
783.222	20882.43
783.556	20797.91
783.889	20660.97
784.223	20510.01
784.557	20521.99
784.89	20512.95
785.224	20402.9
785.557	20420.75
785.891	20220.3
786.224	20216.23
786.558	20264.59
786.891	20048.78
787.224	19936.24
787.557	19859.41
787.891	19816.24
788.224	19772.4
788.557	19834.1
788.89	19763.36
789.223	19691.28
789.556	19574.67
789.888	19436.59
790.221	19417.61
790.554	19263.94
790.887	19331.74
791.219	19138.75
791.552	19043.38
791.884	18995.25
792.217	19007.45
792.549	18966.1
792.882	18793.45
793.214	18736.27
793.546	18785.76
793.879	18505.77
794.211	18593
794.543	18591.19
794.875	18412.21
795.207	18551.87
795.539	18386
795.871	18370.41
796.203	18260.58
796.535	18191.2
796.867	18158.43
797.198	18072.56
797.53	18022.17
797.862	17881.61
798.193	17993.47
798.525	17813.13
798.856	17851.1
799.188	17653.82
799.519	17566.59
799.85	17463.76
800.182	17569.3
800.513	17567.72
800.844	17426.25
801.175	17505.12
801.506	17453.37
801.837	17376.76
802.168	17278.01
802.499	17099.48
802.83	17151
803.161	17114.62
803.491	17012.48
803.822	17006.37
804.153	16998.69
804.483	16859.94
804.814	16774.06
805.145	16807.28
805.475	16689.1
805.805	16737.23
806.136	16600.28
806.466	16664.01
806.796	16513.05
807.126	16477.12
807.457	16404.81
807.787	16426.73
808.117	16338.37
808.447	16244.81
808.777	16307.18
809.107	16256.34
809.436	16132.95
809.766	16148.54
810.096	16088.21
810.426	16049.79
810.755	15971.15
811.085	15993.97
811.414	15847.76
811.744	15841.89
812.073	15827.2
812.403	15767.31
812.732	15700.19
813.061	15725.28
813.39	15663.13
813.719	15515.57
814.049	15632.85
814.378	15534.55
814.707	15440.99
815.036	15506.3
815.365	15362.58
815.693	15314.22
816.022	15334.33
816.351	15309.92
816.68	15149.02
817.008	15222.47
817.337	15086.43
817.665	15006.88
817.994	15110.15
818.322	15051.4
818.651	14984.73
818.979	14967.11
819.307	15044.84
819.636	14936.37
819.964	14859.76
820.292	14911.74
820.62	14857.05
820.948	14796.94
821.276	14889.14
821.604	14735.02
821.932	14811.18
822.259	14864.06
822.587	14796.04
822.915	14758.98
823.243	14800.56
823.57	14732.31
823.898	14782.48
824.225	14631.52
824.553	14598.53
824.88	14702.48
825.207	14787
825.535	14654.57
825.862	14814.79
826.189	14695.25
826.516	14781.57
826.843	14772.76
827.17	14763.5
827.497	14728.24
827.824	14748.58
828.151	14733.89
828.478	14729.37
828.805	14723.5
829.131	14664.97
829.458	14714.23
829.785	14624.97
830.111	14673.1
830.438	14695.25
830.764	14644.4
831.09	14701.35
831.417	14694.12
831.743	14615.03
832.069	14701.35
832.395	14572.09
832.722	14619.09
833.048	14663.61
833.374	14608.25
833.7	14412.54
834.026	14489.83
834.351	14576.61
834.677	14556.72
835.003	14533.45
835.329	14497.29
835.654	14448.93
835.98	14411.41
836.306	14484.18
836.631	14386.56
836.956	14423.39
837.282	14426.1
837.607	14322.15
837.932	14342.94
838.258	14344.07
838.583	14265.88
838.908	14193.79
839.233	14303.62
839.558	14186.56
839.883	14132.78
840.208	14064.76
840.533	14188.82
840.858	14089.39
841.182	14101.82
841.507	14049.62
841.832	14027.92
842.156	13951.77
842.481	13979.34
842.805	13947.25
843.13	13903.18
843.454	13904.54
843.778	13748.16
844.103	13801.71
844.427	13780.02
844.751	13742.05
845.075	13693.47
845.399	13703.18
845.723	13533.25
846.047	13598.1
846.371	13433.81
846.695	13466.35
847.019	13354.95
847.343	13269.75
847.666	13299.35
847.99	13184.55
848.313	13246.93
848.637	13136.65
848.96	13091.45
849.284	12952.24
849.607	13004.45
849.931	12899.14
850.254	12881.96
850.577	12792.02
850.9	12656.88
851.223	12720.16
851.546	12661.86
851.869	12590.9
852.192	12636.55
852.515	12462.77
852.838	12506.15
853.161	12390.9
853.483	12428.87
853.806	12314.97
854.129	12234.07
854.451	12282.88
854.774	12198.14
855.096	12186.16
855.419	12129.89
855.741	12092.61
856.063	12031.14
856.385	12000.86
856.708	11983
857.03	11891.26
857.352	11885.38
857.674	11829.11
857.996	11811.03
858.318	11775.33
858.64	11760.41
858.961	11698.49
859.283	11664.14
859.605	11638.15
859.926	11609.68
860.248	11597.48
860.57	11517.71
860.891	11566.97
861.212	11536.24
861.534	11449.01
861.855	11411.27
862.176	11451.72
862.498	11420.31
862.819	11439.29
863.14	11397.03
863.461	11307.32
863.782	11306.41
864.103	11327.65
864.424	11290.59
864.745	11299.63
865.065	11198.39
865.386	11180.77
865.707	11233.42
866.027	11230.26
866.348	11164.27
866.668	11181.67
866.989	11080.88
867.309	11048.79
867.63	11090.37
867.95	11043.82
868.27	10900.09
868.59	11015.57
868.91	11004.95
869.23	10988
869.55	10860.77
869.87	10955.46
870.19	10874.11
870.51	10909.81
870.83	10912.52
871.15	10817.39
871.469	10894.9
871.789	10876.82
872.109	10862.36
872.428	10822.13
872.748	10719.31
873.067	10755.47
873.386	10755.92
873.706	10781.23
874.025	10629.82
874.344	10640.21
874.663	10621.01
874.982	10677.5
875.301	10585.75
875.62	10569.71
875.939	10569.03
876.258	10588.24
876.577	10542.14
876.896	10542.59
877.214	10437.06
877.533	10516.38
877.852	10442.93
878.17	10485.64
878.489	10481.35
878.807	10389.15
879.125	10412.42
879.444	10418.98
879.762	10356.38
880.08	10365.87
880.398	10360
880.716	10357.06
881.034	10303.27
881.352	10324.06
881.67	10206.33
881.988	10308.92
882.306	10177.4
882.624	10173.33
882.941	10117.52
883.259	10131.75
883.577	10076.84
883.894	10068.93
884.212	10078.87
884.529	10096.73
884.846	10023.73
885.164	10037.29
885.481	10062.6
885.798	10018.08
886.115	9899.22
886.432	9930.85
886.75	9957.29
887.067	9899.67
887.383	9913.91
887.7	9813.57
888.017	9793.68
888.334	9829.84
888.651	9736.28
888.967	9739.9
889.284	9706
889.6	9639.79
889.917	9625.1
890.233	9708.94
890.55	9507.14
890.866	9623.29
891.182	9505.56
891.498	9520.47
891.815	9455.84
892.131	9439.57
892.447	9441.15
892.763	9368.38
893.079	9352.56
893.395	9380.59
893.71	9329.97
894.026	9284.54
894.342	9301.94
894.657	9216.75
894.973	9235.05
895.289	9233.47
895.604	9203.64
895.92	9128.16
896.235	9031.44
896.55	9109.41
896.865	9029.18
897.181	8929.98
897.496	9039.8
897.811	8931.11
898.126	8884.1
898.441	8912.8
898.756	8881.16
899.071	8798.23
899.386	8758.23
899.7	8698.57
900.015	8723.88
900.33	8612.02
900.644	8605.69
900.959	8630.32
901.273	8560.95
901.588	8514.17
901.902	8574.28
902.216	8513.72
902.531	8419.03
902.845	8445.92
903.159	8410.44
903.473	8307.62
903.787	8392.82
904.101	8299.03
904.415	8307.39
904.729	8234.63
905.042	8251.12
905.356	8161.41
905.67	8147.62
905.984	8130.22
906.297	8170.9
906.611	8051.58
906.924	8059.49
907.237	7964.13
907.551	8009.32
907.864	7911.02
908.177	7922.77
908.491	7857.91
908.804	7868.99
909.117	7748.54
909.43	7789.22
909.743	7755.09
910.056	7715.09
910.368	7697.02
910.681	7696.11
910.994	7637.36
911.307	7616.57
911.619	7544.48
911.932	7604.14
912.244	7454.99
912.557	7462.45
912.869	7380.64
913.181	7420.64
913.494	7391.49
913.806	7373.86
914.118	7334.54
914.43	7322.34
914.742	7277.59
915.054	7224.26
915.366	7225.84
915.678	7164.37
915.99	7150.59
916.302	7107.43
916.613	7079.4
916.925	7050.03
917.236	7022.46
917.548	6980.65
917.859	7004.38
918.171	6937.04
918.482	6898.84
918.794	6903.36
919.105	6856.81
919.416	6770.94
919.727	6848.68
920.038	6805.06
920.349	6720.54
920.66	6670.38
920.971	6701.34
921.282	6659.08
921.593	6617.95
921.903	6556.03
922.214	6564.84
922.525	6549.47
922.835	6519.87
923.146	6529.36
923.456	6483.71
923.767	6459.08
924.077	6377.95
924.387	6372.76
924.697	6373.89
925.008	6344.96
925.318	6267.67
925.628	6334.34
925.938	6267.9
926.248	6246.43
926.558	6182.25
926.867	6156.72
927.177	6167.11
927.487	6150.84
927.796	6095.25
928.106	6029.04
928.416	6036.72
928.725	6008.92
929.034	6012.99
929.344	5958.3
929.653	5929.6
929.962	5880.57
930.271	5879.21
930.581	5809.16
930.89	5884.41
931.199	5823.62
931.508	5814.13
931.817	5716.73
932.125	5752.21
932.434	5711.08
932.743	5694.36
933.051	5661.59
933.36	5587.24
933.669	5643.51
933.977	5579.56
934.286	5592.66
934.594	5559.44
934.902	5549.27
935.21	5478.77
935.519	5459.56
935.827	5475.15
936.135	5438.54
936.443	5387.92
936.751	5395.38
937.059	5376.85
937.367	5350.86
937.674	5330.52
937.982	5311.77
938.29	5231.32
938.597	5245.33
938.905	5216.4
939.213	5172.11
939.52	5138.89
939.827	5181.83
940.135	5122.85
940.442	5100.02
940.749	5078.33
941.056	5078.1
941.363	5043.75
941.67	5034.71
941.977	4973.7
942.284	4978.22
942.591	4918.11
942.898	4944.77
943.205	4913.81
943.511	4909.29
943.818	4898.44
944.125	4813.7
944.431	4839.24
944.738	4805.11
945.044	4808.5
945.35	4752.01
945.657	4740.03
945.963	4696.19
946.269	4682.41
946.575	4674.27
946.881	4668.62
947.187	4678.11
947.493	4597.21
947.799	4601.28
948.105	4565.8
948.41	4549.08
948.716	4538
949.022	4511.34
949.327	4538.45
949.633	4467.04
949.938	4494.39
950.244	4435.63
950.549	4418.91
950.854	4406.71
951.16	4376.2
951.465	4342.08
951.77	4375.52
952.075	4333.26
952.38	4332.36
952.685	4317.22
952.99	4300.27
953.294	4256.65
953.599	4216.65
953.904	4214.62
954.209	4231.34
954.513	4218.46
954.818	4164.45
955.122	4142.76
955.426	4145.24
955.731	4084
956.035	4117
956.339	4077.9
956.643	4076.32
956.948	3988.64
957.252	3993.61
957.556	4000.62
957.86	3996.32
958.163	3973.05
958.467	3926.49
958.771	3942.31
959.075	3934.85
959.378	3890.34
959.682	3901.18
959.985	3853.5
960.289	3856.21
960.592	3824.12
960.896	3858.25
961.199	3801.3
961.502	3798.13
961.805	3770.11
962.108	3770.11
962.411	3753.84
962.714	3705.03
963.017	3693.28
963.32	3665.71
963.623	3636.78
963.926	3637.46
964.228	3630.68
964.531	3650.34
964.833	3631.59
965.136	3606.05
965.438	3587.29
965.741	3564.69
966.043	3548.2
966.345	3537.8
966.648	3524.24
966.95	3520.85
967.252	3457.58
967.554	3421.42
967.856	3472.04
968.158	3416.45
968.46	3395.89
968.761	3434.3
969.063	3379.61
969.365	3376.45
969.666	3368.32
969.968	3328.54
970.269	3308.2
970.571	3323.34
970.872	3343.68
971.174	3288.77
971.475	3256.23
971.776	3247.41
972.077	3297.58
972.378	3213.29
972.679	3210.58
972.98	3232.05
973.281	3189.56
973.582	3181.43
973.883	3205.38
974.183	3113.63
974.484	3133.29
974.785	3124.25
975.085	3138.94
975.386	3124.03
975.686	3067.98
975.986	3088.1
976.287	3089.45
976.587	3005.39
976.887	3026.18
977.187	2998.38
977.487	3012.39
977.787	3013.52
978.087	2937.82
978.387	2962
978.687	2969.46
978.987	2935.78
979.286	2953.64
979.586	2914.99
979.885	2905.28
980.185	2922.45
980.484	2878.38
980.784	2856.24
981.083	2839.74
981.382	2840.19
981.682	2851.72
981.981	2827.99
982.28	2795.9
982.579	2779.18
982.878	2769.24
983.177	2757.48
983.475	2757.71
983.774	2733.53
984.073	2715.45
984.372	2705.28
984.67	2736.02
984.969	2700.99
985.267	2695.11
985.566	2662.57
985.864	2640.42
986.162	2658.5
986.461	2622.8
986.759	2605.85
987.057	2604.04
987.355	2620.54
987.653	2621.67
987.951	2588.45
988.249	2534.44
988.547	2528.56
988.844	2538.96
989.142	2502.58
989.44	2500.09
989.737	2465.29
990.035	2505.29
990.332	2477.04
990.63	2457.6
990.927	2468
991.224	2431.16
991.521	2428.23
991.819	2418.51
992.116	2416.7
992.413	2425.06
992.71	2395.23
993.006	2380.32
993.303	2375.12
993.6	2363.37
993.897	2342.35
994.193	2342.35
994.49	2335.8
994.787	2311.39
995.083	2303.03
995.379	2308.23
995.676	2286.08
995.972	2271.4
996.268	2264.62
996.565	2258.29
996.861	2225.29
997.157	2231.17
997.453	2222.36
997.749	2185.3
998.044	2209.93
998.34	2174
998.636	2172.87
998.932	2126.31
999.227	2142.36
999.523	2146.43
999.818	2124.28
1000.114	2105.3
1000.409	2086.09
1000.704	2104.39
1001	2045.86
1001.295	2033.89
1001.59	2067.11
1001.885	2033.21
1002.18	2018.75
1002.475	2018.29
1002.77	2028.46
1003.065	2027.56
1003.359	1971.29
1003.654	1970.84
1003.949	1984.17
1004.243	1969.26
1004.538	1927.45
1004.832	1918.86
1005.127	1942.14
1005.421	1889.03
1005.715	1928.81
1006.009	1913.21
1006.304	1910.05
1006.598	1851.97
1006.892	1871.63
1007.186	1855.59
1007.48	1873.44
1007.773	1870.28
1008.067	1838.64
1008.361	1809.03
1008.655	1797.51
1008.948	1795.93
1009.242	1780.79
1009.535	1774.91
1009.829	1781.46
1010.122	1774.01
1010.415	1736.72
1010.708	1745.53
1011.001	1720.9
1011.295	1727.91
1011.588	1710.96
1011.881	1669.38
1012.173	1695.59
1012.466	1665.76
1012.759	1655.59
1013.052	1651.3
1013.344	1641.81
1013.637	1633.9
1013.93	1638.87
1014.222	1591.64
1014.514	1600.45
1014.807	1623.05
1015.099	1614.69
1015.391	1592.77
1015.683	1563.84
1015.976	1573.56
1016.268	1574.46
1016.56	1517.06
1016.851	1540.79
1017.143	1530.4
1017.435	1529.49
1017.727	1497.86
1018.018	1508.7
1018.31	1507.57
1018.602	1489.72
1018.893	1486.78
1019.185	1453.56
1019.476	1441.59
1019.767	1434.35
1020.058	1464.18
1020.35	1431.87
1020.641	1396.84
1020.932	1413.56
1021.223	1417.63
1021.514	1418.54
1021.804	1389.16
1022.095	1368.37
1022.386	1357.07
1022.677	1320.23
1022.967	1335.15
1023.258	1334.24
1023.548	1327.92
1023.839	1323.85
1024.129	1332.66
1024.419	1297.41
1024.709	1265.55
1025	1285.66
1025.29	1296.73
1025.58	1266
1025.87	1247.47
1026.16	1246.79
1026.449	1249.28
1026.739	1246.11
1027.029	1251.31
1027.319	1262.16
1027.608	1244.3
1027.898	1196.62
1028.187	1217.86
1028.477	1193.46
1028.766	1195.27
1029.055	1157.98
1029.344	1141.26
1029.634	1164.76
1029.923	1154.59
1030.212	1137.41
1030.501	1142.16
1030.79	1125.89
1031.078	1119.33
1031.367	1099.45
1031.656	1108.71
1031.945	1093.12
1032.233	1119.11
1032.522	1096.51
1032.81	1091.31
1033.099	1089.96
1033.387	1082.27
1033.675	1051.31
1033.963	1071.43
1034.251	1050.64
1034.54	1007.25
1034.828	1060.35
1035.116	1033.46
1035.403	1004.31
1035.691	1007.93
1035.979	1008.83
1036.267	994.37
1036.554	980.36
1036.842	960.7
1037.129	986.23
1037.417	984.65
1037.704	950.53
1037.992	949.4
1038.279	943.52
1038.566	932.9
1038.853	932.9
1039.14	932.9
