Data from hue_260_FLMS001491_00062.txt Node
Date: Tue Feb 07 15:59:23 GMT 2017
User: dcchb
Spectrometer: FLMS00149
Trigger mode: 0
Integration Time (sec): 2.000000E-2
Scans to average: 10
Electric dark correction enabled: true
Nonlinearity correction enabled: false
Boxcar width: 0
XAxis mode: Wavelengths
Number of Pixels in Spectrum: 2048
>>>>>Begin Spectral Data<<<<<
341.393	2.02
341.776	2.02
342.16	2.02
342.543	-44.98
342.927	-49.5
343.31	-65.55
343.693	-54.93
344.077	-64.19
344.46	-63.74
344.843	-38.66
345.226	-48.15
345.61	-31.2
345.993	-15.61
346.376	-3.18
346.759	10.61
347.142	26.88
347.525	35.92
347.908	55.35
348.291	75.69
348.674	74.11
349.057	106.65
349.44	134.22
349.823	127.44
350.206	164.05
350.588	193.2
350.971	203.82
351.354	209.25
351.737	233.2
352.119	239.98
352.502	258.74
352.884	264.39
353.267	284.27
353.65	284.05
354.032	282.46
354.414	278.85
354.797	324.72
355.179	297.15
355.562	307.77
355.944	322.46
356.326	305.51
356.709	327.66
357.091	332.41
357.473	332.86
357.855	334.21
358.238	329.47
358.62	342.12
359.002	320.2
359.384	347.1
359.766	355.23
360.148	334.67
360.53	335.34
360.912	338.28
361.294	341.22
361.676	333.08
362.057	343.48
362.439	324.05
362.821	319.07
363.203	317.72
363.584	286.31
363.966	304.16
364.348	304.16
364.729	290.83
365.111	319.07
365.493	322.24
365.874	324.27
366.256	322.01
366.637	300.77
367.019	289.47
367.4	314.55
367.781	304.61
368.163	311.84
368.544	314.1
368.925	303.25
369.306	319.3
369.688	312.52
370.069	310.03
370.45	307.1
370.831	319.98
371.212	321.79
371.593	293.76
371.974	313.88
372.355	317.27
372.736	321.33
373.117	303.71
373.498	314.55
373.879	329.02
374.26	305.06
374.641	311.16
375.021	301.67
375.402	304.16
375.783	294.89
376.163	325.63
376.544	310.71
376.925	318.17
377.305	310.94
377.686	336.93
378.066	318.4
378.447	320.43
378.827	300.99
379.208	314.78
379.588	339.86
379.968	334.21
380.349	319.75
380.729	312.75
381.109	316.81
381.489	312.97
381.87	355.23
382.25	316.36
382.63	336.7
383.01	342.35
383.39	331.95
383.77	345.74
384.15	336.25
384.53	344.38
384.91	323.37
385.29	329.24
385.67	355
386.049	357.04
386.429	355.91
386.809	363.37
387.189	343.25
387.568	349.81
387.948	345.74
388.328	351.39
388.707	352.52
389.087	354.33
389.466	349.13
389.846	356.59
390.225	346.64
390.605	349.36
390.984	355.91
391.363	352.29
391.743	357.72
392.122	387.32
392.501	374.89
392.881	365.4
393.26	362.24
393.639	377.15
394.018	368.56
394.397	377.6
394.776	372.41
395.155	376.7
395.534	402.46
395.913	388
396.292	396.81
396.671	393.2
397.05	395
397.429	393.65
397.808	405.4
398.186	388.68
398.565	398.17
398.944	393.42
399.323	411.05
399.701	391.16
400.08	414.21
400.458	408.79
400.837	411.73
401.215	415.34
401.594	409.24
401.972	428.45
402.351	409.01
402.729	423.03
403.107	402.91
403.486	437.49
403.864	406.75
404.242	434.1
404.62	430.03
404.999	423.25
405.377	453.08
405.755	435.23
406.133	443.36
406.511	447.43
406.889	460.09
407.267	471.16
407.645	470.71
408.023	487.43
408.401	479.52
408.779	465.51
409.156	491.05
409.534	482.01
409.912	505.28
410.29	523.36
410.667	497.6
411.045	523.59
411.422	506.87
411.8	521.55
412.178	540.08
412.555	549.58
412.933	549.8
413.31	557.03
413.687	564.04
414.065	563.81
414.442	596.35
414.819	582.34
415.197	578.95
415.574	587.77
415.951	599.97
416.328	609.91
416.705	625.73
417.082	615.79
417.46	635.9
417.837	613.53
418.214	621.89
418.591	630.25
418.967	652.85
419.344	637.94
419.721	660.99
420.098	678.84
420.475	693.98
420.852	682.23
421.228	710.7
421.605	720.19
421.982	727.65
422.358	724.94
422.735	741.21
423.111	750.47
423.488	754.54
423.864	762.9
424.241	797.25
424.617	762.23
424.994	787.31
425.37	806.74
425.746	816.46
426.123	840.64
426.499	844.48
426.875	833.18
427.251	842.45
427.627	875.22
428.003	894.88
428.379	899.62
428.756	888.1
429.132	921.09
429.507	929.45
429.883	924.71
430.259	950.7
430.635	941.2
431.011	971.03
431.387	967.87
431.763	997.25
432.138	1010.58
432.514	1024.82
432.89	1021.43
433.265	1047.64
433.641	1067.08
434.016	1086.51
434.392	1102.78
434.767	1097.13
435.143	1102.78
435.518	1159.28
435.894	1166.06
436.269	1169.45
436.644	1179.39
437.02	1203.8
437.395	1197.69
437.77	1212.61
438.145	1268.2
438.52	1271.14
438.895	1289.44
439.271	1284.7
439.646	1321.53
440.021	1312.95
440.395	1350.68
440.77	1336.45
441.145	1369.22
441.52	1386.62
441.895	1367.86
442.27	1416.9
442.645	1402.89
443.019	1402.66
443.394	1457.57
443.769	1465.26
444.143	1438.82
444.518	1471.81
444.892	1474.98
445.267	1513.84
445.641	1514.3
446.016	1518.82
446.39	1527.4
446.764	1529.21
447.139	1540.74
447.513	1562.2
447.887	1568.53
448.262	1577.35
448.636	1576.89
449.01	1596.78
449.384	1624.12
449.758	1629.55
450.132	1627.74
450.506	1650.34
450.88	1679.04
451.254	1653.28
451.628	1698.02
452.002	1709.32
452.376	1717.91
452.75	1732.14
453.123	1750.67
453.497	1789.32
453.871	1798.81
454.244	1819.15
454.618	1811.92
454.992	1858.02
455.365	1851.46
455.739	1883.33
456.112	1870.22
456.486	1937.56
456.859	1904.34
457.232	1980.72
457.606	1992.48
457.979	1985.24
458.352	2006.03
458.725	2052.81
459.099	2056.2
459.472	2066.15
459.845	2099.59
460.218	2119.25
460.591	2165.35
460.964	2170.55
461.337	2195.41
461.71	2170.78
462.083	2273.6
462.456	2226.14
462.829	2260.27
463.201	2286.03
463.574	2294.84
463.947	2347.49
464.32	2361.05
464.692	2392.92
465.065	2360.83
465.438	2419.58
465.81	2486.47
466.183	2499.81
466.555	2510.65
466.928	2540.71
467.3	2558.11
467.672	2592.91
468.045	2661.84
468.417	2645.11
468.789	2620.26
469.161	2665.23
469.534	2711.1
469.906	2782.74
470.278	2787.26
470.65	2803.53
471.022	2869.97
471.394	2918.1
471.766	2942.73
472.138	2979.34
472.51	3034.93
472.882	3071.09
473.253	3091.2
473.625	3132.33
473.997	3148.83
474.369	3213.69
474.74	3244.42
475.112	3327.81
475.484	3326.9
475.855	3344.53
476.227	3419.56
476.598	3479.44
476.97	3470.4
477.341	3551.3
477.713	3643.73
478.084	3615.94
478.455	3702.94
478.827	3757.85
479.198	3815.93
479.569	3799.89
479.94	3907.23
480.311	3958.75
480.682	4051.63
481.053	4081.69
481.424	4154.23
481.795	4152.87
482.166	4233.55
482.537	4267.9
482.908	4342.92
483.279	4384.5
483.65	4446.65
484.021	4506.76
484.391	4564.39
484.762	4589.92
485.133	4682.57
485.503	4729.13
485.874	4793.76
486.244	4789.01
486.615	4937.94
486.985	4941.1
487.356	5031.49
487.726	5025.16
488.097	5135.9
488.467	5141.55
488.837	5215.22
489.207	5288.43
489.578	5352.39
489.948	5394.19
490.318	5455.21
490.688	5476.23
491.058	5566.62
491.428	5586.28
491.798	5651.59
492.168	5764.13
492.538	5777.46
492.908	5864.69
493.278	5879.61
493.648	5881.64
494.017	5920.28
494.387	5977.46
494.757	6009.32
495.126	5999.83
495.496	6057.45
495.866	6117.79
496.235	6189.65
496.605	6182.65
496.974	6241.86
497.344	6278.46
497.713	6326.37
498.082	6356.43
498.452	6389.42
498.821	6384.9
499.19	6435.75
499.559	6431.46
499.928	6508.74
500.298	6542.64
500.667	6602.75
501.036	6570.89
501.405	6620.15
501.774	6628.29
502.143	6653.82
502.512	6637.78
502.88	6677.1
503.249	6689.98
503.618	6767.27
503.987	6773.59
504.356	6783.99
504.724	6823.76
505.093	6856.98
505.462	6873.25
505.83	6878
506.199	6912.12
506.567	6971.78
506.936	6952.35
507.304	6998.45
507.672	7040.7
508.041	7028.95
508.409	7063.53
508.777	7132
509.145	7177.88
509.514	7101.95
509.882	7172
510.25	7176.07
510.618	7188.95
510.986	7174.49
511.354	7267.59
511.722	7253.81
512.09	7355.95
512.458	7339
512.826	7305.56
513.193	7372.22
513.561	7301.26
513.929	7417.19
514.297	7557.3
514.664	7550.52
515.032	7477.08
515.4	7513.01
515.767	7555.27
516.135	7494.25
516.502	7417.19
516.869	7612.89
517.237	7581.93
517.604	7576.28
517.972	7620.8
518.339	7645.43
518.706	7608.6
519.073	7709.84
519.44	7599.11
519.808	7649.73
520.175	7656.51
520.542	7715.94
520.909	7770.4
521.276	7724.98
521.643	7858.54
522.009	7796.39
522.376	7779.89
522.743	7811.53
523.11	7941.25
523.477	7882.72
523.843	7945.31
524.21	7987.57
524.577	7977.18
524.943	7962.94
525.31	8020.57
525.676	8074.8
526.043	8105.76
526.409	8064.63
526.776	8130.17
527.142	8077.06
527.508	8165.87
527.874	8156.61
528.241	8140.79
528.607	8201.13
528.973	8261.01
529.339	8149.15
529.705	8206.55
530.071	8223.72
530.437	8200.67
530.803	8240.67
531.169	8249.49
531.535	8229.6
531.901	8287.23
532.267	8246.32
532.632	8253.78
532.998	8206.32
533.364	8359.54
533.73	8236.15
534.095	8286.77
534.461	8281.12
534.826	8320.45
535.192	8276.6
535.557	8365.42
535.923	8265.31
536.288	8307.11
536.653	8316.6
537.019	8327.9
537.384	8217.85
537.749	8292.2
538.114	8263.95
538.479	8305.3
538.845	8302.82
539.21	8243.84
539.575	8256.49
539.94	8275.02
540.305	8303.95
540.67	8275.7
541.034	8319.77
541.399	8281.12
541.764	8257.4
542.129	8266.44
542.494	8209.26
542.858	8225.08
543.223	8258.53
543.587	8284.74
543.952	8187.34
544.316	8196.15
544.681	8160.22
545.045	8214.69
545.41	8208.81
545.774	8196.38
546.138	8134.69
546.503	8163.16
546.867	8128.36
547.231	8186.66
547.595	8181.01
547.959	8154.12
548.324	8159.77
548.688	8128.36
549.052	8185.53
549.416	8160
549.779	8125.2
550.143	8134.91
550.507	8195.48
550.871	8142.37
551.235	8166.78
551.599	8156.61
551.962	8211.52
552.326	8134.91
552.689	8123.39
553.053	8090.39
553.417	8122.71
553.78	8143.05
554.143	8107.34
554.507	8124.52
554.87	8076.38
555.234	8175.59
555.597	8125.2
555.96	8163.39
556.323	8202.48
556.686	8092.65
557.05	8041.58
557.413	8129.26
557.776	8124.07
558.139	8185.08
558.502	8155.48
558.865	8141.69
559.228	8156.83
559.59	8160.68
559.953	8153.44
560.316	8220.11
560.679	8225.53
561.041	8294.91
561.404	8215.36
561.767	8342.59
562.129	8291.97
562.492	8331.97
562.854	8323.16
563.217	8222.14
563.579	8305.98
563.941	8366.55
564.304	8370.61
564.666	8374
565.028	8471.85
565.39	8396.6
565.753	8453.32
566.115	8410.84
566.477	8482.93
566.839	8498.29
567.201	8589.36
567.563	8514.34
567.925	8538.52
568.287	8550.72
568.648	8602.47
569.01	8626.65
569.372	8549.59
569.734	8589.59
570.095	8675.69
570.457	8611.28
570.819	8675.92
571.18	8643.15
571.542	8692.41
571.903	8767.66
572.265	8769.25
572.626	8810.38
572.987	8826.42
573.349	8837.04
573.71	8818.06
574.071	8808.79
574.432	8886.98
574.794	8974.89
575.155	8921.33
575.516	8961.33
575.877	8959.3
576.238	9015.57
576.599	8999.52
576.96	9020.77
577.32	9031.39
577.681	9060.76
578.042	9044.49
578.403	9050.82
578.763	9145.51
579.124	9138.28
579.485	9137.15
579.845	9186.64
580.206	9146.86
580.566	9161.33
580.927	9230.48
581.287	9298.27
581.648	9219.18
582.008	9259.4
582.368	9258.73
582.728	9295.11
583.089	9281.55
583.449	9305.73
583.809	9301.21
584.169	9418.27
584.529	9328.33
584.889	9406.29
585.249	9421.21
585.609	9364.49
585.969	9420.53
586.329	9468.66
586.688	9392.51
587.048	9477.02
587.408	9525.16
587.768	9449.68
588.127	9492.17
588.487	9508.21
588.846	9578.94
589.206	9528.32
589.565	9478.61
589.925	9550.47
590.284	9478.83
590.643	9591.6
591.003	9630.47
591.362	9678.83
591.721	9606.29
592.08	9644.25
592.44	9594.76
592.799	9666.85
593.158	9608.09
593.517	9646.29
593.876	9668.66
594.235	9702.33
594.593	9677.02
594.952	9684.25
595.311	9667.08
595.67	9768.54
596.029	9768.99
596.387	9759.5
596.746	9841.08
597.104	9755.21
597.463	9752.72
597.822	9822.1
598.18	9797.02
598.538	9751.14
598.897	9779.16
599.255	9698.49
599.613	9855.77
599.972	9812.84
600.33	9851.48
600.688	9834.76
601.046	9789.11
601.404	9909.78
601.762	9872.27
602.12	9884.7
602.478	9860.97
602.836	9967.41
603.194	9851.93
603.552	9922.21
603.91	9820.97
604.268	9894.64
604.625	9817.35
604.983	9902.32
605.341	9893.96
605.698	9891.25
606.056	9900.06
606.413	9902.78
606.771	9963.57
607.128	9891.7
607.485	9891.93
607.843	9945.26
608.2	10045.6
608.557	9943.45
608.914	9963.79
609.272	9939.16
609.629	10004.69
609.986	10060.51
610.343	10037.24
610.7	10068.65
611.057	9998.14
611.414	10108.87
611.771	10072.04
612.127	10147.74
612.484	10083.79
612.841	10162.88
613.198	10122.43
613.554	10086.27
613.911	10131.7
614.267	10154.52
614.624	10134.41
614.98	10179.38
615.337	10180.51
615.693	10209.66
616.05	10173.5
616.406	10264.57
616.762	10173.28
617.118	10189.77
617.475	10206.05
617.831	10197.68
618.187	10206.72
618.543	10193.84
618.899	10203.56
619.255	10233.62
619.611	10224.12
619.967	10292.14
620.323	10236.33
620.678	10277.23
621.034	10290.34
621.39	10230.9
621.746	10181.87
622.101	10321.52
622.457	10241.75
622.812	10273.39
623.168	10282.88
623.523	10298.7
623.879	10373.5
624.234	10308.87
624.589	10327.62
624.945	10302.54
625.3	10327.17
625.655	10299.38
626.01	10277.46
626.365	10315.19
626.72	10334.63
627.075	10349.77
627.43	10287.17
627.785	10160.62
628.14	10233.84
628.495	10241.75
628.85	10277.68
629.205	10152.04
629.559	10243.33
629.914	10128.08
630.269	10177.8
630.623	10191.58
630.978	10163.56
631.332	10223.9
631.687	10187.06
632.041	10133.73
632.396	10172.83
632.75	10164.24
633.104	10163.11
633.459	10066.39
633.813	10101.19
634.167	10103.9
634.521	10063.45
634.875	10095.99
635.229	10045.37
635.583	10021.42
635.937	10057.8
636.291	9945.71
636.645	10041.76
636.999	9982.1
637.352	10044.24
637.706	9932.83
638.06	9957.69
638.413	9946.62
638.767	9905.49
639.121	9978.03
639.474	9891.25
639.828	9843.34
640.181	9933.74
640.534	9853.06
640.888	9823
641.241	9816.9
641.594	9800.18
641.947	9799.05
642.301	9811.03
642.654	9816.45
643.007	9846.28
643.36	9810.8
643.713	9824.13
644.066	9830.01
644.419	9706.85
644.771	9676.79
645.124	9730.8
645.477	9559.51
645.83	9564.48
646.182	9538.72
646.535	9488.32
646.888	9460.53
647.24	9442.22
647.593	9480.64
647.945	9440.64
648.298	9409.68
648.65	9452.84
649.002	9382.56
649.355	9446.07
649.707	9392.73
650.059	9419.85
650.411	9493.52
650.763	9549.79
651.115	9674.08
651.467	9592.05
651.819	9683.35
652.171	9657.59
652.523	9635.89
652.875	9652.39
653.227	9585.72
653.578	9639.28
653.93	9699.62
654.282	9580.07
654.633	9574.88
654.985	9590.47
655.337	9617.36
655.688	9589.79
656.039	9719.96
656.391	9552.05
656.742	9610.81
657.094	9590.47
657.445	9556.34
657.796	9577.81
658.147	9614.65
658.498	9602.67
658.849	9620.75
659.2	9611.48
659.551	9567.42
659.902	9623.46
660.253	9637.25
660.604	9594.08
660.955	9573.07
661.306	9644.25
661.656	9571.03
662.007	9650.58
662.358	9602.22
662.708	9644.25
663.059	9614.87
663.409	9527.87
663.76	9660.07
664.11	9733.29
664.461	9581.43
664.811	9632.95
665.161	9614.87
665.511	9640.41
665.862	9637.92
666.212	9700.3
666.562	9649.9
666.912	9659.39
667.262	9595.21
667.612	9620.98
667.962	9587.08
668.312	9685.61
668.662	9603.12
669.011	9569.68
669.361	9578.04
669.711	9595.44
670.06	9605.16
670.41	9614.2
670.76	9618.26
671.109	9582.78
671.459	9503.01
671.808	9547.31
672.157	9505.5
672.507	9475.89
672.856	9476.35
673.205	9589.11
673.554	9558.6
673.904	9478.15
674.253	9520.19
674.602	9532.62
674.951	9430.47
675.3	9365.16
675.649	9490.81
675.998	9412.62
676.346	9502.79
676.695	9473.41
677.044	9440.19
677.393	9435.22
677.741	9429.57
678.09	9349.8
678.438	9397.48
678.787	9387.08
679.135	9384.15
679.484	9240.87
679.832	9321.32
680.181	9310.93
680.529	9290.14
680.877	9323.58
681.225	9308.67
681.573	9293.75
681.922	9307.99
682.27	9251.49
682.618	9217.14
682.966	9201.1
683.314	9235.68
683.661	9206.75
684.009	9105.51
684.357	9146.19
684.705	9090.82
685.053	9127.2
685.4	9102.57
685.748	9061.89
686.095	9016.47
686.443	9010.82
686.79	9009.01
687.138	9045.85
687.485	8951.84
687.832	8989.13
688.18	8950.26
688.527	8928.11
688.874	8868.91
689.221	8839.53
689.568	8790.49
689.915	8785.07
690.262	8827.55
690.609	8757.95
690.956	8766.31
691.303	8707.1
691.65	8658.97
691.997	8683.15
692.344	8555.92
692.69	8659.19
693.037	8622.81
693.383	8553.89
693.73	8508.24
694.077	8473.89
694.423	8489.71
694.769	8436.37
695.116	8445.19
695.462	8433.66
695.808	8361.57
696.155	8361.12
696.501	8320.67
696.847	8367.22
697.193	8207
697.539	8227.79
697.885	8217.4
698.231	8201.8
698.577	8163.61
698.923	8145.53
699.269	8063.05
699.614	8050.85
699.96	7971.53
700.306	8031.19
700.651	7935.82
700.997	8049.27
701.342	7964.97
701.688	7960.68
702.033	7860.12
702.379	7821.7
702.724	7840.46
703.069	7857.86
703.415	7774.92
703.76	7792.78
704.105	7732.66
704.45	7731.08
704.795	7631.88
705.14	7699.44
705.485	7597.3
705.83	7666
706.175	7596.62
706.52	7572.22
706.865	7508.94
707.209	7559.79
707.554	7514.36
707.899	7565.66
708.243	7431.88
708.588	7412.67
708.932	7397.53
709.277	7392.33
709.621	7396.63
709.966	7360.24
710.31	7313.24
710.654	7268.95
710.998	7305.33
711.342	7300.81
711.687	7233.69
712.031	7256.29
712.375	7197.08
712.719	7205.9
713.063	7220.59
713.407	7223.98
713.75	7184.66
714.094	7207.71
714.438	7069.4
714.782	7202.28
715.125	7116.63
715.469	7120.02
715.812	7054.72
716.156	7019.46
716.499	7089.97
716.843	7050.42
717.186	7040.48
717.53	6969.97
717.873	7090.42
718.216	7059.91
718.559	6996.19
718.902	6938.33
719.246	6953.48
719.589	6925.23
719.932	6861.95
720.275	6913.93
720.617	6928.62
720.96	6945.11
721.303	6906.02
721.646	6929.3
721.989	6876.19
722.331	6884.78
722.674	6888.17
723.016	6874.38
723.359	6827.6
723.701	6868.51
724.044	6777.89
724.386	6737.66
724.729	6816.76
725.071	6811.33
725.413	6804.1
725.755	6794.84
726.097	6732.01
726.439	6759.36
726.782	6682.52
727.124	6797.55
727.465	6827.38
727.807	6726.81
728.149	6725.46
728.491	6733.82
728.833	6748.51
729.175	6739.92
729.516	6719.58
729.858	6731.56
730.199	6764.55
730.541	6739.24
730.882	6678.91
731.224	6715.52
731.565	6682.07
731.906	6684.56
732.248	6684.33
732.589	6711.67
732.93	6655.18
733.271	6677.1
733.612	6617.44
733.953	6647.04
734.294	6636.87
734.635	6694.5
734.976	6725.01
735.317	6589.64
735.658	6687.04
735.999	6693.6
736.339	6681.84
736.68	6698.57
737.021	6673.03
737.361	6664.9
737.702	6675.74
738.042	6687.04
738.383	6663.09
738.723	6683.88
739.063	6684.33
739.404	6702.86
739.744	6684.1
740.084	6699.7
740.424	6794.84
740.764	6748.28
741.104	6758.45
741.444	6766.81
741.784	6707.15
742.124	6780.6
742.464	6784.67
742.804	6809.07
743.143	6794.16
743.483	6833.93
743.823	6804.78
744.162	6804.1
744.502	6876.42
744.841	6917.54
745.181	6881.39
745.52	6836.42
745.86	6954.83
746.199	6933.59
746.538	6974.72
746.877	6998.67
747.216	7041.38
747.556	7025.34
747.895	7081.16
748.234	7120.25
748.573	7133.36
748.911	7211.1
749.25	7230.53
749.589	7292.9
749.928	7353.69
750.267	7404.31
750.605	7447.02
750.944	7476.4
751.283	7514.14
751.621	7687.02
751.96	7711.87
752.298	7703.96
752.636	7817.63
752.975	7874.36
753.313	7969.27
753.651	8063.28
753.989	8098.76
754.327	8143.95
754.666	8193.44
755.004	8390.27
755.342	8445.64
755.679	8537.39
756.017	8595.92
756.355	8775.12
756.693	8812.86
757.031	8991.84
757.368	9073.87
757.706	9146.64
758.044	9211.5
758.381	9364.49
758.719	9479.51
759.056	9583.46
759.394	9670.69
759.731	9805.83
760.068	9922.44
760.405	9960.18
760.743	10138.93
761.08	10272.03
761.417	10362.88
761.754	10472.25
762.091	10601.74
762.428	10723.77
762.765	10846.48
763.102	11066.81
763.438	11088.96
763.775	11193.82
764.112	11330.54
764.449	11451.44
764.785	11538.21
765.122	11598.1
765.458	11700.02
765.795	11781.37
766.131	11982.72
766.467	12052.55
766.804	12108.82
767.14	12204.86
767.476	12321.02
767.812	12455.48
768.148	12579.09
768.485	12570.73
768.821	12646.43
769.157	12758.75
769.492	12839.2
769.828	13045.29
770.164	13028.8
770.5	13128.68
770.836	13215.46
771.171	13203.48
771.507	13339.97
771.842	13374.1
772.178	13434.66
772.513	13454.55
772.849	13534.55
773.184	13568.44
773.519	13677.82
773.855	13733.41
774.19	13620.19
774.525	13781.09
774.86	13780.41
775.195	13923.69
775.53	13915.1
775.865	13941.99
776.2	13847.53
776.535	13897.25
776.87	14014.98
777.205	13995.78
777.539	14000.3
777.874	14174.75
778.209	13974.08
778.543	14075.32
778.878	14040.97
779.212	14094.08
779.547	14131.82
779.881	14133.17
780.215	14109.9
780.55	14200.29
780.884	14083.23
781.218	14054.31
781.552	14216.34
781.886	14146.73
782.22	14155.09
782.554	14071.25
782.888	14035.55
783.222	14100.18
783.556	14066.73
783.889	14107.41
784.223	14038.26
784.557	13999.17
784.89	14064.25
785.224	13995.78
785.557	13908.32
785.891	13901.99
786.224	13981.99
786.558	13907.19
786.891	13865.84
787.224	13803.46
787.557	13785.84
787.891	13808.66
788.224	13847.98
788.557	13885.27
788.89	13770.7
789.223	13831.71
789.556	13714.43
789.888	13754.65
790.221	13706.74
790.554	13575.45
790.887	13659.29
791.219	13630.81
791.552	13618.16
791.884	13608.44
792.217	13560.08
792.549	13564.83
792.882	13459.07
793.214	13411.16
793.546	13494.09
793.879	13375.68
794.211	13270.15
794.543	13383.14
794.875	13303.82
795.207	13373.87
795.539	13301.11
795.871	13315.79
796.203	13198.73
796.535	13158.06
796.867	13207.77
797.198	13073.77
797.53	13034.45
797.862	13166.42
798.193	13022.02
798.525	13056.37
798.856	13029.93
799.188	12920.1
799.519	12935.92
799.85	12837.61
800.182	12887.56
800.513	12820.21
800.844	12680.56
801.175	12832.42
801.506	12759.42
801.837	12657.51
802.168	12776.6
802.499	12720.78
802.83	12585.64
803.161	12573.44
803.491	12570.28
803.822	12549.49
804.153	12539.77
804.483	12448.7
804.814	12502.03
805.145	12417.06
805.475	12359.66
805.805	12329.38
806.136	12364.86
806.466	12344.75
806.796	12327.12
807.126	12229.95
807.457	12264.97
807.787	12287.12
808.117	12116.5
808.447	12072.89
808.777	12198.76
809.107	12103.17
809.436	12028.82
809.766	12052.32
810.096	12055.26
810.426	11921.71
810.755	12106.79
811.085	11974.81
811.414	11921.71
811.744	11860.92
812.073	11862.27
812.403	11867.47
812.732	11775.5
813.061	11820.24
813.39	11734.14
813.719	11667.02
814.049	11827.92
814.378	11713.8
814.707	11703.41
815.036	11616.18
815.365	11598.32
815.693	11524.2
816.022	11520.36
816.351	11496.86
816.68	11399.69
817.008	11483.07
817.337	11384.55
817.665	11394.49
817.994	11388.39
818.322	11416.63
818.651	11352
818.979	11337.54
819.307	11370.99
819.636	11298.22
819.964	11230.88
820.292	11272.01
820.62	11357.88
820.948	11189.75
821.276	11295.06
821.604	11225.91
821.932	11276.3
822.259	11283.53
822.587	11227.94
822.915	11180.03
823.243	11264.77
823.57	11255.96
823.898	11255.06
824.225	11225.23
824.553	11155.62
824.88	11250.99
825.207	11302.97
825.535	11191.56
825.862	11260.71
826.189	11282.63
826.516	11255.74
826.843	11339.8
827.17	11286.47
827.497	11271.55
827.824	11292.34
828.151	11243.53
828.478	11287.82
828.805	11301.84
829.131	11280.82
829.458	11191.33
829.785	11177.32
830.111	11227.26
830.438	11376.64
830.764	11288.28
831.09	11243.98
831.417	11255.06
831.743	11283.76
832.069	11224.55
832.395	11209.18
832.722	11207.15
833.048	11202.18
833.374	11230.88
833.7	11174.38
834.026	11135.51
834.351	11172.35
834.677	11168.05
835.003	11187.49
835.329	11192.91
835.654	11163.08
835.98	11086.7
836.306	11122.63
836.631	11072.01
836.956	11084.21
837.282	11093.25
837.607	11069.07
837.932	11057.1
838.258	11055.51
838.583	11030.2
838.908	11000.83
839.233	10966.48
839.558	10908.4
839.883	10932.35
840.208	10897.55
840.533	10897.33
840.858	10833.83
841.182	10878.57
841.507	10902.07
841.832	10798.35
842.156	10791.57
842.481	10826.59
842.805	10755.41
843.13	10751.79
843.454	10740.72
843.778	10674.28
844.103	10583.44
844.427	10626.6
844.751	10602.42
845.075	10597.22
845.399	10549.54
845.723	10417.79
846.047	10517
846.371	10392.03
846.695	10371.92
847.019	10268.87
847.343	10287.85
847.666	10240.85
847.99	10255.99
848.313	10187.29
848.637	10059.61
848.96	10100.29
849.284	10106.61
849.607	10064.35
849.931	10020.97
850.254	9928.31
850.577	9904.36
850.9	9838.6
851.223	9815.1
851.546	9771.71
851.869	9719.05
852.192	9803.34
852.515	9656
852.838	9686.74
853.161	9703.91
853.483	9580.07
853.806	9526.74
854.129	9535.1
854.451	9473.41
854.774	9464.6
855.096	9462.11
855.419	9451.26
855.741	9362
856.063	9361.77
856.385	9382.11
856.708	9298.95
857.03	9284.94
857.352	9269.57
857.674	9237.26
857.996	9201.33
858.318	9126.3
858.64	9178.28
858.961	9132.18
859.283	9115.68
859.605	9003.59
859.926	9075.68
860.248	9062.35
860.57	9043.36
860.891	9037.49
861.212	9004.72
861.534	8901.9
861.855	8889.92
862.176	8940.09
862.498	8941.67
862.819	8915.01
863.14	8871.17
863.461	8789.36
863.782	8864.61
864.103	8791.17
864.424	8791.62
864.745	8737.16
865.065	8756.37
865.386	8684.96
865.707	8662.58
866.027	8745.97
866.348	8663.49
866.668	8760.21
866.989	8666.88
867.309	8648.35
867.63	8595.47
867.95	8631.85
868.27	8592.98
868.59	8623.94
868.91	8536.03
869.23	8570.16
869.55	8516.37
869.87	8519.31
870.19	8492.64
870.51	8561.57
870.83	8529.71
871.15	8449.48
871.469	8459.88
871.789	8466.66
872.109	8522.7
872.428	8396.15
872.748	8439.09
873.067	8449.93
873.386	8379.65
873.706	8384.4
874.025	8322.48
874.344	8328.13
874.663	8373.78
874.982	8314.57
875.301	8364.74
875.62	8294.91
875.939	8202.71
876.258	8251.29
876.577	8262.37
876.896	8307.56
877.214	8164.52
877.533	8211.75
877.852	8244.74
878.17	8207.45
878.489	8164.74
878.807	8176.72
879.125	8144.4
879.444	8221.24
879.762	8157.06
880.08	8139.43
880.398	8087.68
880.716	8075.25
881.034	8075.71
881.352	8018.31
881.67	8023.96
881.988	8036.16
882.306	8056.27
882.624	7978.76
882.941	7960.23
883.259	7873.23
883.577	7882.26
883.894	7935.6
884.212	7918.87
884.529	7889.5
884.846	7827.12
885.164	7928.36
885.481	7761.59
885.798	7844.98
886.115	7794.36
886.432	7738.99
886.75	7696.73
887.067	7782.83
887.383	7687.24
887.7	7728.14
888.017	7715.04
888.334	7674.59
888.651	7653.34
888.967	7607.7
889.284	7538.77
889.6	7590.29
889.917	7541.93
890.233	7542.84
890.55	7510.07
890.866	7458.09
891.182	7419
891.498	7459.68
891.815	7387.36
892.131	7403.63
892.447	7389.17
892.763	7303.07
893.079	7276.86
893.395	7317.31
893.71	7274.37
894.026	7287.25
894.342	7264.2
894.657	7134.94
894.973	7185.79
895.289	7198.44
895.604	7190.53
895.92	7127.26
896.235	7060.82
896.55	7080.25
896.865	7024.21
897.181	7003.64
897.496	6969.97
897.811	6977.66
898.126	6943.98
898.441	6958.67
898.756	6937.43
899.071	6881.61
899.386	6904.66
899.7	6859.24
900.015	6809.07
900.33	6775.85
900.644	6734.95
900.959	6755.06
901.273	6762.52
901.588	6694.73
901.902	6696.08
902.216	6639.13
902.531	6641.62
902.845	6607.5
903.159	6565.91
903.473	6481.62
903.787	6549.42
904.101	6443.43
904.415	6501.51
904.729	6425.13
905.042	6417.44
905.356	6404.34
905.67	6399.37
905.984	6357.78
906.297	6345.36
906.611	6315.75
906.924	6295.19
907.237	6257
907.551	6297.22
907.864	6253.61
908.177	6165.02
908.491	6168.41
908.804	6169.54
909.117	6129.54
909.43	6087.74
909.743	6081.63
910.056	5977.23
910.368	6026.04
910.681	5984.24
910.994	5969.09
911.307	5944.69
911.619	5921.64
911.932	5910.56
912.244	5886.38
912.557	5807.29
912.869	5857.91
913.181	5811.13
913.494	5824.47
913.806	5755.09
914.118	5767.74
914.43	5708.76
914.742	5676.67
915.054	5669.67
915.366	5647.75
915.678	5642.78
915.99	5638.93
916.302	5575.66
916.613	5556.22
916.925	5597.13
917.236	5483.01
917.548	5452.27
917.859	5479.16
918.171	5438.03
918.482	5412.05
918.794	5442.33
919.105	5364.36
919.416	5351.71
919.727	5386.74
920.038	5354.2
920.349	5288.89
920.66	5276.01
920.971	5250.92
921.282	5213.86
921.593	5227.19
921.903	5189
922.214	5121.66
922.525	5152.84
922.835	5115.33
923.146	5089.8
923.456	5100.19
923.767	5070.81
924.077	5067.42
924.387	5024.03
924.697	4959.86
925.008	4999.85
925.318	4937.71
925.628	4940.19
925.938	4940.42
926.248	4937.03
926.558	4884.83
926.867	4879.63
927.177	4830.14
927.487	4857.71
927.796	4807.32
928.106	4793.53
928.416	4842.8
928.725	4774.1
929.034	4728.45
929.344	4681.67
929.653	4722.57
929.962	4672.63
930.271	4645.51
930.581	4650.49
930.89	4657.72
931.199	4590.83
931.508	4578.17
931.817	4628.79
932.125	4583.82
932.434	4533.88
932.743	4532.52
933.051	4495.91
933.36	4506.31
933.669	4456.14
933.977	4460.21
934.286	4421.56
934.594	4404.39
934.902	4393.99
935.21	4354.67
935.519	4370.72
935.827	4362.36
936.135	4306.99
936.443	4326.2
936.751	4293.43
937.059	4289.59
937.367	4233.77
937.674	4208.24
937.982	4252.98
938.29	4170.72
938.597	4209.59
938.905	4173.66
939.213	4130.5
939.52	4145.41
939.827	4142.48
940.135	4104.28
940.442	4071.29
940.749	4029.26
941.056	4041.69
941.363	4007.79
941.67	4018.19
941.977	3977.28
942.284	3943.16
942.591	3969.15
942.898	3949.49
943.205	3938.64
943.511	3878.98
943.818	3862.26
944.125	3835.14
944.431	3829.72
944.738	3831.75
945.044	3779.1
945.35	3779.77
945.657	3757.4
945.963	3813.67
946.269	3743.16
946.575	3775.71
946.881	3722.37
947.187	3743.16
947.493	3639.44
947.799	3702.71
948.105	3657.97
948.41	3670.62
948.716	3639.89
949.022	3633.34
949.327	3629.04
949.633	3582.04
949.938	3591.76
950.244	3571.19
950.549	3578.65
950.854	3537.52
951.16	3516.73
951.465	3485.32
951.77	3489.61
952.075	3427.92
952.38	3460.91
952.685	3457.3
952.99	3418.65
953.294	3422.04
953.599	3391.54
953.904	3387.02
954.209	3407.58
954.513	3337.98
954.818	3368.71
955.122	3310.63
955.426	3325.1
955.731	3286.91
956.035	3321.03
956.339	3292.55
956.643	3246.91
956.948	3240.58
957.252	3248.49
957.556	3198.09
957.86	3209.62
958.163	3218.21
958.467	3208.49
958.771	3153.58
959.075	3185.89
959.378	3153.58
959.682	3134.59
959.985	3099.57
960.289	3117.42
960.592	3093.24
960.896	3058.44
961.199	3060.47
961.502	3078.1
961.805	3034.26
962.108	3014.82
962.411	3032.22
962.714	3038.55
963.017	2989.74
963.32	3013.01
963.623	2949.06
963.926	2959.23
964.228	2927.82
964.531	2915.84
964.833	2923.75
965.136	2898.89
965.438	2867.26
965.741	2883.75
966.043	2876.52
966.345	2838.78
966.648	2885.33
966.95	2840.59
967.252	2826.8
967.554	2756.98
967.856	2753.36
968.158	2792
968.46	2761.72
968.761	2709.52
969.063	2748.16
969.365	2740.48
969.666	2700.25
969.968	2704.32
970.269	2708.16
970.571	2649.18
970.872	2688.95
971.174	2707.94
971.475	2646.92
971.776	2634.94
972.077	2646.92
972.378	2615.74
972.679	2600.37
972.98	2572.57
973.281	2607.6
973.582	2608.96
973.883	2586.81
974.183	2563.53
974.484	2566.25
974.785	2521.05
975.085	2528.51
975.386	2522.86
975.686	2507.04
975.986	2479.02
976.287	2542.97
976.587	2458.68
976.887	2441.73
977.187	2444.22
977.487	2479.02
977.787	2383.43
978.087	2411.67
978.387	2414.16
978.687	2394.05
978.987	2387.72
979.286	2368.51
979.586	2386.14
979.885	2364.22
980.185	2370.09
980.484	2349.98
980.784	2360.83
981.083	2312.92
981.382	2301.17
981.682	2282.19
981.981	2299.13
982.28	2292.81
982.579	2258.68
982.878	2269.98
983.177	2241.73
983.475	2285.35
983.774	2209.42
984.073	2190.66
984.372	2188.4
984.67	2181.62
984.969	2178.69
985.267	2215.29
985.566	2163.54
985.864	2145.47
986.162	2158.35
986.461	2134.62
986.759	2124
987.057	2146.37
987.355	2100.5
987.653	2110.89
987.951	2092.59
988.249	2094.85
988.547	2086.94
988.844	2086.48
989.142	2046.49
989.44	2061.17
989.737	2035.64
990.035	2027.5
990.332	2040.61
990.63	1995.41
990.927	2029.54
991.224	1993.83
991.521	2009.2
991.819	2004.68
992.116	1947.51
992.413	1943.66
992.71	1983.21
993.006	1948.86
993.303	1986.6
993.6	1936.88
993.897	1920.61
994.193	1920.39
994.49	1918.58
994.787	1877.68
995.083	1908.64
995.379	1902.53
995.676	1885.13
995.972	1873.83
996.268	1862.76
996.565	1825.93
996.861	1838.36
997.157	1846.27
997.453	1816.66
997.749	1809.88
998.044	1791.35
998.34	1782.54
998.636	1775.08
998.932	1756.32
999.227	1764.69
999.523	1758.58
999.818	1724.23
1000.114	1751.13
1000.409	1716.78
1000.704	1692.82
1001	1708.64
1001.295	1698.47
1001.59	1675.87
1001.885	1697.34
1002.18	1688.3
1002.475	1693.05
1002.77	1661.86
1003.065	1644.24
1003.359	1630.45
1003.654	1615.08
1003.949	1632.26
1004.243	1629.32
1004.538	1603.79
1004.832	1600.62
1005.127	1583.67
1005.421	1610.11
1005.715	1564.01
1006.009	1590.68
1006.304	1533.5
1006.598	1525.82
1006.892	1527.86
1007.186	1517.91
1007.48	1524.92
1007.773	1507.52
1008.067	1507.52
1008.361	1486.95
1008.655	1489.44
1008.948	1486.95
1009.242	1450.57
1009.535	1463.22
1009.829	1454.64
1010.122	1456.9
1010.415	1429.78
1010.708	1470
1011.001	1438.59
1011.295	1430
1011.588	1418.71
1011.881	1426.39
1012.173	1361.31
1012.466	1374.64
1012.759	1394.98
1013.052	1389.1
1013.344	1363.57
1013.637	1368.31
1013.93	1359.95
1014.222	1359.05
1014.514	1326.96
1014.807	1314.75
1015.099	1318.82
1015.391	1321.76
1015.683	1300.06
1015.976	1320.63
1016.268	1300.97
1016.56	1272.72
1016.851	1282.21
1017.143	1282.21
1017.435	1261.65
1017.727	1246.28
1018.018	1257.13
1018.31	1238.37
1018.602	1233.4
1018.893	1216.45
1019.185	1223.68
1019.476	1188.88
1019.767	1221.87
1020.058	1233.85
1020.35	1208.32
1020.641	1155.21
1020.932	1183.46
1021.223	1184.14
1021.514	1174.19
1021.804	1160.41
1022.095	1150.92
1022.386	1138.49
1022.677	1158.37
1022.967	1103.91
1023.258	1130.35
1023.548	1107.53
1023.839	1125.61
1024.129	1091.71
1024.419	1093.52
1024.709	1080.86
1025	1060.52
1025.29	1050.35
1025.58	1060.97
1025.87	1076.79
1026.16	1045.38
1026.449	1032.5
1026.739	1016.91
1027.029	1041.54
1027.319	1034.31
1027.608	1034.76
1027.898	1033.18
1028.187	1020.07
1028.477	1002.67
1028.766	1005.61
1029.055	980.07
1029.344	970.81
1029.634	1001.99
1029.923	983.24
1030.212	973.07
1030.501	964.25
1030.79	966.29
1031.078	955.44
1031.367	925.16
1031.656	935.78
1031.945	946.4
1032.233	947.76
1032.522	906.63
1032.81	928.32
1033.099	915.44
1033.387	904.14
1033.675	890.36
1033.963	895.56
1034.251	865.73
1034.54	866.18
1034.828	872.73
1035.116	871.38
1035.403	852.17
1035.691	818.27
1035.979	869.12
1036.267	864.14
1036.554	848.33
1036.842	859.85
1037.129	830.47
1037.417	830.25
1037.704	823.24
1037.992	823.69
1038.279	816.24
1038.566	811.72
1038.853	811.72
1039.14	811.72
