Data from hue_160_FLMS001491_00060.txt Node
Date: Tue Feb 07 16:51:23 GMT 2017
User: dcchb
Spectrometer: FLMS00149
Trigger mode: 0
Integration Time (sec): 2.000000E-2
Scans to average: 10
Electric dark correction enabled: true
Nonlinearity correction enabled: false
Boxcar width: 0
XAxis mode: Wavelengths
Number of Pixels in Spectrum: 2048
>>>>>Begin Spectral Data<<<<<
341.393	-14.42
341.776	-14.42
342.16	-14.42
342.543	-61.2
342.927	-67.98
343.31	-62.33
343.693	-85.61
344.077	-82.89
344.46	-64.59
344.843	-20.3
345.226	-55.32
345.61	-46.28
345.993	-9.22
346.376	-15.78
346.759	28.29
347.142	37.56
347.525	30.1
347.908	55.86
348.291	87.5
348.674	92.7
349.057	110.32
349.44	132.92
349.823	126.59
350.206	174.95
350.588	201.39
350.971	198.46
351.354	227.16
351.737	237.55
352.119	234.39
352.502	279.13
352.884	257.89
353.267	273.03
353.65	304.89
354.032	293.37
354.414	296.08
354.797	317.77
355.179	301.73
355.562	316.42
355.944	319.58
356.326	333.82
356.709	320.49
357.091	352.12
357.473	339.47
357.855	331.33
358.238	339.69
358.62	341.5
359.002	317.32
359.384	313.93
359.766	337.66
360.148	334.27
360.53	331.33
360.912	309.41
361.294	327.49
361.676	325.91
362.057	323.88
362.439	324.55
362.821	334.27
363.203	313.71
363.584	298.79
363.966	317.1
364.348	319.36
364.729	325.23
365.111	313.03
365.493	310.32
365.874	322.29
366.256	321.16
366.637	294.72
367.019	320.94
367.4	308.96
367.781	335.63
368.163	296.08
368.544	322.29
368.925	301.05
369.306	323.2
369.688	332.01
370.069	328.4
370.45	307.6
370.831	294.72
371.212	291.56
371.593	298.79
371.974	325.23
372.355	289.07
372.736	317.77
373.117	320.49
373.498	302.18
373.879	319.81
374.26	306.02
374.641	297.66
375.021	318.23
375.402	308.06
375.783	313.48
376.163	304.67
376.544	310.77
376.925	307.38
377.305	323.2
377.686	316.64
378.066	319.58
378.447	308.73
378.827	322.75
379.208	330.43
379.588	339.92
379.968	325.46
380.349	334.5
380.729	323.2
381.109	322.07
381.489	321.84
381.87	322.52
382.25	302.41
382.63	346.02
383.01	329.75
383.39	327.72
383.77	343.54
384.15	341.95
384.53	349.19
384.91	339.69
385.29	347.6
385.67	344.21
386.049	334.27
386.429	332.46
386.809	339.69
387.189	343.54
387.568	372.24
387.948	346.02
388.328	335.17
388.707	354.61
389.087	366.81
389.466	359.35
389.846	336.53
390.225	373.37
390.605	373.82
390.984	354.84
391.363	350.99
391.743	377.66
392.122	362.52
392.501	385.34
392.881	367.94
393.26	362.07
393.639	381.5
394.018	376.3
394.397	367.26
394.776	383.31
395.155	378.56
395.534	376.08
395.913	381.73
396.292	397.55
396.671	381.95
397.05	382.18
397.429	387.15
397.808	375.17
398.186	390.77
398.565	383.31
398.944	377.21
399.323	387.38
399.701	377.89
400.08	380.6
400.458	385.34
400.837	368.62
401.215	387.83
401.594	379.47
401.972	404.55
402.351	374.27
402.729	412.23
403.107	408.85
403.486	412.91
403.864	405
404.242	413.14
404.62	419.24
404.999	406.13
405.377	432.35
405.755	407.04
406.133	427.83
406.511	430.54
406.889	431.67
407.267	395.51
407.645	398.22
408.023	421.05
408.401	440.71
408.779	423.08
409.156	442.97
409.534	430.54
409.912	449.07
410.29	456.53
410.667	459.01
411.045	452.46
411.422	438.9
411.8	430.31
412.178	467.15
412.555	465.57
412.933	491.55
413.31	483.19
413.687	479.58
414.065	469.86
414.442	496.98
414.819	489.3
415.197	500.82
415.574	503.08
415.951	485
416.328	513.48
416.705	518.67
417.082	500.59
417.46	495.4
417.837	497.66
418.214	491.33
418.591	495.17
418.967	512.35
419.344	528.84
419.721	528.62
420.098	500.37
420.475	521.16
420.852	529.52
421.228	521.16
421.605	530.2
421.982	559.35
422.358	534.94
422.735	524.77
423.111	543.76
423.488	565.9
423.864	567.26
424.241	547.82
424.617	544.89
424.994	579.91
425.37	575.39
425.746	589.63
426.123	597.99
426.499	589.41
426.875	598.44
427.251	599.8
427.627	599.57
428.003	598.22
428.379	602.51
428.756	609.52
429.132	626.69
429.507	628.5
429.883	638.44
430.259	669.18
430.635	654.94
431.011	650.19
431.387	649.52
431.763	671.66
432.138	649.74
432.514	672.79
432.89	661.27
433.265	666.01
433.641	680.48
434.016	690.42
434.392	714.83
434.767	693.13
435.143	729.97
435.518	718.89
435.894	715.5
436.269	732.68
436.644	740.14
437.02	741.04
437.395	740.59
437.77	776.07
438.145	804.77
438.52	776.29
438.895	757.99
439.271	788.5
439.646	800.47
440.021	777.2
440.395	796.18
440.77	788.72
441.145	804.77
441.52	831.43
441.895	821.94
442.27	842.05
442.645	835.05
443.019	824.65
443.394	847.03
443.769	849.51
444.143	831.66
444.518	864.43
444.892	858.1
445.267	854.26
445.641	877.31
446.016	883.18
446.39	892.45
446.764	890.64
447.139	905.1
447.513	899.68
447.887	912.11
448.262	906.69
448.636	929.51
449.01	943.07
449.384	962.95
449.758	945.33
450.132	939.23
450.506	950.53
450.88	968.83
451.254	980.13
451.628	971.99
452.002	967.02
452.376	1002.5
452.75	998.89
453.123	1032.11
453.497	1016.74
453.871	1025.1
454.244	1045.44
454.618	1065.33
454.992	1088.38
455.365	1061.26
455.739	1110.3
456.112	1111.88
456.486	1120.92
456.859	1133.8
457.232	1159.79
457.606	1137.64
457.979	1146
458.352	1167.92
458.725	1188.26
459.099	1208.82
459.472	1192.78
459.845	1218.99
460.218	1217.86
460.591	1261.48
460.964	1260.57
461.337	1295.6
461.71	1324.75
462.083	1342.61
462.456	1349.16
462.829	1328.37
463.201	1366.11
463.574	1367.46
463.947	1387.12
464.32	1441.59
464.692	1447.46
465.065	1452.89
465.438	1474.58
465.81	1514.35
466.183	1502.15
466.555	1528.36
466.928	1558.19
467.3	1588.93
467.672	1623.73
468.045	1672.99
468.417	1651.75
468.789	1681.13
469.161	1703.27
469.534	1720.9
469.906	1767.45
470.278	1825.53
470.65	1857.62
471.022	1871.86
471.394	1892.65
471.766	1960.67
472.138	1995.7
472.51	2041.8
472.882	2065.3
473.253	2089.03
473.625	2129.03
473.997	2192.3
474.369	2237.95
474.74	2259.19
475.112	2291.28
475.484	2367.66
475.855	2428.68
476.227	2455.35
476.598	2557.04
476.97	2617.6
477.341	2673.64
477.713	2706.64
478.084	2769.46
478.455	2872.28
478.827	2915.22
479.198	3031.15
479.569	3071.15
479.94	3188.43
480.311	3222.33
480.682	3359.28
481.053	3448.99
481.424	3521.76
481.795	3543.68
482.166	3649.89
482.537	3761.75
482.908	3907.06
483.279	3983.89
483.65	4062.99
484.021	4212.59
484.391	4268.18
484.762	4391.11
485.133	4401.06
485.503	4568.74
485.874	4712.91
486.244	4781.16
486.615	4923.75
486.985	5100.93
487.356	5199.23
487.726	5285.55
488.097	5414.59
488.467	5498.88
488.837	5688.93
489.207	5820.91
489.578	5945.2
489.948	6072.43
490.318	6168.02
490.688	6274
491.058	6417.27
491.428	6542.02
491.798	6654.33
492.168	6861.56
492.538	6925.74
492.908	7071.72
493.278	7249.8
493.648	7329.79
494.017	7516
494.387	7536.79
494.757	7680.74
495.126	7829.44
495.496	7888.87
495.866	8010.68
496.235	8136.55
496.605	8230.11
496.974	8313.04
497.344	8479.59
497.713	8521.4
498.082	8693.6
498.452	8786.93
498.821	8875.29
499.19	8895.85
499.559	9058.34
499.928	9166.36
500.298	9225.79
500.667	9364.09
501.036	9338.1
501.405	9525.44
501.774	9569.73
502.143	9734.25
502.512	9727.92
502.88	9899.9
503.249	9861.93
503.618	10024.86
503.987	10140.57
504.356	10043.62
504.724	10213.79
505.093	10205.65
505.462	10347.11
505.83	10416.04
506.199	10428.47
506.567	10616.03
506.936	10620.1
507.304	10729.25
507.672	10755.01
508.041	10839.76
508.409	10957.72
508.777	10982.8
509.145	11009.7
509.514	11011.96
509.882	11121.78
510.25	11179.86
510.618	11191.39
510.986	11240.88
511.354	11326.75
511.722	11471.61
512.09	11457.37
512.458	11414.21
512.826	11560.64
513.193	11550.7
513.561	11622.79
513.929	11658.49
514.297	11735.1
514.664	11753.18
515.032	11803.57
515.4	11894.42
515.767	11874.98
516.135	11947.52
516.502	11861.88
516.869	11981.87
517.237	12088.99
517.604	11977.35
517.972	12029.56
518.339	12097.35
518.706	12152.72
519.073	12051.7
519.44	12212.38
519.808	12288.76
520.175	12195.65
520.542	12293.5
520.909	12321.3
521.276	12302.09
521.643	12387.06
522.009	12454.86
522.376	12428.87
522.743	12474.29
523.11	12601.97
523.477	12565.59
523.843	12604.91
524.21	12715.64
524.577	12789.08
524.943	12776.66
525.31	12736.2
525.676	12775.75
526.043	12855.75
526.409	12847.61
526.776	12843.32
527.142	12882.64
527.508	12903.21
527.874	12934.17
528.241	13053.26
528.607	12984.11
528.973	12961.28
529.339	12873.83
529.705	12949.53
530.071	13049.19
530.437	12973.26
530.803	13019.14
531.169	12974.16
531.535	12986.82
531.901	12961.74
532.267	12972.36
532.632	12954.28
532.998	12960.38
533.364	13024.78
533.73	12920.83
534.095	12996.54
534.461	12933.04
534.826	12964.67
535.192	12906.37
535.557	12944.11
535.923	12933.71
536.288	12858.91
536.653	12923.77
537.019	12776.88
537.384	12822.53
537.749	12787.95
538.114	12739.14
538.479	12640.39
538.845	12658.92
539.21	12553.16
539.575	12671.57
539.94	12674.74
540.305	12627.73
540.67	12413.05
541.034	12624.57
541.399	12533.27
541.764	12505.25
542.129	12531.01
542.494	12462.77
542.858	12346.61
543.223	12352.71
543.587	12387.06
543.952	12298.93
544.316	12318.14
544.681	12265.26
545.045	12234.97
545.41	12259.61
545.774	12187.29
546.138	12170.12
546.503	12103.9
546.867	12130.8
547.231	12149.33
547.595	12040.63
547.959	12037.01
548.324	11915.89
548.688	11889.22
549.052	11886.06
549.416	11839.96
549.779	11844.48
550.143	11881.09
550.507	11887.87
550.871	11797.02
551.235	11811.71
551.599	11730.36
551.962	11749.79
552.326	11638.15
552.689	11647.65
553.053	11663.01
553.417	11599.29
553.78	11656.23
554.143	11568.55
554.507	11569
554.87	11431.38
555.234	11633.41
555.597	11390.25
555.96	11489.46
556.323	11496.69
556.686	11460.76
557.05	11491.49
557.413	11444.04
557.776	11383.92
558.139	11476.58
558.502	11444.94
558.865	11406.97
559.228	11487.2
559.59	11422.57
559.953	11407.65
560.316	11552.06
560.679	11382.12
561.041	11423.7
561.404	11463.02
561.767	11416.92
562.129	11351.83
562.492	11500.53
562.854	11480.87
563.217	11428.89
563.579	11440.65
563.941	11432.96
564.304	11493.98
564.666	11430.48
565.028	11474.99
565.39	11506.63
565.753	11474.32
566.115	11469.8
566.477	11550.25
566.839	11478.38
567.201	11559.51
567.563	11445.62
567.925	11559.06
568.287	11559.51
568.648	11570.36
569.01	11532.85
569.372	11624.82
569.734	11546.63
570.095	11619.4
570.457	11615.78
570.819	11534.2
571.18	11533.3
571.542	11713.18
571.903	11684.48
572.265	11705.27
572.626	11666.63
572.987	11702.11
573.349	11711.6
573.71	11743.69
574.071	11750.24
574.432	11754.31
574.794	11807.42
575.155	11681.09
575.516	11724.03
575.877	11749.79
576.238	11789.34
576.599	11775.78
576.96	11745.04
577.32	11737.13
577.681	11863.69
578.042	11858.71
578.403	11707.53
578.763	11806.29
579.124	11776.46
579.485	11798.6
579.845	11816.23
580.206	11790.01
580.566	11822.33
580.927	11745.04
581.287	11858.04
581.648	11764.7
582.008	11788.21
582.368	11798.15
582.728	11771.26
583.089	11778.49
583.449	11778.04
583.809	11703.69
584.169	11771.94
584.529	11732.16
584.889	11847.41
585.249	11796.79
585.609	11630.02
585.969	11706.4
586.329	11562.22
586.688	11790.69
587.048	11651.49
587.408	11660.75
587.768	11634.31
588.127	11562.9
588.487	11558.61
588.846	11657.14
589.206	11593.41
589.565	11642.67
589.925	11681.09
590.284	11621.88
590.643	11604.26
591.003	11661.66
591.362	11643.13
591.721	11529.68
592.08	11602
592.44	11586.18
592.799	11580.53
593.158	11593.64
593.517	11608.1
593.876	11520.42
594.235	11506.41
594.593	11512.51
594.952	11576.24
595.311	11593.64
595.67	11527.2
596.029	11570.13
596.387	11561.55
596.746	11629.12
597.104	11524.26
597.463	11488.33
597.822	11582.79
598.18	11501.89
598.538	11478.84
598.897	11505.95
599.255	11408.78
599.613	11633.41
599.972	11537.14
600.33	11552.06
600.688	11489.01
601.046	11492.62
601.404	11514.32
601.762	11482
602.12	11541.21
602.478	11569
602.836	11546.41
603.194	11536.24
603.552	11549.12
603.91	11436.13
604.268	11509.12
604.625	11452.4
604.983	11473.19
605.341	11479.74
605.698	11517.93
606.056	11592.51
606.413	11493.3
606.771	11522.68
607.128	11530.36
607.485	11524.94
607.843	11468.89
608.2	11511.38
608.557	11607.42
608.914	11536.46
609.272	11597.93
609.629	11561.77
609.986	11638.15
610.343	11537.59
610.7	11691.94
611.057	11622.11
611.414	11579.17
611.771	11669.57
612.127	11645.16
612.484	11716.12
612.841	11684.93
613.198	11628.89
613.554	11532.17
613.911	11681.32
614.267	11607.19
614.624	11677.02
614.98	11637.25
615.337	11677.25
615.693	11693.97
616.05	11706.18
616.406	11742.11
616.762	11636.35
617.118	11683.35
617.475	11781.2
617.831	11772.16
618.187	11764.25
618.543	11783.91
618.899	11798.15
619.255	11861.2
619.611	11697.36
619.967	11824.14
620.323	11858.04
620.678	11814.65
621.034	11731.49
621.39	11644.26
621.746	11767.19
622.101	11912.72
622.457	11885.83
622.812	11787.76
623.168	11875.66
623.523	11902.1
623.879	11945.04
624.234	11899.39
624.589	11912.05
624.945	11871.37
625.3	11898.94
625.655	11898.94
626.01	11828.21
626.365	11846.28
626.72	11818.49
627.075	11856.45
627.43	11857.81
627.785	11771.48
628.14	11840.86
628.495	11799.05
628.85	11735.1
629.205	11716.12
629.559	11833.18
629.914	11827.3
630.269	11830.69
630.623	11755.67
630.978	11679.51
631.332	11810.58
631.687	11723.35
632.041	11696.91
632.396	11781.65
632.75	11632.5
633.104	11660.53
633.459	11692.16
633.813	11681.09
634.167	11632.73
634.521	11651.04
634.875	11651.71
635.229	11590.7
635.583	11536.69
635.937	11567.2
636.291	11618.49
636.645	11603.81
636.999	11519.06
637.352	11587.08
637.706	11451.72
638.06	11574.43
638.413	11465.5
638.767	11528.55
639.121	11457.82
639.474	11396.35
639.828	11404.94
640.181	11478.38
640.534	11439.97
640.888	11368.78
641.241	11407.43
641.594	11409.91
641.947	11358.39
642.301	11390.7
642.654	11342.79
643.007	11397.03
643.36	11298.05
643.713	11293.98
644.066	11367.88
644.419	11285.17
644.771	11176.25
645.124	11155
645.477	11130.6
645.83	11096.7
646.182	11028.23
646.535	11022.35
646.888	11038.62
647.24	10952.75
647.593	11040.66
647.945	10927.66
648.298	10889.7
648.65	10924.73
649.002	10873.65
649.355	10934.44
649.707	10936.48
650.059	10986.65
650.411	11135.57
650.763	11179.41
651.115	11222.12
651.467	11204.04
651.819	11123.82
652.171	11218.73
652.523	11155.46
652.875	11164.72
653.227	11114.1
653.578	11220.76
653.93	11248.56
654.282	11166.75
654.633	11206.53
654.985	11182.8
655.337	11150.94
655.688	11203.36
656.039	11209.69
656.391	11130.15
656.742	11149.13
657.094	11204.95
657.445	11229.35
657.796	11154.33
658.147	11183.7
658.498	11113.87
658.849	11150.71
659.2	11184.83
659.551	11198.17
659.902	11229.13
660.253	11174.44
660.604	11206.08
660.955	11124.72
661.306	11183.93
661.656	11173.08
662.007	11226.87
662.358	11201.56
662.708	11173.53
663.059	11195
663.409	11135.34
663.76	11267.99
664.11	11232.06
664.461	11282.68
664.811	11234.1
665.161	11198.84
665.511	11207.88
665.862	11233.87
666.212	11196.13
666.562	11275
666.912	11239.07
667.262	11227.32
667.612	11240.42
667.962	11219.41
668.312	11208.34
668.662	11203.59
669.011	11240.2
669.361	11171.05
669.711	11238.84
670.06	11193.65
670.41	11226.19
670.76	11144.61
671.109	11213.31
671.459	11238.84
671.808	11168.34
672.157	11213.08
672.507	11172.86
672.856	11210.14
673.205	11187.54
673.554	11167.21
673.904	11138.51
674.253	11202.46
674.602	11117.94
674.951	10998.4
675.3	10916.82
675.649	11167.21
675.998	11127.21
676.346	11047.89
676.695	11133.08
677.044	11032.52
677.393	11029.58
677.741	11096.02
678.09	11000.21
678.438	10993.2
678.787	11035.23
679.135	11078.4
679.484	10861.23
679.832	10973.31
680.181	10892.64
680.529	10984.16
680.877	10931.73
681.225	10849.47
681.573	10893.77
681.922	10878.63
682.27	10824.84
682.618	10854.22
682.966	10762.47
683.314	10731.74
683.661	10748.01
684.009	10693.32
684.357	10665.98
684.705	10692.64
685.053	10666.43
685.4	10716.37
685.748	10614.45
686.095	10576.49
686.443	10529.93
686.79	10510.27
687.138	10499.88
687.485	10519.31
687.832	10488.58
688.18	10482.7
688.527	10397.28
688.874	10387.11
689.221	10383.72
689.568	10347.34
689.915	10388.92
690.262	10322.93
690.609	10293.33
690.956	10263.95
691.303	10204.75
691.65	10173.56
691.997	10142.15
692.344	10060.79
692.69	10021.93
693.037	10050.4
693.383	9945.32
693.73	10035.26
694.077	9908.93
694.423	9922.95
694.769	9895.38
695.116	9856.05
695.462	9831.87
695.808	9771.76
696.155	9810.18
696.501	9716.4
696.847	9742.84
697.193	9691.09
697.539	9687.7
697.885	9637.3
698.231	9569.51
698.577	9590.75
698.923	9528.38
699.269	9453.13
699.614	9409.51
699.96	9475.5
700.306	9339.46
700.651	9337.88
700.997	9360.7
701.342	9256.3
701.688	9322.06
702.033	9210.65
702.379	9198.9
702.724	9163.42
703.069	9204.77
703.415	9027.15
703.76	9050.2
704.105	9023.53
704.45	9012.01
704.795	9017.66
705.14	8920.94
705.485	8952.58
705.83	8832.13
706.175	8868.96
706.52	8874.16
706.865	8818.79
707.209	8770.21
707.554	8725.01
707.899	8781.73
708.243	8700.83
708.588	8662.64
708.932	8611.12
709.277	8661.28
709.621	8666.26
709.966	8551.46
710.31	8657.67
710.654	8556.43
710.998	8570.89
711.342	8538.12
711.687	8491.8
712.031	8498.8
712.375	8353.5
712.719	8473.72
713.063	8409.31
713.407	8458.58
713.75	8385.58
714.094	8327.96
714.438	8363.21
714.782	8405.25
715.125	8287.96
715.469	8304.23
715.812	8234.4
716.156	8256.32
716.499	8218.13
716.843	8259.71
717.186	8169.09
717.53	8243.22
717.873	8243.67
718.216	8172.26
718.559	8113.05
718.902	8118.7
719.246	8150.56
719.589	8090.68
719.932	8086.16
720.275	8057.91
720.617	8090.9
720.96	8129.55
721.303	8141.98
721.646	8127.96
721.989	8077.34
722.331	8108.3
722.674	8004.35
723.016	8072.6
723.359	8026.27
723.701	8024.01
724.044	7969.1
724.386	7936.33
724.729	8007.74
725.071	7962.32
725.413	8040.06
725.755	7932.72
726.097	7943.11
726.439	7920.29
726.782	7877.58
727.124	7965.93
727.465	7873.96
727.807	7974.75
728.149	7935.2
728.491	7894.75
728.833	7869.89
729.175	7859.5
729.516	7843.45
729.858	7840.29
730.199	7854.75
730.541	7908.99
730.882	7891.36
731.224	7878.71
731.565	7863.56
731.906	7874.41
732.248	7906.95
732.589	7856.78
732.93	7842.55
733.271	7849.1
733.612	7833.51
733.953	7847.29
734.294	7842.32
734.635	7847.97
734.976	7872.83
735.317	7849.1
735.658	7830.12
735.999	7938.14
736.339	7850.91
736.68	7896.33
737.021	7875.09
737.361	7885.94
737.702	7930.23
738.042	7841.87
738.383	7894.3
738.723	7889.33
739.063	7932.94
739.404	7971.81
739.744	7935.2
740.084	7942.66
740.424	7958.25
740.764	7902.43
741.104	7971.36
741.444	7976.33
741.784	7934.07
742.124	7976.1
742.464	7933.85
742.804	8006.39
743.143	8007.52
743.483	8089.32
743.823	8084.12
744.162	8153.5
744.502	8115.99
744.841	8157.57
745.181	8129.32
745.52	8162.54
745.86	8210.9
746.199	8201.41
746.538	8302.65
746.877	8351.91
747.216	8321.63
747.556	8385.81
747.895	8483.21
748.234	8519.59
748.573	8532.7
748.911	8566.37
749.25	8663.54
749.589	8725.24
749.928	8807.27
750.267	8859.7
750.605	8883.42
750.944	8979.92
751.283	8978.11
751.621	9129.52
751.96	9224.88
752.298	9292.91
752.636	9359.8
752.975	9420.59
753.313	9503.3
753.651	9606.57
753.989	9699.45
754.327	9846.79
754.666	9939.44
755.004	10026.67
755.342	10215.37
755.679	10291.52
756.017	10324.97
756.355	10546.43
756.693	10609.93
757.031	10783.71
757.368	10882.69
757.706	10973.09
758.044	11077.04
758.381	11315.68
758.719	11404.26
759.056	11647.19
759.394	11679.51
759.731	11897.13
760.068	12016.9
760.405	12123.34
760.743	12331.92
761.08	12489.88
761.417	12549.99
761.754	12803.55
762.091	12922.19
762.428	13080.6
762.765	13174.39
763.102	13366.7
763.438	13522.17
763.775	13597.88
764.112	13789.96
764.449	13980.92
764.785	14159.44
765.122	14206.22
765.458	14300.46
765.795	14557.63
766.131	14673.78
766.467	14830.39
766.804	14906.54
767.14	15073.09
767.476	15187.21
767.812	15287.1
768.148	15471.5
768.485	15516.92
768.821	15654.55
769.157	15647.99
769.492	15973.41
769.828	15989.45
770.164	16006.85
770.5	16107.19
770.836	16308.09
771.171	16381.31
771.507	16359.84
771.842	16499.27
772.178	16597.57
772.513	16581.08
772.849	16738.81
773.184	16839.6
773.519	16804.57
773.855	17005.24
774.19	16981.97
774.525	17123.66
774.86	17191
775.195	17254.96
775.53	17260.61
775.865	17271.9
776.2	17279.36
776.535	17271.45
776.87	17440.26
777.205	17465.57
777.539	17366.14
777.874	17504.44
778.209	17381.51
778.543	17487.49
778.878	17461.96
779.212	17519.81
779.547	17503.31
779.881	17707.6
780.215	17591.67
780.55	17673.7
780.884	17616.3
781.218	17635.74
781.552	17683.42
781.886	17745.79
782.22	17589.86
782.554	17694.27
782.888	17613.82
783.222	17556.87
783.556	17630.09
783.889	17492.69
784.223	17487.04
784.557	17530.2
784.89	17626.7
785.224	17569.98
785.557	17531.56
785.891	17432.35
786.224	17576.3
786.558	17541.5
786.891	17331.79
787.224	17405.69
787.557	17451.56
787.891	17455.63
788.224	17541.05
788.557	17476.19
788.89	17309.42
789.223	17492.92
789.556	17291.34
789.888	17305.12
790.221	17220.15
790.554	17077.33
790.887	17256.31
791.219	17146.48
791.552	17040.05
791.884	17012.7
792.217	17019.71
792.549	17012.48
792.882	16953.49
793.214	16862.2
793.546	16944.91
793.879	16823.78
794.211	16682.09
794.543	16860.16
794.875	16829.2
795.207	16922.76
795.539	16706.95
795.871	16744.46
796.203	16648.19
796.535	16516.22
796.867	16508.76
797.198	16536.1
797.53	16517.57
797.862	16375.66
798.193	16504.69
798.525	16353.74
798.856	16335.43
799.188	16228.99
799.519	16173.18
799.85	16131.82
800.182	16266.51
800.513	16210.69
800.844	15937.25
801.175	16108.77
801.506	16090.92
801.837	16067.42
802.168	16030.58
802.499	15874.43
802.83	15824.49
803.161	15801.66
803.491	15807.54
803.822	15862.45
804.153	15742
804.483	15674.88
804.814	15712.4
805.145	15558.5
805.475	15637.6
805.805	15499.3
806.136	15493.19
806.466	15521.22
806.796	15501.1
807.126	15382.69
807.457	15366.64
807.787	15345.85
808.117	15389.02
808.447	15284.84
808.777	15323.26
809.107	15208.91
809.436	15193.99
809.766	15145.63
810.096	15131.85
810.426	15045.97
810.755	15062.92
811.085	15005.52
811.414	15090.49
811.744	14896.37
812.073	14933.21
812.403	14846.88
812.732	14842.59
813.061	14897.28
813.39	14730.5
813.719	14766.66
814.049	14875.81
814.378	14722.82
814.707	14644.86
815.036	14664.97
815.365	14618.64
815.693	14515.59
816.022	14586.1
816.351	14479.21
816.68	14431.98
817.008	14540.9
817.337	14273.11
817.665	14359.44
817.994	14428.36
818.322	14394.24
818.651	14238.76
818.979	14216.17
819.307	14287.8
819.636	14241.7
819.964	14239.89
820.292	14215.26
820.62	14260.01
820.948	14166.22
821.276	14288.03
821.604	14192.44
821.932	14218.43
822.259	14243.74
822.587	14202.15
822.915	14110.18
823.243	14195.38
823.57	14164.19
823.898	14158.54
824.225	14142.72
824.553	14107.92
824.88	14189.05
825.207	14210.06
825.535	14211.87
825.862	14256.16
826.189	14133.46
826.516	14194.92
826.843	14190.4
827.17	14246.9
827.497	14176.84
827.824	14247.8
828.151	14265.66
828.478	14163.51
828.805	14268.59
829.131	14156.96
829.458	14207.35
829.785	14089.62
830.111	14194.92
830.438	14165.32
830.764	14225.88
831.09	14246.22
831.417	14117.64
831.743	14193.57
832.069	14058.43
832.395	14145.43
832.722	14215.04
833.048	14056.62
833.374	14117.64
833.7	14068.37
834.026	14065.66
834.351	14119.22
834.677	14111.54
835.003	14096.62
835.329	14053.01
835.654	14036.28
835.98	13915.83
836.306	13943.18
836.631	13984.08
836.956	14079.45
837.282	13925.78
837.607	13866.57
837.932	13935.04
838.258	13870.41
838.583	13914.7
838.908	13817.08
839.233	13821.15
839.558	13788.61
839.883	13732.56
840.208	13627.48
840.533	13657.99
840.858	13711.32
841.182	13716.97
841.507	13695.05
841.832	13657.54
842.156	13498.9
842.481	13593.36
842.805	13570.31
843.13	13491.44
843.454	13495.05
843.778	13416.19
844.103	13356.75
844.427	13365.57
844.751	13384.78
845.075	13249.41
845.399	13258.45
845.723	13257.55
846.047	13291.22
846.371	13098.23
846.695	13172.8
847.019	12996.54
847.343	12935.75
847.666	12901.17
847.99	12780.05
848.313	12840.16
848.637	12734.4
848.96	12787.28
849.284	12759.03
849.607	12596.55
849.931	12621.86
850.254	12495.53
850.577	12494.18
850.9	12407.63
851.223	12413.5
851.546	12287.18
851.869	12282.21
852.192	12288.98
852.515	12111.59
852.838	12194.52
853.161	12084.7
853.483	12072.49
853.806	12048.09
854.129	11937.13
854.451	11945.49
854.774	11844.48
855.096	11902.33
855.419	11831.6
855.741	11810.13
856.063	11727.42
856.385	11668.44
856.708	11678.61
857.03	11665.5
857.352	11594.09
857.674	11569.46
857.996	11579.62
858.318	11468.67
858.64	11435.45
858.961	11484.03
859.283	11343.92
859.605	11371.95
859.926	11422.79
860.248	11375.79
860.57	11313.19
860.891	11284.94
861.212	11192.52
861.534	11156.13
861.855	11192.52
862.176	11170.14
862.498	11179.18
862.819	11133.53
863.14	11134.44
863.461	11121.78
863.782	11091.05
864.103	11044.95
864.424	11031.62
864.745	11016.25
865.065	10974.44
865.386	10894.67
865.707	10908.68
866.027	10848.12
866.348	10955.91
866.668	10916.82
866.989	10872.98
867.309	10747.33
867.63	10807.22
867.95	10801.34
868.27	10719.76
868.59	10801.11
868.91	10762.7
869.23	10729.7
869.55	10681.57
869.87	10745.52
870.19	10680.67
870.51	10699.65
870.83	10677.95
871.15	10591.63
871.469	10619.88
871.789	10611.29
872.109	10640.44
872.428	10527
872.748	10604.74
873.067	10491.97
873.386	10510.95
873.706	10533.78
874.025	10460.56
874.344	10472.08
874.663	10511.86
874.982	10494.68
875.301	10398.19
875.62	10395.7
875.939	10460.78
876.258	10324.52
876.577	10322.48
876.896	10361.13
877.214	10286.33
877.533	10268.47
877.852	10272.31
878.17	10320.45
878.489	10316.61
878.807	10244.74
879.125	10238.19
879.444	10190.96
879.762	10221.69
880.08	10189.6
880.398	10174.69
880.716	10145.09
881.034	10167.46
881.352	10102.15
881.67	10047.24
881.988	10077.07
882.306	10070.74
882.624	10003.62
882.941	9969.72
883.259	9938.99
883.577	9929.5
883.894	9915.71
884.212	9895.38
884.529	9885.43
884.846	9821.71
885.164	9806.34
885.481	9804.53
885.798	9773.57
886.115	9689.51
886.432	9692.67
886.75	9670.07
887.067	9686.12
887.383	9651.09
887.7	9641.37
888.017	9574.71
888.334	9611.99
888.651	9532.45
888.967	9693.57
889.284	9506.69
889.6	9531.54
889.917	9425.33
890.233	9404.09
890.55	9368.61
890.866	9374.71
891.182	9342.17
891.498	9336.29
891.815	9317.99
892.131	9309.4
892.447	9202.74
892.763	9268.95
893.079	9174.94
893.395	9147.82
893.71	9106.02
894.026	9117.54
894.342	9088.39
894.657	9003.65
894.973	9002.29
895.289	8977.43
895.604	8976.3
895.92	8896.76
896.235	8880.49
896.55	8872.35
896.865	8896.53
897.181	8819.02
897.496	8812.01
897.811	8753.94
898.126	8673.03
898.441	8689.98
898.756	8654.28
899.071	8633.49
899.386	8605.92
899.7	8555.3
900.015	8492.02
900.33	8403.44
900.644	8454.96
900.959	8469.65
901.273	8429.2
901.588	8409.76
901.902	8344.91
902.216	8293.16
902.531	8281.86
902.845	8258.36
903.159	8213.16
903.473	8151.92
903.787	8156.21
904.101	8097.68
904.415	8101.52
904.729	8031.47
905.042	7967.97
905.356	8009.1
905.67	7993.5
905.984	7960.96
906.297	7940.4
906.611	7920.06
906.924	7911.02
907.237	7838.71
907.551	7785.37
907.864	7733.62
908.177	7821.98
908.491	7743.79
908.804	7685.04
909.117	7629.9
909.43	7597.81
909.743	7517.13
910.056	7553.97
910.368	7485.95
910.681	7457.25
910.994	7435.33
911.307	7406.85
911.619	7357.82
911.932	7336.57
912.244	7303.81
912.557	7340.64
912.869	7232.39
913.181	7206.86
913.494	7227.87
913.806	7209.34
914.118	7179.29
914.43	7107.43
914.742	7156.46
915.054	7042.8
915.366	7018.84
915.678	7055.68
915.99	6985.4
916.302	6904.04
916.613	6930.03
916.925	6896.81
917.236	6831.95
917.548	6828.79
917.859	6872.18
918.171	6763.93
918.482	6811.39
918.794	6711.73
919.105	6760.32
919.416	6650.94
919.727	6656.59
920.038	6656.14
920.349	6542.24
920.66	6580.89
920.971	6618.4
921.282	6563.03
921.593	6506.31
921.903	6463.38
922.214	6443.04
922.525	6463.38
922.835	6367.11
923.146	6353.55
923.456	6303.38
923.767	6305.19
924.077	6342.93
924.387	6237.84
924.697	6214.12
925.008	6180.67
925.318	6172.99
925.628	6181.8
925.938	6171.86
926.248	6066.1
926.558	6074.23
926.867	6138.19
927.177	6025.65
927.487	5971.86
927.796	5893.67
928.106	5907.46
928.416	5925.54
928.725	5954.91
929.034	5895.03
929.344	5898.42
929.653	5841.47
929.962	5860
930.271	5748.82
930.581	5770.96
930.89	5752.66
931.199	5664.3
931.508	5671.76
931.817	5667.01
932.125	5646
932.434	5639.22
932.743	5596.73
933.051	5579.1
933.36	5578.88
933.669	5507.24
933.977	5509.05
934.286	5545.21
934.594	5472.67
934.902	5395.15
935.21	5405.55
935.519	5371.65
935.827	5359.9
936.135	5317.19
936.443	5315.38
936.751	5272.67
937.059	5301.37
937.367	5238.55
937.674	5252.79
937.982	5197.42
938.29	5155.61
938.597	5182.73
938.905	5138.44
939.213	5114.26
939.52	5096.41
939.827	5118.78
940.135	5069.74
940.442	5022.51
940.749	5033.36
941.056	4992
941.363	4962.62
941.67	4996.75
941.977	4895.51
942.284	4878.56
942.591	4876.98
942.898	4872.23
943.205	4840.59
943.511	4779.35
943.818	4857.09
944.125	4754.04
944.431	4725.12
944.738	4729.64
945.044	4727.6
945.35	4664.1
945.657	4707.26
945.963	4660.26
946.269	4587.72
946.575	4661.16
946.881	4587.94
947.187	4573.48
947.493	4554.27
947.799	4532.58
948.105	4510.21
948.41	4500.94
948.716	4485.8
949.022	4479.25
949.327	4483.31
949.633	4394.5
949.938	4418.68
950.244	4395.18
950.549	4361.51
950.854	4380.49
951.16	4346.37
951.465	4327.84
951.77	4270.66
952.075	4281.29
952.38	4281.06
952.685	4223.89
952.99	4201.74
953.294	4226.6
953.599	4173.72
953.904	4187.05
954.209	4186.15
954.513	4174.85
954.818	4142.53
955.122	4160.61
955.426	4112.02
955.731	4075.42
956.035	4065.7
956.339	4020.95
956.643	4048.98
956.948	3979.82
957.252	3974.85
957.556	4007.62
957.86	3967.62
958.163	3980.05
958.467	3903.89
958.771	3911.13
959.075	3860.28
959.378	3895.08
959.682	3860.05
959.985	3853.5
960.289	3815.31
960.592	3798.81
960.896	3797
961.199	3778.47
961.502	3764.01
961.805	3743.67
962.108	3750.23
962.411	3685.37
962.714	3698.7
963.017	3709.78
963.32	3691.7
963.623	3618.7
963.926	3614.18
964.228	3610.34
964.531	3587.07
964.833	3575.09
965.136	3559.72
965.438	3544.13
965.741	3557.24
966.043	3519.05
966.345	3533.28
966.648	3484.02
966.95	3452.61
967.252	3480.63
967.554	3436.11
967.856	3418.71
968.158	3403.12
968.46	3361.99
968.761	3372.16
969.063	3333.97
969.365	3342.78
969.666	3339.62
969.968	3324.93
970.269	3335.77
970.571	3319.73
970.872	3291.03
971.174	3289.67
971.475	3246.06
971.776	3251.26
972.077	3201.99
972.378	3184.59
972.679	3231.37
972.98	3201.09
973.281	3170.81
973.582	3162.22
973.883	3158.38
974.183	3132.39
974.484	3117.93
974.785	3080.64
975.085	3065.05
975.386	3076.8
975.686	3027.99
975.986	3056.69
976.287	3053.75
976.587	3011.26
976.887	2981.66
977.187	3002.68
977.487	2986.4
977.787	2949.34
978.087	2947.54
978.387	2945.73
978.687	2933.52
978.987	2915.9
979.286	2887.42
979.586	2886.52
979.885	2874.54
980.185	2877.03
980.484	2854.66
980.784	2863.47
981.083	2816.01
981.382	2783.02
981.682	2811.95
981.981	2781.66
982.28	2782.34
982.579	2743.47
982.878	2755.45
983.177	2736.92
983.475	2734.21
983.774	2724.26
984.073	2717.94
984.372	2682.91
984.67	2698.5
984.969	2675
985.267	2664.15
985.566	2643.81
985.864	2604.49
986.162	2601.78
986.461	2633.65
986.759	2564.72
987.057	2581.22
987.355	2588
987.653	2588.22
987.951	2530.6
988.249	2520.43
988.547	2534.44
988.844	2478.62
989.142	2549.58
989.44	2540.31
989.737	2454.22
990.035	2468.23
990.332	2460.32
990.63	2455.8
990.927	2454.22
991.224	2420.54
991.521	2407.44
991.819	2404.05
992.116	2404.72
992.413	2377.61
992.71	2361.34
993.006	2339.42
993.303	2361.79
993.6	2363.37
993.897	2336.03
994.193	2307.55
994.49	2275.46
994.787	2253.99
995.083	2247.89
995.379	2270.04
995.676	2256.71
995.972	2260.55
996.268	2208.57
996.565	2232.98
996.861	2215.8
997.157	2206.09
997.453	2170.61
997.749	2163.38
998.044	2157.5
998.34	2118.18
998.636	2160.21
998.932	2138.52
999.227	2138.29
999.523	2114.79
999.818	2111.85
1000.114	2080.44
1000.409	2094.9
1000.704	2072.53
1001	2064.17
1001.295	2028.01
1001.59	2069.37
1001.885	2051.29
1002.18	1997.5
1002.475	2015.13
1002.77	2014.68
1003.065	2006.32
1003.359	1967.22
1003.654	1938.97
1003.949	1941.91
1004.243	1895.36
1004.538	1934
1004.832	1916.15
1005.127	1939.2
1005.421	1920.67
1005.715	1900.11
1006.009	1855.81
1006.304	1869.15
1006.598	1861.91
1006.892	1846.55
1007.186	1841.58
1007.48	1819.43
1007.773	1844.74
1008.067	1777.85
1008.361	1803.84
1008.655	1796.15
1008.948	1789.15
1009.242	1754.8
1009.535	1766.32
1009.829	1730.39
1010.122	1734.23
1010.415	1732.88
1010.708	1716.38
1011.001	1672.09
1011.295	1688.36
1011.588	1695.59
1011.881	1694.46
1012.173	1663.28
1012.466	1676.38
1012.759	1651.3
1013.052	1645.2
1013.344	1623.95
1013.637	1635.03
1013.93	1598.42
1014.222	1611.53
1014.514	1598.42
1014.807	1582.37
1015.099	1597.74
1015.391	1588.48
1015.683	1555.71
1015.976	1544.63
1016.268	1552.77
1016.56	1509.16
1016.851	1525.2
1017.143	1525.2
1017.435	1501.47
1017.727	1474.35
1018.018	1454.69
1018.31	1478.87
1018.602	1463.96
1018.893	1449.95
1019.185	1422.83
1019.476	1416.73
1019.767	1413.56
1020.058	1414.47
1020.35	1402.04
1020.641	1378.99
1020.932	1384.64
1021.223	1375.37
1021.514	1349.61
1021.804	1356.62
1022.095	1371.98
1022.386	1326.56
1022.677	1341.7
1022.967	1316.84
1023.258	1308.26
1023.548	1322.72
1023.839	1303.28
1024.129	1288.6
1024.419	1282.49
1024.709	1273
1025	1288.82
1025.29	1249.28
1025.58	1287.47
1025.87	1215.38
1026.16	1235.26
1026.449	1219.45
1026.739	1214.93
1027.029	1246.56
1027.319	1191.65
1027.608	1190.29
1027.898	1171.31
1028.187	1174.93
1028.477	1165.66
1028.766	1189.39
1029.055	1132.89
1029.344	1172.67
1029.634	1158.43
1029.923	1141.48
1030.212	1154.59
1030.501	1123.18
1030.79	1122.95
1031.078	1097.64
1031.367	1098.32
1031.656	1087.92
1031.945	1093.12
1032.233	1087.47
1032.522	1068.26
1032.81	1078.43
1033.099	1072.78
1033.387	1025.33
1033.675	1076.17
1033.963	1052.67
1034.251	1035.04
1034.54	1031.2
1034.828	1004.31
1035.116	1023.52
1035.403	987.81
1035.691	994.82
1035.979	1012.9
1036.267	1000.92
1036.554	979.68
1036.842	954.37
1037.129	989.17
1037.417	967.02
1037.704	957.08
1037.992	981.71
1038.279	958.44
1038.566	942.62
1038.853	942.62
1039.14	942.62
