Data from hue_120_FLMS001491_00075.txt Node
Date: Tue Feb 07 16:59:57 GMT 2017
User: dcchb
Spectrometer: FLMS00149
Trigger mode: 0
Integration Time (sec): 2.000000E-2
Scans to average: 10
Electric dark correction enabled: true
Nonlinearity correction enabled: false
Boxcar width: 0
XAxis mode: Wavelengths
Number of Pixels in Spectrum: 2048
>>>>>Begin Spectral Data<<<<<
341.393	-12.29
341.776	-12.29
342.16	-12.29
342.543	-74.21
342.927	-46.41
343.31	-69.69
343.693	-54.55
344.077	-60.87
344.46	-63.36
344.843	-42.12
345.226	-43.93
345.61	-28.33
345.993	-33.53
346.376	-12.74
346.759	6.47
347.142	37.43
347.525	31.55
347.908	67.48
348.291	75.62
348.674	88.5
349.057	102.06
349.44	133.92
349.823	131.44
350.206	166.24
350.588	203.53
350.971	197.2
351.354	239.91
351.737	258.67
352.119	248.04
352.502	273.13
352.884	272.68
353.267	282.85
353.65	289.63
354.032	292.34
354.414	317.42
354.797	301.6
355.179	311.09
355.562	304.31
355.944	318.32
356.326	340.92
356.709	367.36
357.091	340.92
357.473	339.79
357.855	331.43
358.238	338.66
358.62	367.59
359.002	340.92
359.384	354.71
359.766	335.5
360.148	340.92
360.53	356.52
360.912	359.23
361.294	356.74
361.676	363.07
362.057	351.09
362.439	352
362.821	322.62
363.203	322.17
363.584	333.92
363.966	343.18
364.348	336.86
364.729	330.98
365.111	314.94
365.493	328.27
365.874	327.59
366.256	337.08
366.637	307.93
367.019	313.13
367.4	321.49
367.781	300.02
368.163	340.47
368.544	324.65
368.925	309.29
369.306	328.49
369.688	301.6
370.069	322.17
370.45	315.16
370.831	336.63
371.212	319
371.593	326.91
371.974	315.61
372.355	312.68
372.736	345.67
373.117	324.43
373.498	324.88
373.879	332.79
374.26	329.85
374.641	304.31
375.021	332.79
375.402	325.56
375.783	334.37
376.163	353.35
376.544	343.86
376.925	312.9
377.305	328.49
377.686	349.74
378.066	330.08
378.447	332.56
378.827	342.05
379.208	321.71
379.588	348.61
379.968	349.96
380.349	339.34
380.729	355.39
381.109	338.89
381.489	360.58
381.87	336.86
382.25	340.25
382.63	341.83
383.01	349.28
383.39	355.39
383.77	351.54
384.15	367.82
384.53	355.61
384.91	367.36
385.29	366.91
385.67	339.57
386.049	379.79
386.429	354.93
386.809	368.95
387.189	368.04
387.568	375.05
387.948	363.3
388.328	371.43
388.707	369.4
389.087	366.69
389.466	374.14
389.846	375.27
390.225	387.02
390.605	382.5
390.984	389.06
391.363	390.41
391.743	382.73
392.122	375.5
392.501	367.59
392.881	399
393.26	365.33
393.639	377.53
394.018	391.32
394.397	394.93
394.776	395.84
395.155	406.01
395.534	396.51
395.913	424.76
396.292	413.46
396.671	417.98
397.05	408.94
397.429	401.71
397.808	415.05
398.186	413.24
398.565	410.98
398.944	425.21
399.323	395.84
399.701	396.29
400.08	410.3
400.458	406.91
400.837	428.38
401.215	423.18
401.594	436.97
401.972	429.51
402.351	424.54
402.729	428.83
403.107	443.29
403.486	446.46
403.864	452.33
404.242	427.7
404.62	421.6
404.999	443.75
405.377	443.97
405.755	458.89
406.133	460.92
406.511	436.51
406.889	453.69
407.267	448.72
407.645	465.89
408.023	470.41
408.401	470.19
408.779	456.85
409.156	476.06
409.534	472.67
409.912	482.61
410.29	469.96
410.667	490.07
411.045	490.98
411.422	506.57
411.8	494.82
412.178	499.56
412.555	511.54
412.933	509.51
413.31	525.33
413.687	534.36
414.065	523.29
414.442	519.9
414.819	525.55
415.197	522.39
415.574	539.79
415.951	541.6
416.328	541.14
416.705	547.25
417.082	543.86
417.46	549.51
417.837	566.23
418.214	571.43
418.591	544.99
418.967	561.71
419.344	573.46
419.721	573.69
420.098	590.63
420.475	564.65
420.852	579.56
421.228	593.35
421.605	579.11
421.982	572.56
422.358	576.17
422.735	608.94
423.111	602.84
423.488	610.29
423.864	597.64
424.241	610.97
424.617	622.27
424.994	620.01
425.37	639.67
425.746	627.7
426.123	645.55
426.499	636.96
426.875	649.62
427.251	634.7
427.627	661.14
428.003	648.03
428.379	673.57
428.756	648.03
429.132	677.64
429.507	678.99
429.883	712.89
430.259	710.86
430.635	688.03
431.011	702.95
431.387	705.21
431.763	731.65
432.138	750.86
432.514	750.4
432.89	761.48
433.265	750.18
433.641	775.94
434.016	757.18
434.392	751.08
434.767	782.04
435.143	776.39
435.518	806
435.894	832.44
436.269	768.71
436.644	805.09
437.02	811.42
437.395	807.13
437.77	843.51
438.145	850.97
438.52	853.68
438.895	856.62
439.271	837.63
439.646	878.08
440.021	850.51
440.395	856.62
440.77	885.09
441.145	861.14
441.52	875.37
441.895	888.03
442.27	899.78
442.645	886.45
443.019	928.25
443.394	902.04
443.769	916.05
444.143	911.53
444.518	938.87
444.892	938.42
445.267	925.09
445.641	957.86
446.016	953.79
446.39	974.35
446.764	960.57
447.139	966.9
447.513	996.95
447.887	988.14
448.262	1012.32
448.636	1018.42
449.01	1028.59
449.384	996.95
449.758	1031.3
450.132	1038.08
450.506	1076.5
450.88	1046.22
451.254	1045.99
451.628	1054.12
452.002	1088.7
452.376	1080.34
452.75	1090.51
453.123	1113.11
453.497	1120.56
453.871	1101.58
454.244	1156.27
454.618	1163.5
454.992	1170.73
455.365	1140.9
455.739	1202.37
456.112	1213.22
456.486	1207.12
456.859	1237.85
457.232	1254.12
457.606	1250.73
457.979	1260.45
458.352	1297.28
458.725	1304.97
459.099	1331.63
459.472	1324.63
459.845	1359.43
460.218	1360.56
460.591	1400.33
460.964	1386.09
461.337	1410.73
461.71	1417.51
462.083	1438.52
462.456	1475.58
462.829	1459.99
463.201	1497.05
463.574	1535.47
463.947	1530.95
464.32	1556.71
464.692	1544.73
465.065	1569.14
465.438	1606.65
465.81	1631.51
466.183	1662.47
466.555	1694.79
466.928	1721.68
467.3	1740.89
467.672	1735.46
468.045	1792.86
468.417	1822.01
468.789	1848.91
469.161	1853.65
469.534	1887.1
469.906	1949.02
470.278	1976.59
470.65	2017.94
471.022	2049.8
471.394	2078.96
471.766	2094.78
472.138	2129.8
472.51	2198.95
472.882	2236.69
473.253	2285.96
473.625	2337.03
473.997	2378.38
474.369	2433.75
474.74	2466.97
475.112	2509.23
475.484	2606.4
475.855	2637.81
476.227	2737.92
476.598	2808.88
476.97	2814.08
477.341	2933.62
477.713	2927.52
478.084	3033.96
478.455	3127.74
478.827	3234.18
479.198	3333.84
479.569	3344.46
479.94	3484.8
480.311	3547.17
480.682	3616.09
481.053	3755.97
481.424	3861.96
481.795	3928.85
482.166	4023.76
482.537	4098.11
482.908	4305.79
483.279	4335.62
483.65	4503.53
484.021	4607.93
484.391	4704.2
484.762	4772.9
485.133	4943.74
485.503	5033.23
485.874	5203.39
486.244	5294.24
486.615	5465.53
486.985	5562.71
487.356	5732.65
487.726	5857.39
488.097	6038.17
488.467	6124.27
488.837	6281.11
489.207	6441.1
489.578	6572.85
489.948	6702.34
490.318	6841.32
490.688	6972.39
491.058	7082.44
491.428	7337.8
491.798	7391.13
492.168	7587.51
492.538	7737.56
492.908	7898.24
493.278	8070.89
493.648	8172.13
494.017	8340.94
494.387	8424.1
494.757	8636.52
495.126	8787.71
495.496	8795.39
495.866	9019.11
496.235	9122.16
496.605	9284.19
496.974	9351.99
497.344	9539.55
497.713	9681.02
498.082	9799.21
498.452	9913.33
498.821	10027.45
499.19	10152.19
499.559	10295.24
499.928	10343.6
500.298	10475.12
500.667	10634.66
501.036	10592.86
501.405	10799.18
501.774	10868.78
502.143	11078.49
502.512	11097.93
502.88	11231.26
503.249	11216.8
503.618	11278.26
503.987	11437.35
504.356	11607.07
504.724	11599.61
505.093	11754.18
505.462	11766.84
505.83	11937
506.199	12008.64
506.567	12171.57
506.936	12240.5
507.304	12280.95
507.672	12374.05
508.041	12557.33
508.409	12508.51
508.777	12721.16
509.145	12748.96
509.514	12732.91
509.882	12882.51
510.25	12916.64
510.618	13050.65
510.986	13037.09
511.354	13108.5
511.722	13255.39
512.09	13318.21
512.458	13302.16
512.826	13411.31
513.193	13484.53
513.561	13527.24
513.929	13611.31
514.297	13679.33
514.664	13798.42
515.032	13797.97
515.4	13942.15
515.767	13923.84
516.135	13971.75
516.502	13941.24
516.869	14080.67
517.237	14072.54
517.604	14112.54
517.972	14234.8
518.339	14230.73
518.706	14305.3
519.073	14171.52
519.44	14414
519.808	14432.76
520.175	14393.44
520.542	14470.04
520.909	14642.92
521.276	14570.15
521.643	14739.19
522.009	14719.53
522.376	14756.82
522.743	14794.78
523.11	14843.59
523.477	15030.93
523.843	14929.24
524.21	15083.81
524.577	15122
524.943	15222.34
525.31	15204.26
525.676	15282.45
526.043	15371.04
526.409	15275.22
526.776	15403.8
527.142	15386.86
527.508	15420.53
527.874	15515.67
528.241	15506.63
528.607	15531.48
528.973	15625.49
529.339	15401.77
529.705	15641.09
530.071	15701.65
530.437	15605.15
530.803	15663.46
531.169	15665.49
531.535	15727.86
531.901	15710.24
532.267	15702.1
532.632	15721.99
532.998	15721.54
533.364	15699.39
533.73	15641.76
534.095	15707.75
534.461	15794.53
534.826	15732.38
535.192	15681.54
535.557	15798.37
535.923	15737.81
536.288	15699.62
536.653	15759.95
537.019	15585.27
537.384	15595.66
537.749	15643.35
538.114	15560.64
538.479	15561.77
538.845	15551.6
539.21	15526.51
539.575	15521.32
539.94	15504.59
540.305	15532.84
540.67	15443.8
541.034	15406.74
541.399	15424.82
541.764	15347.31
542.129	15357.7
542.494	15410.58
542.858	15356.8
543.223	15267.99
543.587	15338.27
543.952	15222.79
544.316	15212.4
544.681	15193.41
545.045	15160.65
545.41	15226.41
545.774	15139.63
546.138	15149.35
546.503	15068.67
546.867	14984.15
547.231	15158.39
547.595	15093.3
547.959	15074.55
548.324	14962.46
548.688	14876.81
549.052	14895.34
549.416	14963.36
549.779	14846.98
550.143	14950.03
550.507	14933.76
550.871	14901.44
551.235	14740.77
551.599	14849.02
551.962	14727.21
552.326	14841.33
552.689	14823.48
553.053	14672.52
553.417	14589.59
553.78	14817.83
554.143	14715.23
554.507	14608.12
554.87	14612.64
555.234	14782.13
555.597	14656.25
555.96	14703.48
556.323	14700.55
556.686	14619.87
557.05	14738.96
557.413	14607.67
557.776	14598.18
558.139	14650.15
558.502	14560.89
558.865	14633.65
559.228	14684.95
559.59	14591.62
559.953	14707.78
560.316	14803.59
560.679	14650.38
561.041	14729.25
561.404	14747.32
561.767	14705.07
562.129	14613.77
562.492	14746.87
562.854	14696.25
563.217	14731.05
563.579	14724.05
563.941	14816.93
564.304	14776.02
564.666	14861.9
565.028	14903.48
565.39	14776.93
565.753	14927.66
566.115	14904.38
566.477	14895.34
566.839	14943.25
567.201	15086.75
567.563	14930.37
567.925	15048.33
568.287	15077.94
568.648	14982.8
569.01	15004.27
569.372	15106.41
569.734	14978.73
570.095	15204.49
570.457	15287.42
570.819	15143.47
571.18	15184.6
571.542	15199.97
571.903	15215.56
572.265	15274.99
572.626	15281.55
572.987	15236.12
573.349	15296.91
573.71	15308.89
574.071	15352.96
574.432	15293.3
574.794	15379.85
575.155	15363.13
575.516	15337.82
575.877	15396.57
576.238	15417.36
576.599	15431.15
576.96	15380.3
577.32	15423.46
577.681	15477.25
578.042	15551.82
578.403	15421.88
578.763	15466.18
579.124	15424.37
579.485	15570.58
579.845	15540.3
580.206	15426.63
580.566	15327.87
580.927	15468.89
581.287	15493.75
581.648	15426.4
582.008	15464.82
582.368	15511.15
582.728	15447.87
583.089	15533.07
583.449	15480.19
583.809	15438.38
584.169	15467.31
584.529	15365.84
584.889	15476.8
585.249	15404.71
585.609	15394.99
585.969	15508.66
586.329	15439.51
586.688	15446.29
587.048	15409
587.408	15336.24
587.768	15424.37
588.127	15355.22
588.487	15230.48
588.846	15487.64
589.206	15275.45
589.565	15366.97
589.925	15418.94
590.284	15417.36
590.643	15405.61
591.003	15374.2
591.362	15377.59
591.721	15398.61
592.08	15404.26
592.44	15362.45
592.799	15289.68
593.158	15320.19
593.517	15279.97
593.876	15377.59
594.235	15230.93
594.593	15293.98
594.952	15358.16
595.311	15213.98
595.67	15323.35
596.029	15378.72
596.387	15338.49
596.746	15321.77
597.104	15246.97
597.463	15296.91
597.822	15387.31
598.18	15314.99
598.538	15230.25
598.897	15367.87
599.255	15217.37
599.613	15395.22
599.972	15270.93
600.33	15306.63
600.688	15131.04
601.046	15269.34
601.404	15359.06
601.762	15329.68
602.12	15347.31
602.478	15320.87
602.836	15319.96
603.194	15254.66
603.552	15256.24
603.91	15249.23
604.268	15195.9
604.625	15257.37
604.983	15348.66
605.341	15216.92
605.698	15296.91
606.056	15372.17
606.413	15224.83
606.771	15367.87
607.128	15353.41
607.485	15273.41
607.843	15237.03
608.2	15320.19
608.557	15386.18
608.914	15388.89
609.272	15527.42
609.629	15489.68
609.986	15585.49
610.343	15441.32
610.7	15535.33
611.057	15526.96
611.414	15501.65
611.771	15559.73
612.127	15554.53
612.484	15511.37
612.841	15557.7
613.198	15463.92
613.554	15523.12
613.911	15619.62
614.267	15554.76
614.624	15500.3
614.98	15557.92
615.337	15665.04
615.693	15711.14
616.05	15635.21
616.406	15736.45
616.762	15576.68
617.118	15609
617.475	15656.23
617.831	15792.27
618.187	15748.65
618.543	15667.53
618.899	15807.86
619.255	15746.39
619.611	15774.19
619.967	15810.8
620.323	15764.47
620.678	15851.7
621.034	15736
621.39	15724.02
621.746	15705.04
622.101	15879.05
622.457	15806.05
622.812	15850.35
623.168	15783.68
623.523	15824.58
623.879	15797.69
624.234	15790.91
624.589	15866.62
624.945	15727.64
625.3	15832.27
625.655	15813.96
626.01	15713.17
626.365	15811.7
626.72	15853.96
627.075	15831.59
627.43	15834.75
627.785	15759.5
628.14	15806.28
628.495	15745.49
628.85	15769.9
629.205	15666.85
629.559	15789.33
629.914	15753.17
630.269	15703.01
630.623	15748.65
630.978	15736.22
631.332	15745.72
631.687	15775.32
632.041	15701.42
632.396	15609.67
632.75	15663.01
633.104	15637.92
633.459	15612.16
633.813	15564.93
634.167	15524.48
634.521	15593.18
634.875	15515.67
635.229	15512.95
635.583	15481.32
635.937	15485.38
636.291	15371.26
636.645	15370.58
636.999	15424.59
637.352	15486.29
637.706	15370.13
638.06	15318.16
638.413	15354.77
638.767	15326.52
639.121	15279.06
639.474	15178.5
639.828	15318.16
640.181	15282
640.534	15303.47
640.888	15218.95
641.241	15174.66
641.594	15207.88
641.947	15140.53
642.301	15250.81
642.654	15211.49
643.007	15169.69
643.36	15197.71
643.713	15082.68
644.066	15205.39
644.419	15077.71
644.771	15014.66
645.124	14876.36
645.477	14844.04
645.83	14774.67
646.182	14687.66
646.535	14519.31
646.888	14639.53
647.24	14613.09
647.593	14672.07
647.945	14548.23
648.298	14535.58
648.65	14556.37
649.002	14502.58
649.355	14564.05
649.707	14586.2
650.059	14650.83
650.411	14832.29
650.763	14845.63
651.115	14968.56
651.467	14953.87
651.819	14825.06
652.171	14961.78
652.523	14950.93
652.875	14983.7
653.227	14810.15
653.578	14949.35
653.93	14916.13
654.282	14875.46
654.633	14806.08
654.985	14940.77
655.337	14900.54
655.688	14963.36
656.039	14937.83
656.391	14895.12
656.742	14844.5
657.094	14813.31
657.445	14877.94
657.796	14835.01
658.147	14864.16
658.498	14894.66
658.849	14944.38
659.2	14892.86
659.551	14845.63
659.902	14887.89
660.253	14841.11
660.604	14896.02
660.955	14856.93
661.306	14920.2
661.656	14873.2
662.007	14867.32
662.358	14950.26
662.708	14899.41
663.059	14874.1
663.409	14968.79
663.76	14959.07
664.11	15032.97
664.461	14974.66
664.811	14969.92
665.161	14963.36
665.511	14914.1
665.862	14942.8
666.212	14945.74
666.562	14963.82
666.912	14901.22
667.262	14920.65
667.612	14926.75
667.962	14962.69
668.312	14963.59
668.662	14926.08
669.011	14840.43
669.361	14826.64
669.711	14858.51
670.06	14841.56
670.41	14919.07
670.76	14849.02
671.109	14932.18
671.459	14917.26
671.808	14816.7
672.157	14846.76
672.507	14803.82
672.856	14749.58
673.205	14812.86
673.554	14830.03
673.904	14686.31
674.253	14891.05
674.602	14765.85
674.951	14575.35
675.3	14424.62
675.649	14703.03
675.998	14696.25
676.346	14613.32
676.695	14630.49
677.044	14551.17
677.393	14621.9
677.741	14696.93
678.09	14551.4
678.438	14577.84
678.787	14592.07
679.135	14674.11
679.484	14544.17
679.832	14529.02
680.181	14464.85
680.529	14511.17
680.877	14452.64
681.225	14446.77
681.573	14579.64
681.922	14404.73
682.27	14383.04
682.618	14377.39
682.966	14358.63
683.314	14336.49
683.661	14225.08
684.009	14163.16
684.357	14183.95
684.705	14198.19
685.053	14171.52
685.4	14124.06
685.748	14133.33
686.095	14080.45
686.443	14014.24
686.79	14009.49
687.138	13985.08
687.485	14031.64
687.832	13972.2
688.18	13982.15
688.527	13748.03
688.874	13831.19
689.221	13708.93
689.568	13803.62
689.915	13710.97
690.262	13707.13
690.609	13647.69
690.956	13626.45
691.303	13561.37
691.65	13557.52
691.997	13502.39
692.344	13426
692.69	13428.71
693.037	13408.83
693.383	13243.86
693.73	13331.99
694.077	13214.71
694.423	13189.85
694.769	13182.62
695.116	13163.41
695.462	13175.61
695.808	13030.99
696.155	13046.35
696.501	13011.78
696.847	12936.07
697.193	12900.14
697.539	12789.86
697.885	12745.12
698.231	12798.45
698.577	12663.31
698.923	12727.72
699.269	12518
699.614	12561.39
699.96	12506.25
700.306	12445.01
700.651	12476.65
700.997	12360.95
701.342	12415.18
701.688	12351.23
702.033	12255.86
702.379	12286.15
702.724	12176.77
703.069	12233.72
703.415	12085.02
703.76	12025.14
704.105	12055.64
704.45	12019.26
704.795	11952.14
705.14	11859.72
705.485	11920.96
705.83	11797.35
706.175	11795.99
706.52	11797.12
706.865	11754.18
707.209	11710.34
707.554	11582.21
707.899	11679.16
708.243	11610.01
708.588	11561.19
708.932	11523.91
709.277	11509.22
709.621	11466.73
709.966	11421.99
710.31	11495.43
710.654	11379.73
710.998	11370.24
711.342	11388.09
711.687	11338.15
712.031	11233.07
712.375	11282.33
712.719	11213.18
713.063	11264.7
713.407	11311.71
713.75	11194.42
714.094	11146.06
714.438	11116.01
714.782	11168.44
715.125	11012.51
715.469	11145.16
715.812	11025.39
716.156	10957.37
716.499	10965.5
716.843	10989.68
717.186	10866.3
717.53	11014.31
717.873	10942
718.216	10977.71
718.559	10843.47
718.902	10796.02
719.246	10784.49
719.589	10775.68
719.932	10822
720.275	10738.62
720.617	10802.12
720.96	10763.7
721.303	10786.52
721.646	10775.23
721.989	10776.36
722.331	10725.51
722.674	10693.42
723.016	10735.9
723.359	10625.17
723.701	10718.5
724.044	10598.96
724.386	10545.85
724.729	10646.41
725.071	10571.61
725.413	10656.36
725.755	10609.81
726.097	10569.35
726.439	10469.92
726.782	10602.12
727.124	10582.01
727.465	10474.22
727.807	10585.4
728.149	10518.51
728.491	10445.06
728.833	10616.81
729.175	10457.49
729.516	10461.79
729.858	10487.1
730.199	10506.53
730.541	10450.71
730.882	10450.49
731.224	10504.5
731.565	10422.01
731.906	10434.9
732.248	10452.97
732.589	10411.39
732.93	10342.69
733.271	10375.91
733.612	10401.68
733.953	10364.39
734.294	10301.79
734.635	10356.48
734.976	10408.68
735.317	10296.82
735.658	10367.55
735.999	10370.26
736.339	10363.03
736.68	10385.86
737.021	10353.32
737.361	10340.66
737.702	10338.63
738.042	10370.72
738.383	10393.99
738.723	10381.56
739.063	10333.65
739.404	10356.71
739.744	10388.57
740.084	10433.99
740.424	10299.53
740.764	10388.79
741.104	10407.78
741.444	10456.36
741.784	10447.78
742.124	10448.23
742.464	10520.54
742.804	10431.51
743.143	10464.27
743.483	10521.9
743.823	10476.93
744.162	10503.14
744.502	10618.39
744.841	10530.71
745.181	10670.37
745.52	10608.9
745.86	10706.3
746.199	10652.97
746.538	10765.06
746.877	10840.76
747.216	10875.11
747.556	10835.56
747.895	10951.94
748.234	10886.41
748.573	10999.63
748.911	11052.05
749.25	11162.11
749.589	11172.95
749.928	11285.72
750.267	11330.01
750.605	11407.52
750.944	11493.62
751.283	11525.04
751.621	11623.79
751.96	11696.78
752.298	11831.69
752.636	11945.59
752.975	11894.52
753.313	12068.75
753.651	12144.68
753.989	12263.55
754.327	12318.24
754.666	12407.72
755.004	12609.53
755.342	12658.79
755.679	12876.19
756.017	12953.92
756.355	13092.45
756.693	13244.99
757.031	13327.47
757.368	13439.34
757.706	13596.39
758.044	13744.41
758.381	13931.07
758.719	14021.24
759.056	14245.42
759.394	14490.38
759.731	14446.99
760.068	14621.23
760.405	14791.84
760.743	14925.62
761.08	15178.73
761.417	15238.38
761.754	15359.74
762.091	15628.2
762.428	15693.97
762.765	15826.84
763.102	16077.23
763.438	16134.41
763.775	16313.16
764.112	16548.41
764.449	16764.22
764.785	16809.87
765.122	16933.26
765.458	17020.94
765.795	17183.42
766.131	17412.56
766.467	17485.11
766.804	17608.49
767.14	17643.07
767.476	17979.1
767.812	18000.12
768.148	18164.18
768.485	18201.02
768.821	18244.63
769.157	18474.46
769.492	18583.38
769.828	18733.21
770.164	18728.01
770.5	18875.8
770.836	18981.56
771.171	19020.66
771.507	19098.17
771.842	19052.52
772.178	19303.59
772.513	19308.79
772.849	19441.89
773.184	19509.91
773.519	19416.35
773.855	19585.16
774.19	19520.31
774.525	19700.41
774.86	19766.4
775.195	19941.54
775.53	19878.94
775.865	19925.94
776.2	19849.56
776.535	19838.49
776.87	19870.81
777.205	19914.19
777.539	19919.62
777.874	19978.37
778.209	19889.11
778.543	19954.19
778.878	19980.63
779.212	20034.87
779.547	19989.22
779.881	20097.69
780.215	20087.07
780.55	20109.67
780.884	20118.03
781.218	20130.23
781.552	20229.21
781.886	20079.39
782.22	20054.3
782.554	20085.04
782.888	19836.91
783.222	19856.34
783.556	19842.56
783.889	19942.89
784.223	19869.45
784.557	19782.67
784.89	19779.28
785.224	19846.4
785.557	19716.91
785.891	19703.8
786.224	19727.98
786.558	19790.13
786.891	19695.22
787.224	19679.17
787.557	19645.95
787.891	19507.2
788.224	19529.12
788.557	19664.48
788.89	19624.26
789.223	19607.99
789.556	19443.25
789.888	19436.47
790.221	19382.91
790.554	19370.48
790.887	19237.83
791.219	19164.61
791.552	19215
791.884	19150.15
792.217	19144.95
792.549	19150.37
792.882	19048.45
793.214	18961
793.546	18981.79
793.879	18903.15
794.211	18739.99
794.543	18883.71
794.875	18841.68
795.207	18948.8
795.539	18822.7
795.871	18903.6
796.203	18667.67
796.535	18569.37
796.867	18637.17
797.198	18465.42
797.53	18523.5
797.862	18467.9
798.193	18495.7
798.525	18386.55
798.856	18365.31
799.188	18230.62
799.519	18167.12
799.85	18053
800.182	18203.05
800.513	18180.45
800.844	17955.83
801.175	18144.97
801.506	18060.68
801.837	17928.71
802.168	17904.76
802.499	17840.12
802.83	17711.77
803.161	17740.24
803.491	17799.45
803.822	17749.96
804.153	17621.15
804.483	17524.43
804.814	17504.99
805.145	17472
805.475	17498.89
805.805	17361.94
806.136	17434.71
806.466	17395.62
806.796	17251.89
807.126	17237.2
807.457	17245.79
807.787	17192.68
808.117	17098.45
808.447	17149.29
808.777	17229.97
809.107	16985.01
809.436	16940.03
809.766	17003.99
810.096	16831.79
810.426	16805.12
810.755	16839.92
811.085	16721.28
811.414	16822.07
811.744	16742.07
812.073	16620.72
812.403	16633.83
812.732	16557.67
813.061	16616.43
813.39	16519.25
813.719	16504.79
814.049	16517.9
814.378	16474.28
814.707	16423.89
815.036	16338.69
815.365	16272.26
815.693	16285.59
816.022	16230.9
816.351	16194.52
816.68	16182.77
817.008	16209.43
817.337	16077.01
817.665	15977.8
817.994	16085.59
818.322	16043.34
818.651	15950.68
818.979	15981.87
819.307	15966.5
819.636	15921.3
819.964	15776.45
820.292	15930.34
820.62	15923.56
820.948	15799.5
821.276	15926.95
821.604	15901.87
821.932	15775.55
822.259	15938.93
822.587	15715.43
822.915	15795.43
823.243	15860.29
823.57	15816.67
823.898	15787.52
824.225	15719.73
824.553	15637.7
824.88	15830.01
825.207	15823.91
825.535	15712.95
825.862	15857.35
826.189	15751.82
826.516	15748.88
826.843	15880.4
827.17	15887.86
827.497	15780.97
827.824	15856.9
828.151	15831.14
828.478	15767.64
828.805	15879.95
829.131	15766.51
829.458	15833.62
829.785	15707.98
830.111	15759.27
830.438	15761.53
830.764	15841.08
831.09	15834.98
831.417	15725.38
831.743	15760.18
832.069	15849.67
832.395	15661.42
832.722	15733.29
833.048	15666.85
833.374	15698.49
833.7	15649.67
834.026	15667.07
834.351	15749.33
834.677	15659.84
835.003	15725.83
835.329	15645.15
835.654	15575.55
835.98	15556.79
836.306	15569.45
836.631	15574.42
836.956	15583.69
837.282	15576.23
837.607	15536.23
837.932	15455.78
838.258	15415.1
838.583	15366.52
838.908	15403.58
839.233	15399.74
839.558	15372.62
839.883	15367.19
840.208	15326.07
840.533	15273.86
840.858	15253.98
841.182	15359.51
841.507	15215.79
841.832	15108.67
842.156	15180.31
842.481	15155.22
842.805	15115.45
843.13	15038.39
843.454	14995.23
843.778	14904.38
844.103	14973.98
844.427	14925.4
844.751	14951.84
845.075	14838.17
845.399	14799.98
845.723	14649.02
846.047	14695.12
846.371	14627.1
846.695	14611.51
847.019	14472.3
847.343	14481.12
847.666	14347.11
847.99	14252.2
848.313	14314.79
848.637	14258.52
848.96	14240.9
849.284	14161.35
849.607	14034.12
849.931	14042.26
850.254	13920.23
850.577	13893.11
850.9	13753.45
851.223	13805.65
851.546	13724.75
851.869	13616.96
852.192	13715.71
852.515	13594.13
852.838	13586.22
853.161	13479.33
853.483	13380.35
853.806	13384.65
854.129	13302.39
854.451	13301.94
854.774	13246.8
855.096	13140.13
855.419	13161.83
855.741	13173.58
856.063	13033.92
856.385	13084.32
856.708	13019.23
857.03	12924.32
857.352	12926.13
857.674	12880.71
857.996	12854.04
858.318	12751.67
858.64	12842.97
858.961	12670.54
859.283	12711.22
859.605	12550.32
859.926	12570.66
860.248	12556.2
860.57	12511
860.891	12547.16
861.212	12472.36
861.534	12441.62
861.855	12449.08
862.176	12465.8
862.498	12309.87
862.819	12385.35
863.14	12289.99
863.461	12287.95
863.782	12231.01
864.103	12330.44
864.424	12239.82
864.745	12254.96
865.065	12192.14
865.386	12197.79
865.707	12093.61
866.027	12111.91
866.348	12067.85
866.668	12094.51
866.989	12090.22
867.309	12018.81
867.63	11973.61
867.95	12061.29
868.27	11930
868.59	11915.08
868.91	11965.93
869.23	11911.01
869.55	11867.63
869.87	11924.35
870.19	11854.29
870.51	11876.67
870.83	11899.72
871.15	11768.65
871.469	11802.54
871.789	11819.94
872.109	11791.92
872.428	11631.47
872.748	11722.77
873.067	11760.96
873.386	11724.35
873.706	11721.87
874.025	11584.92
874.344	11598.71
874.663	11594.19
874.982	11589.89
875.301	11585.15
875.62	11564.36
875.939	11548.76
876.258	11520.74
876.577	11497.69
876.896	11429.45
877.214	11431.03
877.533	11366.62
877.852	11422.89
878.17	11367.3
878.489	11401.88
878.807	11380.41
879.125	11332.95
879.444	11326.62
879.762	11262.22
880.08	11312.16
880.398	11160.3
880.716	11268.09
881.034	11193.75
881.352	11208.89
881.67	11109.23
881.988	11127.08
882.306	11024.48
882.624	11010.02
882.941	11004.6
883.259	11014.77
883.577	11009.8
883.894	10998.27
884.212	10947.88
884.529	10953.53
884.846	10987.65
885.164	10866.3
885.481	10800.31
885.798	10878.5
886.115	10828.33
886.432	10777.94
886.75	10743.14
887.067	10740.65
887.383	10712.18
887.7	10752.85
888.017	10671.95
888.334	10645.96
888.651	10606.19
888.967	10598.96
889.284	10601.9
889.6	10533.88
889.917	10435.57
890.233	10429.92
890.55	10441.67
890.866	10457.27
891.182	10393.54
891.498	10361.22
891.815	10367.55
892.131	10266.31
892.447	10268.8
892.763	10202.13
893.079	10227.67
893.395	10133.89
893.71	10125.3
894.026	10088.01
894.342	10062.02
894.657	10038.07
894.973	9918.07
895.289	9954
895.604	9984.29
895.92	9867.23
896.235	9818.87
896.55	9855.25
896.865	9794.46
897.181	9805.76
897.496	9768.47
897.811	9739.09
898.126	9690.06
898.441	9630.17
898.756	9561.25
899.071	9593.79
899.386	9565.31
899.7	9414.13
900.015	9400.8
900.33	9342.04
900.644	9338.65
900.959	9355.83
901.273	9310.63
901.588	9294.81
901.902	9220.24
902.216	9189.05
902.531	9163.74
902.845	9169.39
903.159	9113.12
903.473	9083.52
903.787	9040.36
904.101	8994.71
904.415	8963.07
904.729	8999
905.042	8841.04
905.356	8872.22
905.67	8858.44
905.984	8775.05
906.297	8773.92
906.611	8734.6
906.924	8701.38
907.237	8714.94
907.551	8660.7
907.864	8590.88
908.177	8564.66
908.491	8564.44
908.804	8503.87
909.117	8450.54
909.43	8394.5
909.743	8388.85
910.056	8333.93
910.368	8262.3
910.681	8214.39
910.994	8240.83
911.307	8228.4
911.619	8079.25
911.932	8123.77
912.244	8123.77
912.557	8083.54
912.869	8055.07
913.181	8001.06
913.494	7971.01
913.806	7938.46
914.118	7899.37
914.43	7894.85
914.742	7875.41
915.054	7867.28
915.366	7834.96
915.678	7742.99
915.99	7731.24
916.302	7703.89
916.613	7649.88
916.925	7670
917.236	7616.44
917.548	7562.43
917.859	7582.77
918.171	7492.83
918.482	7453.96
918.794	7456.67
919.105	7411.25
919.416	7348.87
919.727	7343.68
920.038	7365.15
920.349	7269.1
920.66	7265.94
920.971	7261.42
921.282	7222.78
921.593	7166.28
921.903	7151.59
922.214	7091.25
922.525	7076.57
922.835	7059.39
923.146	6984.82
923.456	6978.94
923.767	6997.25
924.077	6931.26
924.387	6892.84
924.697	6852.84
925.008	6838.61
925.318	6800.87
925.628	6749.79
925.938	6721.55
926.248	6754.54
926.558	6723.13
926.867	6677.48
927.177	6672.28
927.487	6607.43
927.796	6561.1
928.106	6536.69
928.416	6521.78
928.725	6550.48
929.034	6473.19
929.344	6449.46
929.653	6427.09
929.962	6393.42
930.271	6359.75
930.581	6373.08
930.89	6321.1
931.199	6299.86
931.508	6325.62
931.817	6257.15
932.125	6240.66
932.434	6217.38
932.743	6166.76
933.051	6178.74
933.36	6132.86
933.669	6109.13
933.977	6061.9
934.286	6061
934.594	6039.98
934.902	6010.38
935.21	5982.13
935.519	5991.17
935.827	5911.17
936.135	5874.79
936.443	5847.67
936.751	5816.71
937.059	5792.76
937.367	5839.76
937.674	5770.84
937.982	5736.26
938.29	5709.82
938.597	5754.79
938.905	5682.7
939.213	5670.27
939.52	5632.54
939.827	5620.33
940.135	5585.53
940.442	5535.14
940.749	5496.72
941.056	5548.47
941.363	5494.69
941.67	5436.38
941.977	5449.72
942.284	5417.85
942.591	5376.05
942.898	5304.63
943.205	5356.61
943.511	5336.5
943.818	5302.37
944.125	5248.14
944.431	5274.35
944.738	5239.33
945.044	5254.01
945.35	5204.75
945.657	5164.98
945.963	5140.57
946.269	5112.1
946.575	5088.82
946.881	5075.94
947.187	5093.57
947.493	5044.3
947.799	4980.35
948.105	5003.63
948.41	4956.62
948.716	4969.73
949.022	4927.47
949.327	4930.86
949.633	4861.93
949.938	4880.69
950.244	4854.93
950.549	4840.24
950.854	4822.61
951.16	4795.27
951.465	4745.55
951.77	4700.13
952.075	4665.78
952.38	4705.78
952.685	4682.05
952.99	4633.24
953.294	4641.6
953.599	4618.78
953.904	4590.3
954.209	4555.73
954.513	4538.1
954.818	4524.77
955.122	4521.15
955.426	4521.38
955.731	4477.54
956.035	4451.1
956.339	4415.17
956.643	4395.73
956.948	4435.73
957.252	4351.67
957.556	4386.69
957.86	4345.79
958.163	4335.62
958.467	4310.54
958.771	4303.53
959.075	4315.06
959.378	4267.15
959.682	4282.51
959.985	4214.27
960.289	4161.84
960.592	4198.9
960.896	4194.38
961.199	4140.82
961.502	4111.67
961.805	4096.53
962.108	4105.8
962.411	4055.4
962.714	4053.37
963.017	4042.07
963.32	4026.7
963.623	3972.92
963.926	3988.96
964.228	4013.14
964.531	3942.18
964.833	3928.85
965.136	3888.17
965.438	3931.11
965.741	3903.99
966.043	3876.65
966.345	3855.18
966.648	3826.93
966.95	3804.79
967.252	3808.4
967.554	3802.53
967.856	3760.72
968.158	3729.76
968.46	3720.95
968.761	3740.38
969.063	3706.94
969.365	3700.61
969.666	3656.09
969.968	3680.72
970.269	3667.84
970.571	3622.42
970.872	3639.37
971.174	3596.88
971.475	3605.47
971.776	3520.27
972.077	3558.69
972.378	3526.83
972.679	3536.55
972.98	3528.64
973.281	3485.02
973.582	3435.53
973.883	3473.72
974.183	3435.53
974.484	3444.8
974.785	3408.41
975.085	3354.86
975.386	3396.21
975.686	3355.76
975.986	3331.13
976.287	3337.68
976.587	3305.37
976.887	3286.16
977.187	3286.61
977.487	3266.27
977.787	3255.2
978.087	3255.42
978.387	3251.36
978.687	3229.66
978.987	3192.83
979.286	3193.73
979.586	3186.72
979.885	3136.1
980.185	3145.6
980.484	3148.76
980.784	3102.66
981.083	3089.55
981.382	3073.28
981.682	3108.99
981.981	3054.3
982.28	3085.94
982.579	3001.87
982.878	3025.37
983.177	3018.59
983.475	2974.3
983.774	2985.83
984.073	2955.32
984.372	2980.18
984.67	2961.42
984.969	2944.7
985.267	2997.8
985.566	2938.14
985.864	2895.21
986.162	2855.66
986.461	2838.71
986.759	2857.69
987.057	2820.41
987.355	2814.98
987.653	2837.13
987.951	2800.07
988.249	2810.46
988.547	2766.62
988.844	2756.23
989.142	2744.02
989.44	2711.93
989.737	2715.1
990.035	2689.34
990.332	2700.41
990.63	2683.46
990.927	2634.2
991.224	2647.76
991.521	2653.4
991.819	2587.19
992.116	2614.08
992.413	2602.33
992.71	2615.89
993.006	2590.81
993.303	2577.7
993.6	2562.33
993.897	2563.46
994.193	2548.1
994.49	2508.55
994.787	2508.55
995.083	2507.19
995.379	2494.54
995.676	2476.46
995.972	2471.49
996.268	2480.08
996.565	2427.65
996.861	2444.14
997.157	2419.51
997.453	2393.75
997.749	2371.38
998.044	2371.38
998.34	2389.23
998.636	2366.41
998.932	2341.77
999.227	2318.95
999.523	2317.59
999.818	2299.06
1000.114	2258.84
1000.409	2291.38
1000.704	2277.82
1001	2249.12
1001.295	2244.38
1001.59	2237.14
1001.885	2231.49
1002.18	2219.29
1002.475	2193.98
1002.77	2207.09
1003.065	2141.1
1003.359	2184.26
1003.654	2158.28
1003.949	2130.25
1004.243	2131.16
1004.538	2107.43
1004.832	2125.74
1005.127	2061.1
1005.421	2053.19
1005.715	2055
1006.009	2058.84
1006.304	2048.22
1006.598	2064.72
1006.892	2023.14
1007.186	1995.57
1007.48	1974.55
1007.773	1987.89
1008.067	1926.42
1008.361	1960.77
1008.655	1956.47
1008.948	1960.09
1009.242	1954.44
1009.535	1888.91
1009.829	1923.48
1010.122	1909.7
1010.415	1906.08
1010.708	1872.41
1011.001	1870.6
1011.295	1838.28
1011.588	1848.68
1011.881	1844.16
1012.173	1831.73
1012.466	1825.18
1012.759	1811.62
1013.052	1800.55
1013.344	1798.51
1013.637	1751.28
1013.93	1765.29
1014.222	1738.4
1014.514	1716.25
1014.807	1717.38
1015.099	1730.49
1015.391	1704.28
1015.683	1742.92
1015.976	1709.7
1016.268	1700.89
1016.56	1657.05
1016.851	1657.95
1017.143	1659.76
1017.435	1616.14
1017.727	1619.08
1018.018	1635.13
1018.31	1578.63
1018.602	1598.52
1018.893	1620.89
1019.185	1554.9
1019.476	1568.91
1019.767	1523.72
1020.058	1535.24
1020.35	1531.85
1020.641	1505.64
1020.932	1510.38
1021.223	1496.6
1021.514	1465.19
1021.804	1446.2
1022.095	1443.95
1022.386	1472.19
1022.677	1449.82
1022.967	1429.71
1023.258	1403.72
1023.548	1422.02
1023.839	1432.65
1024.129	1415.7
1024.419	1377.96
1024.709	1401.23
1025	1382.93
1025.29	1378.41
1025.58	1384.29
1025.87	1376.15
1026.16	1349.26
1026.449	1334.12
1026.739	1311.29
1027.029	1314
1027.319	1319.43
1027.608	1298.64
1027.898	1298.86
1028.187	1267.45
1028.477	1278.98
1028.766	1249.6
1029.055	1257.96
1029.344	1248.7
1029.634	1239.2
1029.923	1234.23
1030.212	1231.52
1030.501	1274.01
1030.79	1204.4
1031.078	1198.08
1031.367	1207.12
1031.656	1175.25
1031.945	1174.57
1032.233	1185.19
1032.522	1137.51
1032.81	1152.2
1033.099	1138.42
1033.387	1147.68
1033.675	1126.21
1033.963	1132.31
1034.251	1114.46
1034.54	1135.03
1034.828	1113.11
1035.116	1088.02
1035.403	1076.72
1035.691	1088.93
1035.979	1102.49
1036.267	1068.81
1036.554	1080.34
1036.842	1044.63
1037.129	1048.25
1037.417	1050.96
1037.704	1045.54
1037.992	1014.58
1038.279	1022.49
1038.566	1023.62
1038.853	1023.62
1039.14	1023.62
