Data from hue_80_FLMS001491_94.txt Node
Date: Mon Feb 06 15:24:04 GMT 2017
User: dcchb
Spectrometer: FLMS00149
Trigger mode: 0
Integration Time (sec): 2.000000E-2
Scans to average: 10
Electric dark correction enabled: true
Nonlinearity correction enabled: false
Boxcar width: 0
XAxis mode: Wavelengths
Number of Pixels in Spectrum: 2048
>>>>>Begin Spectral Data<<<<<
341.393	-14.58
341.776	-14.58
342.16	-14.58
342.543	-61.81
342.927	-60.22
343.31	-76.72
343.693	-64.74
344.077	-80.79
344.46	-50.28
344.843	-70.17
345.226	-49.83
345.61	-46.44
345.993	-37.63
346.376	-3.73
346.759	23.84
347.142	17.51
347.525	53.67
347.908	78.3
348.291	81.92
348.674	93.22
349.057	131.86
349.44	125.31
349.823	144.52
350.206	144.06
350.588	181.8
350.971	205.98
351.354	220.45
351.737	209.37
352.119	243.5
352.502	253.89
352.884	279.65
353.267	286.66
353.65	294.12
354.032	318.07
354.414	312.42
354.797	303.38
355.179	315.81
355.562	316.49
355.944	339.09
356.326	329.82
356.709	329.82
357.091	347.9
357.473	343.38
357.855	348.13
358.238	330.73
358.62	351.74
359.002	335.47
359.384	338.64
359.766	328.24
360.148	330.95
360.53	342.7
360.912	334.57
361.294	342.93
361.676	318.52
362.057	335.02
362.439	352.19
362.821	334.57
363.203	327.56
363.584	353.1
363.966	326.43
364.348	321.46
364.729	325.53
365.111	328.01
365.493	332.08
365.874	325.98
366.256	323.95
366.637	328.69
367.019	340.22
367.4	315.13
367.781	326.21
368.163	322.82
368.544	325.53
368.925	306.55
369.306	321.01
369.688	336.15
370.069	323.49
370.45	320.1
370.831	328.01
371.212	313.55
371.593	327.11
371.974	321.46
372.355	309.71
372.736	313.1
373.117	321.91
373.498	309.48
373.879	323.95
374.26	316.49
374.641	315.58
375.021	319.88
375.402	321.69
375.783	327.56
376.163	351.06
376.544	351.97
376.925	335.47
377.305	324.85
377.686	318.75
378.066	318.97
378.447	335.25
378.827	348.58
379.208	342.7
379.588	300.67
379.968	333.89
380.349	324.85
380.729	350.61
381.109	353.55
381.489	348.58
381.87	347
382.25	341.35
382.63	353.1
383.01	360.1
383.39	337.73
383.77	366.43
384.15	328.01
384.53	367.56
384.91	349.93
385.29	353.32
385.67	362.14
386.049	355.58
386.429	355.13
386.809	345.41
387.189	356.71
387.568	353.32
387.948	382.25
388.328	350.61
388.707	363.27
389.087	363.72
389.466	370.95
389.846	368.69
390.225	371.63
390.605	365.75
390.984	376.15
391.363	367.56
391.743	383.83
392.122	400.33
392.501	383.38
392.881	397.84
393.26	370.5
393.639	374.79
394.018	365.75
394.397	387.22
394.776	391.52
395.155	371.18
395.534	403.49
395.913	411.85
396.292	391.29
396.671	375.47
397.05	401.01
397.429	385.19
397.808	377.96
398.186	396.49
398.565	395.81
398.944	403.49
399.323	415.24
399.701	403.72
400.08	377.5
400.458	392.19
400.837	424.96
401.215	408.24
401.594	414.11
401.972	426.32
402.351	396.94
402.729	401.46
403.107	440.78
403.486	425.86
403.864	409.14
404.242	426.32
404.62	439.2
404.999	415.02
405.377	434.45
405.755	431.06
406.133	442.81
406.511	453.89
406.889	449.14
407.267	445.98
407.645	466.77
408.023	435.58
408.401	445.53
408.779	451.63
409.156	422.7
409.534	460.21
409.912	442.81
410.29	471.06
410.667	465.64
411.045	466.99
411.422	447.11
411.8	458.86
412.178	465.64
412.555	470.61
412.933	490.27
413.31	496.82
413.687	491.4
414.065	527.56
414.442	505.64
414.819	500.44
415.197	504.05
415.574	523.04
415.951	514.22
416.328	504.96
416.705	506.77
417.082	552.64
417.46	521.91
417.837	529.59
418.214	528.23
418.591	530.27
418.967	521.68
419.344	536.37
419.721	551.96
420.098	550.61
420.475	538.4
420.852	556.93
421.228	574.79
421.605	558.29
421.982	571.85
422.358	550.38
422.735	577.5
423.111	579.53
423.488	567.78
423.864	570.27
424.241	572.53
424.617	599.87
424.994	607.55
425.37	580.44
425.746	610.04
426.123	607.78
426.499	591.74
426.875	624.5
427.251	619.98
427.627	612.98
428.003	612.53
428.379	638.29
428.756	626.76
429.132	645.52
429.507	624.5
429.883	633.77
430.259	658.63
430.635	655.46
431.011	662.47
431.387	664.95
431.763	681.45
432.138	657.27
432.514	685.07
432.89	702.47
433.265	712.64
433.641	676.93
434.016	710.38
434.392	728
434.767	739.53
435.143	711.96
435.518	735.91
435.894	732.75
436.269	749.7
436.644	761.9
437.02	762.8
437.395	778.4
437.77	779.98
438.145	770.94
438.52	782.92
438.895	791.28
439.271	782.69
439.646	796.02
440.021	811.62
440.395	826.08
440.77	827.44
441.145	824.27
441.52	818.85
441.895	845.74
442.27	866.76
442.645	819.07
443.019	863.14
443.394	859.98
443.769	855.91
444.143	859.3
444.518	876.7
444.892	879.86
445.267	837.38
445.641	877.6
446.016	899.98
446.39	896.81
446.764	893.65
447.139	901.78
447.513	910.37
447.887	922.12
448.262	911.28
448.636	899.98
449.01	938.62
449.384	932.07
449.758	942.01
450.132	948.56
450.506	975.45
450.88	957.6
451.254	972.06
451.628	982.23
452.002	981.1
452.376	1000.54
452.75	1006.64
453.123	984.04
453.497	1013.19
453.871	1045.51
454.244	1045.28
454.618	1045.28
454.992	1072.85
455.365	1049.12
455.739	1059.97
456.112	1111.5
456.486	1106.52
456.859	1131.83
457.232	1135.68
457.606	1156.24
457.979	1148.56
458.352	1165.28
458.725	1198.27
459.099	1182.23
459.472	1218.16
459.845	1222.23
460.218	1232.17
460.591	1251.61
460.964	1271.04
461.337	1287.54
461.71	1288.67
462.083	1324.37
462.456	1314.65
462.829	1323.02
463.201	1366.63
463.574	1371.15
463.947	1376.12
464.32	1414.09
464.692	1426.97
465.065	1421.54
465.438	1443.01
465.81	1489.79
466.183	1494.76
466.555	1515.78
466.928	1529.56
467.3	1550.58
467.672	1574.76
468.045	1625.83
468.417	1633.29
468.789	1647.08
469.161	1682.78
469.534	1713.74
469.906	1759.61
470.278	1751.93
470.65	1786.73
471.022	1836.9
471.394	1869.22
471.766	1872.61
472.138	1933.85
472.51	1958.48
472.882	1986.73
473.253	2015.65
473.625	2071.02
473.997	2089.1
474.369	2159.15
474.74	2200.73
475.112	2240.51
475.484	2270.11
475.855	2367.28
476.227	2407.28
476.598	2477.79
476.97	2468.75
477.341	2571.34
477.713	2634.62
478.084	2670.33
478.455	2792.81
478.827	2821.51
479.198	2935.63
479.569	2938.11
479.94	3122.74
480.311	3126.58
480.682	3220.14
481.053	3340.82
481.424	3415.62
481.795	3523.64
482.166	3571.77
482.537	3680.69
482.908	3788.94
483.279	3874.81
483.65	4025.54
484.021	4087.92
484.391	4146.9
484.762	4289.94
485.133	4372.2
485.503	4470.05
485.874	4589.82
486.244	4759.31
486.615	4846.54
486.985	4996.82
487.356	5110.49
487.726	5252.18
488.097	5330.37
488.467	5470.03
488.837	5680.87
489.207	5781.88
489.578	5912.5
489.948	6082.44
490.318	6175.77
490.688	6258.71
491.058	6470.9
491.428	6580.05
491.798	6708.64
492.168	6870.67
492.538	6982.08
492.908	7124.9
493.278	7355.4
493.648	7445.34
494.017	7596.07
494.387	7693.7
494.757	7822.73
495.126	7972.56
495.496	8109.28
495.866	8213.91
496.235	8426.11
496.605	8517.18
496.974	8678.53
497.344	8780.9
497.713	8931.86
498.082	9080.33
498.452	9206.42
498.821	9339.08
499.19	9419.3
499.559	9558.51
499.928	9761.44
500.298	9785.84
500.667	10020.87
501.036	10054.99
501.405	10154.2
501.774	10278.71
502.143	10384.25
502.512	10517.12
502.88	10605.03
503.249	10698.14
503.618	10893.16
503.987	10928.87
504.356	11114.62
504.724	11151.23
505.093	11309.65
505.462	11413.15
505.83	11487.95
506.199	11598
506.567	11746.92
506.936	11790.99
507.304	11985.79
507.672	11993.47
508.041	12128.38
508.409	12227.59
508.777	12307.59
509.145	12525.21
509.514	12447.7
509.882	12566.34
510.25	12675.71
510.618	12778.08
510.986	12876.16
511.354	13040.9
511.722	13183.04
512.09	13221.23
512.458	13296.71
512.826	13327.67
513.193	13337.39
513.561	13491.51
513.929	13621.45
514.297	13708.68
514.664	13803.37
515.032	13810.6
515.4	13951.38
515.767	14020.31
516.135	14163.58
516.502	14147.09
516.869	14341.43
517.237	14269.12
517.604	14338.27
517.972	14399.96
518.339	14491.03
518.706	14567.41
519.073	14601.54
519.44	14698.03
519.808	14795.2
520.175	14833.85
520.542	14899.16
520.909	15142.77
521.276	14999.04
521.643	15204.23
522.009	15293.27
522.376	15291.69
522.743	15405.36
523.11	15533.94
523.477	15621.85
523.843	15702.75
524.21	15841.05
524.577	15977.09
524.943	15930.77
525.31	16021.61
525.676	16106.36
526.043	16177.09
526.409	16145.23
526.776	16340.02
527.142	16373.92
527.508	16434.03
527.874	16466.57
528.241	16555.16
528.607	16664.99
528.973	16827.24
529.339	16643.52
529.705	16739.11
530.071	16899.56
530.437	16916.96
530.803	16897.75
531.169	16991.08
531.535	16907.01
531.901	16933.45
532.267	17045.77
532.632	17101.13
532.998	17090.06
533.364	17162.37
533.73	17257.96
534.095	17268.36
534.461	17244.18
534.826	17300.9
535.192	17292.99
535.557	17498.41
535.923	17329.37
536.288	17363.72
536.653	17429.26
537.019	17399.88
537.384	17443.5
537.749	17380.45
538.114	17384.97
538.479	17427.9
538.845	17455.47
539.21	17379.77
539.575	17378.64
539.94	17349.71
540.305	17485.75
540.67	17474.23
541.034	17462.93
541.399	17501.57
541.764	17521.01
542.129	17476.04
542.494	17529.14
542.858	17549.93
543.223	17427.23
543.587	17585.41
543.952	17603.72
544.316	17564.17
544.681	17474
545.045	17562.14
545.41	17504.06
545.774	17534.57
546.138	17562.14
546.503	17468.81
546.867	17405.31
547.231	17617.5
547.595	17520.56
547.959	17548.13
548.324	17545.19
548.688	17485.53
549.052	17570.95
549.416	17511.97
549.779	17470.61
550.143	17400.33
550.507	17553.1
550.871	17595.58
551.235	17539.09
551.599	17608.01
551.962	17570.27
552.326	17585.64
552.689	17575.02
553.053	17489.82
553.417	17464.96
553.78	17722.58
554.143	17542.7
554.507	17651.17
554.87	17714
555.234	17750.38
555.597	17503.61
555.96	17633.1
556.323	17698.63
556.686	17624.73
557.05	17755.8
557.413	17684.39
557.776	17719.87
558.139	17814.11
558.502	17741.12
558.865	17792.41
559.228	17789.93
559.59	17895.46
559.953	17899.3
560.316	18001.45
560.679	17904.27
561.041	18014.55
561.404	18020.88
561.767	18142.69
562.129	18052.07
562.492	18107.21
562.854	18150.14
563.217	18123.7
563.579	18148.56
563.941	18166.87
564.304	18268.79
564.666	18371.61
565.028	18429.23
565.39	18321.67
565.753	18517.37
566.115	18441.66
566.477	18561.21
566.839	18573.41
567.201	18663.8
567.563	18650.7
567.925	18690.47
568.287	18682.56
568.648	18750.58
569.01	18771.6
569.372	18793.29
569.734	18713.97
570.095	18847.98
570.457	18876.45
570.819	18975.21
571.18	18901.54
571.542	18980.63
571.903	18924.81
572.265	19012.49
572.626	19075.09
572.987	19156.9
573.349	19118.71
573.71	19160.51
574.071	19240.96
574.432	19230.34
574.794	19436.44
575.155	19319.61
575.516	19231.25
575.877	19311.24
576.238	19395.54
576.599	19360.51
576.96	19372.94
577.32	19434.18
577.681	19471.24
578.042	19461.3
578.403	19519.15
578.763	19456.78
579.124	19530.22
579.485	19584.46
579.845	19532.03
580.206	19466.49
580.566	19395.31
580.927	19473.27
581.287	19491.13
581.648	19483.89
582.008	19586.49
582.368	19526.83
582.728	19613.83
583.089	19511.92
583.449	19507.4
583.809	19397.12
584.169	19457.23
584.529	19474.4
584.889	19573.16
585.249	19509.88
585.609	19474.86
585.969	19526.15
586.329	19441.41
586.688	19595.98
587.048	19490
587.408	19457
587.768	19426.27
588.127	19395.31
588.487	19353.95
588.846	19564.8
589.206	19417.23
589.565	19417.46
589.925	19475.08
590.284	19439.6
590.643	19502.2
591.003	19454.06
591.362	19458.58
591.721	19437.57
592.08	19455.42
592.44	19472.6
592.799	19556.89
593.158	19402.77
593.517	19431.47
593.876	19389.43
594.235	19366.16
594.593	19386.72
594.952	19399.83
595.311	19380.17
595.67	19413.61
596.029	19429.88
596.387	19520.05
596.746	19494.06
597.104	19226.05
597.463	19291.58
597.822	19400.05
598.18	19378.81
598.538	19294.29
598.897	19448.42
599.255	19301.75
599.613	19503.33
599.972	19483.44
600.33	19440.05
600.688	19462.2
601.046	19562.31
601.404	19447.74
601.762	19457.91
602.12	19506.49
602.478	19529.99
602.836	19405.25
603.194	19365.03
603.552	19434.4
603.91	19449.32
604.268	19531.58
604.625	19373.61
604.983	19514.18
605.341	19360.28
605.698	19504.68
606.056	19459.94
606.413	19488.87
606.771	19540.84
607.128	19591.24
607.485	19408.19
607.843	19453.84
608.2	19597.34
608.557	19635.3
608.914	19556.89
609.272	19727.5
609.629	19576.77
609.986	19711.46
610.343	19631.69
610.7	19768.86
611.057	19800.27
611.414	19746.71
611.771	19775.19
612.127	19796.43
612.484	19879.59
612.841	19862.87
613.198	19702.19
613.554	19837.78
613.911	19940.38
614.267	19924.79
614.624	19937.67
614.98	19875.97
615.337	20096.08
615.693	19951
616.05	19871.45
616.406	19990.77
616.762	19962.53
617.118	20020.83
617.475	20001.62
617.831	20022.64
618.187	20124.33
618.543	20095.86
618.899	20257.43
619.255	20157.55
619.611	20271.22
619.967	20266.02
620.323	20242.74
620.678	20197.1
621.034	20092.01
621.39	20178.79
621.746	20319.8
622.101	20407.03
622.457	20270.31
622.812	20321.16
623.168	20264.89
623.523	20245.23
623.879	20349.86
624.234	20200.26
624.589	20255.63
624.945	20196.42
625.3	20371.1
625.655	20301.95
626.01	20341.73
626.365	20303.08
626.72	20272.8
627.075	20247.04
627.43	20272.57
627.785	20200.71
628.14	20209.98
628.495	20156.42
628.85	20267.6
629.205	20062.64
629.559	20266.47
629.914	20095.86
630.269	20160.71
630.623	20129.3
630.978	20130.43
631.332	20105.57
631.687	20181.5
632.041	20050.66
632.396	20169.07
632.75	20050.89
633.104	20071
633.459	20044.56
633.813	20027.83
634.167	19928.4
634.521	19999.36
634.875	20115.97
635.229	19937.44
635.583	19904.45
635.937	19908.29
636.291	19911.91
636.645	19854.96
636.999	19760.05
637.352	19786.94
637.706	19747.84
638.06	19813.83
638.413	19772.47
638.767	19705.58
639.121	19710.78
639.474	19614.74
639.828	19599.37
640.181	19735.87
640.534	19648.41
640.888	19610.44
641.241	19520.73
641.594	19676.88
641.947	19590.33
642.301	19624.91
642.654	19601.41
643.007	19573.84
643.36	19695.87
643.713	19517.57
644.066	19527.06
644.419	19479.6
644.771	19340.62
645.124	19160.06
645.477	19106.96
645.83	19031.48
646.182	18956.9
646.535	18883.91
646.888	18903.57
647.24	18843.91
647.593	18974.53
647.945	18811.6
648.298	18761.88
648.65	18690.47
649.002	18721.88
649.355	18827.19
649.707	18778.15
650.059	18863.57
650.411	19061.76
650.763	19105.83
651.115	19269.66
651.467	19218.82
651.819	19227.4
652.171	19181.3
652.523	19137.01
652.875	19211.81
653.227	19228.76
653.578	19277.35
653.93	19163.68
654.282	19129.33
654.633	19156.22
654.985	19178.82
655.337	19287.06
655.688	19272.6
656.039	19208.42
656.391	19172.26
656.742	19083.68
657.094	19073.28
657.445	19269.66
657.796	19235.54
658.147	19124.13
658.498	19147.63
658.849	19206.61
659.2	19224.69
659.551	19111.47
659.902	19281.64
660.253	19175.65
660.604	19221.53
660.955	19187.86
661.306	19176.33
661.656	19141.98
662.007	19232.15
662.358	19167.97
662.708	19174.07
663.059	19266.95
663.409	19145.15
663.76	19187.18
664.11	19149.44
664.461	19222.21
664.811	19300.85
665.161	19162.77
665.511	19241.19
665.862	19153.73
666.212	19182.89
666.562	19226.73
666.912	19200.29
667.262	19246.16
667.612	19343.33
667.962	19232.83
668.312	19155.09
668.662	19339.94
669.011	19183.56
669.361	19172.04
669.711	19165.26
670.06	19133.4
670.41	19131.81
670.76	19004.36
671.109	19279.38
671.459	19164.35
671.808	19134.98
672.157	19170.46
672.507	19013.17
672.856	19048.88
673.205	19106.05
673.554	19161.42
673.904	19045.26
674.253	19150.34
674.602	19119.16
674.951	18788.77
675.3	18701.09
675.649	18962.78
675.998	18997.35
676.346	18910.12
676.695	19014.75
677.044	18792.16
677.393	18848.66
677.741	18946.06
678.09	18892.27
678.438	18747.19
678.787	18788.32
679.135	18745.83
679.484	18702.45
679.832	18760.75
680.181	18631.26
680.529	18671.03
680.877	18648.44
681.225	18674.88
681.573	18760.3
681.922	18598.04
682.27	18529.57
682.618	18478.05
682.966	18446.63
683.314	18479.18
683.661	18499.74
684.009	18304.49
684.357	18293.87
684.705	18301.1
685.053	18286.64
685.4	18210.71
685.748	18158.51
686.095	18119.18
686.443	18032.18
686.79	18032.18
687.138	18081.9
687.485	18053.88
687.832	18030.6
688.18	17996.7
688.527	17851.17
688.874	17905.4
689.221	17840.77
689.568	17732.75
689.915	17828.57
690.262	17740.89
690.609	17627.67
690.956	17682.13
691.303	17504.74
691.65	17545.19
691.997	17470.39
692.344	17356.27
692.69	17325.99
693.037	17379.99
693.383	17237.4
693.73	17249.15
694.077	17125.54
694.423	17107.69
694.769	16951.76
695.116	16903.17
695.462	16931.87
695.808	16879.44
696.155	16934.58
696.501	16713.8
696.847	16660.92
697.193	16579.56
697.539	16636.96
697.885	16519.45
698.231	16468.61
698.577	16370.76
698.923	16437.42
699.269	16267.93
699.614	16216.86
699.96	16140.93
700.306	16136.19
700.651	16116.3
700.997	16030.43
701.342	16056.64
701.688	15909.75
702.033	15892.12
702.379	15906.14
702.724	15770.55
703.069	15902.97
703.415	15689.64
703.76	15574.62
704.105	15697.1
704.45	15585.47
704.795	15478.35
705.14	15344.34
705.485	15486.71
705.83	15396.09
706.175	15389.09
706.52	15269.09
706.865	15195.65
707.209	15202.65
707.554	15155.42
707.899	15154.29
708.243	15049.89
708.588	15090.11
708.932	14980.96
709.277	14892.83
709.621	14914.07
709.966	14763.57
710.31	14863.45
710.654	14730.12
710.998	14751.82
711.342	14729.9
711.687	14682.89
712.031	14644.93
712.375	14604.02
712.719	14484.48
713.063	14449.22
713.407	14595.89
713.75	14512.27
714.094	14404.03
714.438	14359.74
714.782	14363.35
715.125	14289.68
715.469	14273.41
715.812	14211.26
716.156	14236.8
716.499	14251.26
716.843	14207.88
717.186	14144.15
717.53	14176.92
717.873	14116.8
718.216	14123.13
718.559	14041.78
718.902	13985.96
719.246	14085.84
719.589	13956.13
719.932	13917.26
720.275	14055.79
720.617	13992.51
720.96	13850.14
721.303	13844.04
721.646	13946.41
721.989	13842.23
722.331	13894.66
722.674	13831.16
723.016	13786.87
723.359	13792.97
723.701	13833.87
724.044	13756.14
724.386	13664.61
724.729	13738.51
725.071	13743.71
725.413	13701.22
725.755	13722.46
726.097	13639.08
726.439	13621.22
726.782	13613.54
727.124	13731.96
727.465	13563.15
727.807	13632.52
728.149	13593.65
728.491	13534.45
728.833	13585.97
729.175	13530.6
729.516	13525.86
729.858	13559.98
730.199	13569.47
730.541	13581
730.882	13504.39
731.224	13532.86
731.565	13429.82
731.906	13479.08
732.248	13510.27
732.589	13360.89
732.93	13319.08
733.271	13444.96
733.612	13359.08
733.953	13457.84
734.294	13398.18
734.635	13390.72
734.976	13416.03
735.317	13365.19
735.658	13428.91
735.999	13347.78
736.339	13431.62
736.68	13418.29
737.021	13461
737.361	13312.98
737.702	13426.65
738.042	13347.11
738.383	13413.55
738.723	13367.9
739.063	13378.52
739.404	13379.65
739.744	13388.69
740.084	13317.5
740.424	13327.22
740.764	13395.24
741.104	13484.96
741.444	13428.01
741.784	13326.09
742.124	13462.81
742.464	13506.88
742.804	13542.81
743.143	13480.66
743.483	13488.57
743.823	13512.98
744.162	13498.29
744.502	13618.06
744.841	13546.65
745.181	13560.21
745.52	13643.14
745.86	13739.64
746.199	13647.21
746.538	13772.18
746.877	13817.15
747.216	13917.04
747.556	13808.11
747.895	13893.08
748.234	13919.97
748.573	13970.59
748.911	13990.71
749.25	14050.37
749.589	14094.21
749.928	14110.7
750.267	14278.38
750.605	14263.47
750.944	14346.63
751.283	14415.55
751.621	14528.09
751.96	14545.49
752.298	14602.89
752.636	14725.6
752.975	14765.15
753.313	14818.25
753.651	14998.81
753.989	14978.48
754.327	15152.03
754.666	15185.7
755.004	15347.73
755.342	15488.97
755.679	15515.41
756.017	15592.7
756.355	15674.73
756.693	15784.78
757.031	15972.8
757.368	15988.17
757.706	16074.49
758.044	16315.84
758.381	16338.67
758.719	16469.06
759.056	16518.77
759.394	16620.69
759.731	16696.4
760.068	16876.05
760.405	16859.78
760.743	17049.38
761.08	17080.57
761.417	17176.16
761.754	17351.75
762.091	17474.23
762.428	17516.49
762.765	17571.4
763.102	17709.7
763.438	17756.93
763.775	17876.25
764.112	18008.68
764.449	18080.09
764.785	18150.82
765.122	18128.9
765.458	18354.43
765.795	18263.81
766.131	18354.43
766.467	18545.16
766.804	18457.48
767.14	18503.58
767.476	18630.36
767.812	18774.76
768.148	18788.77
768.485	18818.83
768.821	18815.44
769.157	18913.06
769.492	18965.94
769.828	18907.64
770.164	18976.79
770.5	18964.13
770.836	19021.53
771.171	19099.05
771.507	19016.34
771.842	18970.46
772.178	19143.34
772.513	19180.17
772.849	19149.89
773.184	19111.02
773.519	19162.1
773.855	19124.13
774.19	19162.32
774.525	19097.92
774.86	19278.48
775.195	19237.12
775.53	19151.25
775.865	19072.61
776.2	19090.23
776.535	18989.44
776.87	19062.89
777.205	19007.97
777.539	18979.95
777.874	18931.14
778.209	18965.49
778.543	18831.03
778.878	18862.67
779.212	18854.76
779.547	18804.14
779.881	18887.53
780.215	18839.84
780.55	18752.39
780.884	18690.24
781.218	18682.11
781.552	18742.9
781.886	18622.9
782.22	18643.01
782.554	18511.94
782.888	18434.43
783.222	18448.67
783.556	18441.66
783.889	18415
784.223	18172.52
784.557	18260.88
784.89	18286.64
785.224	18145.4
785.557	18146.08
785.891	18077.15
786.224	18131.84
786.558	18103.14
786.891	17968.23
787.224	17967.55
787.557	17823.37
787.891	17962.8
788.224	17908.57
788.557	17834.67
788.89	17767.33
789.223	17758.29
789.556	17651.85
789.888	17638.52
790.221	17563.04
790.554	17460.9
790.887	17401.92
791.219	17400.79
791.552	17409.37
791.884	17389.03
792.217	17219.55
792.549	17179.32
792.882	17090.74
793.214	17069.27
793.546	17116.95
793.879	17088.93
794.211	16910.4
794.543	17031.3
794.875	16895.04
795.207	16909.5
795.539	16844.19
795.871	16814.59
796.203	16689.62
796.535	16593.35
796.867	16515.16
797.198	16544.31
797.53	16557.42
797.862	16395.84
798.193	16406.24
798.525	16361.26
798.856	16445.78
799.188	16259.35
799.519	16219.8
799.85	16204.88
800.182	16108.16
800.513	16121.5
800.844	16032.69
801.175	16031.78
801.506	15999.01
801.837	15914.95
802.168	15895.74
802.499	15807.61
802.83	15714.05
803.161	15628.63
803.491	15686.25
803.822	15700.94
804.153	15598.57
804.483	15471.57
804.814	15457.11
805.145	15458.69
805.475	15340.95
805.805	15371.46
806.136	15361.29
806.466	15231.35
806.796	15237.23
807.126	15183.44
807.457	15098.25
807.787	15166.95
808.117	15183.89
808.447	15030.23
808.777	15197.45
809.107	15000.17
809.436	15006.27
809.766	14997.46
810.096	14939.61
810.426	14819.16
810.755	14840.17
811.085	14850.34
811.414	14910.68
811.744	14743.23
812.073	14710.91
812.403	14629.11
812.732	14617.58
813.061	14642.67
813.39	14502.1
813.719	14496.23
814.049	14603.57
814.378	14517.02
814.707	14383.24
815.036	14501.2
815.365	14368.55
815.693	14211.04
816.022	14275.67
816.351	14223.24
816.68	14120.42
817.008	14144.6
817.337	14032.29
817.665	14015.56
817.994	14057.14
818.322	14014.89
818.651	13983.25
818.979	13988.67
819.307	13992.74
819.636	13886.3
819.964	13836.59
820.292	13998.84
820.62	13897.6
820.948	13683.6
821.276	13935.34
821.604	13872.29
821.932	13816.25
822.259	13821.9
822.587	13803.82
822.915	13823.03
823.243	13864.16
823.57	13856.7
823.898	13727.44
824.225	13752.52
824.553	13802.01
824.88	13784.61
825.207	13740.99
825.535	13779.86
825.862	13769.47
826.189	13755.46
826.516	13921.1
826.843	13852.63
827.17	13884.27
827.497	13767.66
827.824	13811.28
828.151	13869.8
828.478	13745.51
828.805	13842.46
829.131	13766.76
829.458	13760.66
829.785	13684.05
830.111	13757.94
830.438	13772.18
830.764	13775.12
831.09	13726.08
831.417	13707.32
831.743	13785.97
832.069	13759.53
832.395	13607.21
832.722	13713.2
833.048	13725.63
833.374	13705.06
833.7	13612.18
834.026	13628.23
834.351	13662.58
834.677	13603.15
835.003	13602.69
835.329	13706.42
835.654	13581.22
835.98	13581.68
836.306	13544.62
836.631	13531.73
836.956	13583.71
837.282	13608.12
837.607	13520.44
837.932	13466.65
838.258	13431.4
838.583	13385.3
838.908	13310.95
839.233	13424.84
839.558	13338.75
839.883	13305.98
840.208	13225.53
840.533	13373.55
840.858	13258.3
841.182	13330.16
841.507	13216.04
841.832	13186.21
842.156	13240.67
842.481	13106.21
842.805	13095.59
843.13	13087.9
843.454	13104.85
843.778	13023.27
844.103	12976.72
844.427	12902.15
844.751	12944.41
845.075	12862.15
845.399	12814.69
845.723	12746.44
846.047	12870.51
846.371	12636.84
846.695	12719.78
847.019	12590.97
847.343	12593.23
847.666	12491.99
847.99	12461.93
848.313	12495.83
848.637	12337.19
848.96	12330.41
849.284	12303.52
849.607	12244.31
849.931	12091.32
850.254	12139
850.577	12145.78
850.9	11935.17
851.223	11919.8
851.546	11925.45
851.869	11814.27
852.192	11918.67
852.515	11721.16
852.838	11658.11
853.161	11683.65
853.483	11660.6
853.806	11643.2
854.129	11598.23
854.451	11454.05
854.774	11506.25
855.096	11441.39
855.419	11389.42
855.741	11454.5
856.063	11349.42
856.385	11318.01
856.708	11248.4
857.03	11269.87
857.352	11245.47
857.674	11209.76
857.996	11206.82
858.318	11142.87
858.64	11149.42
858.961	11068.52
859.283	11038.69
859.605	11007.73
859.926	10981.75
860.248	10922.31
860.57	10930
860.891	10912.82
861.212	10844.12
861.534	10758.7
861.855	10861.3
862.176	10772.71
862.498	10816.1
862.819	10785.59
863.14	10800.96
863.461	10675.99
863.782	10612.26
864.103	10668.76
864.424	10638.7
864.745	10609.78
865.065	10598.03
865.386	10525.03
865.707	10517.58
866.027	10550.8
866.348	10494.98
866.668	10547.86
866.989	10405.26
867.309	10374.76
867.63	10440.97
867.95	10438.48
868.27	10320.29
868.59	10350.58
868.91	10390.8
869.23	10383.12
869.55	10248.43
869.87	10334.53
870.19	10353.51
870.51	10247.98
870.83	10235.1
871.15	10281.2
871.469	10225.15
871.789	10263.57
872.109	10230.58
872.428	10164.14
872.748	10249.79
873.067	10193.97
873.386	10189.45
873.706	10208.66
874.025	10071.26
874.344	10069
874.663	10100.41
874.982	10009.57
875.301	10076.91
875.62	10005.27
875.939	10020.87
876.258	10027.87
876.577	9960.53
876.896	9932.73
877.214	9883.92
877.533	9902.68
877.852	9915.33
878.17	9896.8
878.489	9862.68
878.807	9892.73
879.125	9861.55
879.444	9819.06
879.762	9847.31
880.08	9778.39
880.398	9734.55
880.716	9758.95
881.034	9673.76
881.352	9751.04
881.67	9716.69
881.988	9716.24
882.306	9661.55
882.624	9578.39
882.941	9590.82
883.259	9642.12
883.577	9509.47
883.894	9496.81
884.212	9498.85
884.529	9527.55
884.846	9450.03
885.164	9498.39
885.481	9447.32
885.798	9401.9
886.115	9323.71
886.432	9380.43
886.75	9304.5
887.067	9403.71
887.383	9340.43
887.7	9305.86
888.017	9255.69
888.334	9268.8
888.651	9247.55
888.967	9159.19
889.284	9056.6
889.6	9076.03
889.917	9056.37
890.233	9101.79
890.55	9057.28
890.866	9087.78
891.182	8994.68
891.498	8984.28
891.815	8909.48
892.131	8908.81
892.447	8889.6
892.763	8801.01
893.079	8815.02
893.395	8817.06
893.71	8807.34
894.026	8784.51
894.342	8781.58
894.657	8660.22
894.973	8712.43
895.289	8644.18
895.604	8611.86
895.92	8593.11
896.235	8512.21
896.55	8554.69
896.865	8530.28
897.181	8458.65
897.496	8446.67
897.811	8467.91
898.126	8368.71
898.441	8364.86
898.756	8355.83
899.071	8265.21
899.386	8308.82
899.7	8189.73
900.015	8199.45
900.33	8140.24
900.644	8111.09
900.959	8180.46
901.273	8119
901.588	8007.81
901.902	8049.39
902.216	8003.07
902.531	7976.85
902.845	7958.77
903.159	7851.21
903.473	7881.71
903.787	7844.43
904.101	7761.04
904.415	7826.35
904.729	7787.48
905.042	7697.99
905.356	7736.41
905.67	7672.68
905.984	7702.51
906.297	7658.67
906.611	7630.42
906.924	7519.24
907.237	7498.22
907.551	7545.68
907.864	7481.05
908.177	7489.18
908.491	7462.29
908.804	7433.14
909.117	7380.03
909.43	7349.3
909.743	7297.32
910.056	7360.82
910.368	7287.38
910.681	7218.91
910.994	7208.29
911.307	7136.42
911.619	7111.79
911.932	7162.18
912.244	7033.15
912.557	7038.12
912.869	7055.75
913.181	7006.48
913.494	6961.96
913.806	7003.09
914.118	6887.62
914.43	6911.8
914.742	6887.84
915.054	6860.5
915.366	6770.78
915.678	6760.16
915.99	6716.09
916.302	6697.79
916.613	6670.45
916.925	6684.46
917.236	6662.08
917.548	6594.06
917.859	6576.44
918.171	6549.09
918.482	6502.99
918.794	6508.42
919.105	6477
919.416	6478.13
919.727	6415.54
920.038	6351.58
920.349	6360.85
920.66	6382.09
920.971	6291.92
921.282	6294.18
921.593	6222.32
921.903	6216.9
922.214	6217.8
922.525	6150.23
922.835	6153.85
923.146	6150.69
923.456	6065.72
923.767	6018.49
924.077	6094.42
924.387	6054.64
924.697	5971.93
925.008	5993.18
925.318	5948.21
925.628	5954.98
925.938	5961.76
926.248	5849.45
926.558	5884.03
926.867	5845.61
927.177	5823.01
927.487	5788.89
927.796	5761.77
928.106	5700.08
928.416	5719.96
928.725	5691.26
929.034	5640.64
929.344	5674.31
929.653	5676.12
929.962	5620.08
930.271	5572.85
930.581	5556.35
930.89	5500.76
931.199	5481.78
931.508	5492.4
931.817	5486.52
932.125	5484.49
932.434	5371.5
932.743	5331.72
933.051	5377.37
933.36	5364.94
933.669	5271.84
933.977	5295.57
934.286	5276.13
934.594	5252.18
934.902	5201.33
935.21	5164.95
935.519	5179.64
935.827	5181.67
936.135	5164.72
936.443	5098.96
936.751	5077.27
937.059	5083.6
937.367	5074.33
937.674	5086.08
937.982	4946.2
938.29	4980.1
938.597	4996.37
938.905	5004.28
939.213	4924.05
939.52	4873.43
939.827	4914.79
940.135	4857.61
940.442	4866.2
940.749	4842.92
941.056	4826.88
941.363	4767.22
941.67	4804.28
941.977	4771.06
942.284	4689.93
942.591	4712.53
942.898	4667.33
943.205	4693.1
943.511	4697.84
943.818	4659.65
944.125	4580.11
944.431	4563.38
944.738	4568.58
945.044	4534.46
945.35	4507.34
945.657	4533.55
945.963	4513.89
946.269	4475.93
946.575	4491.29
946.881	4441.13
947.187	4468.7
947.493	4432.09
947.799	4378.3
948.105	4372.43
948.41	4367.23
948.716	4336.5
949.022	4310.06
949.327	4322.71
949.633	4254.69
949.938	4279.77
950.244	4256.5
950.549	4206.56
950.854	4211.53
951.16	4181.47
951.465	4163.85
951.77	4133.34
952.075	4101.25
952.38	4117.74
952.685	4123.62
952.99	4056.28
953.294	4022.38
953.599	4064.64
953.904	3970.63
954.209	3983.74
954.513	3964.3
954.818	3945.77
955.122	3947.35
955.426	3934.7
955.731	3852.67
956.035	3896.28
956.339	3858.99
956.643	3871.65
956.948	3826.68
957.252	3850.18
957.556	3827.81
957.86	3804.31
958.163	3728.15
958.467	3782.61
958.771	3712.78
959.075	3772.22
959.378	3714.14
959.682	3763.4
959.985	3689.06
960.289	3663.97
960.592	3642.73
960.896	3678.43
961.199	3645.67
961.502	3597.76
961.805	3609.28
962.108	3578.55
962.411	3561.6
962.714	3538.55
963.017	3495.39
963.32	3539.91
963.623	3503.3
963.926	3493.58
964.228	3443.64
964.531	3431.21
964.833	3416.97
965.136	3421.94
965.438	3385.11
965.741	3379.69
966.043	3369.29
966.345	3360.93
966.648	3397.99
966.95	3332.91
967.252	3340.14
967.554	3346.69
967.856	3274.83
968.158	3286.58
968.46	3292.68
968.761	3264.43
969.063	3235.73
969.365	3226.92
969.666	3227.6
969.968	3192.8
970.269	3190.54
970.571	3177.43
970.872	3156.64
971.174	3134.27
971.475	3139.24
971.776	3110.99
972.077	3103.31
972.378	3106.25
972.679	3075.06
972.98	3052.91
973.281	3072.35
973.582	3023.54
973.883	3050.88
974.183	3015.4
974.484	3007.27
974.785	3012.69
975.085	2997.77
975.386	2984.44
975.686	2948.51
975.986	2923.65
976.287	2929.53
976.587	2912.58
976.887	2892.92
977.187	2919.81
977.487	2863.77
977.787	2845.91
978.087	2844.11
978.387	2820.38
978.687	2805.69
978.987	2780.15
979.286	2793.49
979.586	2811.11
979.885	2761.62
980.185	2737.22
980.484	2741.51
980.784	2715.07
981.083	2717.33
981.382	2718.01
981.682	2668.52
981.981	2700.83
982.28	2658.12
982.579	2672.59
982.878	2689.53
983.177	2648.86
983.475	2650.89
983.774	2591.46
984.073	2607.5
984.372	2595.75
984.67	2541.29
984.969	2565.02
985.267	2583.55
985.566	2585.13
985.864	2523.66
986.162	2539.71
986.461	2506.26
986.759	2515.53
987.057	2472.82
987.355	2457.9
987.653	2497.22
987.951	2456.09
988.249	2463.33
988.547	2387.62
988.844	2413.83
989.142	2439.82
989.44	2400.95
989.737	2376.77
990.035	2387.39
990.332	2354.4
990.63	2357.34
990.927	2344.46
991.224	2309.66
991.521	2324.57
991.819	2318.7
992.116	2318.7
992.413	2299.04
992.71	2297.45
993.006	2306.27
993.303	2262.2
993.6	2278.47
993.897	2254.52
994.193	2239.83
994.49	2221.52
994.787	2225.14
995.083	2173.84
995.379	2181.98
995.676	2176.33
995.972	2192.37
996.268	2149.66
996.565	2129.77
996.861	2127.97
997.157	2129.32
997.453	2102.66
997.749	2104.01
998.044	2082.09
998.34	2085.93
998.636	2056.56
998.932	2095.65
999.227	2008.65
999.523	2064.92
999.818	2000.74
1000.114	2012.72
1000.409	2005.71
1000.704	2001.64
1001	1982.43
1001.295	1961.19
1001.59	1968.87
1001.885	1953.28
1002.18	1927.75
1002.475	1955.77
1002.77	1927.52
1003.065	1899.72
1003.359	1885.94
1003.654	1870.8
1003.949	1926.39
1004.243	1872.15
1004.538	1851.14
1004.832	1866.73
1005.127	1855.43
1005.421	1861.76
1005.715	1841.42
1006.009	1814.08
1006.304	1826.05
1006.598	1816.11
1006.892	1809.33
1007.186	1806.17
1007.48	1771.82
1007.773	1742.67
1008.067	1752.16
1008.361	1724.59
1008.655	1732.95
1008.948	1722.1
1009.242	1690.46
1009.535	1723.01
1009.829	1680.75
1010.122	1693.4
1010.415	1683.68
1010.708	1688.43
1011.001	1653.63
1011.295	1668.32
1011.588	1656.57
1011.881	1620.18
1012.173	1640.3
1012.466	1613.86
1012.759	1598.26
1013.052	1568.43
1013.344	1566.85
1013.637	1556.23
1013.93	1542.22
1014.222	1554.2
1014.514	1535.67
1014.807	1555.55
1015.099	1538.83
1015.391	1511.26
1015.683	1500.86
1015.976	1498.83
1016.268	1511.71
1016.56	1484.14
1016.851	1468.55
1017.143	1472.16
1017.435	1440.98
1017.727	1426.97
1018.018	1469.23
1018.31	1419.28
1018.602	1435.1
1018.893	1384.71
1019.185	1414.54
1019.476	1384.94
1019.767	1391.26
1020.058	1384.48
1020.35	1360.53
1020.641	1376.8
1020.932	1356.24
1021.223	1348.1
1021.514	1330.25
1021.804	1328.89
1022.095	1337.48
1022.386	1305.62
1022.677	1320.76
1022.967	1296.8
1023.258	1288.67
1023.548	1269.46
1023.839	1259.06
1024.129	1267.42
1024.419	1242.79
1024.709	1259.29
1025	1243.47
1025.29	1217.71
1025.58	1237.37
1025.87	1235.79
1026.16	1210.7
1026.449	1198.95
1026.739	1168.9
1027.029	1187.43
1027.319	1170.03
1027.608	1183.58
1027.898	1153.53
1028.187	1162.34
1028.477	1154.21
1028.766	1129.35
1029.055	1112.85
1029.344	1136.81
1029.634	1104.94
1029.923	1084.15
1030.212	1122.12
1030.501	1098.39
1030.79	1062.23
1031.078	1060.65
1031.367	1081.21
1031.656	1092.74
1031.945	1064.27
1032.233	1042.8
1032.522	1060.65
1032.81	1041.44
1033.099	1055.9
1033.387	1010.93
1033.675	1028.33
1033.963	1030.82
1034.251	1028.79
1034.54	1011.16
1034.828	997.15
1035.116	980.65
1035.403	1009.13
1035.691	953.08
1035.979	970.48
1036.267	956.25
1036.554	982.01
1036.842	964.38
1037.129	938.17
1037.417	945.62
1037.704	935.23
1037.992	926.87
1038.279	913.99
1038.566	951.95
1038.853	951.95
1039.14	951.95
