Data from hue_200_FLMS001491_00009.txt Node
Date: Tue Feb 07 16:42:45 GMT 2017
User: dcchb
Spectrometer: FLMS00149
Trigger mode: 0
Integration Time (sec): 2.000000E-2
Scans to average: 10
Electric dark correction enabled: true
Nonlinearity correction enabled: false
Boxcar width: 0
XAxis mode: Wavelengths
Number of Pixels in Spectrum: 2048
>>>>>Begin Spectral Data<<<<<
341.393	-12.08
341.776	-12.08
342.16	-12.08
342.543	-62.47
342.927	-70.61
343.31	-69.93
343.693	-66.31
344.077	-52.53
344.46	-61.11
344.843	-49.14
345.226	-31.96
345.61	-40.1
345.993	-9.82
346.376	0.81
346.759	7.13
347.142	8.26
347.525	48.26
347.908	52.1
348.291	78.77
348.674	89.16
349.057	96.4
349.44	118.09
349.823	148.6
350.206	172.1
350.588	179.56
350.971	208.26
351.354	223.17
351.737	247.13
352.119	243.96
352.502	254.58
352.884	267.01
353.267	284.41
353.65	289.16
354.032	283.74
354.414	318.31
354.797	324.86
355.179	320.34
355.562	345.43
355.944	328.71
356.326	332.1
356.709	322.83
357.091	330.74
357.473	339.55
357.855	340.01
358.238	338.88
358.62	353.34
359.002	349.95
359.384	329.16
359.766	352.21
360.148	347.46
360.53	344.52
360.912	332.55
361.294	316.05
361.676	345.2
362.057	328.93
362.439	334.13
362.821	330.06
363.203	330.97
363.584	332.32
363.966	314.7
364.348	328.03
364.729	330.06
365.111	326.45
365.493	335.71
365.874	335.71
366.256	338.65
366.637	331.87
367.019	318.99
367.4	316.95
367.781	318.08
368.163	324.86
368.544	326.67
368.925	306.11
369.306	332.55
369.688	327.12
370.069	313.57
370.45	309.72
370.831	294.36
371.212	305.43
371.593	310.4
371.974	325.54
372.355	330.97
372.736	294.58
373.117	325.09
373.498	316.95
373.879	309.27
374.26	309.5
374.641	315.6
375.021	322.6
375.402	325.99
375.783	340.46
376.163	334.81
376.544	334.58
376.925	308.14
377.305	322.15
377.686	321.93
378.066	337.75
378.447	323.96
378.827	328.48
379.208	325.32
379.588	339.55
379.968	326.22
380.349	337.29
380.729	346.56
381.109	347.69
381.489	330.51
381.87	327.35
382.25	325.77
382.63	347.91
383.01	334.13
383.39	336.62
383.77	349.27
384.15	362.15
384.53	363.51
384.91	374.35
385.29	353.34
385.67	342.72
386.049	374.35
386.429	352.43
386.809	359.44
387.189	333
387.568	367.35
387.948	354.69
388.328	359.44
388.707	381.36
389.087	361.02
389.466	382.26
389.846	375.71
390.225	375.03
390.605	376.84
390.984	385.88
391.363	370.74
391.743	383.39
392.122	382.94
392.501	389.27
392.881	378.2
393.26	374.58
393.639	385.43
394.018	401.92
394.397	413.68
394.776	392.43
395.155	404.64
395.534	396.27
395.913	376.61
396.292	414.35
396.671	412.55
397.05	411.87
397.429	386.56
397.808	416.61
398.186	425.2
398.565	413.22
398.944	425.88
399.323	422.04
399.701	425.65
400.08	408.93
400.458	423.84
400.837	437.18
401.215	436.5
401.594	438.76
401.972	432.43
402.351	443.73
402.729	452.32
403.107	452.77
403.486	458.87
403.864	463.17
404.242	452.54
404.62	473.11
404.999	501.81
405.377	475.14
405.755	464.07
406.133	484.18
406.511	472.21
406.889	489.15
407.267	509.72
407.645	518.53
408.023	513.33
408.401	520.11
408.779	521.24
409.156	541.81
409.534	560.56
409.912	538.87
410.29	595.59
410.667	579.55
411.045	574.12
411.422	578.64
411.8	601.02
412.178	601.24
412.555	625.87
412.933	628.13
413.31	643.05
413.687	651.86
414.065	639.21
414.442	676.72
414.819	682.37
415.197	709.04
415.574	695.48
415.951	721.24
416.328	732.54
416.705	749.94
417.082	738.19
417.46	751.29
417.837	750.16
418.214	769.82
418.591	772.08
418.967	802.37
419.344	804.63
419.721	806.66
420.098	839.2
420.475	826.32
420.852	831.07
421.228	838.98
421.605	876.26
421.982	883.04
422.358	934.11
422.735	909.26
423.111	950.38
423.488	962.59
423.864	969.82
424.241	976.37
424.617	998.07
424.994	1040.33
425.37	1034.9
425.746	1038.52
426.123	1072.42
426.499	1077.61
426.875	1100.21
427.251	1117.16
427.627	1145.86
428.003	1144.28
428.379	1186.31
428.756	1182.47
429.132	1186.08
429.507	1208.91
429.883	1211.62
430.259	1233.99
430.635	1272.18
431.011	1263.37
431.387	1281
431.763	1292.3
432.138	1328.45
432.514	1333.2
432.89	1363.48
433.265	1392.63
433.641	1414.1
434.016	1443.48
434.392	1461.78
434.767	1490.94
435.143	1527.54
435.518	1565.28
435.894	1581.55
436.269	1636.92
436.644	1611.38
437.02	1690.03
437.395	1667.2
437.77	1719.86
438.145	1740.87
438.52	1803.47
438.895	1810.25
439.271	1838.5
439.646	1875.33
440.021	1917.14
440.395	1925.05
440.77	1902.22
441.145	1971.37
441.52	1987.42
441.895	2036.23
442.27	2051.6
442.645	2071.94
443.019	2115.33
443.394	2100.86
443.769	2115.78
444.143	2141.31
444.518	2177.25
444.892	2189.9
445.267	2223.35
445.641	2231.03
446.016	2252.72
446.39	2261.99
446.764	2291.82
447.139	2301.99
447.513	2339.05
447.887	2330.46
448.262	2340.63
448.636	2368.65
449.01	2458.14
449.384	2429.44
449.758	2440.74
450.132	2469.89
450.506	2494.3
450.88	2552.38
451.254	2510.8
451.628	2566.84
452.002	2561.87
452.376	2637.57
452.75	2650.9
453.123	2677.12
453.497	2737.91
453.871	2759.83
454.244	2762.09
454.618	2802.54
454.992	2850.9
455.365	2821.3
455.739	2884.8
456.112	2934.97
456.486	2958.92
456.859	3019.48
457.232	3037.11
457.606	3034.85
457.979	3082.76
458.352	3162.53
458.725	3179.48
459.099	3189.2
459.472	3275.3
459.845	3278.91
460.218	3304.45
460.591	3332.69
460.964	3359.59
461.337	3460.38
461.71	3518.23
462.083	3539.92
462.456	3586.47
462.829	3584.21
463.201	3654.49
463.574	3656.08
463.947	3668.28
464.32	3795.28
464.692	3822.17
465.065	3886.58
465.438	3882.06
465.81	3910.98
466.183	3998.67
466.555	4076.18
466.928	4104.43
467.3	4112.79
467.672	4156.18
468.045	4324.53
468.417	4296.06
468.789	4262.16
469.161	4334.7
469.534	4457.86
469.906	4514.13
470.278	4560.91
470.65	4619.67
471.022	4682.49
471.394	4728.36
471.766	4791.87
472.138	4815.37
472.51	4969.26
472.882	5017.17
473.253	5061.24
473.625	5116.83
473.997	5217.84
474.369	5272.76
474.74	5312.3
475.112	5411.96
475.484	5491.73
475.855	5579.64
476.227	5625.29
476.598	5785.06
476.97	5788.68
477.341	5931.04
477.713	5991.83
478.084	6042.68
478.455	6209.46
478.827	6234.09
479.198	6468.43
479.569	6409.68
479.94	6521.09
480.311	6630.01
480.682	6767.41
481.053	6932.15
481.424	7004.69
481.795	6986.38
482.166	7175.98
482.537	7218.47
482.908	7392.25
483.279	7394.51
483.65	7531.91
484.021	7692.81
484.391	7742.75
484.762	7869.3
485.133	7870.43
485.503	7940.94
485.874	8098.22
486.244	8208.72
486.615	8333.47
486.985	8465.89
487.356	8598.32
487.726	8572.11
488.097	8820.23
488.467	8845.77
488.837	9005.77
489.207	9052.32
489.578	9198.53
489.948	9227.68
490.318	9365.98
490.688	9396.04
491.058	9530.72
491.428	9576.6
491.798	9639.42
492.168	9781.11
492.538	9860.88
492.908	9938.62
493.278	10035.57
493.648	10048.45
494.017	10232.85
494.387	10257.71
494.757	10319.63
495.126	10388.33
495.496	10427.88
495.866	10403.92
496.235	10598.72
496.605	10636.91
496.974	10678.04
497.344	10793.29
497.713	10753.52
498.082	10862.67
498.452	10994.64
498.821	10912.38
499.19	10891.82
499.559	10999.16
499.928	11089.33
500.298	11188.99
500.667	11192.6
501.036	11217.01
501.405	11352.15
501.774	11288.42
502.143	11437.11
502.512	11444.57
502.88	11539.71
503.249	11449.77
503.618	11513.72
503.987	11588.3
504.356	11662.42
504.724	11655.64
505.093	11702.19
505.462	11732.93
505.83	11796.88
506.199	11807.95
506.567	11949.87
506.936	11901.51
507.304	11929.08
507.672	11960.04
508.041	12065.57
508.409	11991.45
508.777	12092.92
509.145	12206.59
509.514	12245.68
509.882	12252.01
510.25	12245.23
510.618	12254.95
510.986	12218.56
511.354	12332.01
511.722	12417.88
512.09	12481.83
512.458	12431.66
512.826	12479.35
513.193	12383.98
513.561	12543.98
513.929	12548.27
514.297	12604.09
514.664	12528.61
515.032	12588.95
515.4	12697.65
515.767	12710.98
516.135	12722.05
516.502	12611.32
516.869	12785.78
517.237	12811.54
517.604	12648.61
517.972	12846.34
518.339	12820.81
518.706	12776.97
519.073	12828.72
519.44	12879.34
519.808	12937.87
520.175	12895.38
520.542	12949.62
520.909	12995.49
521.276	12871.43
521.643	12987.13
522.009	13008.82
522.376	13034.81
522.743	13081.82
523.11	13127.01
523.477	13103.51
523.843	13120.46
524.21	13149.39
524.577	13203.4
524.943	13317.52
525.31	13227.35
525.676	13312.09
526.043	13342.15
526.409	13326.56
526.776	13361.58
527.142	13309.16
527.508	13265.09
527.874	13394.58
528.241	13320.68
528.607	13361.81
528.973	13394.35
529.339	13388.25
529.705	13404.97
530.071	13429.6
530.437	13397.06
530.803	13501.92
531.169	13450.39
531.535	13340.79
531.901	13310.29
532.267	13346.44
532.632	13407.68
532.998	13323.62
533.364	13307.12
533.73	13279.55
534.095	13297.18
534.461	13237.97
534.826	13262.38
535.192	13204.3
535.557	13229.61
535.923	13142.83
536.288	13161.59
536.653	13075.49
537.019	13135.83
537.384	13012.44
537.749	13057.18
538.114	12960.24
538.479	12876.4
538.845	12915.72
539.21	12882.5
539.575	12795.04
539.94	12856.74
540.305	12870.3
540.67	12765.44
541.034	12691.09
541.399	12669.17
541.764	12727.25
542.129	12647.7
542.494	12579.68
542.858	12588.72
543.223	12569.06
543.587	12508.05
543.952	12504.88
544.316	12449.29
544.681	12401.61
545.045	12334.49
545.41	12314.83
545.774	12260.82
546.138	12204.33
546.503	12161.62
546.867	12111.9
547.231	12113.71
547.595	12021.51
547.959	12026.7
548.324	11996.2
548.688	11943.09
549.052	11820.61
549.416	11864.22
549.779	11739.25
550.143	11815.41
550.507	11771.57
550.871	11752.81
551.235	11612.93
551.599	11758.69
551.962	11571.57
552.326	11620.61
552.689	11625.36
553.053	11477.34
553.417	11492.48
553.78	11484.8
554.143	11444.35
554.507	11424.46
554.87	11469.43
555.234	11397.57
555.597	11350.79
555.96	11370
556.323	11301.07
556.686	11379.49
557.05	11281.64
557.413	11315.54
557.776	11298.81
558.139	11260.17
558.502	11211.13
558.865	11133.39
559.228	11163.68
559.59	11246.61
559.953	11171.36
560.316	11141.98
560.679	11219.72
561.041	11224.46
561.404	11155.31
561.767	11146.5
562.129	11071.02
562.492	11145.37
562.854	11094.52
563.217	11139.95
563.579	11107.63
563.941	11153.73
564.304	11083.45
564.666	11163
565.028	11188.76
565.39	11108.54
565.753	11170.23
566.115	11126.84
566.477	11164.13
566.839	11160.51
567.201	11175.65
567.563	11118.7
567.925	11168.2
568.287	11162.77
568.648	11209.1
569.01	11237.57
569.372	11258.81
569.734	11201.64
570.095	11181.98
570.457	11244.13
570.819	11283.45
571.18	11239.83
571.542	11260.62
571.903	11222.43
572.265	11242.32
572.626	11302.65
572.987	11287.74
573.349	11303.56
573.71	11337.23
574.071	11393.73
574.432	11380.17
574.794	11398.92
575.155	11347.17
575.516	11259.72
575.877	11333.61
576.238	11388.53
576.599	11390.11
576.96	11371.81
577.32	11359.15
577.681	11327.06
578.042	11373.84
578.403	11339.26
578.763	11441.18
579.124	11368.42
579.485	11378.13
579.845	11391.47
580.206	11405.7
580.566	11406.38
580.927	11408.41
581.287	11433.27
581.648	11411.58
582.008	11362.77
582.368	11341.07
582.728	11432.37
583.089	11433.5
583.449	11405.7
583.809	11388.08
584.169	11356.89
584.529	11313.05
584.889	11357.79
585.249	11393.73
585.609	11308.08
585.969	11408.41
586.329	11382.43
586.688	11409.32
587.048	11357.57
587.408	11331.35
587.768	11315.99
588.127	11326.16
588.487	11314.41
588.846	11347.4
589.206	11316.44
589.565	11261.07
589.925	11311.92
590.284	11360.28
590.643	11383.78
591.003	11360.51
591.362	11396.89
591.721	11280.73
592.08	11257.91
592.44	11400.96
592.799	11324.58
593.158	11276.89
593.517	11292.94
593.876	11306.95
594.235	11283.9
594.593	11237.35
594.952	11292.71
595.311	11192.6
595.67	11229.89
596.029	11321.64
596.387	11246.16
596.746	11283.67
597.104	11209.1
597.463	11188.08
597.822	11298.14
598.18	11151.02
598.538	11154.86
598.897	11236.67
599.255	11152.83
599.613	11291.13
599.972	11249.1
600.33	11264.46
600.688	11283.9
601.046	11254.52
601.404	11294.29
601.762	11252.26
602.12	11314.86
602.478	11210.68
602.836	11321.19
603.194	11150.57
603.552	11252.94
603.91	11172.71
604.268	11315.76
604.625	11225.14
604.983	11157.8
605.341	11185.14
605.698	11216.56
606.056	11263.79
606.413	11234.41
606.771	11179.49
607.128	11312.82
607.485	11169.32
607.843	11205.93
608.2	11174.07
608.557	11250
608.914	11189.89
609.272	11278.93
609.629	11291.58
609.986	11304.46
610.343	11242.32
610.7	11329.77
611.057	11332.94
611.414	11348.76
611.771	11333.39
612.127	11357.34
612.484	11375.87
612.841	11313.28
613.198	11372.03
613.554	11334.97
613.911	11445.48
614.267	11428.98
614.624	11374.74
614.98	11374.07
615.337	11461.97
615.693	11411.58
616.05	11385.14
616.406	11454.52
616.762	11416.55
617.118	11498.58
617.475	11389.66
617.831	11448.19
618.187	11442.54
618.543	11447.28
618.899	11476.44
619.255	11420.17
619.611	11416.78
619.967	11453.39
620.323	11508.53
620.678	11391.24
621.034	11473.05
621.39	11422.88
621.746	11504.23
622.101	11527.51
622.457	11440.73
622.812	11437.11
623.168	11466.49
623.523	11440.5
623.879	11409.32
624.234	11459.94
624.589	11485.93
624.945	11537.9
625.3	11447.74
625.655	11452.93
626.01	11493.61
626.365	11439.15
626.72	11407.96
627.075	11455.87
627.43	11468.98
627.785	11316.44
628.14	11415.65
628.495	11492.48
628.85	11465.81
629.205	11438.24
629.559	11426.72
629.914	11409.32
630.269	11368.19
630.623	11347.4
630.978	11345.37
631.332	11275.54
631.687	11390.79
632.041	11349.21
632.396	11328.42
632.75	11264.24
633.104	11255.88
633.459	11188.99
633.813	11232.83
634.167	11222.43
634.521	11254.75
634.875	11241.64
635.229	11191.7
635.583	11167.07
635.937	11112.15
636.291	11137.91
636.645	11154.41
636.999	11110.8
637.352	11111.93
637.706	11042.1
638.06	11059.27
638.413	11025.6
638.767	11074.41
639.121	11090.01
639.474	10914.64
639.828	11022.44
640.181	11045.71
640.534	11052.94
640.888	10927.52
641.241	10956
641.594	10933.4
641.947	10935.88
642.301	10946.96
642.654	10930.69
643.007	11014.07
643.36	10903.8
643.713	10916.68
644.066	10888.88
644.419	10910.12
644.771	10806.62
645.124	10716.91
645.477	10731.37
645.83	10624.93
646.182	10598.72
646.535	10474.2
646.888	10605.95
647.24	10451.6
647.593	10588.32
647.945	10484.37
648.298	10420.64
648.65	10470.36
649.002	10428.1
649.355	10463.35
649.707	10514.43
650.059	10552.17
650.411	10654.76
650.763	10709
651.115	10761.2
651.467	10748.32
651.819	10763.23
652.171	10758.71
652.523	10740.86
652.875	10683.91
653.227	10559.17
653.578	10792.61
653.93	10796.91
654.282	10635.33
654.633	10640.75
654.985	10745.38
655.337	10690.24
655.688	10741.54
656.039	10789.22
656.391	10690.47
656.742	10733.63
657.094	10767.98
657.445	10697.02
657.796	10704.25
658.147	10629.68
658.498	10665.84
658.849	10687.98
659.2	10703.12
659.551	10748.77
659.902	10706.96
660.253	10778.83
660.604	10716
660.955	10716
661.306	10788.77
661.656	10742.44
662.007	10729.11
662.358	10793.97
662.708	10721.2
663.059	10788.77
663.409	10682.33
663.76	10774.53
664.11	10809.11
664.461	10805.49
664.811	10816.57
665.161	10744.03
665.511	10720.3
665.862	10738.83
666.212	10828.32
666.562	10800.3
666.912	10792.39
667.262	10753.97
667.612	10785.38
667.962	10730.92
668.312	10775.21
668.662	10795.32
669.011	10799.84
669.361	10758.49
669.711	10728.88
670.06	10776.11
670.41	10744.25
670.76	10696.8
671.109	10769.11
671.459	10713.07
671.808	10757.81
672.157	10704.7
672.507	10670.13
672.856	10657.93
673.205	10676.68
673.554	10622.67
673.904	10550.13
674.253	10685.5
674.602	10679.39
674.951	10513.52
675.3	10422.9
675.649	10636.23
675.998	10546.29
676.346	10614.99
676.695	10627.42
677.044	10548.55
677.393	10486.18
677.741	10582.22
678.09	10525.27
678.438	10460.87
678.787	10597.14
679.135	10486.18
679.484	10453.64
679.832	10475.56
680.181	10432.85
680.529	10505.61
680.877	10385.39
681.225	10403.47
681.573	10445.73
681.922	10360.31
682.27	10322.79
682.618	10335.67
682.966	10286.86
683.314	10294.77
683.661	10259.07
684.009	10230.82
684.357	10156.92
684.705	10153.53
685.053	10153.53
685.4	10139.97
685.748	10151.95
686.095	10058.62
686.443	10040.99
686.79	10084.16
687.138	10024.27
687.485	10037.38
687.832	10041.45
688.18	9968.23
688.527	9899.75
688.874	9940.66
689.221	9898.4
689.568	9874.9
689.915	9852.3
690.262	9837.38
690.609	9830.15
690.956	9763.03
691.303	9770.49
691.65	9637.84
691.997	9651.85
692.344	9594.23
692.69	9606.2
693.037	9594.68
693.383	9480.78
693.73	9562.81
694.077	9405.08
694.423	9503.61
694.769	9421.35
695.116	9319.66
695.462	9326.66
695.808	9287.11
696.155	9329.83
696.501	9291.63
696.847	9249.83
697.193	9123.96
697.539	9181.13
697.885	9123.5
698.231	9089.15
698.577	9120.11
698.923	8994.24
699.269	8952.89
699.614	8944.07
699.96	8894.81
700.306	8965.77
700.651	8856.62
700.997	8831.08
701.342	8767.81
701.688	8727.81
702.033	8746.79
702.379	8712.67
702.724	8700.92
703.069	8655.04
703.415	8580.69
703.76	8625.66
704.105	8527.59
704.45	8546.12
704.795	8487.36
705.14	8471.99
705.485	8483.75
705.83	8405.33
706.175	8403.97
706.52	8418.89
706.865	8399.23
707.209	8332.34
707.554	8301.38
707.899	8297.54
708.243	8255.5
708.588	8230.87
708.932	8166.69
709.277	8160.36
709.621	8161.04
709.966	8091.21
710.31	8138.9
710.654	8070.88
710.998	8035.17
711.342	8038.56
711.687	8054.15
712.031	7986.13
712.375	7985
712.719	7933.03
713.063	7923.99
713.407	8033.59
713.75	8001.95
714.094	7889.86
714.438	7896.64
714.782	7916.08
715.125	7846.25
715.469	7901.39
715.812	7809.19
716.156	7789.75
716.499	7780.94
716.843	7814.84
717.186	7777.78
717.53	7749.53
717.873	7810.32
718.216	7797.21
718.559	7699.36
718.902	7712.47
719.246	7692.58
719.589	7736.19
719.932	7643.54
720.275	7654.16
720.617	7619.59
720.96	7637.67
721.303	7632.69
721.646	7609.19
721.989	7552.47
722.331	7578.68
722.674	7623.2
723.016	7573.94
723.359	7609.64
723.701	7532.13
724.044	7559.02
724.386	7556.31
724.729	7496.65
725.071	7526.03
725.413	7514.96
725.755	7575.07
726.097	7453.94
726.439	7468.18
726.782	7457.78
727.124	7531.45
727.465	7469.99
727.807	7465.24
728.149	7474.28
728.491	7474.28
728.833	7427.5
729.175	7445.81
729.516	7436.99
729.858	7440.16
730.199	7412.36
730.541	7432.93
730.882	7435.64
731.224	7472.25
731.565	7453.04
731.906	7443.1
732.248	7477.22
732.589	7387.05
732.93	7403.55
733.271	7396.77
733.612	7422.98
733.953	7428.86
734.294	7392.7
734.635	7419.82
734.976	7411.91
735.317	7451.91
735.658	7437.9
735.999	7415.75
736.339	7412.59
736.68	7400.61
737.021	7365.58
737.361	7445.36
737.702	7507.27
738.042	7499.14
738.383	7451.23
738.723	7505.69
739.063	7510.66
739.404	7529.65
739.744	7495.52
740.084	7404.68
740.424	7551.34
740.764	7554.28
741.104	7586.14
741.444	7488.74
741.784	7509.99
742.124	7530.78
742.464	7567.16
742.804	7581.85
743.143	7613.49
743.483	7625.46
743.823	7585.92
744.162	7616.88
744.502	7745.91
744.841	7723.99
745.181	7797.44
745.52	7813.03
745.86	7867.04
746.199	7856.87
746.538	7835.63
746.877	7981.61
747.216	7953.59
747.556	7958.11
747.895	8129.18
748.234	8095.28
748.573	8152
748.911	8257.31
749.25	8272.45
749.589	8332.34
749.928	8408.72
750.267	8485.78
750.605	8561.26
750.944	8651.2
751.283	8714.02
751.621	8824.98
751.96	8826.34
752.298	9005.31
752.636	9031.53
752.975	9095.26
753.313	9185.2
753.651	9316.72
753.989	9373.89
754.327	9548.12
754.666	9607.56
755.004	9739.08
755.342	9956.7
755.679	10097.26
756.017	10127.77
756.355	10275.34
756.693	10418.38
757.031	10559.4
757.368	10731.6
757.706	10866.28
758.044	11045.49
758.381	11141.3
758.719	11365.7
759.056	11535.42
759.394	11725.69
759.731	11786.71
760.068	11987.16
760.405	12177.89
760.743	12347.83
761.08	12537.2
761.417	12708.72
761.754	12872.56
762.091	13060.8
762.428	13261.7
762.765	13318.65
763.102	13590.96
763.438	13752.99
763.775	13876.37
764.112	14070.49
764.449	14302.12
764.785	14557.71
765.122	14574.66
765.458	14791.83
765.795	14912.96
766.131	15156.79
766.467	15296.9
766.804	15437.46
767.14	15540.28
767.476	15677.68
767.812	15804.68
768.148	15992.25
768.485	16213.49
768.821	16276.54
769.157	16464.78
769.492	16586.58
769.828	16724.89
770.164	16816.86
770.5	16945.22
770.836	17080.81
771.171	17149.05
771.507	17412.55
771.842	17401.25
772.178	17597.18
772.513	17509.5
772.849	17753.56
773.184	17776.83
773.519	17959.88
773.855	17924.4
774.19	18043.27
774.525	18081.23
774.86	18298.18
775.195	18328.91
775.53	18350.83
775.865	18465.86
776.2	18460.21
776.535	18527.78
776.87	18530.49
777.205	18672.63
777.539	18525.29
777.874	18797.15
778.209	18709.47
778.543	18819.07
778.878	18700.65
779.212	18875.56
779.547	18811.16
779.881	18925.96
780.215	18908.33
780.55	19096.8
780.884	19068.78
781.218	19024.71
781.552	19125.27
781.886	19068.33
782.22	19051.38
782.554	19088.89
782.888	18953.98
783.222	19046.86
783.556	19024.94
783.889	19024.03
784.223	18838.5
784.557	18929.8
784.89	19013.64
785.224	19035.56
785.557	18889.8
785.891	18903.13
786.224	18866.3
786.558	18971.61
786.891	18817.49
787.224	18881.21
787.557	18887.54
787.891	18843.47
788.224	18791.95
788.557	18923.7
788.89	18951.04
789.223	18829.46
789.556	18844.83
789.888	18822.01
790.221	18760.76
790.554	18611.16
790.887	18579.3
791.219	18593.08
791.552	18597.15
791.884	18504.27
792.217	18567.77
792.549	18506.76
792.882	18523.26
793.214	18370.94
793.546	18388.57
793.879	18335.46
794.211	18236.71
794.543	18435.35
794.875	18293.88
795.207	18402.13
795.539	18205.52
795.871	18289.36
796.203	18135.24
796.535	18071.97
796.867	18023.38
797.198	18125.53
797.53	18158.75
797.862	17917.85
798.193	18043.04
798.525	17770.51
798.856	17939.09
799.188	17726.67
799.519	17791.75
799.85	17600.57
800.182	17707.23
800.513	17730.96
800.844	17495.03
801.175	17608.03
801.506	17589.72
801.837	17459.33
802.168	17552.66
802.499	17416.17
802.83	17400.12
803.161	17306.79
803.491	17346.34
803.822	17342.72
804.153	17288.94
804.483	17147.92
804.814	17133.24
805.145	17170.98
805.475	17067.02
805.805	17017.98
806.136	17072.67
806.466	17041.94
806.796	17019.34
807.126	16934.82
807.457	16740.03
807.787	16900.25
808.117	16769.63
808.447	16717.2
808.777	16856.41
809.107	16689.86
809.436	16587.04
809.766	16583.19
810.096	16596.75
810.426	16477.89
810.755	16497.55
811.085	16405.57
811.414	16525.12
811.744	16359.47
812.073	16382.3
812.403	16404.67
812.732	16209.42
813.061	16302.98
813.39	16188.85
813.719	16224.11
814.049	16171
814.378	16181.4
814.707	16120.38
815.036	16083.09
815.365	15960.61
815.693	15903.21
816.022	15931.01
816.351	15914.96
816.68	15860.5
817.008	15956.54
817.337	15787.28
817.665	15704.35
817.994	15786.15
818.322	15705.48
818.651	15681.75
818.979	15586.84
819.307	15745.02
819.636	15679.94
819.964	15593.84
820.292	15634.29
820.62	15743.67
820.948	15659.15
821.276	15620.06
821.604	15546.61
821.932	15586.84
822.259	15595.42
822.587	15581.41
822.915	15507.74
823.243	15590.9
823.57	15547.74
823.898	15594.97
824.225	15515.88
824.553	15525.37
824.88	15579.15
825.207	15599.26
825.535	15540.06
825.862	15651.24
826.189	15493.05
826.516	15682.65
826.843	15713.16
827.17	15581.86
827.497	15639.49
827.824	15591.13
828.151	15639.26
828.478	15592.71
828.805	15662.54
829.131	15519.72
829.458	15630.68
829.785	15584.8
830.111	15607.85
830.438	15678.36
830.764	15622.09
831.09	15635.87
831.417	15618.7
831.743	15653.27
832.069	15612.37
832.395	15595.42
832.722	15656.44
833.048	15520.4
833.374	15578.93
833.7	15527.63
834.026	15500.74
834.351	15552.94
834.677	15450.79
835.003	15620.51
835.329	15506.16
835.654	15451.7
835.98	15432.49
836.306	15411.02
836.631	15380.97
836.956	15444.24
837.282	15406.28
837.607	15313.85
837.932	15424.58
838.258	15325.83
838.583	15366.05
838.908	15237.69
839.233	15261.19
839.558	15214.42
839.883	15187.07
840.208	15137.58
840.533	15061.2
840.858	15136.9
841.182	15115.44
841.507	15083.8
841.832	15010.81
842.156	15051.48
842.481	14942.33
842.805	14976
843.13	14898.27
843.454	14909.79
843.778	14874.09
844.103	14755.9
844.427	14794.99
844.751	14808.1
845.075	14726.75
845.399	14644.26
845.723	14547.77
846.047	14573.08
846.371	14499.63
846.695	14564.49
847.019	14327.43
847.343	14369.69
847.666	14247.89
847.99	14190.49
848.313	14158.85
848.637	14159.75
848.96	14127.67
849.284	14109.81
849.607	13930.16
849.931	13828.01
850.254	13799.99
850.577	13649.03
850.9	13672.76
851.223	13720.44
851.546	13600.67
851.869	13475.48
852.192	13540.79
852.515	13525.87
852.838	13348.02
853.161	13375.59
853.483	13306.44
853.806	13245.43
854.129	13150.29
854.451	13218.08
854.774	13161.14
855.096	12995.94
855.419	13050.86
855.741	12970.63
856.063	12979.67
856.385	12894.93
856.708	12855.38
857.03	12825.55
857.352	12789.62
857.674	12804.76
857.996	12749.4
858.318	12729.74
858.64	12647.93
858.961	12550.08
859.283	12574.03
859.605	12515.28
859.926	12554.83
860.248	12509.85
860.57	12442.96
860.891	12455.39
861.212	12370.65
861.534	12253.14
861.855	12316.41
862.176	12344.89
862.498	12336.98
862.819	12277.54
863.14	12172.91
863.461	12214.95
863.782	12209.07
864.103	12190.99
864.424	12112.8
864.745	12197.32
865.065	12097.21
865.386	12037.1
865.707	12075.29
866.027	12091.11
866.348	11959.81
866.668	12013.14
866.989	12013.14
867.309	11945.58
867.63	11818.57
867.95	11868.29
868.27	11870.55
868.59	11849.31
868.91	11823.77
869.23	11800.04
869.55	11719.82
869.87	11835.3
870.19	11753.26
870.51	11771.57
870.83	11851.79
871.15	11667.62
871.469	11763.89
871.789	11681.18
872.109	11682.31
872.428	11620.39
872.748	11701.51
873.067	11605.47
873.386	11587.17
873.706	11601.4
874.025	11529.09
874.344	11504.23
874.663	11538.58
874.982	11450
875.301	11502.65
875.62	11446.15
875.939	11413.39
876.258	11404.12
876.577	11376.33
876.896	11392.14
877.214	11299.94
877.533	11296.33
877.852	11308.98
878.17	11372.26
878.489	11263.56
878.807	11233.96
879.125	11239.83
879.444	11257.46
879.762	11174.97
880.08	11165.48
880.398	11119.16
880.716	11154.41
881.034	11160.06
881.352	11138.59
881.67	11086.39
881.988	11112.6
882.306	11044.13
882.624	10989.89
882.941	10932.27
883.259	10954.42
883.577	10921.2
883.894	10930.01
884.212	10835.77
884.529	10915.55
884.846	10822.89
885.164	10791.26
885.481	10776.57
885.798	10825.61
886.115	10700.41
886.432	10709.68
886.75	10670.81
887.067	10678.49
887.383	10656.12
887.7	10644.59
888.017	10624.93
888.334	10622.22
888.651	10570.02
888.967	10433.3
889.284	10427.42
889.6	10438.04
889.917	10432.4
890.233	10364.37
890.55	10340.65
890.866	10289.57
891.182	10306.97
891.498	10277.15
891.815	10178.39
892.131	10154.66
892.447	10123.93
892.763	10089.81
893.079	10098.39
893.395	10052.29
893.71	10007.77
894.026	9987.89
894.342	9951.73
894.657	9957.38
894.973	9897.95
895.289	9890.94
895.604	9796.93
895.92	9765.29
896.235	9775.24
896.55	9758.51
896.865	9695.24
897.181	9718.06
897.496	9656.6
897.811	9646.88
898.126	9620.67
898.441	9509.71
898.756	9480.56
899.071	9439.88
899.386	9456.15
899.7	9380.22
900.015	9339.77
900.33	9229.49
900.644	9284.18
900.959	9297.28
901.273	9191.98
901.588	9188.36
901.902	9115.37
902.216	9081.24
902.531	9097.29
902.845	9033.79
903.159	9044.41
903.473	9000.57
903.787	8973.9
904.101	8945.65
904.415	8896.39
904.729	8838.31
905.042	8788.37
905.356	8787.69
905.67	8791.31
905.984	8776.39
906.297	8755.83
906.611	8657.98
906.924	8608.04
907.237	8664.98
907.551	8550.64
907.864	8526
908.177	8518.77
908.491	8493.46
908.804	8382.51
909.117	8371.88
909.43	8341.83
909.743	8303.86
910.056	8298.44
910.368	8291.89
910.681	8217.54
910.994	8203.53
911.307	8104.09
911.619	8055.06
911.932	8114.26
912.244	8067.94
912.557	8037.88
912.869	7999.69
913.181	7959.92
913.494	7988.17
913.806	7910.2
914.118	7881.05
914.43	7791.79
914.742	7798.11
915.054	7747.04
915.366	7724.44
915.678	7681.06
915.99	7563.32
916.302	7620.04
916.613	7615.75
916.925	7574.84
917.236	7545.01
917.548	7453.04
917.859	7528.06
918.171	7378.24
918.482	7374.62
918.794	7397.22
919.105	7398.35
919.416	7316.09
919.727	7266.15
920.038	7284.46
920.349	7249.65
920.66	7191.35
920.971	7215.53
921.282	7128.75
921.593	7127.17
921.903	7090.79
922.214	7046.72
922.525	7014.18
922.835	7030.68
923.146	6982.09
923.456	6946.16
923.767	6913.17
924.077	6941.87
924.387	6874.07
924.697	6828.2
925.008	6784.13
925.318	6773.51
925.628	6756.33
925.938	6726.5
926.248	6671.36
926.558	6663.91
926.867	6637.69
927.177	6670.23
927.487	6569.67
927.796	6585.49
928.106	6549.79
928.416	6524.25
928.725	6513.85
929.034	6428.66
929.344	6471.37
929.653	6425.72
929.962	6383.24
930.271	6318.83
930.581	6299.62
930.89	6286.06
931.199	6232.51
931.508	6221.43
931.817	6217.82
932.125	6181.89
932.434	6188.44
932.743	6156.58
933.051	6114.77
933.36	6100.08
933.669	6023.7
933.977	5978.05
934.286	6022.34
934.594	5970.37
934.902	5981.21
935.21	5896.7
935.519	5926.07
935.827	5903.25
936.135	5910.48
936.443	5782.57
936.751	5763.82
937.059	5816.7
937.367	5791.16
937.674	5760.43
937.982	5764.04
938.29	5659.64
938.597	5712.07
938.905	5592.75
939.213	5586.42
939.52	5569.47
939.827	5594.78
940.135	5575.8
940.442	5539.87
940.749	5513.88
941.056	5502.36
941.363	5481.56
941.67	5443.15
941.977	5369.03
942.284	5358.63
942.591	5334.45
942.898	5346.2
943.205	5328.57
943.511	5286.99
943.818	5272.98
944.125	5250.61
944.431	5269.37
944.738	5198.86
945.044	5156.15
945.35	5149.37
945.657	5100.56
945.963	5055.36
946.269	5084.06
946.575	5072.76
946.881	5024.4
947.187	5032.09
947.493	5021.01
947.799	5014.46
948.105	5002.93
948.41	4954.8
948.716	4959.09
949.022	4898.98
949.327	4890.62
949.633	4835.03
949.938	4823.28
950.244	4839.32
950.549	4777.4
950.854	4740.57
951.16	4781.02
951.465	4738.53
951.77	4696.5
952.075	4654.24
952.38	4655.15
952.685	4652.66
952.99	4609.95
953.294	4629.84
953.599	4593.23
953.904	4572.21
954.209	4576.96
954.513	4520.69
954.818	4516.39
955.122	4486.56
955.426	4473.91
955.731	4459.22
956.035	4447.47
956.339	4404.31
956.643	4405.21
956.948	4369.96
957.252	4310.3
957.556	4359.79
957.86	4295.16
958.163	4348.49
958.467	4344.19
958.771	4288.6
959.075	4246.12
959.378	4216.06
959.682	4210.64
959.985	4192.11
960.289	4165.22
960.592	4163.86
960.896	4112.11
961.199	4108.72
961.502	4106.46
961.805	4107.14
962.108	4039.57
962.411	4012
962.714	4077.99
963.017	4006.8
963.32	4012
963.623	4000.25
963.926	3961.6
964.228	3919.8
964.531	3944.2
964.833	3898.56
965.136	3853.36
965.438	3866.47
965.741	3861.95
966.043	3849.74
966.345	3822.17
966.648	3827.15
966.95	3787.82
967.252	3837.09
967.554	3735.62
967.856	3709.41
968.158	3708.05
968.46	3708.5
968.761	3699.01
969.063	3674.15
969.365	3694.72
969.666	3672.12
969.968	3596.42
970.269	3595.06
970.571	3642.52
970.872	3597.32
971.174	3586.47
971.475	3581.28
971.776	3554.84
972.077	3469.41
972.378	3523.2
972.679	3507.38
972.98	3509.19
973.281	3507.83
973.582	3492.01
973.883	3435.07
974.183	3426.7
974.484	3432.13
974.785	3400.04
975.085	3414.27
975.386	3383.54
975.686	3368.63
975.986	3319.59
976.287	3384.67
976.587	3300.83
976.887	3251.79
977.187	3267.61
977.487	3291.34
977.787	3206.82
978.087	3238.69
978.387	3199.14
978.687	3225.81
978.987	3168.63
979.286	3162.08
979.586	3153.04
979.885	3119.59
980.185	3115.53
980.484	3116.43
980.784	3069.65
981.083	3080.05
981.382	3058.8
981.682	3040.27
981.981	3037.56
982.28	3015.87
982.579	2971.12
982.878	3019.48
983.177	2963.67
983.475	2976.32
983.774	2957.79
984.073	2961.86
984.372	2905.14
984.67	2911.69
984.969	2908.53
985.267	2896.77
985.566	2900.39
985.864	2896.77
986.162	2852.93
986.461	2794.4
986.759	2842.99
987.057	2784.69
987.355	2779.94
987.653	2782.2
987.951	2762.77
988.249	2773.39
988.547	2768.87
988.844	2761.64
989.142	2748.08
989.44	2732.71
989.737	2686.84
990.035	2691.81
990.332	2658.36
990.63	2634.18
990.927	2639.38
991.224	2663.11
991.521	2619.72
991.819	2609.55
992.116	2591.7
992.413	2555.54
992.71	2581.3
993.006	2531.81
993.303	2541.08
993.6	2554.64
993.897	2532.49
994.193	2527.29
994.49	2517.8
994.787	2495.65
995.083	2482.1
995.379	2454.98
995.676	2440.29
995.972	2419.95
996.268	2436.9
996.565	2393.96
996.861	2407.97
997.157	2403
997.453	2400.97
997.749	2384.02
998.044	2330.01
998.34	2355.77
998.636	2328.2
998.932	2319.16
999.227	2308.09
999.523	2312.61
999.818	2285.26
1000.114	2301.99
1000.409	2259.28
1000.704	2244.81
1001	2227.64
1001.295	2219.05
1001.59	2224.25
1001.885	2195.78
1002.18	2175.21
1002.475	2169.79
1002.77	2189
1003.065	2161.2
1003.359	2124.59
1003.654	2163.69
1003.949	2153.06
1004.243	2090.92
1004.538	2075.33
1004.832	2087.3
1005.127	2064.03
1005.421	2032.62
1005.715	2042.33
1006.009	2063.12
1006.304	2046.63
1006.598	2012.05
1006.892	1999.62
1007.186	1992.17
1007.48	1983.13
1007.773	2000.07
1008.067	1962.79
1008.361	1934.31
1008.655	1947.19
1008.948	1945.16
1009.242	1897.03
1009.535	1884.37
1009.829	1888.89
1010.122	1877.59
1010.415	1872.62
1010.708	1849.34
1011.001	1816.35
1011.295	1824.49
1011.588	1834.43
1011.881	1810.02
1012.173	1796.92
1012.466	1772.28
1012.759	1784.94
1013.052	1758.72
1013.344	1765.28
1013.637	1767.99
1013.93	1718.5
1014.222	1730.7
1014.514	1746.52
1014.807	1693.19
1015.099	1676.92
1015.391	1685.05
1015.683	1683.47
1015.976	1660.65
1016.268	1655
1016.56	1620.88
1016.851	1647.54
1017.143	1607.99
1017.435	1637.37
1017.727	1622.01
1018.018	1572.52
1018.31	1603.7
1018.602	1568.9
1018.893	1557.83
1019.185	1556.47
1019.476	1557.83
1019.767	1558.28
1020.058	1523.93
1020.35	1499.75
1020.641	1516.25
1020.932	1489.58
1021.223	1492.07
1021.514	1502.01
1021.804	1473.08
1022.095	1455.68
1022.386	1457.72
1022.677	1430.37
1022.967	1461.11
1023.258	1456.81
1023.548	1425.63
1023.839	1418.62
1024.129	1380.66
1024.419	1391.5
1024.709	1395.12
1025	1345.4
1025.29	1333.2
1025.58	1352.18
1025.87	1327.78
1026.16	1335.23
1026.449	1317.15
1026.739	1288.91
1027.029	1301.79
1027.319	1290.49
1027.608	1290.94
1027.898	1281.22
1028.187	1300.21
1028.477	1256.37
1028.766	1263.37
1029.055	1230.15
1029.344	1253.88
1029.634	1240.32
1029.923	1229.7
1030.212	1231.73
1030.501	1195.8
1030.79	1193.54
1031.078	1216.37
1031.367	1155.35
1031.656	1170.72
1031.945	1135.92
1032.233	1169.36
1032.522	1154.67
1032.81	1144.73
1033.099	1130.49
1033.387	1129.59
1033.675	1105.18
1033.963	1120.78
1034.251	1106.31
1034.54	1093.66
1034.828	1085.07
1035.116	1099.99
1035.403	1079.87
1035.691	1081.91
1035.979	1064.05
1036.267	1039.2
1036.554	1035.13
1036.842	1046.65
1037.129	1027.44
1037.417	1029.7
1037.704	1011.4
1037.992	996.94
1038.279	1018.86
1038.566	994.9
1038.853	994.9
1039.14	994.9
