Data from hue_80_FLMS001491_83.txt Node
Date: Mon Feb 06 15:23:53 GMT 2017
User: dcchb
Spectrometer: FLMS00149
Trigger mode: 0
Integration Time (sec): 2.000000E-2
Scans to average: 10
Electric dark correction enabled: true
Nonlinearity correction enabled: false
Boxcar width: 0
XAxis mode: Wavelengths
Number of Pixels in Spectrum: 2048
>>>>>Begin Spectral Data<<<<<
341.393	-2.84
341.776	-2.84
342.16	-2.84
342.543	-50.97
342.927	-54.36
343.31	-68.6
343.693	-87.81
344.077	-70.63
344.46	-75.38
344.843	-52.56
345.226	-53.01
345.61	-19.34
345.993	1.45
346.376	-11.43
346.759	21.34
347.142	21.34
347.525	40.55
347.908	63.83
348.291	83.71
348.674	92.98
349.057	113.54
349.44	139.98
349.823	129.36
350.206	157.16
350.588	178.63
350.971	192.41
351.354	212.52
351.737	211.84
352.119	259.75
352.502	247.32
352.884	266.31
353.267	256.82
353.65	284.84
354.032	292.52
354.414	317.15
354.797	301.11
355.179	332.29
355.562	334.55
355.944	316.93
356.326	332.75
356.709	322.35
357.091	333.65
357.473	330.03
357.855	331.62
358.238	328.45
358.62	335.23
359.002	343.37
359.384	346.53
359.766	350.15
360.148	334.78
360.53	340.43
360.912	344.95
361.294	332.97
361.676	331.16
362.057	311.96
362.439	316.47
362.821	342.01
363.203	312.86
363.584	316.47
363.966	300.88
364.348	329.58
364.729	309.24
365.111	319.64
365.493	315.12
365.874	314.21
366.256	312.63
366.637	299.07
367.019	299.53
367.4	324.61
367.781	301.11
368.163	312.86
368.544	320.09
368.925	297.72
369.306	305.85
369.688	314.67
370.069	301.79
370.45	272.63
370.831	328.45
371.212	313.31
371.593	300.66
371.974	310.15
372.355	294.78
372.736	313.76
373.117	301.56
373.498	317.15
373.879	316.93
374.26	309.7
374.641	296.36
375.021	330.71
375.402	293.65
375.783	319.86
376.163	322.58
376.544	299.98
376.925	321.45
377.305	315.8
377.686	309.92
378.066	325.51
378.447	317.38
378.827	314.89
379.208	335.23
379.588	329.81
379.968	321.9
380.349	321.22
380.729	322.8
381.109	353.08
381.489	330.03
381.87	289.58
382.25	333.2
382.63	325.51
383.01	337.27
383.39	336.59
383.77	315.34
384.15	311.96
384.53	339.98
384.91	333.2
385.29	332.97
385.67	303.37
386.049	320.09
386.429	330.03
386.809	365.51
387.189	342.69
387.568	365.06
387.948	345.63
388.328	341.11
388.707	336.81
389.087	316.7
389.466	356.7
389.846	357.38
390.225	339.3
390.605	324.61
390.984	344.5
391.363	349.24
391.743	344.72
392.122	355.57
392.501	351.28
392.881	351.95
393.26	386.3
393.639	361.45
394.018	360.77
394.397	362.58
394.776	375.91
395.155	367.77
395.534	371.16
395.913	368.22
396.292	382.91
396.671	352.86
397.05	367.32
397.429	358.06
397.808	388.11
398.186	371.84
398.565	377.04
398.944	363.93
399.323	362.8
399.701	383.37
400.08	361.9
400.458	375.46
400.837	365.51
401.215	375.23
401.594	400.99
401.972	375.91
402.351	389.92
402.729	375.91
403.107	396.02
403.486	398.05
403.864	372.52
404.242	387.89
404.62	382.69
404.999	381.78
405.377	396.92
405.755	397.83
406.133	405.51
406.511	404.16
406.889	390.6
407.267	384.5
407.645	401.9
408.023	410.48
408.401	436.02
408.779	411.39
409.156	416.13
409.534	438.73
409.912	419.75
410.29	440.31
410.667	416.13
411.045	426.53
411.422	451.39
411.8	429.01
412.178	437.38
412.555	457.49
412.933	451.16
413.31	443.25
413.687	458.39
414.065	453.19
414.442	440.54
414.819	469.24
415.197	465.62
415.574	473.98
415.951	468.34
416.328	479.18
416.705	458.84
417.082	477.83
417.46	478.96
417.837	484.15
418.214	474.44
418.591	489.35
418.967	488.67
419.344	495.91
419.721	497.03
420.098	475.79
420.475	490.93
420.852	488.45
421.228	496.81
421.605	510.37
421.982	502.68
422.358	503.36
422.735	522.57
423.111	515.34
423.488	513.31
423.864	515.79
424.241	515.34
424.617	532.51
424.994	539.52
425.37	550.59
425.746	524.6
426.123	543.36
426.499	550.37
426.875	532.51
427.251	556.92
427.627	534.55
428.003	551.04
428.379	544.04
428.756	532.97
429.132	559.18
429.507	568.45
429.883	560.54
430.259	583.81
430.635	587.88
431.011	586.75
431.387	598.95
431.763	589.01
432.138	612.51
432.514	620.65
432.89	597.37
433.265	617.26
433.641	626.52
434.016	620.42
434.392	633.98
434.767	636.69
435.143	657.93
435.518	635.11
435.894	648.67
436.269	656.35
436.644	664.71
437.02	664.26
437.395	678.95
437.77	689.35
438.145	704.26
438.52	672.4
438.895	706.52
439.271	682.11
439.646	693.64
440.021	719.4
440.395	712.85
440.77	710.59
441.145	695
441.52	728.89
441.895	727.31
442.27	730.48
442.645	736.35
443.019	746.07
443.394	752.62
443.769	771.38
444.143	711.72
444.518	747.42
444.892	747.88
445.267	742.45
445.641	779.29
446.016	787.2
446.39	773.64
446.764	771.83
447.139	785.61
447.513	797.82
447.887	800.98
448.262	775.45
448.636	800.08
449.01	791.72
449.384	793.3
449.758	818.83
450.132	814.54
450.506	812.96
450.88	832.39
451.254	826.97
451.628	832.17
452.002	848.21
452.376	855.67
452.75	865.39
453.123	876.01
453.497	881.88
453.871	874.43
454.244	916.68
454.618	893.63
454.992	917.81
455.365	933.63
455.739	949.45
456.112	936.35
456.486	929.11
456.859	946.97
457.232	961.66
457.606	977.93
457.979	978.38
458.352	982.9
458.725	1000.07
459.099	1010.69
459.472	1024.48
459.845	1036.68
460.218	1041.88
460.591	1034.42
460.964	1060.18
461.337	1089.11
461.71	1096.57
462.083	1122.78
462.456	1120.97
462.829	1133.63
463.201	1107.87
463.574	1134.76
463.947	1182.67
464.32	1201.42
464.692	1206.85
465.065	1207.07
465.438	1239.84
465.81	1228.99
466.183	1278.03
466.555	1306.28
466.928	1284.58
467.3	1311.93
467.672	1352.83
468.045	1365.49
468.417	1362.32
468.789	1371.36
469.161	1415.65
469.534	1429.89
469.906	1454.75
470.278	1480.06
470.65	1494.97
471.022	1544.01
471.394	1567.52
471.766	1600.73
472.138	1613.84
472.51	1638.47
472.882	1661.75
473.253	1724.8
473.625	1733.39
473.997	1827.85
474.369	1798.47
474.74	1867.17
475.112	1928.18
475.484	1959.37
475.855	2009.99
476.227	2046.6
476.598	2114.62
476.97	2162.3
477.341	2200.27
477.713	2267.38
478.084	2302.19
478.455	2404.78
478.827	2437.1
479.198	2518.68
479.569	2521.39
479.94	2668.05
480.311	2691.78
480.682	2777.43
481.053	2890.42
481.424	2983.3
481.795	3039.57
482.166	3097.64
482.537	3217.19
482.908	3275.04
483.279	3380.8
483.65	3489.27
484.021	3627.12
484.391	3650.62
484.762	3752.09
485.133	3847.23
485.503	3927.23
485.874	4088.58
486.244	4185.98
486.615	4315.24
486.985	4451.28
487.356	4523.37
487.726	4652.18
488.097	4807.66
488.467	4876.81
488.837	5048.33
489.207	5156.57
489.578	5287.64
489.948	5428.2
490.318	5528.32
490.688	5695.54
491.058	5796.56
491.428	5884.46
491.798	6055.53
492.168	6201.52
492.538	6376.88
492.908	6449.87
493.278	6626.37
493.648	6722.18
494.017	6937.09
494.387	7008.95
494.757	7097.99
495.126	7308.16
495.496	7388.15
495.866	7525.1
496.235	7683.29
496.605	7762.61
496.974	7894.35
497.344	8047.8
497.713	8111.52
498.082	8293.44
498.452	8441.68
498.821	8581.79
499.19	8604.17
499.559	8715.35
499.928	8869.24
500.298	9069.24
500.667	9178.84
501.036	9187.88
501.405	9372.06
501.774	9409.57
502.143	9507.19
502.512	9666.51
502.88	9792.16
503.249	9806.85
503.618	9934.75
503.987	10112.38
504.356	10135.88
504.724	10257.68
505.093	10266.5
505.462	10418.13
505.83	10574.28
506.199	10751
506.567	10767.5
506.936	10800.94
507.304	10984.44
507.672	10989.87
508.041	11150.99
508.409	11239.58
508.777	11366.35
509.145	11396.41
509.514	11518.44
509.882	11558.89
510.25	11661.04
510.618	11769.51
510.986	11762.73
511.354	11918.43
511.722	12051.99
512.09	12083.62
512.458	12201.81
512.826	12347.12
513.193	12405.65
513.561	12400.45
513.929	12494.46
514.297	12544.4
514.664	12619.88
515.032	12613.33
515.4	12793.21
515.767	12864.85
516.135	12922.47
516.502	12893.09
516.869	13121.56
517.237	13095.35
517.604	13129.7
517.972	13205.18
518.339	13326.08
518.706	13340.09
519.073	13427.54
519.44	13533.98
519.808	13606.07
520.175	13594.77
520.542	13702.79
520.909	13726.74
521.276	13770.81
521.643	13889.68
522.009	14002.44
522.376	13986.62
522.743	14187.07
523.11	14152.95
523.477	14234.53
523.843	14310.23
524.21	14470.23
524.577	14489.66
524.943	14554.29
525.31	14603.33
525.676	14630.45
526.043	14736.89
526.409	14720.39
526.776	14863.21
527.142	14877.45
527.508	14897.33
527.874	15063.43
528.241	15043.32
528.607	15067.95
528.973	15180.26
529.339	15139.36
529.705	15268.62
530.071	15384.55
530.437	15388.39
530.803	15384.55
531.169	15500.26
531.535	15368.96
531.901	15443.08
532.267	15462.74
532.632	15601.72
532.998	15540.93
533.364	15592.68
533.73	15617.99
534.095	15685.56
534.461	15738.89
534.826	15767.37
535.192	15737.09
535.557	15783.86
535.923	15742.96
536.288	15700.93
536.653	15822.28
537.019	15691.66
537.384	15683.53
537.749	15680.14
538.114	15807.14
538.479	15744.32
538.845	15813.24
539.21	15754.26
539.575	15766.01
539.94	15736.41
540.305	15819.34
540.67	15707.26
541.034	15836.29
541.399	15827.71
541.764	15827.48
542.129	15845.56
542.494	15771.66
542.858	15810.98
543.223	15719.91
543.587	15811.89
543.952	15741.15
544.316	15796.75
544.681	15762.4
545.045	15772.57
545.41	15720.59
545.774	15765.33
546.138	15725.56
546.503	15719.23
546.867	15787.03
547.231	15732.57
547.595	15707.26
547.959	15709.97
548.324	15788.16
548.688	15700.03
549.052	15724.88
549.416	15736.41
549.779	15709.06
550.143	15702.51
550.507	15806.69
550.871	15772.11
551.235	15662.96
551.599	15691.44
551.962	15724.66
552.326	15777.31
552.689	15787.48
553.053	15645.11
553.417	15665.45
553.78	15820.47
554.143	15812.56
554.507	15775.96
554.87	15830.64
555.234	15919
555.597	15755.84
555.96	15783.86
556.323	15860.02
556.686	15796.75
557.05	15831.1
557.413	15858.44
557.776	15770.08
558.139	15796.52
558.502	15949.74
558.865	15857.99
559.228	15978.66
559.59	15935.05
559.953	16015.05
560.316	16094.59
560.679	16024.76
561.041	16133.91
561.404	16113.35
561.767	16129.39
562.129	16092.56
562.492	16291.42
562.854	16220.92
563.217	16171.2
563.579	16348.82
563.941	16231.31
564.304	16391.31
564.666	16320.8
565.028	16339.78
565.39	16365.09
565.753	16432.21
566.115	16428.37
566.477	16491.87
566.839	16488.93
567.201	16603.5
567.563	16607.35
567.925	16615.03
568.287	16652.99
568.648	16670.62
569.01	16739.09
569.372	16761.47
569.734	16638.98
570.095	16870.39
570.457	16855.7
570.819	16878.53
571.18	16770.73
571.542	16876.94
571.903	16805.53
572.265	16955.59
572.626	16909.03
572.987	16982.7
573.349	17042.36
573.71	17080.1
574.071	17064.51
574.432	17091.4
574.794	17163.72
575.155	17230.15
575.516	17097.73
575.877	17202.81
576.238	17163.26
576.599	17199.19
576.96	17284.39
577.32	17242.58
577.681	17317.16
578.042	17346.31
578.403	17349.02
578.763	17345.18
579.124	17326.42
579.485	17425.63
579.845	17396.03
580.206	17342.47
580.566	17281
580.927	17311.28
581.287	17430.15
581.648	17385.63
582.008	17447.32
582.368	17403.26
582.728	17373.65
583.089	17352.64
583.449	17334.78
583.809	17415.91
584.169	17370.04
584.529	17338.17
584.889	17458.85
585.249	17400.09
585.609	17330.72
585.969	17373.2
586.329	17375.24
586.688	17403.03
587.048	17322.13
587.408	17297.05
587.768	17297.5
588.127	17292.53
588.487	17264.28
588.846	17340.43
589.206	17212.75
589.565	17240.55
589.925	17341.56
590.284	17296.14
590.643	17300.66
591.003	17322.81
591.362	17396.93
591.721	17382.01
592.08	17246.88
592.44	17317.38
592.799	17290.04
593.158	17354.9
593.517	17244.17
593.876	17305.18
594.235	17270.15
594.593	17258.4
594.952	17358.74
595.311	17272.41
595.67	17206.65
596.029	17342.24
596.387	17339.53
596.746	17397.61
597.104	17186.77
597.463	17224.28
597.822	17363.94
598.18	17267.22
598.538	17196.03
598.897	17228.35
599.255	17100.67
599.613	17398.06
599.972	17305.86
600.33	17367.78
600.688	17196.71
601.046	17353.77
601.404	17391.73
601.762	17308.34
602.12	17443.93
602.478	17448
602.836	17398.74
603.194	17332.98
603.552	17370.26
603.91	17241
604.268	17401.45
604.625	17286.2
604.983	17345.18
605.341	17303.15
605.698	17457.04
606.056	17469.02
606.413	17361.68
606.771	17417.95
607.128	17423.6
607.485	17374.56
607.843	17402.35
608.2	17478.06
608.557	17401
608.914	17452.3
609.272	17484.84
609.629	17440.09
609.986	17585.85
610.343	17528.45
610.7	17619.07
611.057	17533.88
611.414	17667.43
611.771	17710.82
612.127	17692.52
612.484	17591.05
612.841	17698.84
613.198	17645.06
613.554	17681.44
613.911	17736.58
614.267	17754.43
614.624	17833.08
614.98	17804.15
615.337	17887.31
615.693	17817.71
616.05	17882.34
616.406	17901.32
616.762	17800.53
617.118	17804.83
617.475	17834.43
617.831	17901.32
618.187	17939.74
618.543	17999.17
618.899	17945.39
619.255	18007.53
619.611	17939.06
619.967	18024.48
620.323	18111.26
620.678	17936.58
621.034	17936.8
621.39	17952.62
621.746	17972.73
622.101	18108.1
622.457	18019.74
622.812	18096.12
623.168	18052.51
623.523	18119.4
623.879	18145.16
624.234	18042.56
624.589	17969.8
624.945	18098.83
625.3	18130.7
625.655	18123.46
626.01	18085.73
626.365	18057.25
626.72	18176.12
627.075	18029
627.43	18015.9
627.785	17989.68
628.14	18089.34
628.495	18118.27
628.85	18026.29
629.205	17958.95
629.559	18126.63
629.914	17969.8
630.269	17970.47
630.623	17869.91
630.978	17986.97
631.332	18061.32
631.687	18017.93
632.041	17921.89
632.396	17949.01
632.75	17879.18
633.104	17944.03
633.459	17827.88
633.813	17883.47
634.167	17870.59
634.521	17849.8
634.875	17883.7
635.229	17849.35
635.583	17744.49
635.937	17771.61
636.291	17779.29
636.645	17758.28
636.999	17653.65
637.352	17773.87
637.706	17645.74
638.06	17673.53
638.413	17646.64
638.767	17558.96
639.121	17697.26
639.474	17484.61
639.828	17535.91
640.181	17547.89
640.534	17562.57
640.888	17500.2
641.241	17383.6
641.594	17551.95
641.947	17517.6
642.301	17531.62
642.654	17483.25
643.007	17429.7
643.36	17324.39
643.713	17427.89
644.066	17510.15
644.419	17318.74
644.771	17205.07
645.124	17083.04
645.477	17097.05
645.83	16971.4
646.182	16919.2
646.535	16859.77
646.888	16866.77
647.24	16676.04
647.593	16862.03
647.945	16831.07
648.298	16786.32
648.65	16775.25
649.002	16737.96
649.355	16800.34
649.707	16719.89
650.059	16911.52
650.411	17062.25
650.763	17109.93
651.115	17262.7
651.467	17209.36
651.819	17228.12
652.171	17196.26
652.523	17099.76
652.875	17171.62
653.227	17057.96
653.578	17160.33
653.93	17158.74
654.282	17002.14
654.633	17084.17
654.985	17161.23
655.337	17107.9
655.688	17118.29
656.039	17125.52
656.391	16928.02
656.742	17068.58
657.094	17093.43
657.445	17163.26
657.796	17092.98
658.147	17144.73
658.498	17115.58
658.849	17129.59
659.2	17130.72
659.551	17076.03
659.902	17120.55
660.253	17084.62
660.604	17084.85
660.955	17019.76
661.306	17206.43
661.656	17151.96
662.007	17148.35
662.358	17175.47
662.708	17180.89
663.059	17212.3
663.409	16994.23
663.76	17147.67
664.11	17166.2
664.461	17219.08
664.811	17210.95
665.161	17176.82
665.511	17154.45
665.862	17250.94
666.212	17236.03
666.562	17235.35
666.912	17191.96
667.262	17268.12
667.612	17171.17
667.962	17242.58
668.312	17104.96
668.662	17273.77
669.011	17133.43
669.361	17154.68
669.711	17095.92
670.06	17153.77
670.41	17155.35
670.76	17052.08
671.109	17122.36
671.459	17101.8
671.808	17015.7
672.157	17086.88
672.507	16944.74
672.856	17027.22
673.205	16977.73
673.554	17063.38
673.904	16947
674.253	17067.22
674.602	16969.82
674.951	16694.8
675.3	16774.8
675.649	16892.31
675.998	16976.83
676.346	16922.14
676.695	16933.21
677.044	16829.49
677.393	16817.51
677.741	16887.79
678.09	16795.82
678.438	16741.35
678.787	16859.54
679.135	16845.98
679.484	16643.96
679.832	16809.83
680.181	16672.43
680.529	16778.19
680.877	16662.03
681.225	16649.38
681.573	16645.31
681.922	16648.7
682.27	16565.09
682.618	16608.02
682.966	16477.41
683.314	16569.38
683.661	16438.08
684.009	16376.62
684.357	16403.96
684.705	16314.7
685.053	16290.97
685.4	16257.98
685.748	16254.81
686.095	16227.24
686.443	16099.79
686.79	16144.31
687.138	16060.47
687.485	16151.54
687.832	16066.57
688.18	16113.57
688.527	15918.32
688.874	15869.96
689.221	15979.79
689.568	15861.15
689.915	15738.67
690.262	15769.4
690.609	15738.44
690.956	15750.87
691.303	15720.36
691.65	15610.99
691.997	15592.01
692.344	15477.21
692.69	15538.45
693.037	15393.14
693.383	15308.4
693.73	15475.85
694.077	15280.6
694.423	15274.95
694.769	15176.65
695.116	15188.63
695.462	15139.14
695.808	15027.73
696.155	14999.93
696.501	14937.11
696.847	14996.31
697.193	14844.68
697.539	14849.2
697.885	14676.55
698.231	14596.1
698.577	14675.87
698.923	14635.87
699.269	14547.51
699.614	14501.19
699.96	14343.68
700.306	14458.25
700.651	14375.77
700.997	14360.17
701.342	14295.09
701.688	14229.33
702.033	14126.73
702.379	14159.73
702.724	14121.08
703.069	14114.3
703.415	13924.93
703.76	13993.18
704.105	14031.82
704.45	13963.35
704.795	13856.23
705.14	13852.16
705.485	13799.28
705.83	13681.55
706.175	13691.72
706.52	13611.04
706.865	13604.94
707.209	13532.62
707.554	13498.28
707.899	13543.02
708.243	13475.68
708.588	13441.33
708.932	13332.63
709.277	13298.73
709.621	13300.31
709.966	13242.01
710.31	13232.07
710.654	13160.2
710.998	13167.89
711.342	13135.12
711.687	13077.95
712.031	13046.99
712.375	13017.16
712.719	13043.6
713.063	12998.63
713.407	12981.23
713.75	12860.33
714.094	12923.83
714.438	12835.69
714.782	12886.54
715.125	12811.29
715.469	12833.66
715.812	12726.54
716.156	12685.42
716.499	12663.95
716.843	12767.45
717.186	12685.42
717.53	12720.44
717.873	12722.25
718.216	12621.69
718.559	12633.89
718.902	12434.35
719.246	12567
719.589	12470.96
719.932	12515.48
720.275	12457.17
720.617	12506.89
720.96	12417.63
721.303	12448.81
721.646	12363.39
721.989	12364.52
722.331	12376.72
722.674	12291.75
723.016	12342.15
723.359	12336.5
723.701	12329.04
724.044	12251.75
724.386	12209.27
724.729	12284.97
725.071	12153.45
725.413	12233.9
725.755	12142.15
726.097	12215.14
726.439	12159.33
726.782	12148.93
727.124	12221.02
727.465	12071.87
727.807	12098.76
728.149	11997.75
728.491	12096.28
728.833	12122.04
729.175	12099.44
729.516	12108.03
729.858	12075.94
730.199	12105.77
730.541	12073.68
730.882	12054.02
731.224	12047.01
731.565	11952.33
731.906	12050.18
732.248	12052.44
732.589	11973.34
732.93	11957.52
733.271	11973.12
733.612	11941.71
733.953	12015.15
734.294	11898.09
734.635	12017.86
734.976	11994.59
735.317	11870.52
735.658	11998.88
735.999	11947.81
736.339	11852.67
736.68	11950.07
737.021	11875.04
737.361	11817.64
737.702	12007.92
738.042	11964.08
738.383	12003.17
738.723	11950.07
739.063	11939.9
739.404	12032.55
739.744	11981.7
740.084	11934.47
740.424	11850.63
740.764	11972.89
741.104	12090.18
741.444	11966.11
741.784	12022.38
742.124	12042.95
742.464	12018.54
742.804	12028.26
743.143	12025.09
743.483	12150.97
743.823	12105.32
744.162	12058.99
744.502	12098.76
744.841	12138.76
745.181	12133.57
745.52	12218.08
745.86	12238.2
746.199	12213.11
746.538	12287.01
746.877	12412.43
747.216	12440.45
747.556	12441.81
747.895	12453.78
748.234	12437.51
748.573	12450.17
748.911	12605.64
749.25	12691.06
749.589	12655.36
749.928	12825.52
750.267	12887.9
750.605	12871.85
750.944	12939.42
751.283	12930.61
751.621	13121.56
751.96	13115.91
752.298	13180.77
752.636	13307.32
752.975	13306.42
753.313	13425.28
753.651	13570.36
753.989	13584.15
754.327	13771.71
754.666	13699.63
755.004	13868.89
755.342	13960.64
755.679	14086.73
756.017	14064.14
756.355	14288.54
756.693	14343.22
757.031	14439.95
757.368	14463.22
757.706	14635.42
758.044	14649.21
758.381	14783.89
758.719	14914.73
759.056	15062.53
759.394	15135.75
759.731	15248.74
760.068	15304.56
760.405	15354.95
760.743	15540.93
761.08	15663.87
761.417	15735.5
761.754	15859.34
762.091	15836.52
762.428	16057.08
762.765	16009.17
763.102	16243.06
763.438	16254.59
763.775	16346.56
764.112	16401.7
764.449	16483.96
764.785	16606.44
765.122	16681.02
765.458	16697.51
765.795	16812.54
766.131	16879.2
766.467	16991.97
766.804	17005.98
767.14	17013.89
767.476	17188.57
767.812	17217.73
768.148	17283.49
768.485	17221.34
768.821	17316.71
769.157	17366.2
769.492	17501.11
769.828	17444.39
770.164	17443.93
770.5	17393.31
770.836	17593.76
771.171	17618.84
771.507	17539.98
771.842	17558.73
772.178	17620.88
772.513	17643.93
772.849	17697.94
773.184	17577.94
773.519	17638.73
773.855	17693.42
774.19	17708.11
774.525	17615.91
774.86	17741.1
775.195	17645.96
775.53	17649.58
775.865	17643.7
776.2	17667.43
776.535	17540.88
776.87	17680.54
777.205	17617.49
777.539	17624.04
777.874	17683.93
778.209	17564.16
778.543	17506.08
778.878	17490.94
779.212	17556.02
779.547	17345.41
779.881	17532.29
780.215	17403.48
780.55	17454.56
780.884	17325.52
781.218	17358.74
781.552	17342.02
781.886	17279.87
782.22	17209.36
782.554	17222.02
782.888	17014.57
783.222	17131.17
783.556	17005.53
783.889	16983.38
784.223	16873.1
784.557	16898.41
784.89	16961.91
785.224	16827.9
785.557	16782.48
785.891	16723.27
786.224	16746.33
786.558	16634.24
786.891	16549.49
787.224	16605.54
787.557	16500.23
787.891	16504.3
788.224	16559.44
788.557	16471.08
788.89	16508.14
789.223	16467.91
789.556	16443.28
789.888	16337.07
790.221	16299.33
790.554	16171.43
790.887	16222.05
791.219	16161.03
791.552	16034.03
791.884	16035.84
792.217	15998.55
792.549	15993.35
792.882	15880.59
793.214	15775.96
793.546	15850.76
793.879	15752.45
794.211	15617.09
794.543	15659.57
794.875	15603.08
795.207	15680.59
795.539	15615.51
795.871	15617.09
796.203	15408.28
796.535	15363.99
796.867	15479.69
797.198	15302.52
797.53	15276.99
797.862	15216.65
798.193	15273.14
798.525	15149.98
798.856	15130.55
799.188	15009.42
799.519	15040.38
799.85	14977.78
800.182	14930.55
800.513	14945.47
800.844	14784.57
801.175	14920.61
801.506	14841.52
801.837	14738.69
802.168	14741.18
802.499	14712.25
802.83	14610.11
803.161	14624.35
803.491	14606.04
803.822	14574.4
804.153	14581.41
804.483	14378.03
804.814	14386.39
805.145	14330.12
805.475	14361.76
805.805	14284.92
806.136	14364.69
806.466	14313.62
806.796	14260.74
807.126	14093.29
807.457	14093.97
807.787	14049.9
808.117	14043.8
808.447	14018.26
808.777	14013.29
809.107	13974.65
809.436	13907.08
809.766	13870.92
810.096	13849
810.426	13858.49
810.755	13772.39
811.085	13796.8
811.414	13783.24
811.744	13647.88
812.073	13617.37
812.403	13620.53
812.732	13582.11
813.061	13476.58
813.39	13464.83
813.719	13419.63
814.049	13506.86
814.378	13421.44
814.707	13344.38
815.036	13338.73
815.365	13233.42
815.693	13227.55
816.022	13182.13
816.351	13182.13
816.68	13091.73
817.008	13159.07
817.337	13074.11
817.665	13016.03
817.994	13023.03
818.322	13018.74
818.651	12942.81
818.979	12886.77
819.307	13010.83
819.636	12982.36
819.964	12799.99
820.292	12931.51
820.62	12856.48
820.948	12777.84
821.276	12880.66
821.604	12844.05
821.932	12795.02
822.259	12769.93
822.587	12774.9
822.915	12807.22
823.243	12856.48
823.57	12806.77
823.898	12843.83
824.225	12762.7
824.553	12780.78
824.88	12837.05
825.207	12818.74
825.535	12782.81
825.862	12804.28
826.189	12724.06
826.516	12819.42
826.843	12869.14
827.17	12845.86
827.497	12876.82
827.824	12838.41
828.151	12836.82
828.478	12797.73
828.805	12890.38
829.131	12791.63
829.458	12736.94
829.785	12666.88
830.111	12819.2
830.438	12854.22
830.764	12757.05
831.09	12760.44
831.417	12674.34
831.743	12824.85
832.069	12752.76
832.395	12746.43
832.722	12807.22
833.048	12691.06
833.374	12777.84
833.7	12689.93
834.026	12706.88
834.351	12728.58
834.677	12705.3
835.003	12694.45
835.329	12665.53
835.654	12641.57
835.98	12635.7
836.306	12518.19
836.631	12490.39
836.956	12534.68
837.282	12632.54
837.607	12509.37
837.932	12475.93
838.258	12478.87
838.583	12425.99
838.908	12387.12
839.233	12407.91
839.558	12352.09
839.883	12391.64
840.208	12315.93
840.533	12179.44
840.858	12316.84
841.182	12307.57
841.507	12310.28
841.832	12148.93
842.156	12216.95
842.481	12250.4
842.805	12159.78
843.13	12168.82
843.454	12128.59
843.778	12034.81
844.103	12057.41
844.427	11989.84
844.751	12026
845.075	11982.61
845.399	12010.18
845.723	11872.1
846.047	11851.31
846.371	11779.22
846.695	11752.33
847.019	11627.82
847.343	11652
847.666	11558.21
847.99	11549.85
848.313	11500.14
848.637	11457.2
848.96	11427.37
849.284	11427.37
849.607	11353.7
849.931	11276.64
850.254	11188.28
850.577	11172.01
850.9	11098.34
851.223	11114.61
851.546	11058.34
851.869	10973.14
852.192	11047.72
852.515	10946.25
852.838	10867.38
853.161	10872.81
853.483	10851.34
853.806	10791.23
854.129	10783.77
854.451	10676.65
854.774	10682.98
855.096	10613.83
855.419	10605.92
855.741	10644.11
856.063	10503.78
856.385	10468.07
856.708	10461.29
857.03	10424.46
857.352	10475.76
857.674	10375.87
857.996	10340.84
858.318	10226.72
858.64	10310.11
858.961	10257.91
859.283	10199.15
859.605	10111.02
859.926	10189.66
860.248	10193.73
860.57	10094.75
860.891	10115.77
861.212	10072.15
861.534	9994.19
861.855	10037.12
862.176	9994.86
862.498	10052.04
862.819	10010.68
863.14	9928.2
863.461	9899.05
863.782	9869.44
864.103	9904.25
864.424	9824.47
864.745	9779.73
865.065	9761.65
865.386	9828.99
865.707	9826.96
866.027	9754.19
866.348	9766.17
866.668	9666.51
866.989	9711.48
867.309	9660.86
867.63	9655.89
867.95	9643.46
868.27	9605.72
868.59	9657.92
868.91	9631.03
869.23	9580.41
869.55	9487.31
869.87	9606.4
870.19	9579.73
870.51	9583.35
870.83	9521.88
871.15	9443.01
871.469	9555.55
871.789	9551.71
872.109	9437.82
872.428	9427.2
872.748	9457.7
873.067	9505.61
873.386	9415.44
873.706	9419.96
874.025	9333.86
874.344	9338.61
874.663	9317.59
874.982	9374.09
875.301	9306.07
875.62	9299.06
875.939	9252.96
876.258	9255
876.577	9230.82
876.896	9192.4
877.214	9148.56
877.533	9201.89
877.852	9203.47
878.17	9205.96
878.489	9146.75
878.807	9164.6
879.125	9160.76
879.444	9127.54
879.762	9096.36
880.08	9090.48
880.398	9074.66
880.716	9102.91
881.034	9060.2
881.352	9073.31
881.67	9004.38
881.988	9010.48
882.306	8967.09
882.624	8969.35
882.941	8911.95
883.259	8951.28
883.577	8824.27
883.894	8824.73
884.212	8857.95
884.529	8793.99
884.846	8829.47
885.164	8810.71
885.481	8753.32
885.798	8766.87
886.115	8709.93
886.432	8701.11
886.75	8662.47
887.067	8626.99
887.383	8605.07
887.7	8639.19
888.017	8571.17
888.334	8588.8
888.651	8546.31
888.967	8489.82
889.284	8470.38
889.6	8504.96
889.917	8428.8
890.233	8388.13
890.55	8360.56
890.866	8398.07
891.182	8350.39
891.498	8307.68
891.815	8297.96
892.131	8274.91
892.447	8271.52
892.763	8224.29
893.079	8185.19
893.395	8198.53
893.71	8133.22
894.026	8167.34
894.342	8162.37
894.657	8038.98
894.973	8019.55
895.289	8073.11
895.604	8024.07
895.92	7936.16
896.235	7934.35
896.55	7955.82
896.865	7938.42
897.181	7926.67
897.496	7916.05
897.811	7779.78
898.126	7803.06
898.441	7787.46
898.756	7771.87
899.071	7757.64
899.386	7777.52
899.7	7678.09
900.015	7657.98
900.33	7564.87
900.644	7571.2
900.959	7528.71
901.273	7495.5
901.588	7521.03
901.902	7440.81
902.216	7452.33
902.531	7431.77
902.845	7353.8
903.159	7322.84
903.473	7284.88
903.787	7252.79
904.101	7289.85
904.415	7254.6
904.729	7212.56
905.042	7200.14
905.356	7169.85
905.67	7146.8
905.984	7151.32
906.297	7137.99
906.611	7026.58
906.924	7035.17
907.237	6989.97
907.551	7019.35
907.864	6932.35
908.177	6919.92
908.491	6938.22
908.804	6871.56
909.117	6868.39
909.43	6763.54
909.743	6769.86
910.056	6787.49
910.368	6722.18
910.681	6704.33
910.994	6684.67
911.307	6617.78
911.619	6627.72
911.932	6598.12
912.244	6505.92
912.557	6539.36
912.869	6516.99
913.181	6438.57
913.494	6497.56
913.806	6436.54
914.118	6392.93
914.43	6380.95
914.742	6393.83
915.054	6346.15
915.366	6305.24
915.678	6331.46
915.99	6255.75
916.302	6219.37
916.613	6191.57
916.925	6213.72
917.236	6147.96
917.548	6170.78
917.859	6102.31
918.171	6068.64
918.482	6051.24
918.794	6023.67
919.105	6049.88
919.416	5963.56
919.727	5907.06
920.038	5958.36
920.349	5908.87
920.66	5857.12
920.971	5870.23
921.282	5823.67
921.593	5804.92
921.903	5795.88
922.214	5806.27
922.525	5697.12
922.835	5750
923.146	5632.04
923.456	5705.49
923.767	5612.15
924.077	5629.33
924.387	5594.98
924.697	5517.92
925.008	5639.5
925.318	5521.54
925.628	5515.43
925.938	5507.07
926.248	5480.18
926.558	5423.23
926.867	5443.8
927.177	5394.76
927.487	5379.17
927.796	5327.42
928.106	5329.9
928.416	5357.47
928.725	5300.07
929.034	5293.74
929.344	5232.73
929.653	5288.77
929.962	5211.49
930.271	5180.75
930.581	5208.55
930.89	5107.76
931.199	5092.17
931.508	5108.89
931.817	5105.28
932.125	5038.38
932.434	5020.31
932.743	5027.31
933.051	4971.04
933.36	5005.62
933.669	4911.61
933.977	4880.87
934.286	4887.88
934.594	4904.6
934.902	4835.9
935.21	4880.42
935.519	4789.35
935.827	4807.2
936.135	4781.89
936.443	4747.09
936.751	4758.39
937.059	4750.71
937.367	4714.78
937.674	4704.83
937.982	4692.86
938.29	4652.86
938.597	4698.96
938.905	4590.26
939.213	4567.21
939.52	4564.27
939.827	4555.91
940.135	4543.48
940.442	4498.06
940.749	4477.04
941.056	4519.08
941.363	4437.27
941.67	4410.15
941.977	4404.73
942.284	4418.51
942.591	4378.97
942.898	4345.75
943.205	4314.34
943.511	4365.63
943.818	4323.15
944.125	4304.39
944.431	4268.24
944.738	4203.38
945.044	4254
945.35	4228.24
945.657	4184.85
945.963	4190.05
946.269	4147.33
946.575	4166.32
946.881	4102.36
947.187	4139.43
947.493	4077.05
947.799	4071.4
948.105	4058.52
948.41	4009.48
948.716	4028.47
949.022	4055.36
949.327	4012.65
949.633	3940.56
949.938	3943.72
950.244	3898.53
950.549	3915.48
950.854	3902.37
951.16	3898.08
951.465	3858.53
951.77	3849.26
952.075	3837.96
952.38	3845.42
952.685	3807.23
952.99	3786.67
953.294	3771.3
953.599	3753.22
953.904	3711.87
954.209	3713.22
954.513	3711.41
954.818	3709.83
955.122	3644.97
955.426	3662.38
955.731	3644.3
956.035	3607.24
956.339	3620.57
956.643	3612.66
956.948	3588.48
957.252	3606.56
957.556	3549.16
957.86	3510.06
958.163	3519.55
958.467	3537.86
958.771	3508.26
959.075	3446.34
959.378	3443.62
959.682	3449.27
959.985	3418.77
960.289	3418.09
960.592	3386.45
960.896	3420.8
961.199	3321.37
961.502	3379.22
961.805	3332.44
962.108	3338.99
962.411	3327.02
962.714	3282.95
963.017	3301.03
963.32	3299
963.623	3274.36
963.926	3257.41
964.228	3229.62
964.531	3192.11
964.833	3219.22
965.136	3159.79
965.438	3168.38
965.741	3166.57
966.043	3197.53
966.345	3119.79
966.648	3129.96
966.95	3093.12
967.252	3090.19
967.554	3103.52
967.856	3066.68
968.158	3054.48
968.46	3063.75
968.761	3005.22
969.063	3029.85
969.365	3000.02
969.666	2987.59
969.968	2990.3
970.269	2950.98
970.571	2961.6
970.872	2955.28
971.174	2933.36
971.475	2877.99
971.776	2943.07
972.077	2896.07
972.378	2897.88
972.679	2869.85
972.98	2878.89
973.281	2842.51
973.582	2843.87
973.883	2873.92
974.183	2827.82
974.484	2778.1
974.785	2786.92
975.085	2781.49
975.386	2747.15
975.686	2727.48
975.986	2705.11
976.287	2734.49
976.587	2729.74
976.887	2703.53
977.187	2676.86
977.487	2689.52
977.787	2652.23
978.087	2655.85
978.387	2635.96
978.687	2661.95
978.987	2627.83
979.286	2594.38
979.586	2536.98
979.885	2591.44
980.185	2543.99
980.484	2544.66
980.784	2514.61
981.083	2541.27
981.382	2530.88
981.682	2520.48
981.981	2501.5
982.28	2485.23
982.579	2522.07
982.878	2489.07
983.177	2448.85
983.475	2483.88
983.774	2445.46
984.073	2412.69
984.372	2417.89
984.67	2448.62
984.969	2416.53
985.267	2407.49
985.566	2434.39
985.864	2367.49
986.162	2376.31
986.461	2332.01
986.759	2354.16
987.057	2333.14
987.355	2306.48
987.653	2320.04
987.951	2322.98
988.249	2268.97
988.547	2264.9
988.844	2275.29
989.142	2275.97
989.44	2230.77
989.737	2217.22
990.035	2211.34
990.332	2201.4
990.63	2216.99
990.927	2180.38
991.224	2224.67
991.521	2180.15
991.819	2170.89
992.116	2152.58
992.413	2135.86
992.71	2122.53
993.006	2083.43
993.303	2114.62
993.6	2139.93
993.897	2115.98
994.193	2072.13
994.49	2104.68
994.787	2051.57
995.083	2059.71
995.379	2038.69
995.676	2040.05
995.972	2037.33
996.268	2028.29
996.565	2016.32
996.861	1961.63
997.157	1975.87
997.453	1945.58
997.749	1976.32
998.044	1932.03
998.34	1930.44
998.636	1921.18
998.932	1948.97
999.227	1918.24
999.523	1937.22
999.818	1931.35
1000.114	1861.07
1000.409	1876.21
1000.704	1844.57
1001	1854.06
1001.295	1848.41
1001.59	1833.05
1001.885	1859.94
1002.18	1809.99
1002.475	1837.56
1002.77	1799.83
1003.065	1807.28
1003.359	1785.14
1003.654	1784.01
1003.949	1740.84
1004.243	1748.98
1004.538	1753.27
1004.832	1738.13
1005.127	1744.23
1005.421	1718.25
1005.715	1697.68
1006.009	1721.41
1006.304	1670.11
1006.598	1682.99
1006.892	1632.6
1007.186	1665.59
1007.48	1682.99
1007.773	1652.26
1008.067	1622.88
1008.361	1626.27
1008.655	1627.63
1008.948	1628.53
1009.242	1613.62
1009.535	1578.81
1009.829	1594.18
1010.122	1601.41
1010.415	1558.02
1010.708	1571.58
1011.001	1549.44
1011.295	1538.14
1011.588	1559.15
1011.881	1546.95
1012.173	1516.22
1012.466	1522.54
1012.759	1490
1013.052	1516.67
1013.344	1485.03
1013.637	1469.89
1013.93	1471.25
1014.222	1449.33
1014.514	1460.17
1014.807	1484.13
1015.099	1417.69
1015.391	1443
1015.683	1423.34
1015.976	1395.77
1016.268	1426.95
1016.56	1370.46
1016.851	1373.62
1017.143	1360.52
1017.435	1367.29
1017.727	1364.58
1018.018	1377.01
1018.31	1317.8
1018.602	1343.57
1018.893	1325.71
1019.185	1309.44
1019.476	1308.09
1019.767	1296.79
1020.058	1313.74
1020.35	1320.97
1020.641	1283.23
1020.932	1274.87
1021.223	1285.26
1021.514	1254.3
1021.804	1205.94
1022.095	1261.31
1022.386	1257.69
1022.677	1234.64
1022.967	1198.26
1023.258	1213.17
1023.548	1184.25
1023.839	1181.99
1024.129	1155.77
1024.419	1168.66
1024.709	1166.4
1025	1188.99
1025.29	1144.7
1025.58	1121.2
1025.87	1128.88
1026.16	1150.8
1026.449	1137.92
1026.739	1129.79
1027.029	1107.87
1027.319	1115.55
1027.608	1096.57
1027.898	1098.83
1028.187	1084.59
1028.477	1076.68
1028.766	1088.21
1029.055	1054.31
1029.344	1095.44
1029.634	1051.6
1029.923	1064.25
1030.212	1050.01
1030.501	1037.81
1030.79	1021.31
1031.078	997.81
1031.367	1006.4
1031.656	1016.12
1031.945	993.52
1032.233	977.25
1032.522	991.94
1032.81	991.71
1033.099	993.07
1033.387	942.9
1033.675	972.95
1033.963	972.95
1034.251	955.55
1034.54	951.26
1034.828	961.43
1035.116	934.09
1035.403	925.27
1035.691	902
1035.979	935.67
1036.267	906.29
1036.554	903.8
1036.842	899.74
1037.129	881.88
1037.417	874.43
1037.704	862.22
1037.992	874.88
1038.279	881.66
1038.566	854.54
1038.853	854.54
1039.14	854.54
