Data from hue_170_FLMS001491_00047.txt Node
Date: Tue Feb 07 16:48:45 GMT 2017
User: dcchb
Spectrometer: FLMS00149
Trigger mode: 0
Integration Time (sec): 2.000000E-2
Scans to average: 10
Electric dark correction enabled: true
Nonlinearity correction enabled: false
Boxcar width: 0
XAxis mode: Wavelengths
Number of Pixels in Spectrum: 2048
>>>>>Begin Spectral Data<<<<<
341.393	-1.72
341.776	-1.72
342.16	-1.72
342.543	-77.2
342.927	-71.55
343.31	-74.72
343.693	-69.74
344.077	-57.99
344.46	-52.8
344.843	-43.76
345.226	-50.76
345.61	-38.78
345.993	-19.12
346.376	7.77
346.759	-15.51
347.142	36.24
347.525	28.78
347.908	76.92
348.291	74.43
348.674	75.79
349.057	123.25
349.44	123.25
349.823	151.72
350.206	170.25
350.588	185.16
350.971	217.71
351.354	209.57
351.737	235.33
352.119	256.35
352.502	254.77
352.884	284.82
353.267	281.66
353.65	278.27
354.032	303.13
354.414	302.9
354.797	281.66
355.179	293.86
355.562	334.09
355.944	324.6
356.326	333.18
356.709	330.92
357.091	340.19
357.473	334.09
357.855	331.15
358.238	327.99
358.62	329.34
359.002	347.87
359.384	346.52
359.766	327.53
360.148	340.64
360.53	341.32
360.912	331.6
361.294	344.03
361.676	336.57
362.057	339.74
362.439	316.91
362.821	337.03
363.203	318.72
363.584	310.13
363.966	309.46
364.348	324.37
364.729	307.65
365.111	331.15
365.493	317.82
365.874	330.25
366.256	304.71
366.637	289.57
367.019	304.71
367.4	303.58
367.781	296.35
368.163	318.04
368.544	324.82
368.925	304.71
369.306	302.22
369.688	286.63
370.069	291.6
370.45	326.18
370.831	295.9
371.212	309.91
371.593	304.71
371.974	312.62
372.355	312.62
372.736	309.23
373.117	354.43
373.498	323.47
373.879	314.65
374.26	309.46
374.641	322.34
375.021	323.24
375.402	318.72
375.783	321.43
376.163	331.15
376.544	311.94
376.925	334.31
377.305	313.75
377.686	309.46
378.066	320.53
378.447	356.91
378.827	327.08
379.208	323.69
379.588	334.54
379.968	310.59
380.349	339.74
380.729	313.07
381.109	329.34
381.489	339.96
381.87	332.96
382.25	348.32
382.63	332.73
383.01	333.64
383.39	346.52
383.77	325.5
384.15	337.93
384.53	354.88
384.91	362.34
385.29	349.45
385.67	372.05
386.049	356.69
386.429	349.91
386.809	363.01
387.189	352.39
387.568	369.57
387.948	368.89
388.328	349
388.707	352.62
389.087	353.07
389.466	357.59
389.846	374.31
390.225	379.96
390.605	356.01
390.984	367.76
391.363	372.05
391.743	358.27
392.122	363.69
392.501	374.31
392.881	386.97
393.26	377.48
393.639	373.86
394.018	385.39
394.397	382.9
394.776	392.62
395.155	389.91
395.534	406.4
395.913	389.23
396.292	393.52
396.671	363.47
397.05	393.75
397.429	388.1
397.808	412.96
398.186	401.66
398.565	407.76
398.944	393.75
399.323	382
399.701	400.98
400.08	414.76
400.458	420.19
400.837	405.27
401.215	422.67
401.594	421.32
401.972	421.54
402.351	415.44
402.729	417.47
403.107	434.42
403.486	436.91
403.864	431.03
404.242	422.22
404.62	434.2
404.999	439.17
405.377	437.81
405.755	440.53
406.133	454.31
406.511	442.56
406.889	452.5
407.267	467.42
407.645	477.81
408.023	463.12
408.401	459.73
408.779	452.05
409.156	501.77
409.534	477.36
409.912	492.73
410.29	472.16
410.667	492.95
411.045	524.82
411.422	519.85
411.8	505.83
412.178	520.98
412.555	525.95
412.933	526.4
413.31	530.01
413.687	543.35
414.065	536.34
414.442	561.43
414.819	569.56
415.197	551.93
415.574	548.09
415.951	575.21
416.328	565.95
416.705	595.55
417.082	591.48
417.46	599.84
417.837	581.54
418.214	597.81
418.591	595.78
418.967	602.55
419.344	597.81
419.721	607.53
420.098	614.31
420.475	622.44
420.852	618.83
421.228	633.29
421.605	637.13
421.982	664.47
422.358	649.33
422.735	668.54
423.111	669.22
423.488	655.89
423.864	686.17
424.241	689.33
424.617	704.92
424.994	705.83
425.37	715.32
425.746	711.7
426.123	737.92
426.499	714.42
426.875	746.05
427.251	739.5
427.627	754.19
428.003	767.3
428.379	771.82
428.756	775.21
429.132	788.54
429.507	770.01
429.883	807.3
430.259	788.99
430.635	816.79
431.011	818.14
431.387	842.55
431.763	825.37
432.138	866.28
432.514	864.69
432.89	871.47
433.265	903.56
433.641	888.65
434.016	902.89
434.392	922.32
434.767	915.54
435.143	936.33
435.518	937.91
435.894	946.73
436.269	979.72
436.644	993.5
437.02	991.7
437.395	977.01
437.77	1002.77
438.145	1052.49
438.52	1020.4
438.895	1053.16
439.271	1065.59
439.646	1083.45
440.021	1075.54
440.395	1092.03
440.77	1091.81
441.145	1088.19
441.52	1138.13
441.895	1127.51
442.27	1160.28
442.645	1141.3
443.019	1156.66
443.394	1169.55
443.769	1156.21
444.143	1181.3
444.518	1190.34
444.892	1184.01
445.267	1215.42
445.641	1240.96
446.016	1234.4
446.39	1221.3
446.764	1260.39
447.139	1245.7
447.513	1259.94
447.887	1259.26
448.262	1290.45
448.636	1297.68
449.01	1304.91
449.384	1315.98
449.758	1324.57
450.132	1368.41
450.506	1331.12
450.88	1358.92
451.254	1375.42
451.628	1386.71
452.002	1382.87
452.376	1409.77
452.75	1415.87
453.123	1470.78
453.497	1437.34
453.871	1474.17
454.244	1494.73
454.618	1496.77
454.992	1523.89
455.365	1534.28
455.739	1572.02
456.112	1556.65
456.486	1584.45
456.859	1622.64
457.232	1639.14
457.606	1655.63
457.979	1661.96
458.352	1679.59
458.725	1712.58
459.099	1706.93
459.472	1759.13
459.845	1788.74
460.218	1799.13
460.591	1800.49
460.964	1820.15
461.337	1884.78
461.71	1906.25
462.083	1921.16
462.456	1941.95
462.829	1953.48
463.201	1975.85
463.574	1993.7
463.947	2034.38
464.32	2077.77
464.692	2115.06
465.065	2135.85
465.438	2141.95
465.81	2216.52
466.183	2211.78
466.555	2311.89
466.928	2315.73
467.3	2310.08
467.672	2341.49
468.045	2421.72
468.417	2445.44
468.789	2439.79
469.161	2480.47
469.534	2531.54
469.906	2628.94
470.278	2625.55
470.65	2729.05
471.022	2765.66
471.394	2780.8
471.766	2830.74
472.138	2859.44
472.51	2901.7
472.882	3034.13
473.253	3025.54
473.625	3102.15
473.997	3158.87
474.369	3191.64
474.74	3270.73
475.112	3317.06
475.484	3414.23
475.855	3483.83
476.227	3578.75
476.598	3601.35
476.97	3699.42
477.341	3796.37
477.713	3877.95
478.084	3937.16
478.455	4051.73
478.827	4093.31
479.198	4268.9
479.569	4232.74
479.94	4449.46
480.311	4470.48
480.682	4596.57
481.053	4756.8
481.424	4782.33
481.795	4905.27
482.166	5074.08
482.537	5160.18
482.908	5265.71
483.279	5344.8
483.65	5482.88
484.021	5648.3
484.391	5690.1
484.762	5831.12
485.133	5876.77
485.503	6080.83
485.874	6241.05
486.244	6284.44
486.615	6414.15
486.985	6528.73
487.356	6712.9
487.726	6803.07
488.097	6979.56
488.467	7047.36
488.837	7216.84
489.207	7363.28
489.578	7499.32
489.948	7591.52
490.318	7724.4
490.688	7848.24
491.058	8023.38
491.428	8139.31
491.798	8255.46
492.168	8482.12
492.538	8454.78
492.908	8642.57
493.278	8832.39
493.648	8830.59
494.017	9059.51
494.387	9127.75
494.757	9156
495.126	9367.52
495.496	9337.92
495.866	9511.7
496.235	9648.64
496.605	9748.3
496.974	9818.13
497.344	9941.29
497.713	10003.66
498.082	10142.87
498.452	10259.02
498.821	10286.14
499.19	10407.95
499.559	10424.9
499.928	10554.61
500.298	10635.51
500.667	10762.06
501.036	10756.41
501.405	10790.08
501.774	10934.49
502.143	10968.38
502.512	11054.26
502.88	11134.93
503.249	11153.69
503.618	11238.43
503.987	11286.79
504.356	11363.63
504.724	11363.63
505.093	11466.68
505.462	11466.45
505.83	11589.16
506.199	11666.67
506.567	11863.05
506.936	11812.43
507.304	11914.35
507.672	11893.33
508.041	12005.42
508.409	12026.89
508.777	12122.03
509.145	12274.56
509.514	12231.85
509.882	12258.75
510.25	12217.84
510.618	12305.75
510.986	12409.7
511.354	12498.06
511.722	12533.54
512.09	12517.5
512.458	12609.92
512.826	12703.71
513.193	12678.85
513.561	12717.49
513.929	12762.91
514.297	12865.28
514.664	12924.49
515.032	12932.85
515.4	13017.37
515.767	12986.64
516.135	13039.97
516.502	12943.7
516.869	13149.8
517.237	13121.1
517.604	13070.48
517.972	13111.15
518.339	13225.95
518.706	13123.81
519.073	13181.89
519.44	13189.57
519.808	13341.88
520.175	13358.83
520.542	13503.46
520.909	13451.93
521.276	13368.09
521.643	13458.94
522.009	13568.77
522.376	13576.68
522.743	13546.62
523.11	13703
523.477	13752.94
523.843	13744.36
524.21	13833.17
524.577	13831.81
524.943	13756.33
525.31	13879.95
525.676	13969.89
526.043	13827.97
526.409	13892.83
526.776	14095.31
527.142	13980.28
527.508	13932.37
527.874	14090.11
528.241	14132.59
528.607	14019.6
528.973	14127.62
529.339	14040.39
529.705	14221.63
530.071	14218.92
530.437	14125.36
530.803	14163.1
531.169	14222.31
531.535	13982.77
531.901	14025.93
532.267	14021.64
532.632	14139.83
532.998	14080.17
533.364	14062.99
533.73	14108.19
534.095	14081.07
534.461	14089.66
534.826	14088.75
535.192	14011.69
535.557	14067.96
535.923	13978.47
536.288	14011.69
536.653	14077.68
537.019	13862.09
537.384	13942.09
537.749	13898.7
538.114	13868.87
538.479	13842.66
538.845	13790.91
539.21	13764.24
539.575	13666.62
539.94	13718.14
540.305	13727.86
540.67	13625.49
541.034	13614.87
541.399	13615.55
541.764	13608.54
542.129	13640.18
542.494	13479.73
542.858	13491.93
543.223	13375.55
543.587	13466.62
543.952	13402.44
544.316	13352.73
544.681	13309.57
545.045	13325.38
545.41	13282.67
545.774	13267.76
546.138	13191.38
546.503	13102.34
546.867	13073.64
547.231	13170.36
547.595	13063.7
547.959	13090.14
548.324	12996.35
548.688	12902.12
549.052	12985.96
549.416	12887.43
549.779	12804.72
550.143	12877.26
550.507	12818.28
550.871	12804.49
551.235	12730.6
551.599	12732.63
551.962	12619.64
552.326	12706.64
552.689	12625.74
553.053	12583.26
553.417	12552.3
553.78	12746.42
554.143	12552.07
554.507	12536.03
554.87	12493.77
555.234	12625.74
555.597	12464.39
555.96	12524.05
556.323	12432.53
556.686	12477.95
557.05	12483.82
557.413	12464.62
557.776	12406.09
558.139	12441.34
558.502	12387.33
558.865	12445.41
559.228	12433.66
559.59	12455.35
559.953	12413.54
560.316	12534.67
560.679	12381.23
561.041	12428.68
561.404	12423.71
561.767	12445.63
562.129	12397.27
562.492	12432.53
562.854	12413.09
563.217	12441.11
563.579	12396.59
563.941	12433.88
564.304	12516.82
564.666	12489.02
565.028	12389.59
565.39	12417.16
565.753	12490.38
566.115	12533.31
566.477	12458.74
566.839	12401.79
567.201	12571.73
567.563	12632.97
567.925	12621.67
568.287	12573.31
568.648	12590.71
569.01	12633.42
569.372	12669.13
569.734	12562.92
570.095	12660.99
570.457	12584.16
570.819	12621
571.18	12619.19
571.542	12700.77
571.903	12615.57
572.265	12688.11
572.626	12640.2
572.987	12688.79
573.349	12740.99
573.71	12710.49
574.071	12661.22
574.432	12717.72
574.794	12835.68
575.155	12760.65
575.516	12730.15
575.877	12832.74
576.238	12822.35
576.599	12797.49
576.96	12828.9
577.32	12794.55
577.681	12820.99
578.042	12857.83
578.403	12753.42
578.763	12741.44
579.124	12836.36
579.485	12790.03
579.845	12886.75
580.206	12791.16
580.566	12818.5
580.927	12747.55
581.287	12861.89
581.648	12776.7
582.008	12848.79
582.368	12678.17
582.728	12766.08
583.089	12719.07
583.449	12776.25
583.809	12825.06
584.169	12765.4
584.529	12707.77
584.889	12765.85
585.249	12734.21
585.609	12745.74
585.969	12763.36
586.329	12749.35
586.688	12709.13
587.048	12666.87
587.408	12620.09
587.768	12689.47
588.127	12623.26
588.487	12651.28
588.846	12662.12
589.206	12628.91
589.565	12642.01
589.925	12715.46
590.284	12615.8
590.643	12614.89
591.003	12606.98
591.362	12663.48
591.721	12664.61
592.08	12484.73
592.44	12593.2
592.799	12601.11
593.158	12550.94
593.517	12582.58
593.876	12556.59
594.235	12526.31
594.593	12479.08
594.952	12556.59
595.311	12516.59
595.67	12480.21
596.029	12584.61
596.387	12545.07
596.746	12596.82
597.104	12482.92
597.463	12492.86
597.822	12531.51
598.18	12477.72
598.538	12421.68
598.897	12546.42
599.255	12413.77
599.613	12586.65
599.972	12461.23
600.33	12518.17
600.688	12467.55
601.046	12522.24
601.404	12530.83
601.762	12453.54
602.12	12530.83
602.478	12497.61
602.836	12531.05
603.194	12501.9
603.552	12491.96
603.91	12411.74
604.268	12418.52
604.625	12365.18
604.983	12555.91
605.341	12458.97
605.698	12535.8
606.056	12454.9
606.413	12478.85
606.771	12547.78
607.128	12514.11
607.485	12511.17
607.843	12489.7
608.2	12551.85
608.557	12595.01
608.914	12541
609.272	12606.53
609.629	12547.33
609.986	12653.09
610.343	12519.98
610.7	12549.81
611.057	12639.53
611.414	12607.66
611.771	12628.68
612.127	12673.2
612.484	12677.27
612.841	12686.53
613.198	12634.33
613.554	12645.18
613.911	12685.4
614.267	12624.61
614.624	12626.19
614.98	12681.56
615.337	12784.83
615.693	12717.94
616.05	12665.97
616.406	12729.24
616.762	12693.54
617.118	12679.3
617.475	12646.98
617.831	12806.75
618.187	12811.95
618.543	12704.38
618.899	12838.39
619.255	12829.35
619.611	12814.66
619.967	12792.97
620.323	12842.01
620.678	12774.21
621.034	12776.47
621.39	12774.21
621.746	12756.36
622.101	12979.63
622.457	12846.98
622.812	12749.58
623.168	12846.3
623.523	12752.52
623.879	12863.02
624.234	12872.74
624.589	12837.94
624.945	12853.53
625.3	12859.18
625.655	12876.58
626.01	12797.49
626.365	12755.68
626.72	12786.87
627.075	12802.01
627.43	12849.24
627.785	12770.82
628.14	12794.55
628.495	12744.61
628.85	12741.9
629.205	12729.02
629.559	12806.53
629.914	12718.85
630.269	12723.14
630.623	12764.72
630.978	12670.71
631.332	12721.78
631.687	12697.83
632.041	12654.67
632.396	12666.64
632.75	12604.27
633.104	12658.51
633.459	12600.88
633.813	12512.98
634.167	12580.77
634.521	12604.05
634.875	12597.04
635.229	12568.57
635.583	12519.98
635.937	12450.38
636.291	12447.22
636.645	12470.94
636.999	12446.09
637.352	12488.12
637.706	12369.25
638.06	12445.63
638.413	12343.71
638.767	12350.49
639.121	12323.6
639.474	12364.28
639.828	12275.02
640.181	12363.83
640.534	12360.66
640.888	12378.52
641.241	12318.4
641.594	12327.22
641.947	12257.62
642.301	12226.88
642.654	12376.93
643.007	12252.19
643.36	12240.44
643.713	12095.59
644.066	12324.28
644.419	12161.57
644.771	12195.47
645.124	12011.52
645.477	11956.61
645.83	11883.39
646.182	11922.94
646.535	11816.72
646.888	11880.22
647.24	11824.86
647.593	11893.33
647.945	11833.67
648.298	11809.72
648.65	11802.49
649.002	11750.28
649.355	11788.02
649.707	11835.71
650.059	11871.41
650.411	11979.2
650.763	12002.71
651.115	12157.73
651.467	12002.93
651.819	12050.39
652.171	12039.99
652.523	12080.9
652.875	12037.96
653.227	11932.43
653.578	12074.8
653.93	12022.14
654.282	12008.81
654.633	12000.9
654.985	12088.58
655.337	12082.03
655.688	12060.11
656.039	12072.99
656.391	11923.61
656.742	12097.85
657.094	12047.9
657.445	12112.76
657.796	12075.47
658.147	12053.78
658.498	12053.1
658.849	12017.4
659.2	11988.02
659.551	12016.04
659.902	12064.85
660.253	12064.85
660.604	12080.22
660.955	12009.49
661.306	12043.16
661.656	12047
662.007	12036.15
662.358	11988.47
662.708	12080.9
663.059	12089.94
663.409	11978.3
663.76	12059.43
664.11	12153.89
664.461	12092.42
664.811	12106.43
665.161	12141.69
665.511	12078.86
665.862	12084.51
666.212	12111.63
666.562	12105.98
666.912	12073.44
667.262	12171.29
667.612	12051.97
667.962	12154.57
668.312	12095.36
668.662	12233.89
669.011	12145.98
669.361	12049.49
669.711	12113.89
670.06	12071.86
670.41	12141.91
670.76	12015.36
671.109	12052.2
671.459	12093.78
671.808	12108.69
672.157	12143.95
672.507	11957.06
672.856	12041.12
673.205	12005.42
673.554	12016.04
673.904	12000.22
674.253	12061.01
674.602	11951.41
674.951	11849.94
675.3	11771.98
675.649	11945.53
675.998	11924.97
676.346	11966.78
676.695	11904.18
677.044	11832.99
677.393	11875.03
677.741	11849.04
678.09	11907.57
678.438	11877.06
678.787	11880
679.135	11969.94
679.484	11803.16
679.832	11809.72
680.181	11701.02
680.529	11709.61
680.877	11634.13
681.225	11677.07
681.573	11778.31
681.922	11673.22
682.27	11546.67
682.618	11623.28
682.966	11607.46
683.314	11606.33
683.661	11579.22
684.009	11565.66
684.357	11512.1
684.705	11430.74
685.053	11467.58
685.4	11467.13
685.748	11433.68
686.095	11375.6
686.443	11331.31
686.79	11376.28
687.138	11340.8
687.485	11349.39
687.832	11281.82
688.18	11289.51
688.527	11240.02
688.874	11188.27
689.221	11132.22
689.568	11080.47
689.915	11116.63
690.262	11093.8
690.609	11056.07
690.956	11025.11
691.303	10951.21
691.65	10884.32
691.997	10926.8
692.344	10782.63
692.69	10828.5
693.037	10793.02
693.383	10693.14
693.73	10784.43
694.077	10675.96
694.423	10706.02
694.769	10609.75
695.116	10656.3
695.462	10591.22
695.808	10580.6
696.155	10561.39
696.501	10395.52
696.847	10419.92
697.193	10343.99
697.539	10394.84
697.885	10285.69
698.231	10332.24
698.577	10280.49
698.923	10204.11
699.269	10153.72
699.614	10105.58
699.96	10114.4
700.306	10102.87
700.651	9987.84
700.997	10044.34
701.342	9925.7
701.688	9932.25
702.033	9913.5
702.379	9898.58
702.724	9852.93
703.069	9898.81
703.415	9692.03
703.76	9713.95
704.105	9710.34
704.45	9689.32
704.795	9601.41
705.14	9631.02
705.485	9577.91
705.83	9563
706.175	9567.06
706.52	9449.33
706.865	9482.1
707.209	9426.5
707.554	9373.85
707.899	9446.16
708.243	9327.3
708.588	9351.48
708.932	9272.38
709.277	9276
709.621	9297.92
709.966	9233.97
710.31	9242.33
710.654	9207.53
710.998	9124.14
711.342	9106.74
711.687	9144.93
712.031	9083.01
712.375	9035.55
712.719	9061.09
713.063	9080.52
713.407	9019.28
713.75	8949.91
714.094	9001.43
714.438	8932.05
714.782	8942
715.125	8922.56
715.469	8925.5
715.812	8859.06
716.156	8827.88
716.499	8879.4
716.843	8823.81
717.186	8798.95
717.53	8892.73
717.873	8826.52
718.216	8769.8
718.559	8759.4
718.902	8742.68
719.246	8783.58
719.589	8679.4
719.932	8694.55
720.275	8701.32
720.617	8727.54
720.96	8681.21
721.303	8754.88
721.646	8669.91
721.989	8636.92
722.331	8662
722.674	8596.47
723.016	8598.73
723.359	8595.56
723.701	8618.62
724.044	8602.12
724.386	8541.1
724.729	8522.12
725.071	8565.74
725.413	8614.77
725.755	8596.02
726.097	8485.96
726.439	8438.73
726.782	8441.9
727.124	8521.67
727.465	8506.08
727.807	8477.38
728.149	8451.84
728.491	8516.47
728.833	8522.8
729.175	8513.31
729.516	8459.3
729.858	8456.36
730.199	8513.31
730.541	8456.81
730.882	8429.02
731.224	8486.87
731.565	8436.47
731.906	8484.83
732.248	8428.34
732.589	8384.95
732.93	8451.16
733.271	8453.65
733.612	8400.77
733.953	8442.35
734.294	8453.87
734.635	8464.72
734.976	8476.02
735.317	8425.17
735.658	8490.26
735.999	8489.13
736.339	8444.61
736.68	8429.47
737.021	8450.48
737.361	8381.11
737.702	8471.95
738.042	8446.42
738.383	8442.8
738.723	8488.9
739.063	8462.46
739.404	8531.39
739.744	8519.63
740.084	8460.65
740.424	8512.4
740.764	8440.77
741.104	8516.25
741.444	8498.39
741.784	8554.89
742.124	8584.72
742.464	8536.81
742.804	8568.9
743.143	8585.17
743.483	8683.02
743.823	8672.63
744.162	8675.56
744.502	8746.97
744.841	8745.62
745.181	8800.08
745.52	8802.34
745.86	8810.7
746.199	8835.11
746.538	8854.09
746.877	8981.77
747.216	8995.33
747.556	9032.39
747.895	9048.66
748.234	9070.13
748.573	9211.82
748.911	9215.89
749.25	9308.77
749.589	9304.25
749.928	9428.76
750.267	9488.42
750.605	9551.7
750.944	9564.58
751.283	9643.22
751.621	9740.17
751.96	9840.28
752.298	9899.03
752.636	10001.18
752.975	10054.06
753.313	10122.98
753.651	10325.24
753.989	10349.64
754.327	10465.8
754.666	10593.25
755.004	10647.49
755.342	10868.73
755.679	10974.26
756.017	11028.72
756.355	11223.97
756.693	11267.36
757.031	11492.21
757.368	11556.17
757.706	11672.55
758.044	11839.77
758.381	12132.65
758.719	12165.19
759.056	12267.11
759.394	12552.75
759.731	12588.45
760.068	12677.72
760.405	12887.66
760.743	12997.71
761.08	13259.17
761.417	13445.38
761.754	13487.19
762.091	13677.69
762.428	13842.66
762.765	13960.4
763.102	14249.43
763.438	14354.96
763.775	14469.08
764.112	14646.93
764.449	14870.2
764.785	15015.96
765.122	15112.46
765.458	15168.73
765.795	15430.64
766.131	15600.8
766.467	15652.1
766.804	15758.31
767.14	15917.41
767.476	16083.28
767.812	16154.91
768.148	16274.91
768.485	16424.06
768.821	16517.84
769.157	16757.84
769.492	16823.37
769.828	17051.16
770.164	16972.52
770.5	17056.59
770.836	17236.24
771.171	17250.25
771.507	17383.13
771.842	17412.28
772.178	17537.93
772.513	17633.75
772.849	17741.09
773.184	17890.24
773.519	17887.98
773.855	17850.91
774.19	18001.19
774.525	18038.48
774.86	18143.11
775.195	18203.9
775.53	18272.82
775.865	18236.67
776.2	18226.72
776.535	18235.09
776.87	18309.66
777.205	18414.74
777.539	18352.82
777.874	18557.56
778.209	18461.97
778.543	18593.04
778.878	18482.76
779.212	18551.01
779.547	18504.46
779.881	18684.79
780.215	18494.97
780.55	18729.08
780.884	18587.17
781.218	18558.01
781.552	18688.41
781.886	18640.72
782.22	18738.12
782.554	18666.71
782.888	18594.4
783.222	18543.55
783.556	18602.53
783.889	18664
784.223	18511.69
784.557	18471.24
784.89	18602.99
785.224	18448.41
785.557	18447.06
785.891	18507.17
786.224	18425.81
786.558	18513.72
786.891	18328.42
787.224	18353.27
787.557	18384.01
787.891	18344.24
788.224	18386.27
788.557	18507.62
788.89	18301.75
789.223	18321.86
789.556	18257.68
789.888	18250.23
790.221	18166.84
790.554	18147.4
790.887	18107.86
791.219	18076.67
791.552	18109.44
791.884	17913.74
792.217	17937.01
792.549	17943.34
792.882	17889.78
793.214	17878.71
793.546	17904.47
793.879	17764.59
794.211	17867.64
794.543	17735.66
794.875	17694.76
795.207	17722.78
795.539	17686.17
795.871	17674.65
796.203	17639.62
796.535	17490.7
796.867	17487.31
797.198	17389.23
797.53	17438.04
797.862	17297.03
798.193	17374.32
798.525	17312.62
798.856	17320.53
799.188	17092.06
799.519	17128.9
799.85	17003.03
800.182	17061.56
800.513	17027.66
800.844	16980.2
801.175	17083.7
801.506	17004.84
801.837	16932.97
802.168	16849.36
802.499	16841.68
802.83	16733.66
803.161	16668.12
803.491	16686.88
803.822	16709.25
804.153	16599.87
804.483	16586.54
804.814	16499.09
805.145	16463.15
805.475	16469.48
805.805	16483.72
806.136	16431.07
806.466	16344.97
806.796	16385.19
807.126	16222.03
807.457	16153.33
807.787	16239.88
808.117	16158.3
808.447	16107.46
808.777	16107.23
809.107	16035.82
809.436	16038.08
809.766	15999.44
810.096	15883.73
810.426	15851.19
810.755	15946.78
811.085	15853.45
811.414	15877.86
811.744	15745.89
812.073	15849.39
812.403	15778.65
812.732	15679.45
813.061	15657.75
813.39	15616.62
813.719	15557.64
814.049	15662.72
814.378	15573.46
814.707	15490.98
815.036	15576.62
815.365	15396.97
815.693	15300.02
816.022	15339.34
816.351	15275.39
816.68	15295.05
817.008	15269.29
817.337	15228.16
817.665	15114.26
817.994	15156.3
818.322	15102.29
818.651	15077.43
818.979	15020.25
819.307	15152
819.636	15057.32
819.964	14965.34
820.292	15062.97
820.62	15010.31
820.948	14954.27
821.276	14990.2
821.604	14923.53
821.932	14947.49
822.259	14933.48
822.587	14942.06
822.915	14924.44
823.243	15004.66
823.57	14872.69
823.898	14981.61
824.225	14936.42
824.553	14906.36
824.88	14926.47
825.207	14983.87
825.535	14972.35
825.862	14978.22
826.189	14982.97
826.516	15067.03
826.843	14988.17
827.17	15065
827.497	14995.17
827.824	15027.71
828.151	15062.74
828.478	14869.52
828.805	14997.43
829.131	14940.93
829.458	14925.34
829.785	14914.27
830.111	14993.36
830.438	14984.55
830.764	14973.7
831.09	15004.89
831.417	14965.34
831.743	15024.32
832.069	14951.78
832.395	14871.33
832.722	14923.76
833.048	14912.69
833.374	14899.35
833.7	14879.24
834.026	14847.83
834.351	14887.38
834.677	14881.28
835.003	14941.16
835.329	14865
835.654	14838.79
835.98	14825.68
836.306	14780.71
836.631	14721.96
836.956	14849.19
837.282	14799.02
837.607	14696.87
837.932	14722.41
838.258	14619.36
838.583	14636.08
838.908	14659.36
839.233	14629.3
839.558	14552.24
839.883	14436.32
840.208	14396.99
840.533	14399.93
840.858	14434.06
841.182	14450.33
841.507	14460.27
841.832	14333.27
842.156	14337.33
842.481	14297.56
842.805	14311.8
843.13	14261.86
843.454	14218.02
843.778	14145.7
844.103	14206.94
844.427	14037.68
844.751	14093.27
845.075	14115.87
845.399	14050.34
845.723	13948.64
846.047	13945.48
846.371	13832.26
846.695	13841.98
847.019	13789.1
847.343	13608.99
847.666	13614.87
847.99	13547.07
848.313	13564.7
848.637	13456.45
848.96	13451.26
849.284	13398.83
849.607	13331.49
849.931	13326.74
850.254	13245.61
850.577	13182.34
850.9	13073.64
851.223	13117.93
851.546	12989.35
851.869	12869.12
852.192	12947.99
852.515	12789.58
852.838	12751.61
853.161	12788.68
853.483	12777.15
853.806	12698.73
854.129	12634.55
854.451	12592.97
854.774	12533.54
855.096	12471.17
855.419	12476.37
855.741	12430.04
856.063	12397.27
856.385	12437.05
856.708	12261.01
857.03	12274.11
857.352	12239.99
857.674	12193.44
857.996	12174
858.318	12118.64
858.64	12094.46
858.961	12061.24
859.283	12072.31
859.605	12018.98
859.926	12038.86
860.248	11960.9
860.57	11894.46
860.891	11983.72
861.212	11868.93
861.534	11805.42
861.855	11803.62
862.176	11768.81
862.498	11756.84
862.819	11783.5
863.14	11681.13
863.461	11658.31
863.782	11598.65
864.103	11743.5
864.424	11643.39
864.745	11599.78
865.065	11542.38
865.386	11496.73
865.707	11466.22
866.027	11550.06
866.348	11499.9
866.668	11470.74
866.989	11483.17
867.309	11436.17
867.63	11536.96
867.95	11375.38
868.27	11339
868.59	11369.5
868.91	11286.12
869.23	11321.37
869.55	11234.14
869.87	11306.91
870.19	11251.99
870.51	11170.19
870.83	11213.58
871.15	11249.28
871.469	11265.55
871.789	11212.9
872.109	11228.94
872.428	11146.46
872.748	11099.45
873.067	11060.36
873.386	11099.23
873.706	11047.25
874.025	11026.01
874.344	11101.94
874.663	11033.92
874.982	11026.24
875.301	10993.47
875.62	10951.66
875.939	10982.85
876.258	11049.06
876.577	10845
876.896	10988.5
877.214	10929.51
877.533	10919.57
877.852	10838.67
878.17	10805.45
878.489	10845.22
878.807	10867.14
879.125	10747.6
879.444	10774.94
879.762	10800.93
880.08	10767.49
880.398	10682.74
880.716	10707.6
881.034	10685.68
881.352	10730.88
881.67	10576.98
881.988	10611.33
882.306	10631.9
882.624	10567.72
882.941	10514.84
883.259	10483.65
883.577	10527.04
883.894	10412.92
884.212	10450.88
884.529	10418.57
884.846	10408.85
885.164	10325.69
885.481	10321.62
885.798	10325.46
886.115	10184
886.432	10163.89
886.75	10223.54
887.067	10205.24
887.383	10189.42
887.7	10145.35
888.017	10162.76
888.334	10116.88
888.651	10058.35
888.967	10045.02
889.284	10099.03
889.6	10017.9
889.917	9860.62
890.233	9951.24
890.55	9896.1
890.866	9885.93
891.182	9835.31
891.498	9745.59
891.815	9784.46
892.131	9710.79
892.447	9745.37
892.763	9686.16
893.079	9593.05
893.395	9620.4
893.71	9573.62
894.026	9598.7
894.342	9626.5
894.657	9518.25
894.973	9483.45
895.289	9491.81
895.604	9435.32
895.92	9367.07
896.235	9245.49
896.55	9329.1
896.865	9308.99
897.181	9299.95
897.496	9290.69
897.811	9228.99
898.126	9110.35
898.441	9180.63
898.756	9148.32
899.071	9125.72
899.386	9072.39
899.7	9010.47
900.015	8946.74
900.33	8867.65
900.644	8921.66
900.959	8940.41
901.273	8857.7
901.588	8795.79
901.902	8823.58
902.216	8717.82
902.531	8738.84
902.845	8748.78
903.159	8634.66
903.473	8660.87
903.787	8497.49
904.101	8486.19
904.415	8551.5
904.729	8422.69
905.042	8422.46
905.356	8431.95
905.67	8345.18
905.984	8459.75
906.297	8355.57
906.611	8260.43
906.924	8341.79
907.237	8259.98
907.551	8271.96
907.864	8186.76
908.177	8109.02
908.491	8130.04
908.804	8120.55
909.117	8022.92
909.43	8010.5
909.743	7981.34
910.056	7934.57
910.368	7877.84
910.681	7856.38
910.994	7803.27
911.307	7798.52
911.619	7727.79
911.932	7755.59
912.244	7698.87
912.557	7701.58
912.869	7641.01
913.181	7604.18
913.494	7661.35
913.806	7541.36
914.118	7492.32
914.43	7449.38
914.742	7481.24
915.054	7493.9
915.366	7407.57
915.678	7406.44
915.99	7336.39
916.302	7305.2
916.613	7276.5
916.925	7243.28
917.236	7239.22
917.548	7198.54
917.859	7214.36
918.171	7166.9
918.482	7098.2
918.794	7105.43
919.105	7108.15
919.416	7046.91
919.727	7006.91
920.038	6983.4
920.349	6975.49
920.66	6897.08
920.971	6981.6
921.282	6832.22
921.593	6880.58
921.903	6815.27
922.214	6772.79
922.525	6737.08
922.835	6681.94
923.146	6697.31
923.456	6635.39
923.767	6630.64
924.077	6638.33
924.387	6622.74
924.697	6555.17
925.008	6508.61
925.318	6546.13
925.628	6475.62
925.938	6445.79
926.248	6395.85
926.558	6424.55
926.867	6338.68
927.177	6321.95
927.487	6342.74
927.796	6232.92
928.106	6284.44
928.416	6229.98
928.725	6223.88
929.034	6191.56
929.344	6204.22
929.653	6161.5
929.962	6102.3
930.271	6038.57
930.581	6038.8
930.89	6058.68
931.199	6020.04
931.508	5932.81
931.817	5959.02
932.125	5952.02
932.434	5904.34
932.743	5873.15
933.051	5834.96
933.36	5838.8
933.669	5805.36
933.977	5787.96
934.286	5741.63
934.594	5719.93
934.902	5713.15
935.21	5675.42
935.519	5618.69
935.827	5650.11
936.135	5572.14
936.443	5595.64
936.751	5547.96
937.059	5564.68
937.367	5516.78
937.674	5556.1
937.982	5474.97
938.29	5432.71
938.597	5403.78
938.905	5363.11
939.213	5391.81
939.52	5328.08
939.827	5433.39
940.135	5303.67
940.442	5255.77
940.749	5309.55
941.056	5293.73
941.363	5235.43
941.67	5239.27
941.977	5199.5
942.284	5137.8
942.591	5164.24
942.898	5113.62
943.205	5132.83
943.511	5062.78
943.818	5060.29
944.125	5065.26
944.431	4983.23
944.738	4956.34
945.044	4985.04
945.35	4962.44
945.657	4922.89
945.963	4900.29
946.269	4872.72
946.575	4849.67
946.881	4869.34
947.187	4846.29
947.493	4750.02
947.799	4818.72
948.105	4754.99
948.41	4706.85
948.716	4707.31
949.022	4768.55
949.327	4680.41
949.633	4650.58
949.938	4649.68
950.244	4631.83
950.549	4579.63
950.854	4528.78
951.16	4552.06
951.465	4537.14
951.77	4498.5
952.075	4486.52
952.38	4493.75
952.685	4441.55
952.99	4438.39
953.294	4430.02
953.599	4390.03
953.904	4370.14
954.209	4351.61
954.513	4338.28
954.818	4339.18
955.122	4284.27
955.426	4290.59
955.731	4284.49
956.035	4263.93
956.339	4255.79
956.643	4211.73
956.948	4201.56
957.252	4166.08
957.556	4188.9
957.86	4136.02
958.163	4139.86
958.467	4100.54
958.771	4083.37
959.075	4064.84
959.378	4072.52
959.682	4032.52
959.985	4031.84
960.289	4008.34
960.592	4005.63
960.896	3971.05
961.199	3944.84
961.502	3907.78
961.805	3922.92
962.108	3869.81
962.411	3898.51
962.714	3856.48
963.017	3870.04
963.32	3859.19
963.623	3833.43
963.926	3822.81
964.228	3811.06
964.531	3770.61
964.833	3768.35
965.136	3751.85
965.438	3744.17
965.741	3710.5
966.043	3711.4
966.345	3701.68
966.648	3647.67
966.95	3616.49
967.252	3570.61
967.554	3588.69
967.856	3588.69
968.158	3547.11
968.46	3583.27
968.761	3562.7
969.063	3532.2
969.365	3504.85
969.666	3507.79
969.968	3503.04
970.269	3509.82
970.571	3486.09
970.872	3478.86
971.174	3408.13
971.475	3383.5
971.776	3395.02
972.077	3416.49
972.378	3395.93
972.679	3344.18
972.98	3363.84
973.281	3313.67
973.582	3311.86
973.883	3296.95
974.183	3271.41
974.484	3314.8
974.785	3275.7
975.085	3254.46
975.386	3279.55
975.686	3194.8
975.986	3223.95
976.287	3202.26
976.587	3179.21
976.887	3158.19
977.187	3157.74
977.487	3175.14
977.787	3138.31
978.087	3078.2
978.387	3089.27
978.687	3113.68
978.987	3054.92
979.286	3045.88
979.586	3062.6
979.885	2980.57
980.185	2996.16
980.484	2975.15
980.784	2982.61
981.083	2987.12
981.382	2948.93
981.682	2954.13
981.981	2961.14
982.28	2864.87
982.579	2909.39
982.878	2882.04
983.177	2865.09
983.475	2898.54
983.774	2844.76
984.073	2812.89
984.372	2814.7
984.67	2828.26
984.969	2830.97
985.267	2808.15
985.566	2748.94
985.864	2757.3
986.162	2760.46
986.461	2749.39
986.759	2689.96
987.057	2684.31
987.355	2701.93
987.653	2684.08
987.951	2625.78
988.249	2657.87
988.547	2661.71
988.844	2584.2
989.142	2643.86
989.44	2608.6
989.737	2612.45
990.035	2586.46
990.332	2547.36
990.63	2538.78
990.927	2519.79
991.224	2554.59
991.521	2496.97
991.819	2500.81
992.116	2524.76
992.413	2488.38
992.71	2455.16
993.006	2441.83
993.303	2435.5
993.6	2457.42
993.897	2426.01
994.193	2431.43
994.49	2428.5
994.787	2383.75
995.083	2389.63
995.379	2385.78
995.676	2402.96
995.972	2348.05
996.268	2368.38
996.565	2336.52
996.861	2322.28
997.157	2320.25
997.453	2292.91
997.749	2302.17
998.044	2235.96
998.34	2276.86
998.636	2214.49
998.932	2245.22
999.227	2216.3
999.523	2219.69
999.818	2162.97
1000.114	2184.21
1000.409	2166.13
1000.704	2149.86
1001	2139.01
1001.295	2132.01
1001.59	2136.53
1001.885	2151.44
1002.18	2093.59
1002.475	2114.15
1002.77	2097.66
1003.065	2060.37
1003.359	2068.96
1003.654	2029.86
1003.949	2050.2
1004.243	2066.02
1004.538	2016.3
1004.832	2009.07
1005.127	1977.66
1005.421	1959.36
1005.715	1936.08
1006.009	1960.26
1006.304	1958.23
1006.598	1936.53
1006.892	1941.28
1007.186	1916.19
1007.48	1947.38
1007.773	1906.93
1008.067	1894.27
1008.361	1867.61
1008.655	1856.53
1008.948	1851.34
1009.242	1841.62
1009.535	1808.85
1009.829	1844.78
1010.122	1815.86
1010.415	1811.56
1010.708	1789.42
1011.001	1753.03
1011.295	1794.16
1011.588	1757.33
1011.881	1730.43
1012.173	1750.55
1012.466	1702.19
1012.759	1712.13
1013.052	1710.1
1013.344	1731.34
1013.637	1687.95
1013.93	1662.19
1014.222	1670.78
1014.514	1661.96
1014.807	1644.34
1015.099	1671.45
1015.391	1639.59
1015.683	1639.36
1015.976	1625.8
1016.268	1608.63
1016.56	1595.75
1016.851	1598.46
1017.143	1576.99
1017.435	1555.52
1017.727	1558.91
1018.018	1548.29
1018.31	1533.83
1018.602	1521.4
1018.893	1510.78
1019.185	1529.99
1019.476	1500.16
1019.767	1498.35
1020.058	1501.06
1020.35	1462.42
1020.641	1452.93
1020.932	1435.53
1021.223	1427.84
1021.514	1423.78
1021.804	1424.23
1022.095	1427.17
1022.386	1398.24
1022.677	1407.05
1022.967	1395.3
1023.258	1361.4
1023.548	1352.59
1023.839	1363.89
1024.129	1367.28
1024.419	1327.51
1024.709	1304.68
1025	1315.98
1025.29	1310.56
1025.58	1301.75
1025.87	1307.4
1026.16	1270.11
1026.449	1260.84
1026.739	1282.31
1027.029	1256.1
1027.319	1248.64
1027.608	1224.91
1027.898	1232.59
1028.187	1235.53
1028.477	1212.71
1028.766	1179.71
1029.055	1229.2
1029.344	1211.35
1029.634	1214.06
1029.923	1186.04
1030.212	1191.92
1030.501	1181.75
1030.79	1167.96
1031.078	1133.84
1031.367	1131.35
1031.656	1159.38
1031.945	1148.98
1032.233	1108.08
1032.522	1110.56
1032.81	1100.17
1033.099	1102.88
1033.387	1106.27
1033.675	1114.86
1033.963	1090.9
1034.251	1071.47
1034.54	1046.61
1034.828	1050.23
1035.116	1060.62
1035.403	1020.85
1035.691	1049.77
1035.979	1027.63
1036.267	1031.02
1036.554	1007.29
1036.842	1031.92
1037.129	1015.88
1037.417	1015.2
1037.704	980.85
1037.992	971.13
1038.279	993.05
1038.566	966.84
1038.853	966.84
1039.14	966.84
