Data from hue_30_FLMS001491_46.txt Node
Date: Mon Feb 06 15:05:23 GMT 2017
User: dcchb
Spectrometer: FLMS00149
Trigger mode: 0
Integration Time (sec): 2.000000E-2
Scans to average: 10
Electric dark correction enabled: true
Nonlinearity correction enabled: false
Boxcar width: 0
XAxis mode: Wavelengths
Number of Pixels in Spectrum: 2048
>>>>>Begin Spectral Data<<<<<
341.393	-9.39
341.776	-9.39
342.16	-9.39
342.543	-33.12
342.927	-57.75
343.31	-48.71
343.693	-54.36
344.077	-63.85
344.46	-73.12
344.843	-45.1
345.226	-54.36
345.61	-44.19
345.993	-18.21
346.376	0.32
346.759	-10.97
347.142	52.53
347.525	67.22
347.908	45.97
348.291	56.59
348.674	82.58
349.057	107.67
349.44	134.56
349.823	138.17
350.206	144.73
350.588	175.69
350.971	213.2
351.354	223.6
351.737	233.54
352.119	237.83
352.502	286.87
352.884	278.96
353.267	285.06
353.65	288.45
354.032	292.97
354.414	325.74
354.797	299.75
355.179	334.33
355.562	325.29
355.944	330.03
356.326	344.95
356.709	342.69
357.091	350.37
357.473	337.04
357.855	345.17
358.238	346.76
358.62	347.66
359.002	352.18
359.384	336.81
359.766	343.37
360.148	335.46
360.53	345.63
360.912	320.09
361.294	314.44
361.676	324.38
362.057	316.25
362.439	316.47
362.821	336.36
363.203	328.23
363.584	334.78
363.966	328.23
364.348	330.94
364.729	316.25
365.111	324.84
365.493	316.93
365.874	313.54
366.256	311.28
366.637	316.47
367.019	315.34
367.4	310.83
367.781	307.89
368.163	314.44
368.544	302.01
368.925	324.38
369.306	318.51
369.688	327.1
370.069	322.8
370.45	302.69
370.831	324.38
371.212	291.39
371.593	329.81
371.974	305.85
372.355	306.98
372.736	310.15
373.117	330.03
373.498	314.89
373.879	333.2
374.26	330.94
374.641	304.27
375.021	324.61
375.402	316.93
375.783	336.36
376.163	327.32
376.544	322.35
376.925	309.47
377.305	316.25
377.686	338.17
378.066	335.68
378.447	329.81
378.827	336.36
379.208	332.75
379.588	339.3
379.968	327.77
380.349	316.02
380.729	331.62
381.109	325.74
381.489	309.92
381.87	335.23
382.25	339.98
382.63	344.04
383.01	351.05
383.39	337.27
383.77	336.81
384.15	333.65
384.53	347.21
384.91	355.34
385.29	357.38
385.67	338.85
386.049	369.81
386.429	353.99
386.809	352.63
387.189	347.66
387.568	333.88
387.948	335.91
388.328	352.63
388.707	351.28
389.087	371.16
389.466	346.98
389.846	370.03
390.225	343.14
390.605	357.83
390.984	373.2
391.363	389.69
391.743	344.5
392.122	368.9
392.501	391.73
392.881	377.94
393.26	364.38
393.639	355.12
394.018	351.5
394.397	373.42
394.776	374.55
395.155	377.72
395.534	374.33
395.913	373.2
396.292	393.31
396.671	388.79
397.05	383.59
397.429	382.01
397.808	405.74
398.186	381.33
398.565	405.51
398.944	380.2
399.323	394.66
399.701	402.35
400.08	384.04
400.458	393.08
400.837	419.75
401.215	392.86
401.594	402.8
401.972	386.98
402.351	400.31
402.729	399.18
403.107	386.53
403.486	402.35
403.864	416.81
404.242	418.17
404.62	417.49
404.999	420.43
405.377	401.9
405.755	427.66
406.133	419.75
406.511	418.17
406.889	413.65
407.267	440.09
407.645	407.55
408.023	413.2
408.401	421.1
408.779	434.21
409.156	405.74
409.534	431.5
409.912	424.27
410.29	418.39
410.667	414.33
411.045	452.97
411.422	456.58
411.8	450.93
412.178	457.94
412.555	451.61
412.933	473.53
413.31	481.89
413.687	463.36
414.065	462.23
414.442	470.37
414.819	479.18
415.197	464.27
415.574	503.59
415.951	472.63
416.328	478.73
416.705	482.35
417.082	476.02
417.46	516.02
417.837	497.71
418.214	476.02
418.591	498.62
418.967	490.03
419.344	508.79
419.721	495.68
420.098	476.47
420.475	494.1
420.852	501.78
421.228	503.14
421.605	519.86
421.982	516.7
422.358	523.93
422.735	538.62
423.111	545.62
423.488	525.51
423.864	525.06
424.241	547.2
424.617	540.65
424.994	529.8
425.37	533.64
425.746	566.64
426.123	537.94
426.499	537.94
426.875	575.22
427.251	580.87
427.627	572.51
428.003	571.16
428.379	567.77
428.756	577.94
429.132	583.36
429.507	587.2
429.883	569.58
430.259	618.84
430.635	574.55
431.011	624.49
431.387	598.5
431.763	610.93
432.138	609.8
432.514	614.09
432.89	627.65
433.265	644.38
433.641	608.44
434.016	660.65
434.392	629.23
434.767	658.84
435.143	638.27
435.518	669.91
435.894	673.75
436.269	673.08
436.644	678.05
437.02	666.3
437.395	679.86
437.77	695.22
438.145	701.78
438.52	699.06
438.895	710.59
439.271	696.8
439.646	716.92
440.021	690.48
440.395	718.95
440.77	728.44
441.145	721.89
441.52	737.93
441.895	739.29
442.27	721.89
442.645	745.16
443.019	732.06
443.394	755.11
443.769	745.39
444.143	745.84
444.518	780.19
444.892	777.48
445.267	756.01
445.641	760.3
446.016	782.45
446.39	783.13
446.764	792.17
447.139	800.98
447.513	813.18
447.887	787.2
448.262	770.02
448.636	794.65
449.01	807.99
449.384	804.37
449.758	832.62
450.132	823.13
450.506	815.9
450.88	847.99
451.254	820.42
451.628	830.13
452.002	840.98
452.376	862.22
452.75	871.71
453.123	873.3
453.497	887.53
453.871	882.79
454.244	894.54
454.618	893.18
454.992	902.45
455.365	909
455.739	930.92
456.112	940.64
456.486	941.32
456.859	946.51
457.232	936.57
457.606	949.23
457.979	964.14
458.352	974.31
458.725	991.94
459.099	991.26
459.472	1026.51
459.845	1039.85
460.218	1038.04
460.591	1041.65
460.964	1033.74
461.337	1063.8
461.71	1096.12
462.083	1096.79
462.456	1071.71
462.829	1083.23
463.201	1090.01
463.574	1102.89
463.947	1133.4
464.32	1163.23
464.692	1157.81
465.065	1154.19
465.438	1164.36
465.81	1233.29
466.183	1200.52
466.555	1221.08
466.928	1243.23
467.3	1254.76
467.672	1250.46
468.045	1257.47
468.417	1283
468.789	1311.02
469.161	1338.14
469.534	1356
469.906	1390.57
470.278	1391.47
470.65	1379.72
471.022	1418.59
471.394	1477.57
471.766	1484.81
472.138	1468.08
472.51	1511.47
472.882	1530.23
473.253	1538.14
473.625	1590.79
473.997	1615.88
474.369	1605.71
474.74	1647.29
475.112	1685.03
475.484	1699.04
475.855	1726.61
476.227	1762.54
476.598	1807.73
476.97	1829.66
477.341	1851.58
477.713	1903.1
478.084	1925.92
478.455	1977.45
478.827	1983.1
479.198	2082.3
479.569	2050.44
479.94	2162.08
480.311	2151.23
480.682	2215.18
481.053	2291.34
481.424	2325.46
481.795	2366.36
482.166	2384.89
482.537	2437.32
482.908	2560.48
483.279	2547.83
483.65	2596.41
484.021	2652.91
484.391	2681.38
484.762	2766.81
485.133	2787.37
485.503	2860.59
485.874	2900.81
486.244	2982.62
486.615	3039.34
486.985	3065.78
487.356	3111.43
487.726	3160.92
488.097	3237.08
488.467	3310.52
488.837	3344.42
489.207	3421.93
489.578	3470.52
489.948	3516.16
490.318	3587.8
490.688	3649.04
491.058	3703.73
491.428	3796.84
491.798	3840
492.168	3916.15
492.538	3914.35
492.908	3990.5
493.278	4075.7
493.648	4084.74
494.017	4143.49
494.387	4188.46
494.757	4223.04
495.126	4330.83
495.496	4374.67
495.866	4398.63
496.235	4427.1
496.605	4517.72
496.974	4541.45
497.344	4588
497.713	4606.08
498.082	4658.51
498.452	4742.12
498.821	4819.41
499.19	4786.87
499.559	4872.97
499.928	4886.52
500.298	4938.27
500.667	4956.8
501.036	5003.36
501.405	5080.19
501.774	5112.28
502.143	5079.51
502.512	5144.6
502.88	5224.37
503.249	5210.58
503.618	5305.72
503.987	5295.1
504.356	5334.65
504.724	5352.95
505.093	5399.28
505.462	5461.65
505.83	5477.69
506.199	5543.46
506.567	5613.51
506.936	5581.87
507.304	5744.13
507.672	5661.64
508.041	5702.32
508.409	5755.88
508.777	5794.97
509.145	5800.85
509.514	5902.32
509.882	5903.22
510.25	5919.72
510.618	5920.17
510.986	5979.6
511.354	6007.62
511.722	6089.2
512.09	6104.57
512.458	6114.51
512.826	6144.34
513.193	6180.95
513.561	6208.75
513.929	6243.55
514.297	6274.74
514.664	6351.57
515.032	6345.47
515.4	6399.93
515.767	6422.3
516.135	6445.35
516.502	6376.43
516.869	6487.16
517.237	6566.25
517.604	6496.2
517.972	6600.38
518.339	6615.97
518.706	6616.2
519.073	6638.12
519.44	6679.92
519.808	6751.56
520.175	6726.93
520.542	6759.92
520.909	6844.66
521.276	6798.56
521.643	6904.55
522.009	6972.8
522.376	7003.98
522.743	6972.12
523.11	7020.71
523.477	7101.38
523.843	7079.46
524.21	7214.82
524.577	7211.66
524.943	7293.24
525.31	7324.88
525.676	7410.53
526.043	7359.23
526.409	7437.19
526.776	7484.42
527.142	7536.4
527.508	7557.19
527.874	7596.51
528.241	7556.28
528.607	7656.85
528.973	7694.36
529.339	7622.72
529.705	7757.18
530.071	7820.68
530.437	7904.3
530.803	7879.89
531.169	7970.51
531.535	7942.26
531.901	7967.57
532.267	8020
532.632	8076.27
532.998	8127.34
533.364	8131.64
533.73	8183.84
534.095	8250.28
534.461	8309.26
534.826	8321.46
535.192	8287.34
535.557	8400.56
535.923	8336.6
536.288	8433.78
536.653	8583.6
537.019	8447.11
537.384	8527.78
537.749	8615.92
538.114	8674.9
538.479	8602.36
538.845	8659.08
539.21	8676.71
539.575	8700.44
539.94	8716.71
540.305	8772.98
540.67	8827.21
541.034	8840.32
541.399	8850.94
541.764	8886.64
542.129	8925.51
542.494	9013.2
542.858	9000.31
543.223	9043.02
543.587	9116.7
543.952	9062.69
544.316	9162.8
544.681	9193.08
545.045	9225.84
545.41	9286.18
545.774	9273.3
546.138	9347.65
546.503	9324.6
546.867	9394.88
547.231	9416.35
547.595	9539.28
547.959	9506.97
548.324	9589.45
548.688	9565.27
549.052	9578.83
549.416	9639.39
549.779	9649.34
550.143	9705.38
550.507	9757.13
550.871	9784.93
551.235	9765.72
551.599	9892.27
551.962	9863.34
552.326	9974.07
552.689	9935.2
553.053	9971.36
553.417	9929.78
553.78	10036.22
554.143	9992.38
554.507	10067.18
554.87	10043.68
555.234	10210
555.597	10143.56
555.96	10162.54
556.323	10233.95
556.686	10261.3
557.05	10233.5
557.413	10328.64
557.776	10336.55
558.139	10468.52
558.502	10461.07
558.865	10473.5
559.228	10526.6
559.59	10542.19
559.953	10603.89
560.316	10708.97
560.679	10694.05
561.041	10660.16
561.404	10815.18
561.767	10828.97
562.129	10730.89
562.492	10849.98
562.854	10879.59
563.217	10879.13
563.579	10906.03
563.941	11021.28
564.304	11023.54
564.666	11092.46
565.028	11145.12
565.39	11078
565.753	11183.31
566.115	11211.1
566.477	11267.6
566.839	11307.82
567.201	11336.98
567.563	11381.72
567.925	11432.34
568.287	11514.15
568.648	11427.14
569.01	11557.54
569.372	11641.83
569.734	11591.43
570.095	11697.19
570.457	11744.42
570.819	11789.62
571.18	11765.21
571.542	11894.02
571.903	11840.92
572.265	11954.81
572.626	12070.06
572.987	12053.57
573.349	12152.77
573.71	12138.99
574.071	12342.83
574.432	12367.01
574.794	12420.79
575.155	12511.18
575.516	12490.84
575.877	12605.19
576.238	12668.24
576.599	12801.34
576.96	12766.77
577.32	12910.72
577.681	12955.01
578.042	13161.79
578.403	13145.97
578.763	13284.95
579.124	13394.77
579.485	13479.52
579.845	13639.29
580.206	13761.32
580.566	13840.86
580.927	13980.97
581.287	14197.24
581.648	14142.78
582.008	14495.99
582.368	14540.73
582.728	14713.61
583.089	14794.06
583.449	15059.14
583.809	15206.93
584.169	15363.54
584.529	15480.37
584.889	15744.09
585.249	15984.99
585.609	16012.79
585.969	16372.55
586.329	16464.07
586.688	16708.81
587.048	16843.72
587.408	16998.52
587.768	17203.26
588.127	17519.19
588.487	17661.78
588.846	18018.16
589.206	18056.8
589.565	18381.08
589.925	18658.37
590.284	18856.55
590.643	19154.4
591.003	19308.29
591.362	19603.65
591.721	19800.93
592.08	20077.76
592.44	20364.76
592.799	20586.9
593.158	20802.26
593.517	20960.9
593.876	21313.21
594.235	21567.89
594.593	21785.29
594.952	22072.06
595.311	22181.44
595.67	22492.61
596.029	22938.93
596.387	23064.58
596.746	23466.15
597.104	23522.87
597.463	23730.32
597.822	24058
598.18	24326.01
598.538	24594.71
598.897	24909.73
599.255	24743.86
599.613	25411.63
599.972	25536.38
600.33	25827.22
600.688	25931.17
601.046	26285.51
601.404	26505.16
601.762	26624.48
602.12	26948.09
602.478	27273.96
602.836	27502.2
603.194	27463.11
603.552	27784.23
603.91	27861.06
604.268	28179.7
604.625	28371.33
604.983	28671.44
605.341	28590.99
605.698	29011.54
606.056	29273.91
606.413	29377.63
606.771	29670.51
607.128	29946.2
607.485	29860.78
607.843	30131.96
608.2	30390.26
608.557	30682.46
608.914	30668.45
609.272	31092.16
609.629	31183.91
609.986	31394.08
610.343	31375.55
610.7	31828.41
611.057	31799.71
611.414	31966.72
611.771	32167.84
612.127	32388.63
612.484	32389.3
612.841	32582.29
613.198	32807.37
613.554	32809.86
613.911	33176.63
614.267	33173.69
614.624	33268.38
614.98	33476.51
615.337	33666.56
615.693	33796.72
616.05	33866.1
616.406	34056.15
616.762	33988.81
617.118	34217.96
617.475	34276.94
617.831	34421.57
618.187	34483.26
618.543	34783.37
618.899	34874.44
619.255	35104.26
619.611	35083.92
619.967	35201.43
620.323	35381.77
620.678	35300.41
621.034	35243.24
621.39	35426.74
621.746	35469.9
622.101	35947.85
622.457	35702.89
622.812	35828.54
623.168	35879.61
623.523	36080.51
623.879	36202.54
624.234	35909.21
624.589	36194.4
624.945	36265.59
625.3	36256.09
625.655	36374.51
626.01	36378.35
626.365	36664.67
626.72	36478.69
627.075	36568.18
627.43	36704.22
627.785	36722.98
628.14	36708.29
628.495	36861.5
628.85	36776.76
629.205	36645.24
629.559	36988.05
629.914	36771.11
630.269	36890.43
630.623	36868.06
630.978	36812.24
631.332	36988.28
631.687	36986.02
632.041	37040.71
632.396	37059.46
632.75	36948.51
633.104	36840.49
633.459	36932.69
633.813	36840.03
634.167	36926.13
634.521	36977.88
634.875	37085.68
635.229	36967.49
635.583	36892.01
635.937	36904.44
636.291	36926.59
636.645	36930.2
636.999	36907.83
637.352	37064.89
637.706	36851.33
638.06	36904.21
638.413	36782.18
638.767	36768.4
639.121	36953.48
639.474	36694.28
639.828	36856.76
640.181	36835.97
640.534	36742.64
640.888	36672.58
641.241	36648.4
641.594	36688.85
641.947	36769.98
642.301	36693.82
642.654	36855.85
643.007	36803.42
643.36	36653.15
643.713	36645.01
644.066	36794.39
644.419	36567.5
644.771	36329.31
645.124	36029.43
645.477	36053.61
645.83	35937.69
646.182	35681.65
646.535	35671.7
646.888	35677.8
647.24	35499.96
647.593	35695.66
647.945	35625.38
648.298	35335.67
648.65	35365.72
649.002	35345.16
649.355	35427.87
649.707	35339.06
650.059	35574.08
650.411	35971.81
650.763	36006.38
651.115	36356.21
651.467	36219.94
651.819	36304.23
652.171	36204.12
652.523	36211.8
652.875	36274.17
653.227	36111.24
653.578	36337.45
653.93	36148.53
654.282	36055.2
654.633	35918.7
654.985	36162.31
655.337	35996.89
655.688	36104.46
656.039	36130.9
656.391	36052.03
656.742	36054.74
657.094	36014.97
657.445	36132.93
657.796	35963.22
658.147	35960.06
658.498	35853.85
658.849	36016.55
659.2	35909.21
659.551	35779.05
659.902	35825.37
660.253	35886.61
660.604	36021.07
660.955	35786.05
661.306	35923.22
661.656	35903.79
662.007	35766.84
662.358	35868.76
662.708	35781.08
663.059	35750.57
663.409	35699.95
663.76	35897.23
664.11	35904.24
664.461	35764.58
664.811	35785.6
665.161	35811.13
665.511	35670.8
665.862	35765.26
666.212	35897.23
666.562	35755.09
666.912	35758.03
667.262	35769.78
667.612	35723.91
667.962	35826.5
668.312	35707.41
668.662	35854.52
669.011	35760.06
669.361	35712.38
669.711	35803.23
670.06	35618.82
670.41	35573.17
670.76	35512.84
671.109	35892.71
671.459	35681.42
671.808	35603.23
672.157	35691.36
672.507	35404.82
672.856	35455.44
673.205	35482.78
673.554	35690.01
673.904	35469.67
674.253	35636.9
674.602	35630.8
674.951	34919.41
675.3	34822.23
675.649	35355.33
675.998	35279.62
676.346	35450.92
676.695	35492.95
677.044	35278.72
677.393	35269
677.741	35375.67
678.09	35205.05
678.438	35200.3
678.787	35277.36
679.135	35250.47
679.484	35002.57
679.832	35103.58
680.181	34937.03
680.529	35086.18
680.877	34906.07
681.225	34999.86
681.573	35074.66
681.922	34755.8
682.27	34713.76
682.618	34803.48
682.966	34719.86
683.314	34894.32
683.661	34557.83
684.009	34522.58
684.357	34436.93
684.705	34353.09
685.053	34415.24
685.4	34304.96
685.748	34278.97
686.095	34264.51
686.443	34138.64
686.79	34080.33
687.138	34163.49
687.485	34225.87
687.832	34113.33
688.18	33896.16
688.527	33779.1
688.874	33790.4
689.221	33744.52
689.568	33697.07
689.915	33601.93
690.262	33654.36
690.609	33423.17
690.956	33544.3
691.303	33395.6
691.65	33125.33
691.997	33292.78
692.344	33086.23
692.69	32969.85
693.037	32984.09
693.383	32787.03
693.73	32797.2
694.077	32698.9
694.423	32699.58
694.769	32642.63
695.116	32490.54
695.462	32377.1
695.808	32274.28
696.155	32342.53
696.501	32083.55
696.847	32119.71
697.193	31914.06
697.539	31987.05
697.885	31746.83
698.231	31619.15
698.577	31684.46
698.923	31732.82
699.269	31566.27
699.614	31405.15
699.96	31315.21
700.306	31392.72
700.651	31260.29
700.997	31195.66
701.342	31104.37
701.688	31091.71
702.033	30880.42
702.379	30758.16
702.724	30727.43
703.069	30825.28
703.415	30495.12
703.76	30536.92
704.105	30486.3
704.45	30434.1
704.795	30321.56
705.14	30176.25
705.485	30173.77
705.83	30074.56
706.175	30099.42
706.52	29997.5
706.865	29861.91
707.209	29754.8
707.554	29767.9
707.899	29967.22
708.243	29657.4
708.588	29689.94
708.932	29463.73
709.277	29400
709.621	29430.96
709.966	29249.5
710.31	29317.75
710.654	29092.67
710.998	29125.21
711.342	28999.79
711.687	29043.4
712.031	28822.39
712.375	28677.99
712.719	28863.52
713.063	28691.77
713.407	28790.53
713.75	28638.44
714.094	28711.66
714.438	28514.38
714.782	28574.04
715.125	28359.13
715.469	28507.82
715.812	28235.06
716.156	28136.08
716.499	28065.8
716.843	28058.8
717.186	28096.54
717.53	28191
717.873	27987.61
718.216	28016.31
718.559	27963.21
718.902	27752.82
719.246	27920.27
719.589	27692.93
719.932	27626.49
720.275	27631.46
720.617	27743.1
720.96	27570.9
721.303	27471.92
721.646	27511.69
721.989	27291.58
722.331	27515.53
722.674	27398.25
723.016	27334.3
723.359	27260.85
723.701	27249.33
724.044	27108.99
724.386	27098.14
724.729	27026.51
725.071	26957.13
725.413	26979.5
725.755	27038.71
726.097	26836.91
726.439	26713.29
726.782	26771.15
727.124	26770.47
727.465	26758.94
727.807	26677.36
728.149	26539.97
728.491	26585.61
728.833	26574.77
729.175	26448.67
729.516	26414.32
729.858	26411.38
730.199	26522.34
730.541	26369.8
730.882	26383.36
731.224	26379.74
731.565	26213.87
731.906	26360.54
732.248	26265.62
732.589	26180.2
732.93	26138.85
733.271	26039.64
733.612	26105.18
733.953	26169.35
734.294	26115.57
734.635	25966.87
734.976	25974.11
735.317	25805.75
735.658	25826.76
735.999	25819.31
736.339	25775.24
736.68	25798.29
737.021	25681.68
737.361	25551.74
737.702	25760.78
738.042	25582.03
738.383	25588.13
738.723	25543.61
739.063	25478.75
739.404	25610.95
739.744	25517.39
740.084	25416.61
740.424	25316.27
740.764	25339.55
741.104	25447.11
741.444	25276.5
741.784	25090.96
742.124	25165.54
742.464	25215.71
742.804	25081.7
743.143	25059.33
743.483	25125.54
743.823	24928.03
744.162	24936.39
744.502	24925.32
744.841	24831.76
745.181	24916.51
745.52	24955.15
745.86	24904.53
746.199	24749.96
746.538	24773.46
746.877	24683.07
747.216	24753.8
747.556	24648.26
747.895	24729.84
748.234	24576.4
748.573	24663.18
748.911	24577.98
749.25	24570.3
749.589	24408.04
749.928	24564.65
750.267	24457.53
750.605	24414.82
750.944	24383.86
751.283	24253.02
751.621	24377.76
751.96	24130.54
752.298	24213.25
752.636	24213.7
752.975	24173.47
753.313	24079.92
753.651	24137.54
753.989	24007.6
754.327	23930.77
754.666	23853.26
755.004	23978.23
755.342	23857.78
755.679	23797.67
756.017	23698.46
756.355	23696.2
756.693	23677.89
757.031	23767.38
757.368	23554.51
757.706	23516.54
758.044	23461.18
758.381	23484.68
758.719	23361.07
759.056	23356.77
759.394	23343.89
759.731	23196.33
760.068	23160.17
760.405	23076.55
760.743	23044.46
761.08	22944.81
761.417	22815.32
761.754	22883.11
762.091	22790.01
762.428	22653.06
762.765	22533.07
763.102	22694.19
763.438	22517.92
763.775	22362.22
764.112	22485.38
764.449	22381.21
764.785	22441.77
765.122	22265.73
765.458	22087.88
765.795	22212.62
766.131	21971.95
766.467	21966.98
766.804	21886.3
767.14	21829.36
767.476	21891.5
767.812	21744.39
768.148	21621.23
768.485	21592.98
768.821	21387.56
769.157	21475.69
769.492	21411.74
769.828	21342.81
770.164	21126.1
770.5	21128.13
770.836	21128.13
771.171	21077.06
771.507	20925.65
771.842	20850.4
772.178	20817.18
772.513	20788.7
772.849	20622.38
773.184	20601.59
773.519	20626
773.855	20504.19
774.19	20377.42
774.525	20295.38
774.86	20364.76
775.195	20180.81
775.53	20195.05
775.865	20049.52
776.2	20005.22
776.535	19906.47
776.87	19864.44
777.205	19675.97
777.539	19685.23
777.874	19711.44
778.209	19502.41
778.543	19386.48
778.878	19369.99
779.212	19322.75
779.547	19202.31
779.881	19207.73
780.215	19024.01
780.55	19155.3
780.884	18988.07
781.218	19006.38
781.552	18976.78
781.886	18734.3
782.22	18732.94
782.554	18657.24
782.888	18472.83
783.222	18579.72
783.556	18410.24
783.889	18336.11
784.223	18303.57
784.557	18168.43
784.89	18196.91
785.224	18111.94
785.557	18034.88
785.891	17923.24
786.224	17870.14
786.558	17972.28
786.891	17740.42
787.224	17671.05
787.557	17647.54
787.891	17686.41
788.224	17592.4
788.557	17588.34
788.89	17523.25
789.223	17438.06
789.556	17270.15
789.888	17307.21
790.221	17241
790.554	17057.28
790.887	17161.91
791.219	16998.3
791.552	16934.34
791.884	16949.71
792.217	16966.88
792.549	16763.95
792.882	16746.55
793.214	16525.99
793.546	16612.54
793.879	16607.35
794.211	16413.9
794.543	16564.41
794.875	16463.17
795.207	16408.93
795.539	16299.78
795.871	16316.96
796.203	16104.08
796.535	16057.3
796.867	16015.05
797.198	15996.51
797.53	16000.13
797.862	15883.52
798.193	15918.55
798.525	15838.33
798.856	15817.08
799.188	15662.29
799.519	15663.64
799.85	15572.12
800.182	15509.07
800.513	15481.95
800.844	15328.51
801.175	15382.29
801.506	15458.68
801.837	15267.27
802.168	15287.38
802.499	15192.02
802.83	15090.55
803.161	15089.19
803.491	15062.98
803.822	15187.27
804.153	15017.56
804.483	14889.2
804.814	14890.33
805.145	14843.1
805.475	14902.98
805.805	14808.3
806.136	14808.75
806.466	14791.12
806.796	14733.95
807.126	14632.48
807.457	14587.29
807.787	14543.45
808.117	14561.07
808.447	14461.87
808.777	14419.83
809.107	14401.75
809.436	14377.57
809.766	14322.89
810.096	14312.04
810.426	14227.3
810.755	14223.23
811.085	14240.18
811.414	14149.11
811.744	14049.22
812.073	13944.14
812.403	14010.58
812.732	13949.34
813.061	13898.72
813.39	13793.63
813.719	13757.25
814.049	13828.21
814.378	13754.77
814.707	13703.69
815.036	13733.75
815.365	13637.25
815.693	13535.79
816.022	13572.85
816.351	13537.6
816.68	13376.24
817.008	13516.35
817.337	13346.41
817.665	13378.5
817.994	13391.61
818.322	13339.86
818.651	13256.25
818.979	13262.58
819.307	13303.25
819.636	13237.94
819.964	13172.63
820.292	13174.22
820.62	13159.98
820.948	13078.17
821.276	13204.72
821.604	13130.15
821.932	13142.58
822.259	13161.79
822.587	13096.7
822.915	13040.43
823.243	13142.8
823.57	13002.92
823.898	13143.71
824.225	13091.73
824.553	13001.79
824.88	13145.97
825.207	13018.06
825.535	13093.31
825.862	13116.82
826.189	13006.99
826.516	13108.45
826.843	13086.53
827.17	13095.8
827.497	13030.94
827.824	13016.93
828.151	13105.74
828.478	13054.44
828.805	13042.92
829.131	13020.55
829.458	13023.03
829.785	12983.26
830.111	12968.8
830.438	13052.41
830.764	12959.53
831.09	13090.15
831.417	12944.84
831.743	13035.91
832.069	13000.89
832.395	12949.81
832.722	12984.84
833.048	12824.85
833.374	12924.73
833.7	12868.69
834.026	12976.03
834.351	12950.94
834.677	12885.86
835.003	12919.99
835.329	12900.1
835.654	12825.07
835.98	12790.5
836.306	12700.56
836.631	12722.7
836.956	12790.72
837.282	12730.84
837.607	12667.34
837.932	12719.54
838.258	12636.83
838.583	12644.74
838.908	12610.39
839.233	12553.22
839.558	12597.28
839.883	12601.35
840.208	12517.51
840.533	12459.66
840.858	12554.8
841.182	12554.12
841.507	12445.42
841.832	12444.97
842.156	12343.73
842.481	12377.4
842.805	12336.72
843.13	12272.09
843.454	12357.51
843.778	12222.38
844.103	12236.39
844.427	12201.81
844.751	12192.55
845.075	12141.47
845.399	12077.52
845.723	12014.25
846.047	12073.23
846.371	11968.15
846.695	11944.64
847.019	11870.97
847.343	11787.36
847.666	11712.11
847.99	11626.01
848.313	11708.72
848.637	11595.05
848.96	11549.63
849.284	11498.33
849.607	11466.24
849.931	11446.35
850.254	11401.16
850.577	11290.65
850.9	11287.94
851.223	11267.15
851.546	11158.45
851.869	11140.14
852.192	11158.22
852.515	11077.32
852.838	10968.17
853.161	11023.54
853.483	10954.39
853.806	10919.59
854.129	10975.4
854.451	10934.05
854.774	10829.42
855.096	10769.53
855.419	10733.38
855.741	10792.58
856.063	10704
856.385	10635.98
856.708	10620.38
857.03	10542.42
857.352	10545.36
857.674	10563.21
857.996	10485.02
858.318	10497.22
858.64	10426.27
858.961	10390.79
859.283	10303.56
859.605	10297.46
859.926	10280.73
860.248	10321.18
860.57	10265.14
860.891	10275.76
861.212	10206.61
861.534	10224.46
861.855	10205.25
862.176	10179.04
862.498	10170.23
862.819	10116.22
863.14	10070.79
863.461	10066.95
863.782	9989.44
864.103	10062.43
864.424	9936.33
864.745	10044.35
865.065	9938.37
865.386	9932.72
865.707	9919.84
866.027	9942.21
866.348	9953.96
866.668	9885.94
866.989	9864.92
867.309	9765.27
867.63	9816.11
867.95	9805.04
868.27	9747.41
868.59	9747.19
868.91	9788.32
869.23	9722.78
869.55	9682.1
869.87	9782.44
870.19	9694.08
870.51	9685.49
870.83	9701.31
871.15	9618.15
871.469	9621.54
871.789	9636.23
872.109	9604.14
872.428	9568.66
872.748	9604.59
873.067	9569.79
873.386	9546.97
873.706	9542.45
874.025	9462
874.344	9501.54
874.663	9538.15
874.982	9436.91
875.301	9445.05
875.62	9366.86
875.939	9341.77
876.258	9425.16
876.577	9315.56
876.896	9343.58
877.214	9311.72
877.533	9330.25
877.852	9271.04
878.17	9281.66
878.489	9273.3
878.807	9281.21
879.125	9250.93
879.444	9251.83
879.762	9187.65
880.08	9229.69
880.398	9147.88
880.716	9158.05
881.034	9110.59
881.352	9158.95
881.67	9155.79
881.988	9124.6
882.306	9143.81
882.624	9026.3
882.941	9044.61
883.259	9029.01
883.577	8923.93
883.894	9000.09
884.212	8958.06
884.529	8941.56
884.846	8924.38
885.164	8823.6
885.481	8886.64
885.798	8827.66
886.115	8800.32
886.432	8775.69
886.75	8818.85
887.067	8772.3
887.383	8748.34
887.7	8709.7
888.017	8720.1
888.334	8692.53
888.651	8665.18
888.967	8629.48
889.284	8590.83
889.6	8612.98
889.917	8519.65
890.233	8517.84
890.55	8516.71
890.866	8470.61
891.182	8469.03
891.498	8431.52
891.815	8445.75
892.131	8380.22
892.447	8386.09
892.763	8307.23
893.079	8333.67
893.395	8284.4
893.71	8232.88
894.026	8224.06
894.342	8211.18
894.657	8213.44
894.973	8166.44
895.289	8149.72
895.604	8136.16
895.92	8136.16
896.235	7999.89
896.55	8021.81
896.865	8031.07
897.181	8020.45
897.496	7980.91
897.811	7902.49
898.126	7923.51
898.441	7916.5
898.756	7817.29
899.071	7792.66
899.386	7850.51
899.7	7812.1
900.015	7757.64
900.33	7764.87
900.644	7665.21
900.959	7706.79
901.273	7626.57
901.588	7601.25
901.902	7590.18
902.216	7453.91
902.531	7464.31
902.845	7447.59
903.159	7479.45
903.473	7457.98
903.787	7417.53
904.101	7309.51
904.415	7366.01
904.729	7298.21
905.042	7284.65
905.356	7247.14
905.67	7231.32
905.984	7240.36
906.297	7213.02
906.611	7136.41
906.924	7182.06
907.237	7127.82
907.551	7092.34
907.864	7048.28
908.177	7039.46
908.491	6968.28
908.804	6926.02
909.117	6930.99
909.43	6886.25
909.743	6895.51
910.056	6846.25
910.368	6820.71
910.681	6814.16
910.994	6766.93
911.307	6746.36
911.619	6701.39
911.932	6625.01
912.244	6606.03
912.557	6615.97
912.869	6588.85
913.181	6579.13
913.494	6600.6
913.806	6521.96
914.118	6525.8
914.43	6476.99
914.742	6455.97
915.054	6382.08
915.366	6374.39
915.678	6397.9
915.99	6367.84
916.302	6323.32
916.613	6270.44
916.925	6251.01
917.236	6285.58
917.548	6199.26
917.859	6248.75
918.171	6223.89
918.482	6215.3
918.794	6119.71
919.105	6144.34
919.416	6036.1
919.727	6025.7
920.038	6050.79
920.349	6022.09
920.66	6015.76
920.971	5926.27
921.282	5986.61
921.593	5896.89
921.903	5871.13
922.214	5896.89
922.525	5861.87
922.835	5794.97
923.146	5762.66
923.456	5776.22
923.767	5712.27
924.077	5691.93
924.387	5715.88
924.697	5617.13
925.008	5656.67
925.318	5641.31
925.628	5594.75
925.938	5586.84
926.248	5505.26
926.558	5481.54
926.867	5481.99
927.177	5477.02
927.487	5479.73
927.796	5385.04
928.106	5378.71
928.416	5358.15
928.725	5362.22
929.034	5345.27
929.344	5362.44
929.653	5309.11
929.962	5275.44
930.271	5271.15
930.581	5217.59
930.89	5198.83
931.199	5178.49
931.508	5163.58
931.817	5133.52
932.125	5115.9
932.434	5094.88
932.743	5076.35
933.051	5056.69
933.36	5043.36
933.669	4975.34
933.977	4965.17
934.286	4968.56
934.594	4952.51
934.902	4913.19
935.21	4918.39
935.519	4913.19
935.827	4901.21
936.135	4847.66
936.443	4774.44
936.751	4783.02
937.059	4770.14
937.367	4767.66
937.674	4766.3
937.982	4735.79
938.29	4711.16
938.597	4697.15
938.905	4656.93
939.213	4661.67
939.52	4610.37
939.827	4668
940.135	4582.13
940.442	4562.92
940.749	4562.92
941.056	4537.15
941.363	4463.48
941.67	4469.13
941.977	4494.44
942.284	4415.35
942.591	4383.94
942.898	4410.15
943.205	4416.71
943.511	4361.79
943.818	4339.65
944.125	4345.75
944.431	4322.25
944.738	4336.26
945.044	4299.65
945.35	4258.07
945.657	4218.97
945.963	4223.94
946.269	4193.89
946.575	4208.58
946.881	4164.96
947.187	4193.89
947.493	4141.23
947.799	4142.14
948.105	4092.19
948.41	4097.39
948.716	4105.08
949.022	4066.66
949.327	4021.01
949.633	4002.93
949.938	4027.11
950.244	4001.8
950.549	3961.58
950.854	3909.6
951.16	3954.12
951.465	3912.99
951.77	3912.31
952.075	3831.86
952.38	3849.72
952.685	3879.09
952.99	3866.66
953.294	3808.36
953.599	3809.94
953.904	3741.02
954.209	3744.63
954.513	3744.41
954.818	3745.09
955.122	3753.67
955.426	3672.32
955.731	3707.8
956.035	3680.45
956.339	3673.22
956.643	3648.14
956.948	3594.81
957.252	3591.64
957.556	3574.69
957.86	3571.76
958.163	3560.91
958.467	3559.78
958.771	3542.38
959.075	3518.65
959.378	3496.28
959.682	3491.53
959.985	3459.67
960.289	3448.14
960.592	3450.86
960.896	3416.96
961.199	3407.01
961.502	3407.01
961.805	3406.56
962.108	3351.2
962.411	3377.86
962.714	3312.1
963.017	3350.07
963.32	3293.12
963.623	3311.88
963.926	3294.7
964.228	3283.4
964.531	3278.66
964.833	3231.65
965.136	3231.65
965.438	3210.41
965.741	3188.04
966.043	3173.57
966.345	3150.98
966.648	3157.3
966.95	3145.1
967.252	3115.95
967.554	3133.35
967.856	3115.95
968.158	3100.58
968.46	3063.52
968.761	3041.6
969.063	3029.4
969.365	3039.12
969.666	3004.09
969.968	3016.29
970.269	2995.05
970.571	2967.03
970.872	2988.27
971.174	2919.12
971.475	2952.11
971.776	2936.74
972.077	2919.34
972.378	2918.67
972.679	2868.95
972.98	2887.93
973.281	2866.92
973.582	2862.4
973.883	2882.51
974.183	2833.47
974.484	2824.21
974.785	2798.67
975.085	2808.39
975.386	2792.12
975.686	2800.25
975.986	2751.66
976.287	2738.56
976.587	2702.4
976.887	2741.5
977.187	2710.99
977.487	2721.38
977.787	2681.16
978.087	2671.22
978.387	2649.97
978.687	2659.69
978.987	2637.32
979.286	2632.35
979.586	2656.53
979.885	2629.41
980.185	2611.33
980.484	2579.01
980.784	2607.94
981.083	2591.44
981.382	2553.93
981.682	2574.72
981.981	2514.84
982.28	2525.91
982.579	2522.74
982.878	2521.84
983.177	2481.16
983.475	2468.06
983.774	2458.34
984.073	2452.01
984.372	2449.07
984.67	2426.25
984.969	2443.42
985.267	2455.4
985.566	2407.27
985.864	2367.49
986.162	2394.16
986.461	2374.95
986.759	2370.43
987.057	2348.29
987.355	2335.18
987.653	2315.52
987.951	2327.04
988.249	2288.17
988.547	2288.63
988.844	2279.81
989.142	2302.86
989.44	2263.77
989.737	2249.53
990.035	2220.15
990.332	2227.16
990.63	2237.1
990.927	2219.7
991.224	2206.59
991.521	2216.54
991.819	2202.07
992.116	2194.39
992.413	2186.26
992.71	2137.67
993.006	2146.71
993.303	2133.15
993.6	2144
993.897	2104.45
994.193	2102.42
994.49	2114.85
994.787	2119.82
995.083	2106.03
995.379	2065.81
995.676	2051.34
995.972	2056.54
996.268	2017.67
996.565	2011.8
996.861	2029.88
997.157	2024.68
997.453	2004.11
997.749	1977.67
998.044	1968.18
998.34	1978.35
998.636	1970.67
998.932	1942.19
999.227	1964.57
999.523	1931.12
999.818	1921.18
1000.114	1906.49
1000.409	1895.87
1000.704	1897.9
1001	1904
1001.295	1827.85
1001.59	1845.02
1001.885	1862.87
1002.18	1844.8
1002.475	1827.62
1002.77	1822.65
1003.065	1838.02
1003.359	1808.41
1003.654	1817.23
1003.949	1802.99
1004.243	1763.89
1004.538	1734.29
1004.832	1764.57
1005.127	1784.68
1005.421	1739.49
1005.715	1751.24
1006.009	1741.75
1006.304	1696.55
1006.598	1708.75
1006.892	1709.88
1007.186	1680.73
1007.48	1693.39
1007.773	1658.13
1008.067	1661.52
1008.361	1652.48
1008.655	1645.93
1008.948	1627.85
1009.242	1642.09
1009.535	1649.32
1009.829	1594.41
1010.122	1600.51
1010.415	1578.59
1010.708	1579.49
1011.001	1567.74
1011.295	1551.7
1011.588	1554.86
1011.881	1558.25
1012.173	1545.14
1012.466	1526.84
1012.759	1506.05
1013.052	1523.22
1013.344	1496.78
1013.637	1520.96
1013.93	1482.09
1014.222	1497.69
1014.514	1504.01
1014.807	1453.39
1015.099	1487.52
1015.391	1427.63
1015.683	1434.19
1015.976	1443.9
1016.268	1407.07
1016.56	1409.78
1016.851	1400.06
1017.143	1383.57
1017.435	1411.81
1017.727	1366.16
1018.018	1366.62
1018.31	1372.27
1018.602	1369.78
1018.893	1348.31
1019.185	1329.56
1019.476	1330.01
1019.767	1336.33
1020.058	1308.09
1020.35	1305.38
1020.641	1296.34
1020.932	1281.2
1021.223	1270.8
1021.514	1258.14
1021.804	1257.92
1022.095	1258.6
1022.386	1261.76
1022.677	1227.41
1022.967	1249.78
1023.258	1223.12
1023.548	1227.64
1023.839	1204.36
1024.129	1195.55
1024.419	1197.58
1024.709	1185.38
1025	1191.93
1025.29	1162.78
1025.58	1176.79
1025.87	1160.75
1026.16	1141.54
1026.449	1126.62
1026.739	1150.13
1027.029	1141.54
1027.319	1116.23
1027.608	1136.57
1027.898	1096.34
1028.187	1098.6
1028.477	1109.67
1028.766	1087.98
1029.055	1070.13
1029.344	1076.45
1029.634	1065.16
1029.923	1067.42
1030.212	1062.9
1030.501	1054.08
1030.79	1068.77
1031.078	1039.17
1031.367	1030.58
1031.656	1017.02
1031.945	1010.24
1032.233	1008.89
1032.522	998.04
1032.81	1000.75
1033.099	1014.54
1033.387	976.34
1033.675	988.55
1033.963	959.17
1034.251	973.63
1034.54	992.16
1034.828	965.27
1035.116	952.62
1035.403	946.06
1035.691	930.92
1035.979	963.46
1036.267	934.31
1036.554	922.11
1036.842	916.91
1037.129	898.61
1037.417	902.9
1037.704	925.72
1037.992	906.06
1038.279	905.39
1038.566	868.78
1038.853	868.78
1039.14	868.78
