Data from hue_300_FLMS001491_00077.txt Node
Date: Tue Feb 07 15:51:12 GMT 2017
User: dcchb
Spectrometer: FLMS00149
Trigger mode: 0
Integration Time (sec): 2.000000E-2
Scans to average: 10
Electric dark correction enabled: true
Nonlinearity correction enabled: false
Boxcar width: 0
XAxis mode: Wavelengths
Number of Pixels in Spectrum: 2048
>>>>>Begin Spectral Data<<<<<
341.393	-2.46
341.776	-2.46
342.16	-2.46
342.543	-60.54
342.927	-64.38
343.31	-57.37
343.693	-76.13
344.077	-61.67
344.46	-74.32
344.843	-60.08
345.226	-37.26
345.61	-29.8
345.993	-28.9
346.376	-11.27
346.759	20.59
347.142	32.57
347.525	62.4
347.908	30.99
348.291	89.74
348.674	100.82
349.057	99.69
349.44	106.01
349.823	144.66
350.206	151.89
350.588	205.67
350.971	193.92
351.354	219.91
351.737	227.14
352.119	260.36
352.502	240.7
352.884	252.68
353.267	254.94
353.65	281.83
354.032	300.13
354.414	292.68
354.797	315.5
355.179	329.96
355.562	295.39
355.944	327.03
356.326	324.31
356.709	345.78
357.091	327.48
357.473	334.26
357.855	331.09
358.238	322.51
358.62	323.18
359.002	318.66
359.384	327.03
359.766	324.09
360.148	342.62
360.53	324.31
360.912	315.27
361.294	324.09
361.676	343.75
362.057	315.73
362.439	324.77
362.821	322.28
363.203	324.09
363.584	325.67
363.966	304.43
364.348	317.76
364.729	326.35
365.111	299.68
365.493	309.4
365.874	332.45
366.256	326.8
366.637	312.11
367.019	304.65
367.4	302.39
367.781	325.22
368.163	326.12
368.544	313.01
368.925	318.44
369.306	313.24
369.688	301.72
370.069	314.82
370.45	299.46
370.831	329.51
371.212	317.76
371.593	322.28
371.974	300.36
372.355	326.35
372.736	313.47
373.117	302.39
373.498	304.2
373.879	313.69
374.26	305.56
374.641	303.52
375.021	303.98
375.402	303.75
375.783	299.46
376.163	327.48
376.544	345.78
376.925	314.6
377.305	336.52
377.686	322.73
378.066	343.3
378.447	324.31
378.827	343.07
379.208	325.44
379.588	329.51
379.968	315.5
380.349	337.65
380.729	336.97
381.109	332.67
381.489	349.85
381.87	328.83
382.25	339
382.63	315.73
383.01	321.83
383.39	333.58
383.77	332
384.15	350.08
384.53	358.21
384.91	326.57
385.29	350.3
385.67	353.24
386.049	329.74
386.429	354.37
386.809	347.36
387.189	352.34
387.568	372.45
387.948	360.7
388.328	366.8
388.707	378.55
389.087	361.15
389.466	358.21
389.846	358.21
390.225	358.21
390.605	359.57
390.984	400.92
391.363	370.19
391.743	400.24
392.122	372.67
392.501	369.74
392.881	386.46
393.26	368.15
393.639	370.64
394.018	365.44
394.397	382.17
394.776	384.88
395.155	373.13
395.534	379.45
395.913	380.81
396.292	376.52
396.671	391.66
397.05	377.87
397.429	388.04
397.808	393.46
398.186	394.82
398.565	416.74
398.944	396.18
399.323	409.06
399.701	402.28
400.08	416.51
400.458	413.12
400.837	416.97
401.215	397.31
401.594	417.87
401.972	405.67
402.351	433.46
402.729	421.94
403.107	420.36
403.486	442.73
403.864	428.27
404.242	454.03
404.62	442.95
404.999	434.59
405.377	428.04
405.755	444.76
406.133	458.1
406.511	458.32
406.889	473.24
407.267	469.85
407.645	456.06
408.023	492.44
408.401	479.34
408.779	491.09
409.156	489.05
409.534	513.46
409.912	502.61
410.29	506.91
410.667	515.95
411.045	530.41
411.422	516.62
411.8	527.92
412.178	544.87
412.555	550.07
412.933	572.22
413.31	589.17
413.687	564.99
414.065	616.74
414.442	571.09
414.819	600.92
415.197	613.57
415.574	610.41
415.951	607.7
416.328	630.52
416.705	655.15
417.082	654.02
417.46	657.64
417.837	685.66
418.214	667.13
418.591	695.6
418.967	696.06
419.344	712.33
419.721	707.35
420.098	725.88
420.475	715.26
420.852	740.57
421.228	767.24
421.605	764.98
421.982	740.12
422.358	758.43
422.735	786.22
423.111	793.68
423.488	808.82
423.864	794.81
424.241	824.64
424.617	822.15
424.994	823.74
425.37	837.97
425.746	853.11
426.123	864.64
426.499	868.03
426.875	865.77
427.251	880.68
427.627	888.37
428.003	890.17
428.379	915.48
428.756	909.83
429.132	955.48
429.507	944.18
429.883	973.34
430.259	963.39
430.635	993.45
431.011	977.4
431.387	1023.28
431.763	1017.85
432.138	1047.91
432.514	1043.16
432.89	1050.85
433.265	1071.86
433.641	1068.02
434.016	1105.08
434.392	1088.81
434.767	1122.26
435.143	1123.39
435.518	1161.58
435.894	1183.95
436.269	1167.23
436.644	1176.72
437.02	1149.83
437.395	1171.52
437.77	1224.4
438.145	1214.46
438.52	1243.39
438.895	1221.92
439.271	1234.12
439.646	1266.44
440.021	1266.21
440.395	1286.1
440.77	1262.59
441.145	1298.75
441.52	1276.6
441.895	1294.68
442.27	1318.19
442.645	1315.7
443.019	1326.32
443.394	1328.35
443.769	1341.24
444.143	1323.38
444.518	1356.15
444.892	1351.86
445.267	1375.36
445.641	1370.84
446.016	1365.42
446.39	1369.26
446.764	1395.47
447.139	1388.47
447.513	1405.19
447.887	1408.58
448.262	1383.27
448.636	1407.67
449.01	1418.3
449.384	1422.14
449.758	1413.1
450.132	1428.01
450.506	1423.95
450.88	1453.55
451.254	1444.74
451.628	1461.23
452.002	1482.02
452.376	1497.84
452.75	1486.99
453.123	1479.31
453.497	1496.26
453.871	1512.76
454.244	1525.19
454.618	1562.02
454.992	1539.87
455.365	1561.8
455.739	1581.46
456.112	1586.65
456.486	1619.42
456.859	1605.41
457.232	1619.42
457.606	1611.06
457.979	1659.42
458.352	1661.45
458.725	1651.28
459.099	1661
459.472	1679.31
459.845	1693.09
460.218	1702.36
460.591	1723.82
460.964	1701
461.337	1770.15
461.71	1771.73
462.083	1752.98
462.456	1787.1
462.829	1806.99
463.201	1791.85
463.574	1813.99
463.947	1836.14
464.32	1873.88
464.692	1875.69
465.065	1888.11
465.438	1899.19
465.81	1902.35
466.183	1875.69
466.555	1966.3
466.928	1948.68
467.3	1939.41
467.672	1985.06
468.045	2010.82
468.417	2002.69
468.789	2042.01
469.161	2052.4
469.534	2067.09
469.906	2099.18
470.278	2115
470.65	2108.45
471.022	2143.93
471.394	2170.14
471.766	2178.95
472.138	2176.24
472.51	2237.26
472.882	2273.41
473.253	2264.15
473.625	2307.54
473.997	2337.37
474.369	2338.95
474.74	2378.72
475.112	2368.78
475.484	2405.16
475.855	2409
476.227	2433.86
476.598	2468.44
476.97	2506.85
477.341	2536.23
477.713	2577.59
478.084	2560.41
478.455	2623.69
478.827	2620.07
479.198	2667.75
479.569	2698.04
479.94	2718.37
480.311	2759.28
480.682	2801.76
481.053	2825.04
481.424	2847.86
481.795	2862.78
482.166	2902.1
482.537	2946.39
482.908	2958.14
483.279	2968.09
483.65	3034.07
484.021	3063.22
484.391	3115.2
484.762	3098.03
485.133	3129.44
485.503	3135.31
485.874	3194.52
486.244	3246.04
486.615	3246.04
486.985	3327.62
487.356	3332.82
487.726	3350
488.097	3377.11
488.467	3429.09
488.837	3453.04
489.207	3485.36
489.578	3531.01
489.948	3535.53
490.318	3567.39
490.688	3551.35
491.058	3630.44
491.428	3639.03
491.798	3658.46
492.168	3689.42
492.538	3712.02
492.908	3749.08
493.278	3807.39
493.648	3796.54
494.017	3871.56
494.387	3863.66
494.757	3896.2
495.126	3880.6
495.496	3909.76
495.866	3909.76
496.235	4004.44
496.605	4001.05
496.974	4020.49
497.344	3998.57
497.713	4042.86
498.082	4076.76
498.452	4080.82
498.821	4109.98
499.19	4108.17
499.559	4126.47
499.928	4152.91
500.298	4106.59
500.667	4199.24
501.036	4207.83
501.405	4216.19
501.774	4200.37
502.143	4250.54
502.512	4239.46
502.88	4288.73
503.249	4297.54
503.618	4313.81
503.987	4298.9
504.356	4345.9
504.724	4365.79
505.093	4381.16
505.462	4351.33
505.83	4403.53
506.199	4404.43
506.567	4463.41
506.936	4456.86
507.304	4492.57
507.672	4509.97
508.041	4526.69
508.409	4522.4
508.777	4603.52
509.145	4547.25
509.514	4579.34
509.882	4599.23
510.25	4592.9
510.618	4644.88
510.986	4604.65
511.354	4651.88
511.722	4682.84
512.09	4743.86
512.458	4716.51
512.826	4722.39
513.193	4697.53
513.561	4769.85
513.929	4708.61
514.297	4712.22
514.664	4749.06
515.032	4812.33
515.4	4826.34
515.767	4830.41
516.135	4834.7
516.502	4817.3
516.869	4878.32
517.237	4899.79
517.604	4842.16
517.972	4875.83
518.339	4917.64
518.706	4940.24
519.073	4918.54
519.44	4975.72
519.808	4991.76
520.175	4989.05
520.542	4953.34
520.909	5046.68
521.276	5039.44
521.643	4973.68
522.009	5086.9
522.376	5083.28
522.743	5129.61
523.11	5199.44
523.477	5156.5
523.843	5186.56
524.21	5282.15
524.577	5263.39
524.943	5282.83
525.31	5290.96
525.676	5333.9
526.043	5332.77
526.409	5358.08
526.776	5389.94
527.142	5427.23
527.508	5431.3
527.874	5494.35
528.241	5493.44
528.607	5537.06
528.973	5559.2
529.339	5534.8
529.705	5558.53
530.071	5616.83
530.437	5625.42
530.803	5612.31
531.169	5724.4
531.535	5693.21
531.901	5714
532.267	5728.01
532.632	5791.97
532.998	5764.17
533.364	5778.41
533.73	5809.37
534.095	5887.33
534.461	5938.86
534.826	5921.91
535.192	5917.39
535.557	5968.01
535.923	5918.29
536.288	6011.17
536.653	6061.56
537.019	5980.89
537.384	6063.6
537.749	6077.16
538.114	6086.2
538.479	6116.03
538.845	6135.23
539.21	6131.17
539.575	6151.5
539.94	6268.56
540.305	6211.62
540.67	6224.05
541.034	6284.38
541.399	6266.08
541.764	6292.29
542.129	6384.95
542.494	6365.74
542.858	6406.41
543.223	6398.96
543.587	6451.38
543.952	6434.89
544.316	6513.3
544.681	6493.64
545.045	6525.05
545.41	6584.94
545.774	6616.8
546.138	6607.54
546.503	6588.1
546.867	6627.65
547.231	6713.98
547.595	6707.2
547.959	6710.59
548.324	6716.46
548.688	6707.65
549.052	6782
549.416	6814.76
549.779	6827.65
550.143	6810.24
550.507	6836.01
550.871	6879.4
551.235	6898.15
551.599	6933.63
551.962	6955.1
552.326	6941.09
552.689	7071.03
553.053	6976.12
553.417	6946.74
553.78	7109.9
554.143	7075.55
554.507	7102.44
554.87	7120.07
555.234	7174.08
555.597	7156
555.96	7183.12
556.323	7205.71
556.686	7183.79
557.05	7204.13
557.413	7298.82
557.776	7287.52
558.139	7289.78
558.502	7304.92
558.865	7306.95
559.228	7334.07
559.59	7406.61
559.953	7373.39
560.316	7465.82
560.679	7487.97
561.041	7485.93
561.404	7502.2
561.767	7525.93
562.129	7509.21
562.492	7644.57
562.854	7590.79
563.217	7627.17
563.579	7622.88
563.941	7697.45
564.304	7706.72
564.666	7745.36
565.028	7746.27
565.39	7773.16
565.753	7800.5
566.115	7805.47
566.477	7859.26
566.839	7914.17
567.201	7948.52
567.563	7901.97
567.925	7976.54
568.287	7968.63
568.648	8005.92
569.01	8061.96
569.372	8118.68
569.734	8089.99
570.095	8181.96
570.457	8174.95
570.819	8189.64
571.18	8226.93
571.542	8255.86
571.903	8350.77
572.265	8386.47
572.626	8379.69
572.987	8456.53
573.349	8424.44
573.71	8521.16
574.071	8526.58
574.432	8594.15
574.794	8741.95
575.155	8739.23
575.516	8732
575.877	8880.47
576.238	8913.69
576.599	9040.92
576.96	9105.55
577.32	9170.63
577.681	9242.95
578.042	9301.48
578.403	9406.79
578.763	9539.66
579.124	9572.66
579.485	9650.17
579.845	9885.87
580.206	9925.42
580.566	10045.19
580.927	10152.76
581.287	10327.67
581.648	10393.65
582.008	10583.03
582.368	10675
582.728	10883.81
583.089	11054.65
583.449	11187.76
583.809	11376.45
584.169	11553.85
584.529	11804.01
584.889	11927.62
585.249	12094.17
585.609	12278.35
585.969	12627.94
586.329	12745.91
586.688	12934.83
587.048	13188.61
587.408	13429.73
587.768	13715.6
588.127	13916.95
588.487	14099.32
588.846	14452.98
589.206	14610.04
589.565	14819.75
589.925	15190.82
590.284	15443.24
590.643	15724.36
591.003	15934.52
591.362	16316.89
591.721	16485.7
592.08	16899.92
592.44	17233.47
592.799	17498.78
593.158	17650.19
593.517	18078.65
593.876	18259.89
594.235	18491.07
594.593	18857.84
594.952	19199.98
595.311	19519.74
595.67	19824.59
596.029	20160.85
596.387	20472.26
596.746	20892.59
597.104	20999.25
597.463	21347.94
597.822	21698.89
598.18	21863.41
598.538	22196.05
598.897	22560.79
599.255	22691.18
599.613	23290.72
599.972	23494.78
600.33	23704.94
600.688	23927.99
601.046	24339.05
601.404	24730.45
601.762	24868.3
602.12	25250.44
602.478	25528.17
602.836	25751.44
603.194	25906.01
603.552	26367.47
603.91	26424.87
604.268	26689.04
604.625	26942.37
604.983	27209.03
605.341	27394.11
605.698	27742.8
606.056	28058.27
606.413	28202.68
606.771	28683.34
607.128	28711.59
607.485	28956.33
607.843	29064.12
608.2	29389.31
608.557	29795.18
608.914	29887.38
609.272	30195.62
609.629	30437.65
609.986	30775.26
610.343	30677.87
610.7	31109.94
611.057	31236.72
611.414	31542.93
611.771	31623.38
612.127	31960.32
612.484	32139.52
612.841	32393.53
613.198	32328.44
613.554	32535.44
613.911	32959.84
614.267	33023.11
614.624	33242.77
614.98	33355.08
615.337	33731.57
615.693	33607.28
616.05	33769.08
616.406	34123.2
616.762	34233.25
617.118	34331.1
617.475	34335.85
617.831	34461.04
618.187	34569.74
618.543	34882.27
618.899	35160.01
619.255	35328.59
619.611	35254.92
619.967	35565.87
620.323	35668.92
620.678	35662.14
621.034	35621.24
621.39	35917.05
621.746	35865.07
622.101	36342.8
622.457	36155.24
622.812	36479.52
623.168	36552.74
623.523	36529.24
623.879	36598.61
624.234	36493.53
624.589	36829.12
624.945	36880.87
625.3	37067.98
625.655	37021.65
626.01	37088.54
626.365	37266.17
626.72	37190.01
627.075	37264.36
627.43	37397.46
627.785	37314.98
628.14	37410.8
628.495	37450.57
628.85	37546.61
629.205	37423.45
629.559	37784.57
629.914	37494.64
630.269	37688.75
630.623	37613.5
630.978	37600.85
631.332	37855.3
631.687	37922.65
632.041	37736.66
632.396	37914.96
632.75	37765.81
633.104	37893.5
633.459	37747.51
633.813	37931.69
634.167	37810.11
634.521	37878.81
634.875	37889.43
635.229	37804.23
635.583	37838.58
635.937	37882.2
636.291	37871.12
636.645	37887.85
636.999	37694.18
637.352	37852.37
637.706	37897.11
638.06	38004.68
638.413	37816.89
638.767	37799.49
639.121	37872.48
639.474	37697.34
639.828	37738.7
640.181	37866.38
640.534	37774.18
640.888	37710.45
641.241	37635.2
641.594	37734.86
641.947	37885.13
642.301	37719.26
642.654	37800.16
643.007	37862.76
643.36	37818.92
643.713	37756.1
644.066	37889.88
644.419	37662.54
644.771	37515.65
645.124	37105.49
645.477	37036.79
645.83	36823.69
646.182	36870.47
646.535	36677.26
646.888	36702.34
647.24	36508.45
647.593	36744.82
647.945	36724.49
648.298	36643.81
648.65	36507.99
649.002	36385.51
649.355	36663.7
649.707	36443.36
650.059	36702.11
650.411	37169.22
650.763	37229.33
651.115	37553.84
651.467	37329.67
651.819	37435.65
652.171	37303.68
652.523	37224.59
652.875	37187.75
653.227	37141.2
653.578	37385.49
653.93	37393.17
654.282	37255.55
654.633	37140.75
654.985	37251.7
655.337	37239.28
655.688	37245.38
656.039	37303.45
656.391	37142.33
656.742	37236.79
657.094	37062.33
657.445	37128.32
657.796	37190.91
658.147	37089.22
658.498	37193.4
658.849	37223
659.2	37121.09
659.551	36945.95
659.902	37144.36
660.253	37091.48
660.604	37250.12
660.955	37028.66
661.306	37048.77
661.656	37031.37
662.007	37026.17
662.358	37105.49
662.708	37046.06
663.059	37108.43
663.409	36845.16
663.76	37044.48
664.11	36949.57
664.461	37053.29
664.811	37099.17
665.161	37051.94
665.511	36948.66
665.862	37096
666.212	37149.56
666.562	37100.3
666.912	37081.54
667.262	36925.16
667.612	36987.76
667.962	37046.74
668.312	36964.71
668.662	37254.87
669.011	37035.44
669.361	36934.42
669.711	36892.17
670.06	36912.05
670.41	36914.76
670.76	36864.37
671.109	37046.96
671.459	36964.03
671.808	36729.46
672.157	36917.02
672.507	36640.65
672.856	36616.47
673.205	36715.45
673.554	36725.16
673.904	36632.96
674.253	36805.84
674.602	36782.11
674.951	36283.82
675.3	36111.85
675.649	36641.1
675.998	36550.93
676.346	36674.54
676.695	36656.47
677.044	36510.03
677.393	36529.69
677.741	36656.01
678.09	36495.79
678.438	36455.11
678.787	36539.63
679.135	36462.57
679.484	36346.64
679.832	36391.84
680.181	36127.89
680.529	36341.9
680.877	36191.39
681.225	36157.04
681.573	36357.04
681.922	36176.48
682.27	35975.81
682.618	36068.68
682.966	36054.22
683.314	35965.41
683.661	35840.22
684.009	35812.19
684.357	35677.51
684.705	35614.46
685.053	35788.01
685.4	35703.72
685.748	35406.1
686.095	35555.03
686.443	35471.64
686.79	35214.92
687.138	35352.09
687.485	35296.05
687.832	35183.74
688.18	35400.23
688.527	35105.09
688.874	34979.45
689.221	34915.72
689.568	34926.34
689.915	34705.33
690.262	34765.44
690.609	34713.24
690.956	34451.33
691.303	34574.94
691.65	34303.31
691.997	34406.13
692.344	34146.02
692.69	34138.34
693.037	34256.08
693.383	33956.42
693.73	34018.57
694.077	33884.34
694.423	33907.61
694.769	33792.36
695.116	33610.9
695.462	33593.5
695.808	33415.65
696.155	33657.45
696.501	33373.84
696.847	33299.72
697.193	33208.19
697.539	33127.29
697.885	32816.79
698.231	32832.61
698.577	32868.09
698.923	32788.32
699.269	32719.39
699.614	32599.17
699.96	32427.42
700.306	32399.85
700.651	32230.37
700.997	32161.89
701.342	32190.59
701.688	32113.08
702.033	32069.92
702.379	32004.61
702.724	31915.8
703.069	31984.95
703.415	31553.55
703.76	31527.11
704.105	31631.06
704.45	31502.02
704.795	31224.29
705.14	31080.79
705.485	31181.58
705.83	31042.6
706.175	31115.14
706.52	30953.11
706.865	30898.2
707.209	30833.79
707.554	30727.36
707.899	30819.78
708.243	30691.88
708.588	30734.14
708.932	30545.44
709.277	30472.9
709.621	30454.37
709.966	30173.25
710.31	30399.68
710.654	30154.04
710.998	30103.42
711.342	30202.4
711.687	30010.31
712.031	29975.96
712.375	29809.19
712.719	29875.85
713.063	29815.06
713.407	29900.03
713.75	29779.36
714.094	29721.28
714.438	29631.79
714.782	29517.44
715.125	29358.8
715.469	29399.03
715.812	29311.57
716.156	29176.44
716.499	29086.95
716.843	29165.82
717.186	29010.11
717.53	29236.32
717.873	29105.93
718.216	28977.8
718.559	28938.93
718.902	28777.12
719.246	28922.88
719.589	28730.8
719.932	28695.09
720.275	28635.21
720.617	28616
720.96	28530.58
721.303	28543.91
721.646	28610.35
721.989	28444.48
722.331	28527.19
722.674	28234.54
723.016	28290.58
723.359	28242.45
723.701	28284.03
724.044	28124.03
724.386	27987.99
724.729	28131.94
725.071	27944.15
725.413	27988.44
725.755	27901.67
726.097	27847.21
726.439	27762.01
726.782	27859.18
727.124	27963.59
727.465	27617.83
727.807	27700.09
728.149	27627.55
728.491	27613.09
728.833	27602.24
729.175	27479.08
729.516	27418.97
729.858	27447.22
730.199	27545.07
730.541	27451.06
730.882	27265.53
731.224	27487.22
731.565	27260.33
731.906	27368.57
732.248	27293.32
732.589	27208.13
732.93	27072.99
733.271	27159.54
733.612	27129.26
733.953	27063.05
734.294	27060.33
734.635	26987.79
734.976	26976.72
735.317	26795.93
735.658	26798.42
735.999	26852.66
736.339	26837.29
736.68	26861.69
737.021	26686.78
737.361	26676.16
737.702	26783.73
738.042	26744.86
738.383	26588.93
738.723	26697.86
739.063	26687.46
739.404	26625.99
739.744	26543.74
740.084	26363.18
740.424	26515.72
740.764	26384.65
741.104	26457.64
741.444	26157.76
741.784	26167.93
742.124	26230.52
742.464	26279.34
742.804	26207.02
743.143	26083.64
743.483	26175.16
743.823	26114.14
744.162	26041.6
744.502	26008.16
744.841	25852.91
745.181	26019.23
745.52	25974.03
745.86	25970.64
746.199	25957.99
746.538	25866.24
746.877	25977.42
747.216	25830.54
747.556	25809.97
747.895	25834.6
748.234	25742.4
748.573	25750.09
748.911	25769.07
749.25	25619.69
749.589	25616.08
749.928	25749.18
750.267	25665.79
750.605	25702.63
750.944	25542.41
751.283	25413.6
751.621	25429.64
751.96	25400.94
752.298	25225.81
752.636	25284.34
752.975	25263.54
753.313	25103.1
753.651	25383.77
753.989	25182.19
754.327	25162.08
754.666	25044.57
755.004	25196.2
755.342	25210.44
755.679	25107.39
756.017	24929.99
756.355	24947.85
756.693	24872.59
757.031	24911.46
757.368	24842.99
757.706	24762.54
758.044	24741.98
758.381	24855.87
758.719	24764.8
759.056	24711.47
759.394	24726.38
759.731	24497.92
760.068	24562.09
760.405	24435.77
760.743	24349.22
761.08	24528.87
761.417	24292.95
761.754	24299.5
762.091	24218.6
762.428	24146.06
762.765	24063.8
763.102	24104.03
763.438	24042.11
763.775	23943.58
764.112	23962.34
764.449	23921.43
764.785	23719.4
765.122	23585.4
765.458	23502.01
765.795	23581.78
766.131	23480.31
766.467	23402.35
766.804	23275.8
767.14	23190.83
767.476	23203.94
767.812	23114.67
768.148	23219.08
768.485	22964.85
768.821	22913.55
769.157	22906.77
769.492	22929.14
769.828	22838.52
770.164	22638.98
770.5	22562.15
770.836	22682.6
771.171	22406.9
771.507	22527.35
771.842	22235.6
772.178	22235.6
772.513	22259.1
772.849	22081.48
773.184	22009.85
773.519	21988.6
773.855	21902.28
774.19	21846.91
774.525	21706.12
774.86	21688.72
775.195	21682.17
775.53	21530.31
775.865	21439.24
776.2	21302.74
776.535	21165.35
776.87	21143.65
777.205	21119.25
777.539	21041.28
777.874	21026.14
778.209	20903.21
778.543	20884.9
778.878	20717.9
779.212	20696.21
779.547	20529.88
779.881	20657.56
780.215	20538.02
780.55	20536.89
780.884	20394.97
781.218	20290.57
781.552	20309.1
781.886	20187.29
782.22	20116.56
782.554	20034.3
782.888	19861.43
783.222	19792.73
783.556	19722
783.889	19614.88
784.223	19534.2
784.557	19503.92
784.89	19476.13
785.224	19462.79
785.557	19354.32
785.891	19285.62
786.224	19265.74
786.558	19223.25
786.891	19052.63
787.224	18927.89
787.557	18984.61
787.891	18992.07
788.224	18866.2
788.557	18929.7
788.89	18847.67
789.223	18849.25
789.556	18644.74
789.888	18552.53
790.221	18514.57
790.554	18275.25
790.887	18348.25
791.219	18310.06
791.552	18208.14
791.884	18179.89
792.217	18124.52
792.549	18079.78
792.882	17977.18
793.214	17847.24
793.546	17920.69
793.879	17636.4
794.211	17588.27
794.543	17684.08
794.875	17622.39
795.207	17685.66
795.539	17576.97
795.871	17550.3
796.203	17438.21
796.535	17224.43
796.867	17210.42
797.198	17245.45
797.53	17195.51
797.862	17115.96
798.193	17065.57
798.525	17005.23
798.856	17074.38
799.188	16787.84
799.519	16774.73
799.85	16746.48
800.182	16674.84
800.513	16684.79
800.844	16496.54
801.175	16622.64
801.506	16634.85
801.837	16445.7
802.168	16400.73
802.499	16432.14
802.83	16265.59
803.161	16306.04
803.491	16197.12
803.822	16195.08
804.153	16046.39
804.483	15992.38
804.814	15917.58
805.145	15859.72
805.475	15919.38
805.805	15855.66
806.136	15932.49
806.466	15811.14
806.796	15807.75
807.126	15658.37
807.457	15659.96
807.787	15606.62
808.117	15560.98
808.447	15447.31
808.777	15525.95
809.107	15558.04
809.436	15349.46
809.766	15369.12
810.096	15399.85
810.426	15280.08
810.755	15257.71
811.085	15091.83
811.414	15141.78
811.744	15007.77
812.073	15068.33
812.403	15033.08
812.732	14897.72
813.061	14943.14
813.39	14845.97
813.719	14810.03
814.049	14947.66
814.378	14828.56
814.707	14753.99
815.036	14726.19
815.365	14640.55
815.693	14561.45
816.022	14493.66
816.351	14482.36
816.68	14359.42
817.008	14403.94
817.337	14370.95
817.665	14384.73
817.994	14278.07
818.322	14423.6
818.651	14297.28
818.979	14288.24
819.307	14305.41
819.636	14241.01
819.964	14194.91
820.292	14146.77
820.62	14144.06
820.948	14114.23
821.276	14140
821.604	14051.18
821.932	14090.73
822.259	14130.05
822.587	14079.88
822.915	14061.35
823.243	14060.68
823.57	13963.28
823.898	14080.34
824.225	13992.88
824.553	14000.56
824.88	13920.79
825.207	14019.09
825.535	14013.22
825.862	14080.11
826.189	13953.11
826.516	14038.98
826.843	14011.86
827.17	14031.3
827.497	14005.76
827.824	13966.21
828.151	14088.25
828.478	13989.04
828.805	14064.29
829.131	13998.98
829.458	13959.21
829.785	13968.02
830.111	13900.45
830.438	14114.01
830.764	13956.05
831.09	14042.82
831.417	13925.76
831.743	13980.68
832.069	13936.16
832.395	13903.62
832.722	13918.53
833.048	13873.11
833.374	13873.34
833.7	13773.9
834.026	13860.23
834.351	13882.38
834.677	13868.14
835.003	13807.35
835.329	13790.17
835.654	13739.55
835.98	13769.38
836.306	13698.2
836.631	13618.43
836.956	13766.67
837.282	13676.73
837.607	13696.84
837.932	13693.23
838.258	13684.87
838.583	13639.9
838.908	13525.1
839.233	13502.72
839.558	13505.44
839.883	13389.51
840.208	13390.86
840.533	13398.32
840.858	13434.03
841.182	13479.45
841.507	13416.4
841.832	13328.04
842.156	13322.39
842.481	13286.68
842.805	13178.44
843.13	13247.36
843.454	13194.71
843.778	13180.02
844.103	13108.61
844.427	13056.41
844.751	13105.22
845.075	13013.02
845.399	13022.28
845.723	12946.81
846.047	13008.27
846.371	12779.58
846.695	12817.32
847.019	12687.38
847.343	12627.04
847.666	12601.96
847.99	12574.16
848.313	12537.33
848.637	12479.47
848.96	12396.99
849.284	12384.79
849.607	12307.73
849.931	12341.17
850.254	12217.33
850.577	12186.83
850.9	12094.17
851.223	12158.58
851.546	12012.14
851.869	11895.76
852.192	11976.66
852.515	11902.54
852.838	11834.75
853.161	11896.21
853.483	11757.23
853.806	11813.05
854.129	11723.79
854.451	11650.8
854.774	11644.92
855.096	11540.97
855.419	11613.73
855.741	11505.04
856.063	11377.58
856.385	11470.91
856.708	11379.84
857.03	11317.7
857.352	11284.25
857.674	11238.6
857.996	11279.73
858.318	11182.33
858.64	11126.06
858.961	11138.94
859.283	11104.37
859.605	11027.53
859.926	11067.53
860.248	11025.95
860.57	11037.93
860.891	11005.61
861.212	10923.58
861.534	10904.6
861.855	10887.65
862.176	10875.67
862.498	10856.01
862.819	10854.88
863.14	10838.16
863.461	10817.6
863.782	10848.78
864.103	10814.21
864.424	10730.37
864.745	10767.2
865.065	10679.75
865.386	10700.76
865.707	10638.62
866.027	10618.96
866.348	10623.03
866.668	10684.72
866.989	10594.78
867.309	10552.07
867.63	10616.92
867.95	10565.4
868.27	10507.77
868.59	10532.86
868.91	10523.82
869.23	10514.33
869.55	10432.75
869.87	10483.37
870.19	10357.04
870.51	10378.29
870.83	10453.09
871.15	10338.51
871.469	10351.62
871.789	10344.16
872.109	10328.34
872.428	10240.66
872.748	10282.24
873.067	10271.85
873.386	10269.81
873.706	10248.57
874.025	10157.5
874.344	10147.78
874.663	10197.5
874.982	10143.26
875.301	10170.38
875.62	10101.23
875.939	10006.32
876.258	10051.29
876.577	10019.2
876.896	10104.62
877.214	9967
877.533	9999.31
877.852	9976.49
878.17	9949.82
878.489	9998.18
878.807	9944.85
879.125	9861.92
879.444	9840.22
879.762	9839.54
880.08	9871.18
880.398	9889.94
880.716	9871.41
881.034	9866.21
881.352	9776.72
881.67	9681.81
881.988	9756.16
882.306	9662.83
882.624	9709.83
882.941	9674.58
883.259	9656.27
883.577	9569.04
883.894	9647.68
884.212	9602.04
884.529	9625.76
884.846	9536.5
885.164	9489.27
885.481	9507.57
885.798	9513.68
886.115	9484.98
886.432	9490.85
886.75	9402.94
887.067	9398.2
887.383	9310.74
887.7	9430.29
888.017	9294.02
888.334	9335.83
888.651	9301.48
888.967	9270.29
889.284	9214.02
889.6	9214.93
889.917	9102.16
890.233	9121.6
890.55	9160.92
890.866	9100.35
891.182	9050.86
891.498	8996.4
891.815	9035.5
892.131	8999.11
892.447	8957.08
892.763	8955.72
893.079	8989.17
893.395	8938.32
893.71	8868.72
894.026	8889.96
894.342	8834.6
894.657	8791.21
894.973	8687.71
895.289	8722.06
895.604	8728.16
895.92	8667.37
896.235	8609.97
896.55	8561.16
896.865	8616.52
897.181	8554.38
897.496	8576.98
897.811	8533.36
898.126	8489.3
898.441	8485.45
898.756	8375.4
899.071	8396.64
899.386	8373.37
899.7	8362.29
900.015	8273.93
900.33	8247.5
900.644	8194.16
900.959	8229.42
901.273	8181.96
901.588	8144.45
901.902	8136.31
902.216	8033.04
902.531	8062.64
902.845	8071.91
903.159	7965.69
903.473	7959.59
903.787	7916.66
904.101	7860.39
904.415	7824.23
904.729	7864.45
905.042	7790.33
905.356	7764.34
905.67	7822.65
905.984	7781.74
906.297	7682.76
906.611	7695.87
906.924	7708.3
907.237	7591.69
907.551	7619.94
907.864	7553.73
908.177	7574.29
908.491	7524.12
908.804	7464.01
909.117	7462.88
909.43	7411.13
909.743	7370.68
910.056	7409.32
910.368	7299.05
910.681	7264.02
910.994	7268.31
911.307	7242.32
911.619	7160.52
911.932	7169.78
912.244	7155.09
912.557	7140.18
912.869	7102.89
913.181	7044.81
913.494	7038.04
913.806	6953.07
914.118	6934.54
914.43	6903.12
914.742	6937.47
915.054	6878.94
915.366	6880.53
915.678	6810.7
915.99	6759.17
916.302	6739.51
916.613	6764.6
916.925	6710.36
917.236	6656.8
917.548	6655.9
917.859	6661.32
918.171	6622.68
918.482	6602.57
918.794	6548.78
919.105	6551.95
919.416	6470.14
919.727	6504.49
920.038	6441.67
920.349	6405.96
920.66	6380.88
920.971	6445.28
921.282	6366.87
921.593	6295
921.903	6260.43
922.214	6250.03
922.525	6176.59
922.835	6277.15
923.146	6123.48
923.456	6153.76
923.767	6090.94
924.077	6086.87
924.387	6059.98
924.697	6013.88
925.008	5970.49
925.318	6005.07
925.628	5998.29
925.938	5905.41
926.248	5897.95
926.558	5883.49
926.867	5845.52
927.177	5806.2
927.487	5812.3
927.796	5745.64
928.106	5735.47
928.416	5734.34
928.725	5725.3
929.034	5664.51
929.344	5674.68
929.653	5664.74
929.962	5607.34
930.271	5545.19
930.581	5570.73
930.89	5464.07
931.199	5480.56
931.508	5477.85
931.817	5464.74
932.125	5428.59
932.434	5429.04
932.743	5362.83
933.051	5367.34
933.36	5313.11
933.669	5320.57
933.977	5275.14
934.286	5281.7
934.594	5279.66
934.902	5251.42
935.21	5207.12
935.519	5258.87
935.827	5157.18
936.135	5163.06
936.443	5142.27
936.751	5104.07
937.059	5071.53
937.367	5116.05
937.674	5048.26
937.982	5027.01
938.29	5011.87
938.597	4990.63
938.905	4951.54
939.213	4919.9
939.52	4897.98
939.827	4899.33
940.135	4872.22
940.442	4852.33
940.749	4819.11
941.056	4822.95
941.363	4788.15
941.67	4783.18
941.977	4753.58
942.284	4708.38
942.591	4714.03
942.898	4670.64
943.205	4670.87
943.511	4654.37
943.818	4619.12
944.125	4570.98
944.431	4535.5
944.738	4574.37
945.044	4533.69
945.35	4507.93
945.657	4562.39
945.963	4485.33
946.269	4429.06
946.575	4449.63
946.881	4447.82
947.187	4441.27
947.493	4405.79
947.799	4415.51
948.105	4345.9
948.41	4365.56
948.716	4332.12
949.022	4310.42
949.327	4289.86
949.633	4268.39
949.938	4212.12
950.244	4214.38
950.549	4209.86
950.854	4220.71
951.16	4166.02
951.465	4079.69
951.77	4100.26
952.075	4113.14
952.38	4073.14
952.685	4052.13
952.99	4018.91
953.294	4055.97
953.599	4025.01
953.904	3988.4
954.209	3926.03
954.513	3962.41
954.818	3946.37
955.122	3930.09
955.426	3926.25
955.731	3901.39
956.035	3871.56
956.339	3891.68
956.643	3838.57
956.948	3785.92
957.252	3765.8
957.556	3803.54
957.86	3801.28
958.163	3781.85
958.467	3720.61
958.771	3747.95
959.075	3783.88
959.378	3707.05
959.682	3725.58
959.985	3674.73
960.289	3647.62
960.592	3617.56
960.896	3633.38
961.199	3598.13
961.502	3608.75
961.805	3563.55
962.108	3576.21
962.411	3543.89
962.714	3525.36
963.017	3537.56
963.32	3502.99
963.623	3517.68
963.926	3513.16
964.228	3422.31
964.531	3422.09
964.833	3433.61
965.136	3396.55
965.438	3389.09
965.741	3345.93
966.043	3361.97
966.345	3345.03
966.648	3323.78
966.95	3364.01
967.252	3322.2
967.554	3275.87
967.856	3279.49
968.158	3273.16
968.46	3241.52
968.761	3265.03
969.063	3211.24
969.365	3212.15
969.666	3170.57
969.968	3189.1
970.269	3161.3
970.571	3201.07
970.872	3130.34
971.174	3123.56
971.475	3117.91
971.776	3088.08
972.077	3098.03
972.378	3059.61
972.679	3081.98
972.98	3046.28
973.281	3047.86
973.582	3037.69
973.883	3020.97
974.183	2994.53
974.484	2982.32
974.785	2917.01
975.085	2955.66
975.386	2949.78
975.686	2957.01
975.986	2912.27
976.287	2886.05
976.587	2903.23
976.887	2886.28
977.187	2884.02
977.487	2861.65
977.787	2839.73
978.087	2801.54
978.387	2823.46
978.687	2805.83
978.987	2757.7
979.286	2758.37
979.586	2785.04
979.885	2754.98
980.185	2729.67
980.484	2705.72
980.784	2714.31
981.083	2691.48
981.382	2712.5
981.682	2690.8
981.981	2674.53
982.28	2661.2
982.579	2646.96
982.878	2651.03
983.177	2634.76
983.475	2617.36
983.774	2608.77
984.073	2565.61
984.372	2571.94
984.67	2586.63
984.969	2531.94
985.267	2565.16
985.566	2524.48
985.864	2472.51
986.162	2519.96
986.461	2474.77
986.759	2490.81
987.057	2445.61
987.355	2455.78
987.653	2446.07
987.951	2423.69
988.249	2412.39
988.547	2408.1
988.844	2393.64
989.142	2433.18
989.44	2400.19
989.737	2370.14
990.035	2359.74
990.332	2371.49
990.63	2347.31
990.927	2329.01
991.224	2306.63
991.521	2312.74
991.819	2304.37
992.116	2267.54
992.413	2260.31
992.71	2280.42
993.006	2274.54
993.303	2239.52
993.6	2233.64
993.897	2225.28
994.193	2176.02
994.49	2194.32
994.787	2201.78
995.083	2196.35
995.379	2173.08
995.676	2149.8
995.972	2138.73
996.268	2171.5
996.565	2107.54
996.861	2104.83
997.157	2079.97
997.453	2099.63
997.749	2085.85
998.044	2102.12
998.34	2057.83
998.636	2064.15
998.932	2040.88
999.227	2030.94
999.523	2027.09
999.818	1991.61
1000.114	2005.4
1000.409	1987.09
1000.704	2004.04
1001	1952.29
1001.295	1963.14
1001.59	1942.8
1001.885	1949.58
1002.18	1919.3
1002.475	1958.85
1002.77	1894.22
1003.065	1889.24
1003.359	1904.84
1003.654	1897.83
1003.949	1856.7
1004.243	1882.24
1004.538	1802.69
1004.832	1831.84
1005.127	1851.96
1005.421	1807.89
1005.715	1811.05
1006.009	1818.96
1006.304	1794.11
1006.598	1820.55
1006.892	1785.74
1007.186	1752.75
1007.48	1726.99
1007.773	1782.81
1008.067	1693.09
1008.361	1729.93
1008.655	1719.53
1008.948	1664.62
1009.242	1703.03
1009.535	1688.57
1009.829	1657.84
1010.122	1652.19
1010.415	1655.8
1010.708	1665.75
1011.001	1618.52
1011.295	1630.04
1011.588	1629.59
1011.881	1634.34
1012.173	1590.72
1012.466	1581.23
1012.759	1577.84
1013.052	1548.24
1013.344	1552.53
1013.637	1567.9
1013.93	1562.25
1014.222	1534
1014.514	1519.31
1014.807	1509.14
1015.099	1508.01
1015.391	1520.21
1015.683	1490.16
1015.976	1494.68
1016.268	1465.07
1016.56	1473.44
1016.851	1450.39
1017.143	1435.47
1017.435	1418.75
1017.727	1407.22
1018.018	1423.95
1018.31	1397.28
1018.602	1417.17
1018.893	1393.66
1019.185	1388.24
1019.476	1363.38
1019.767	1351.86
1020.058	1350.73
1020.35	1337.17
1020.641	1324.51
1020.932	1328.35
1021.223	1313.89
1021.514	1307.56
1021.804	1311.86
1022.095	1296.04
1022.386	1319.77
1022.677	1295.14
1022.967	1274.8
1023.258	1283.38
1023.548	1264.18
1023.839	1238.19
1024.129	1237.06
1024.419	1224.4
1024.709	1213.56
1025	1225.08
1025.29	1214.69
1025.58	1209.26
1025.87	1194.35
1026.16	1196.83
1026.449	1207
1026.739	1149.6
1027.029	1178.3
1027.319	1152.09
1027.608	1129.04
1027.898	1124.07
1028.187	1129.94
1028.477	1109.15
1028.766	1127.46
1029.055	1116.16
1029.344	1124.74
1029.634	1116.38
1029.923	1112.32
1030.212	1086.33
1030.501	1088.36
1030.79	1058.31
1031.078	1071.19
1031.367	1066.21
1031.656	1051.75
1031.945	1042.26
1032.233	1037.97
1032.522	1032.77
1032.81	1024.41
1033.099	1028.48
1033.387	1007.69
1033.675	987.57
1033.963	983.51
1034.251	1011.75
1034.54	1005.43
1034.828	983.28
1035.116	964.97
1035.403	978.53
1035.691	993.9
1035.979	980.34
1036.267	944.64
1036.554	967.01
1036.842	951.64
1037.129	962.71
1037.417	925.2
1037.704	933.56
1037.992	893.56
1038.279	914.58
1038.566	914.35
1038.853	914.35
1039.14	914.35
