Data from hue_40_FLMS001491_35.txt Node
Date: Mon Feb 06 15:07:48 GMT 2017
User: dcchb
Spectrometer: FLMS00149
Trigger mode: 0
Integration Time (sec): 2.000000E-2
Scans to average: 10
Electric dark correction enabled: true
Nonlinearity correction enabled: false
Boxcar width: 0
XAxis mode: Wavelengths
Number of Pixels in Spectrum: 2048
>>>>>Begin Spectral Data<<<<<
341.393	-4.87
341.776	-4.87
342.16	-4.87
342.543	-62.5
342.927	-65.21
343.31	-69.96
343.693	-67.47
344.077	-73.12
344.46	-54.59
344.843	-59.11
345.226	-45.32
345.61	-52.56
345.993	-9.39
346.376	-2.61
346.759	18.18
347.142	29.7
347.525	37.84
347.908	61.57
348.291	82.58
348.674	89.59
349.057	114.67
349.44	104.95
349.823	128.23
350.206	155.12
350.588	188.34
350.971	213.88
351.354	231.73
351.737	229.25
352.119	240.32
352.502	263.59
352.884	281.9
353.267	258.62
353.65	273.09
354.032	290.26
354.414	302.24
354.797	317.38
355.179	316.02
355.562	302.92
355.944	308.79
356.326	313.99
356.709	319.41
357.091	317.38
357.473	359.41
357.855	338.17
358.238	344.5
358.62	339.07
359.002	361.22
359.384	338.62
359.766	342.69
360.148	344.95
360.53	328.68
360.912	321.9
361.294	316.02
361.676	322.8
362.057	331.62
362.439	323.25
362.821	333.65
363.203	326.64
363.584	310.37
363.966	311.96
364.348	328
364.729	309.24
365.111	339.98
365.493	317.15
365.874	334.1
366.256	304.27
366.637	301.33
367.019	308.11
367.4	311.73
367.781	329.36
368.163	317.15
368.544	310.37
368.925	315.8
369.306	304.5
369.688	313.54
370.069	324.84
370.45	313.76
370.831	312.63
371.212	306.31
371.593	318.51
371.974	305.18
372.355	315.34
372.736	313.08
373.117	327.77
373.498	330.71
373.879	311.73
374.26	313.08
374.641	318.06
375.021	326.19
375.402	321.45
375.783	311.05
376.163	328
376.544	323.48
376.925	315.8
377.305	310.83
377.686	319.86
378.066	321.67
378.447	346.08
378.827	320.54
379.208	331.62
379.588	335.68
379.968	331.84
380.349	338.17
380.729	339.3
381.109	327.1
381.489	339.75
381.87	310.37
382.25	315.34
382.63	317.38
383.01	336.59
383.39	336.59
383.77	327.77
384.15	344.5
384.53	311.73
384.91	328.68
385.29	323.25
385.67	356.47
386.049	339.75
386.429	357.83
386.809	344.72
387.189	347.21
387.568	362.8
387.948	346.08
388.328	367.77
388.707	357.6
389.087	354.21
389.466	349.92
389.846	349.02
390.225	347.89
390.605	348.34
390.984	342.69
391.363	331.16
391.743	357.38
392.122	364.61
392.501	340.88
392.881	352.41
393.26	375
393.639	356.93
394.018	374.55
394.397	363.03
394.776	343.14
395.155	339.75
395.534	377.49
395.913	360.99
396.292	368.22
396.671	372.52
397.05	353.54
397.429	362.8
397.808	354.89
398.186	356.02
398.565	360.99
398.944	386.98
399.323	385.4
399.701	356.02
400.08	370.03
400.458	353.99
400.837	394.21
401.215	388.11
401.594	377.72
401.972	400.54
402.351	379.98
402.729	395.12
403.107	393.76
403.486	393.08
403.864	389.02
404.242	400.54
404.62	402.57
404.999	389.92
405.377	380.2
405.755	391.28
406.133	390.82
406.511	410.94
406.889	417.04
407.267	423.82
407.645	414.78
408.023	423.36
408.401	428.56
408.779	410.03
409.156	407.32
409.534	412.07
409.912	422.69
410.29	438.28
410.667	427.88
411.045	419.97
411.422	430.6
411.8	441.9
412.178	443.48
412.555	440.09
412.933	449.58
413.31	458.17
413.687	422.46
414.065	454.55
414.442	455.91
414.819	438.73
415.197	458.17
415.574	454.1
415.951	455.23
416.328	451.84
416.705	483.25
417.082	470.14
417.46	474.66
417.837	485.51
418.214	469.01
418.591	471.5
418.967	477.6
419.344	477.6
419.721	486.19
420.098	486.19
420.475	494.32
420.852	504.27
421.228	487.09
421.605	486.87
421.982	488.45
422.358	480.31
422.735	516.92
423.111	520.54
423.488	516.47
423.864	486.19
424.241	521.67
424.617	509.69
424.994	515.34
425.37	529.12
425.746	523.02
426.123	521.89
426.499	516.7
426.875	522.8
427.251	533.87
427.627	539.97
428.003	546.07
428.379	547.2
428.756	531.84
429.132	550.37
429.507	553.53
429.883	561.44
430.259	577.48
430.635	553.53
431.011	579.07
431.387	573.87
431.763	568.45
432.138	583.36
432.514	589.91
432.89	595.56
433.265	587.2
433.641	620.2
434.016	589.91
434.392	605.28
434.767	613.87
435.143	612.51
435.518	610.25
435.894	630.14
436.269	616.13
436.644	645.05
437.02	624.94
437.395	621.1
437.77	633.98
438.145	656.35
438.52	651.16
438.895	644.83
439.271	647.09
439.646	663.36
440.021	698.61
440.395	660.87
440.77	687.99
441.145	680.98
441.52	705.17
441.895	691.83
442.27	681.66
442.645	705.84
443.019	701.32
443.394	692.28
443.769	721.21
444.143	698.16
444.518	704.94
444.892	716.69
445.267	702.45
445.641	714.43
446.016	727.76
446.39	733.19
446.764	716.01
447.139	750.14
447.513	749.46
447.887	745.62
448.262	736.12
448.636	754.43
449.01	754.43
449.384	737.48
449.758	766.86
450.132	762.56
450.506	775.67
450.88	775.22
451.254	786.74
451.628	798.72
452.002	792.17
452.376	798.95
452.75	792.62
453.123	833.75
453.497	820.42
453.871	840.53
454.244	831.72
454.618	840.53
454.992	852.96
455.365	845.73
455.739	887.53
456.112	883.24
456.486	866.74
456.859	877.14
457.232	890.02
457.606	864.93
457.979	905.39
458.352	902.45
458.725	948.32
459.099	921.66
459.472	936.57
459.845	955.78
460.218	960.07
460.591	980.19
460.964	986.74
461.337	986.97
461.71	1006.17
462.083	1014.08
462.456	1025.16
462.829	1021.54
463.201	1044.14
463.574	1024.03
463.947	1033.52
464.32	1081.43
464.692	1108.77
465.065	1101.76
465.438	1073.74
465.81	1117.13
466.183	1136.79
466.555	1151.71
466.928	1148.54
467.3	1187.64
467.672	1183.34
468.045	1211.82
468.417	1212.5
468.789	1250.24
469.161	1237.13
469.534	1279.16
469.906	1312.61
470.278	1325.71
470.65	1339.27
471.022	1365.26
471.394	1376.33
471.766	1415.2
472.138	1424.24
472.51	1442.77
472.882	1503.79
473.253	1516.67
473.625	1532.94
473.997	1572.03
474.369	1588.31
474.74	1615.42
475.112	1679.15
475.484	1688.64
475.855	1716.44
476.227	1751.24
476.598	1774.74
476.97	1852.93
477.341	1894.51
477.713	1929.09
478.084	1942.87
478.455	2023.32
478.827	2058.58
479.198	2133.38
479.569	2161.62
479.94	2229.87
480.311	2281.62
480.682	2318.46
481.053	2410.2
481.424	2433.93
481.795	2513.03
482.166	2604.55
482.537	2613.36
482.908	2718.67
483.279	2820.14
483.65	2863.53
484.021	2964.54
484.391	2986.69
484.762	3052.67
485.133	3148.26
485.503	3254.48
485.874	3323.4
486.244	3388.71
486.615	3504.41
486.985	3535.83
487.356	3676.84
487.726	3723.16
488.097	3842.48
488.467	3861.47
488.837	4004.74
489.207	4146.66
489.578	4181.46
489.948	4305.07
490.318	4386.65
490.688	4446.31
491.058	4542.13
491.428	4647.89
491.798	4755.68
492.168	4889.24
492.538	4932.4
492.908	5053.07
493.278	5096.01
493.648	5211.71
494.017	5289.23
494.387	5407.19
494.757	5526.51
495.126	5573.51
495.496	5658.26
495.866	5721.3
496.235	5845.82
496.605	5946.16
496.974	6019.6
497.344	6131.69
497.713	6245.58
498.082	6322.19
498.452	6389.31
498.821	6479.7
499.19	6524.67
499.559	6622.07
499.928	6754.27
500.298	6784.78
500.667	6873.14
501.036	6937.54
501.405	7036.3
501.774	7094.83
502.143	7194.94
502.512	7213.92
502.88	7389.74
503.249	7418.43
503.618	7496.4
503.987	7576.62
504.356	7668.6
504.724	7674.7
505.093	7786.33
505.462	7833.57
505.83	7881.47
506.199	8008.93
506.567	8074.69
506.936	8167.34
507.304	8288.92
507.672	8268.13
508.041	8408.47
508.409	8462.7
508.777	8539.08
509.145	8591.51
509.514	8653.88
509.882	8741.11
510.25	8714.45
510.618	8868.34
510.986	8849.13
511.354	8960.32
511.722	9090.26
512.09	9153.3
512.458	9113.98
512.826	9295.22
513.193	9320.76
513.561	9338.38
513.929	9444.37
514.297	9539.74
514.664	9572.28
515.032	9640.52
515.4	9767.07
515.767	9749.22
516.135	9814.53
516.502	9748.54
516.869	9936.56
517.237	9978.82
517.604	9995.54
517.972	10189.44
518.339	10150.57
518.706	10207.29
519.073	10285.25
519.44	10338.13
519.808	10495.42
520.175	10488.18
520.542	10565.92
520.909	10677.33
521.276	10628.52
521.643	10814.28
522.009	10818.57
522.376	10882.52
522.743	10948.51
523.11	11017.89
523.477	11104.67
523.843	11124.78
524.21	11252.46
524.577	11416.07
524.943	11371.55
525.31	11466.92
525.676	11540.13
526.043	11677.53
526.409	11676.85
526.776	11864.19
527.142	11854.48
527.508	12014.02
527.874	12025.09
528.241	12038.43
528.607	12052.89
528.973	12251.08
529.339	12262.83
529.705	12411.52
530.071	12490.62
530.437	12499.88
530.803	12571.29
531.169	12692.87
531.535	12686.77
531.901	12790.95
532.267	12801.34
532.632	12869.14
532.998	12861
533.364	12988.23
533.73	13041.56
534.095	13175.57
534.461	13194.78
534.826	13209.02
535.192	13305.06
535.557	13378.96
535.923	13398.84
536.288	13456.69
536.653	13492.4
537.019	13559.74
537.384	13606.52
537.749	13702.79
538.114	13693.98
538.479	13732.62
538.845	13824.37
539.21	13812.17
539.575	13838.38
539.94	13919.05
540.305	14013.52
540.67	13998.37
541.034	14021.65
541.399	14126.73
541.764	14175.09
542.129	14193.85
542.494	14366.05
542.858	14395.65
543.223	14389.33
543.587	14494.18
543.952	14495.31
544.316	14538.02
544.681	14592.94
545.045	14696.89
545.41	14727.4
545.774	14781.18
546.138	14849.65
546.503	14839.71
546.867	14874.51
547.231	14999.93
547.595	15006.03
547.959	15167.16
548.324	15073.15
548.688	15192.24
549.052	15142.53
549.416	15266.59
549.779	15322.41
550.143	15352.24
550.507	15475.85
550.871	15629.74
551.235	15467.71
551.599	15586.13
551.962	15663.42
552.326	15646.92
552.689	15828.38
553.053	15781.15
553.417	15789.29
553.78	15981.15
554.143	15984.09
554.507	16033.58
554.87	16028.15
555.234	16202.16
555.597	16187.47
555.96	16280.8
556.323	16282.83
556.686	16254.36
557.05	16426.79
557.413	16519.21
557.776	16469.95
558.139	16535.94
558.502	16625.42
558.865	16626.33
559.228	16855.25
559.59	16835.14
559.953	16916.72
560.316	16974.12
560.679	17087.33
561.041	17191.96
561.404	17192.64
561.767	17352.18
562.129	17289.81
562.492	17436.93
562.854	17403.26
563.217	17406.19
563.579	17524.61
563.941	17606.64
564.304	17716.7
564.666	17737.71
565.028	17835.79
565.39	17858.84
565.753	17974.99
566.115	18102.67
566.477	18070.81
566.839	18133.18
567.201	18317.36
567.563	18348.32
567.925	18414.98
568.287	18440.07
568.648	18472.16
569.01	18592.83
569.372	18738.59
569.734	18581.08
570.095	18821.75
570.457	18875.08
570.819	18834.18
571.18	18970
571.542	19091.35
571.903	19141.06
572.265	19243.21
572.626	19229.88
572.987	19344
573.349	19425.58
573.71	19534.73
574.071	19614.95
574.432	19656.76
574.794	19827.6
575.155	19830.76
575.516	19794.15
575.877	19985.56
576.238	20117.99
576.599	20212.67
576.96	20329.96
577.32	20395.04
577.681	20553
578.042	20612.89
578.403	20737.86
578.763	20770.85
579.124	20906.44
579.485	21172.42
579.845	21341.68
580.206	21340.55
580.566	21397.5
580.927	21481.34
581.287	21633.43
581.648	21747.78
582.008	21962.01
582.368	22131.04
582.728	22273.19
583.089	22229.57
583.449	22503.24
583.809	22571.71
584.169	22663.46
584.529	22853.06
584.889	23218.25
585.249	23263.89
585.609	23398.13
585.969	23652.13
586.329	23781.17
586.688	23952.69
587.048	24043.31
587.408	24184.32
587.768	24349.52
588.127	24460.92
588.487	24727.81
588.846	24926.22
589.206	24903.17
589.565	25165.31
589.925	25401.01
590.284	25510.16
590.643	25724.62
591.003	25999.64
591.362	26206.42
591.721	26328.9
592.08	26485.05
592.44	26768.43
592.799	26879.84
593.158	26980.18
593.517	27245.71
593.876	27503.33
594.235	27419.94
594.593	27790.78
594.952	27990.78
595.311	28046.59
595.67	28296.98
596.029	28543.76
596.387	28868.49
596.746	29055.38
597.104	28925.44
597.463	29154.36
597.822	29498.08
598.18	29444.97
598.538	29524.75
598.897	29913.89
599.255	29739.88
599.613	30241.79
599.972	30333.99
600.33	30587.77
600.688	30560.88
601.046	30779.4
601.404	31008.32
601.762	31103.01
602.12	31415.54
602.478	31425.94
602.836	31590.23
603.194	31508.42
603.552	31877.45
603.91	31797.23
604.268	32229.76
604.625	32033.38
604.983	32303.88
605.341	32255.52
605.698	32524.44
606.056	32880.14
606.413	32895.05
606.771	32922.85
607.128	33129.17
607.485	33199.68
607.843	33161.71
608.2	33574.58
608.557	33771.19
608.914	33600.12
609.272	33966.66
609.629	34035.81
609.986	34168.24
610.343	34103.83
610.7	34545.41
611.057	34441.23
611.414	34453.2
611.771	34712.18
612.127	34817.04
612.484	34919.63
612.841	34991.04
613.198	34974.77
613.554	35185.61
613.911	35298.83
614.267	35436.23
614.624	35472.61
614.98	35539.28
615.337	35700.18
615.693	35779.95
616.05	35765.03
616.406	36039.38
616.762	35908.99
617.118	36047.96
617.475	36066.95
617.831	36301.74
618.187	36233.27
618.543	36263.55
618.899	36567.05
619.255	36604.11
619.611	36702.64
619.967	36813.59
620.323	36871.22
620.678	36783.09
621.034	36760.94
621.39	36798.68
621.746	36710.32
622.101	37239.57
622.457	36986.92
622.812	37003.19
623.168	37345.33
623.523	37162.29
623.879	37440.47
624.234	37296.29
624.589	37338.33
624.945	37465.1
625.3	37644.53
625.655	37573.12
626.01	37581.26
626.365	37708.71
626.72	37651.31
627.075	37536.29
627.43	37510.53
627.785	37547.59
628.14	37640.01
628.495	37706.45
628.85	37768.6
629.205	37641.14
629.559	38045.88
629.914	37803.62
630.269	37931.76
630.623	37723.63
630.978	37696.51
631.332	37766.11
631.687	37855.37
632.041	37850.4
632.396	37974.69
632.75	37821.48
633.104	37941.25
633.459	37720.69
633.813	37812.21
634.167	37665.78
634.521	37597.08
634.875	37807.92
635.229	37664.65
635.583	37680.46
635.937	37577.42
636.291	37549.85
636.645	37619.22
636.999	37547.59
637.352	37752.1
637.706	37566.57
638.06	37573.57
638.413	37485.89
638.767	37414.93
639.121	37523.63
639.474	37287.71
639.828	37416.97
640.181	37475.72
640.534	37375.16
640.888	37294.26
641.241	37254.03
641.594	37274.15
641.947	37403.41
642.301	37278.21
642.654	37387.14
643.007	37309.4
643.36	37189.18
643.713	37164.55
644.066	37311.89
644.419	37125.9
644.771	36785.35
645.124	36600.27
645.477	36428.97
645.83	36231.01
646.182	36184.68
646.535	36068.76
646.888	36164.57
647.24	35930.91
647.593	36020.85
647.945	36138.13
648.298	35981.07
648.65	35854.52
649.002	35740.63
649.355	35954.41
649.707	35920.96
650.059	35936.33
650.411	36489.76
650.763	36536.31
651.115	36763.65
651.467	36564.56
651.819	36603.43
652.171	36612.24
652.523	36658.8
652.875	36629.19
653.227	36571.57
653.578	36876.87
653.93	36643.66
654.282	36424.23
654.633	36318.47
654.985	36378.35
655.337	36479.82
655.688	36488.63
656.039	36631.68
656.391	36200.5
656.742	36357.11
657.094	36347.84
657.445	36448.18
657.796	36343.78
658.147	36409.09
658.498	36335.87
658.849	36354.4
659.2	36348.97
659.551	36334.51
659.902	36510.55
660.253	36306.04
660.604	36392.14
660.955	36148.07
661.306	36331.35
661.656	36238.02
662.007	36264.23
662.358	36279.37
662.708	36145.36
663.059	36252.48
663.409	35973.84
663.76	36119.38
664.11	36025.59
664.461	36242.54
664.811	36180.16
665.161	36177.9
665.511	36080.05
665.862	36137.45
666.212	36131.58
666.562	36186.72
666.912	36151.69
667.262	36056.33
667.612	36134.74
667.962	36185.14
668.312	35968.87
668.662	36301.29
669.011	36202.31
669.361	35923.9
669.711	36050
670.06	36065.37
670.41	35937.01
670.76	35968.64
671.109	36100.62
671.459	35969.32
671.808	35959.61
672.157	35926.84
672.507	35888.42
672.856	35777.46
673.205	35971.13
673.554	35911.47
673.904	35778.59
674.253	35964.58
674.602	35911.02
674.951	35407.08
675.3	35249.12
675.649	35862.43
675.998	35785.82
676.346	35808.87
676.695	35887.29
677.044	35645.72
677.393	35664.47
677.741	35730.01
678.09	35649.56
678.438	35561.42
678.787	35627.41
679.135	35586.06
679.484	35320.53
679.832	35562.55
680.181	35307.87
680.529	35460.64
680.877	35209.79
681.225	35244.14
681.573	35569.33
681.922	35233.07
682.27	35141.1
682.618	35256.35
682.966	34883.93
683.314	35188.78
683.661	35060.19
684.009	34971.83
684.357	34700.43
684.705	34680.54
685.053	34751.28
685.4	34677.83
685.748	34499.98
686.095	34601.45
686.443	34503.37
686.79	34352.64
687.138	34378.63
687.485	34359.42
687.832	34336.37
688.18	34338.41
688.527	34232.42
688.874	34083.95
689.221	34116.26
689.568	34029.94
689.915	33870.62
690.262	33907.46
690.609	33821.13
690.956	33669.72
691.303	33605.77
691.65	33588.37
691.997	33483.06
692.344	33339.56
692.69	33306.57
693.037	33375.27
693.383	33014.82
693.73	33139.11
694.077	32890.31
694.423	33020.47
694.769	32895.73
695.116	32832.68
695.462	32797.65
695.808	32719.46
696.155	32694.61
696.501	32445.8
696.847	32524.44
697.193	32105.7
697.539	32289.65
697.885	31982.76
698.231	31926.27
698.577	31954.51
698.923	31917
699.269	31845.36
699.614	31699.38
699.96	31587.74
700.306	31618.7
700.651	31448.31
700.997	31433.85
701.342	31263.91
701.688	31273.17
702.033	31210.58
702.379	31305.49
702.724	31008.1
703.069	31038.15
703.415	30757.93
703.76	30841.77
704.105	30728.78
704.45	30728.78
704.795	30482.24
705.14	30465.29
705.485	30486.53
705.83	30287.89
706.175	30276.36
706.52	30173.32
706.865	30141
707.209	30143.49
707.554	30058.52
707.899	30103.26
708.243	29969.03
708.588	29880.44
708.932	29722.03
709.277	29678.41
709.621	29646.55
709.966	29630.28
710.31	29633.67
710.654	29395.94
710.998	29415.82
711.342	29333.34
711.687	29291.98
712.031	29257.63
712.375	29094.48
712.719	29146.68
713.063	28955.04
713.407	29163.4
713.75	28932.9
714.094	28902.62
714.438	28745.33
714.782	28849.74
715.125	28671.66
715.469	28835.95
715.812	28638.67
716.156	28469.18
716.499	28608.61
716.843	28565.9
717.186	28334.72
717.53	28444.32
717.873	28367.04
718.216	28329.75
718.559	28243.88
718.902	28088.85
719.246	28124.78
719.589	27923.66
719.932	27950.55
720.275	27878.24
720.617	27964.11
720.96	27831.23
721.303	27763.21
721.646	27783.55
721.989	27618.58
722.331	27654.29
722.674	27543.1
723.016	27679.82
723.359	27623.55
723.701	27695.42
724.044	27468.98
724.386	27301.3
724.729	27435.76
725.071	27383.79
725.413	27348.31
725.755	27383.11
726.097	27194.86
726.439	26975.21
726.782	27052.04
727.124	27228.31
727.465	26918.49
727.807	27004.13
728.149	26920.07
728.491	26809.11
728.833	26889.34
729.175	26710.36
729.516	26735.67
729.858	26679.85
730.199	26697.93
730.541	26724.82
730.882	26650.92
731.224	26612.96
731.565	26495.22
731.906	26404.15
732.248	26606.86
732.589	26390.37
732.93	26289.8
733.271	26198.73
733.612	26339.97
733.953	26358.28
734.294	26163.93
734.635	26179.07
734.976	26134.55
735.317	25924.61
735.658	25999.64
735.999	26076.48
736.339	25820.66
736.68	25917.84
737.021	25856.59
737.361	25883.71
737.702	25844.84
738.042	25803.94
738.383	25680.1
738.723	25771.4
739.063	25645.3
739.404	25681.46
739.744	25550.61
740.084	25557.62
740.424	25591.97
740.764	25418.87
741.104	25589.93
741.444	25423.61
741.784	25347.91
742.124	25461.8
742.464	25384.52
742.804	25138.87
743.143	25188.82
743.483	25262.71
743.823	25116.5
744.162	25155.37
744.502	25111.3
744.841	24973.91
745.181	25233.33
745.52	24978.88
745.86	24972.55
746.199	25026.79
746.538	24845.32
746.877	24857.52
747.216	24867.69
747.556	24781.14
747.895	24760.35
748.234	24749.73
748.573	24742.5
748.911	24689.17
749.25	24570.53
749.589	24482.62
749.928	24523.75
750.267	24587.02
750.605	24532.11
750.944	24504.31
751.283	24358.78
751.621	24344.54
751.96	24207.15
752.298	24255.73
752.636	24330.76
752.975	24114.95
753.313	24119.46
753.651	24117.2
753.989	23958.79
754.327	23983.2
754.666	23843.31
755.004	23931
755.342	23921.05
755.679	23820.72
756.017	23724.22
756.355	23734.16
756.693	23621.62
757.031	23650.78
757.368	23471.8
757.706	23422.31
758.044	23377.11
758.381	23335.3
758.719	23292.37
759.056	23262.99
759.394	23214.4
759.731	23099.83
760.068	23087.85
760.405	22946.16
760.743	22829.33
761.08	22906.16
761.417	22735.77
761.754	22834.3
762.091	22670.01
762.428	22639.5
762.765	22515.21
763.102	22544.82
763.438	22386.4
763.775	22437.93
764.112	22311.83
764.449	22343.47
764.785	22282
765.122	22085.62
765.458	21991.39
765.795	22058.95
766.131	21996.81
766.467	21941.22
766.804	21875.23
767.14	21631.39
767.476	21648.8
767.812	21530.83
768.148	21637.04
768.485	21437.95
768.821	21211.29
769.157	21181.24
769.492	21215.36
769.828	21140.56
770.164	21061.92
770.5	20933.56
770.836	20878.87
771.171	20849.04
771.507	20771.98
771.842	20704.41
772.178	20614.92
772.513	20572.67
772.849	20537.19
773.184	20454.7
773.519	20392.33
773.855	20260.58
774.19	20276.63
774.525	20236.4
774.86	20197.76
775.195	20109.17
775.53	19928.61
775.865	19898.33
776.2	19733.59
776.535	19672.35
776.87	19706.25
777.205	19555.74
777.539	19423.09
777.874	19493.37
778.209	19329.99
778.543	19345.35
778.878	19178.8
779.212	19292.47
779.547	19125.25
779.881	19199.37
780.215	18991.92
780.55	19042.76
780.884	18825.14
781.218	18848.64
781.552	18799.83
781.886	18655.65
782.22	18666.5
782.554	18571.36
782.888	18233.07
783.222	18272.16
783.556	18254.31
783.889	18220.41
784.223	18041.43
784.557	18084.6
784.89	18195.33
785.224	17840.31
785.557	17871.72
785.891	17711.05
786.224	17739.52
786.558	17802.79
786.891	17548.34
787.224	17449.13
787.557	17482.8
787.891	17344.73
788.224	17370.26
788.557	17425.86
788.89	17326.2
789.223	17249.59
789.556	17159.65
789.888	17081.68
790.221	17041.68
790.554	16929.37
790.887	16884.63
791.219	16825.65
791.552	16875.59
791.884	16803.27
792.217	16711.52
792.549	16615.03
792.882	16567.12
793.214	16551.08
793.546	16474.47
793.879	16382.49
794.211	16272.89
794.543	16320.57
794.875	16216.85
795.207	16179.11
795.539	16218.88
795.871	16155.38
796.203	16030.64
796.535	15901.83
796.867	15920.81
797.198	15912.67
797.53	15813.24
797.862	15683.75
798.193	15749.97
798.525	15618.45
798.856	15652.34
799.188	15503.65
799.519	15410.32
799.85	15389.07
800.182	15370.09
800.513	15402.41
800.844	15255.06
801.175	15307.72
801.506	15293.26
801.837	15245.8
802.168	15131.9
802.499	15127.38
802.83	15010.1
803.161	15013.26
803.491	15013.49
803.822	14992.25
804.153	14947.73
804.483	14774.17
804.814	14714.51
805.145	14737.34
805.475	14743.89
805.805	14559.94
806.136	14660.96
806.466	14656.66
806.796	14608.98
807.126	14452.6
807.457	14403.34
807.787	14438.59
808.117	14432.26
808.447	14286.95
808.777	14409.21
809.107	14236.11
809.436	14246.73
809.766	14203.79
810.096	14140.74
810.426	14108.2
810.755	14118.37
811.085	14089.67
811.414	13971.93
811.744	13959.05
812.073	13942.78
812.403	13797.7
812.732	13823.24
813.061	13729.23
813.39	13759.51
813.719	13684.48
814.049	13774.65
814.378	13618.05
814.707	13584.37
815.036	13608.55
815.365	13588.22
815.693	13321.33
816.022	13429.12
816.351	13346.87
816.68	13288.11
817.008	13306.87
817.337	13247.43
817.665	13244.04
817.994	13248.34
818.322	13176.48
818.651	13174.44
818.979	13131.05
819.307	13180.54
819.636	13172.18
819.964	13013.54
820.292	13119.75
820.62	13068.68
820.948	13023.71
821.276	12988.68
821.604	12943.26
821.932	13048.34
822.259	12968.8
822.587	12988.46
822.915	12992.07
823.243	12946.43
823.57	12957.27
823.898	12917.27
824.225	12872.98
824.553	12924.73
824.88	12838.18
825.207	12895.13
825.535	12945.52
825.862	12972.19
826.189	12871.62
826.516	12901.23
826.843	12978.51
827.17	12885.86
827.497	12948.46
827.824	12950.04
828.151	12976.03
828.478	12917.05
828.805	12976.03
829.131	12905.52
829.458	12869.59
829.785	12828.91
830.111	12875.69
830.438	12929.93
830.764	12807.67
831.09	12882.92
831.417	12878.4
831.743	12872.3
832.069	12857.39
832.395	12861.46
832.722	12849.7
833.048	12768.12
833.374	12771.06
833.7	12741.68
834.026	12739.42
834.351	12844.05
834.677	12722.02
835.003	12802.7
835.329	12777.62
835.654	12746.43
835.98	12690.84
836.306	12672.99
836.631	12595.7
836.956	12657.85
837.282	12624.17
837.607	12589.15
837.932	12562.25
838.258	12580.79
838.583	12545.53
838.908	12458.3
839.233	12477.51
839.558	12470.28
839.883	12456.04
840.208	12331.07
840.533	12398.64
840.858	12402.26
841.182	12395.25
841.507	12373.11
841.832	12331.53
842.156	12219.66
842.481	12277.06
842.805	12266.67
843.13	12257.86
843.454	12167.46
843.778	12125.43
844.103	12091.76
844.427	12019.44
844.751	12041.82
845.075	11939.67
845.399	12033
845.723	11986.22
846.047	11939.9
846.371	11784.65
846.695	11868.26
847.019	11754.14
847.343	11687.25
847.666	11633.69
847.99	11558.44
848.313	11552.11
848.637	11569.96
848.96	11531.1
849.284	11463.3
849.607	11436.18
849.931	11373.81
850.254	11257.2
850.577	11145.12
850.9	11096.76
851.223	11170.43
851.546	11007.27
851.869	11042.29
852.192	11069.64
852.515	11027.83
852.838	10914.39
853.161	10901.06
853.483	10891.56
853.806	10836.65
854.129	10753.04
854.451	10748.74
854.774	10763.43
855.096	10682.53
855.419	10658.58
855.741	10608.86
856.063	10492.48
856.385	10497.45
856.708	10489.09
857.03	10525.25
857.352	10451.58
857.674	10475.08
857.996	10363.44
858.318	10296.55
858.64	10333.16
858.961	10340.17
859.283	10296.1
859.605	10208.64
859.926	10282.99
860.248	10198.93
860.57	10178.81
860.891	10160.96
861.212	10134.97
861.534	10155.99
861.855	10047.52
862.176	10047.52
862.498	10140.85
862.819	10048.42
863.14	10043.68
863.461	9960.06
863.782	9944.92
864.103	9989.44
864.424	9923.91
864.745	9951.7
865.065	9911.02
865.386	9812.04
865.707	9813.4
866.027	9852.95
866.348	9823.34
866.668	9781.08
866.989	9780.18
867.309	9738.83
867.63	9698.6
867.95	9693.63
868.27	9627.42
868.59	9639.17
868.91	9616.34
869.23	9568.21
869.55	9537.93
869.87	9677.36
870.19	9558.27
870.51	9586.51
870.83	9464.48
871.15	9491.15
871.469	9478.49
871.789	9549
872.109	9515.78
872.428	9429.91
872.748	9468.55
873.067	9497.7
873.386	9526.4
873.706	9465.61
874.025	9411.6
874.344	9393.07
874.663	9380.64
874.982	9378.84
875.301	9402.34
875.62	9337.25
875.939	9312.62
876.258	9324.37
876.577	9295
876.896	9287.31
877.214	9216.35
877.533	9228.78
877.852	9223.59
878.17	9215.68
878.489	9227.65
878.807	9251.61
879.125	9154.21
879.444	9097.71
879.762	9137.71
880.08	9204.15
880.398	9077.37
880.716	9192.17
881.034	9054.78
881.352	9034.66
881.67	9098.84
881.988	9077.83
882.306	8987.89
882.624	9008
882.941	8944.04
883.259	8890.71
883.577	8916.02
883.894	8890.03
884.212	8921.67
884.529	8810.26
884.846	8801.45
885.164	8802.58
885.481	8802.13
885.798	8782.47
886.115	8721
886.432	8731.17
886.75	8758.96
887.067	8722.58
887.383	8593.09
887.7	8688.23
888.017	8609.59
888.334	8617.27
888.651	8571.62
888.967	8531.63
889.284	8486.2
889.6	8556.48
889.917	8419.54
890.233	8449.82
890.55	8390.39
890.866	8452.76
891.182	8416.6
891.498	8407.34
891.815	8303.38
892.131	8301.35
892.447	8287.56
892.763	8279.88
893.079	8221.35
893.395	8222.03
893.71	8204.85
894.026	8170.73
894.342	8166.21
894.657	8123.73
894.973	8127.12
895.289	8127.34
895.604	8103.16
895.92	8020.68
896.235	7968.93
896.55	7935.71
896.865	7938.2
897.181	7899.55
897.496	7933.9
897.811	7921.7
898.126	7828.14
898.441	7782.04
898.756	7827.69
899.071	7789.05
899.386	7743.4
899.7	7629.05
900.015	7652.55
900.33	7585.66
900.644	7615.49
900.959	7672.89
901.273	7594.48
901.588	7557.41
901.902	7504.08
902.216	7437.42
902.531	7432.67
902.845	7448.04
903.159	7373.46
903.473	7385.22
903.787	7308.38
904.101	7321.04
904.415	7311.77
904.729	7318.32
905.042	7265.22
905.356	7166.69
905.67	7129.63
905.984	7170.98
906.297	7121.72
906.611	7091.44
906.924	7054.15
907.237	7050.08
907.551	7046.02
907.864	6991.78
908.177	6968.96
908.491	6913.36
908.804	6912.01
909.117	6906.13
909.43	6799.24
909.743	6838.56
910.056	6814.83
910.368	6744.55
910.681	6768.06
910.994	6735.97
911.307	6714.05
911.619	6619.81
911.932	6663.88
912.244	6612.58
912.557	6606.48
912.869	6589.76
913.181	6511.57
913.494	6499.81
913.806	6510.66
914.118	6469.99
914.43	6452.81
914.742	6433.6
915.054	6352.02
915.366	6310.89
915.678	6321.74
915.99	6265.47
916.302	6267.96
916.613	6205.59
916.925	6213.95
917.236	6196.32
917.548	6157.9
917.859	6138.24
918.171	6148.64
918.482	6101.86
918.794	6122.42
919.105	6038.36
919.416	5993.16
919.727	5944.58
920.038	5978.7
920.349	5942.32
920.66	5920.17
920.971	5903.45
921.282	5874.97
921.593	5830.45
921.903	5772.83
922.214	5796.33
922.525	5763.56
922.835	5752.26
923.146	5701.87
923.456	5700.06
923.767	5663.9
924.077	5654.19
924.387	5645.15
924.697	5607.64
925.008	5576.45
925.318	5555.88
925.628	5540.52
925.938	5545.94
926.248	5462.55
926.558	5488.32
926.867	5433.4
927.177	5370.35
927.487	5376.91
927.796	5373.06
928.106	5344.82
928.416	5353.63
928.725	5319.06
929.034	5260.3
929.344	5291.03
929.653	5315.67
929.962	5249
930.271	5186.4
930.581	5197.7
930.89	5171.94
931.199	5101.43
931.508	5134.88
931.817	5118.83
932.125	5050.81
932.434	5020.98
932.743	5022.34
933.051	4990.25
933.36	4987.09
933.669	4950.25
933.977	4900.99
934.286	4914.77
934.594	4871.38
934.902	4882.23
935.21	4844.72
935.519	4816.24
935.827	4820.09
936.135	4784.15
936.443	4800.88
936.751	4777.15
937.059	4710.94
937.367	4660.09
937.674	4722.23
937.982	4686.76
938.29	4651.95
938.597	4684.27
938.905	4568.79
939.213	4573.31
939.52	4541
939.827	4600.43
940.135	4524.05
940.442	4511.17
940.749	4474.56
941.056	4494.22
941.363	4469.59
941.67	4458.74
941.977	4369.48
942.284	4444.5
942.591	4391.4
942.898	4364.05
943.205	4336.48
943.511	4324.28
943.818	4294.9
944.125	4261.68
944.431	4242.25
944.738	4226.88
945.044	4217.62
945.35	4204.96
945.657	4183.72
945.963	4183.27
946.269	4159.31
946.575	4188.24
946.881	4137.17
947.187	4102.36
947.493	4053.33
947.799	4107.34
948.105	4033.67
948.41	4016.04
948.716	4030.05
949.022	4048.81
949.327	3995.7
949.633	3960.9
949.938	3953.22
950.244	3927.23
950.549	3907.57
950.854	3929.49
951.16	3883.84
951.465	3873.44
951.77	3858.08
952.075	3874.8
952.38	3817.4
952.685	3756.61
952.99	3792.32
953.294	3774.69
953.599	3781.47
953.904	3766.1
954.209	3737.4
954.513	3714.58
954.818	3687.46
955.122	3710.74
955.426	3640.91
955.731	3638.42
956.035	3623.73
956.339	3637.74
956.643	3599.55
956.948	3538.08
957.252	3565.88
957.556	3559.78
957.86	3540.12
958.163	3551.19
958.467	3518.88
958.771	3519.78
959.075	3522.49
959.378	3478.88
959.682	3501.02
959.985	3439.56
960.289	3454.7
960.592	3418.54
960.896	3392.1
961.199	3379.67
961.502	3357.52
961.805	3362.95
962.108	3317.3
962.411	3334.25
962.714	3296.74
963.017	3310.52
963.32	3276.17
963.623	3288.15
963.926	3254.93
964.228	3217.87
964.531	3201.82
964.833	3215.38
965.136	3166.12
965.438	3167.7
965.741	3127.7
966.043	3158.89
966.345	3149.39
966.648	3089.74
966.95	3099.23
967.252	3050.87
967.554	3066.91
967.856	3069.62
968.158	3047.48
968.46	3044.54
968.761	3038.44
969.063	3025.56
969.365	2988.04
969.666	2983.75
969.968	2991.21
970.269	2944.88
970.571	2958.44
970.872	2981.04
971.174	2912.34
971.475	2925.67
971.776	2925.22
972.077	2905.33
972.378	2880.25
972.679	2849.52
972.98	2862.85
973.281	2857.2
973.582	2835.5
973.883	2851.32
974.183	2837.09
974.484	2800.93
974.785	2727.26
975.085	2803.19
975.386	2765
975.686	2734.04
975.986	2739.24
976.287	2699.01
976.587	2696.3
976.887	2700.14
977.187	2679.12
977.487	2702.4
977.787	2632.57
978.087	2668.96
978.387	2619.69
978.687	2640.48
978.987	2622.4
979.286	2623.76
979.586	2577.43
979.885	2628.96
980.185	2592.35
980.484	2541.95
980.784	2579.47
981.083	2540.6
981.382	2523.87
981.682	2539.02
981.981	2524.33
982.28	2511.9
982.579	2459.7
982.878	2471.67
983.177	2482.75
983.475	2479.13
983.774	2455.4
984.073	2422.63
984.372	2426.25
984.67	2409.53
984.969	2392.58
985.267	2424.89
985.566	2393.03
985.864	2355.97
986.162	2363.43
986.461	2376.99
986.759	2352.13
987.057	2320.04
987.355	2315.97
987.653	2334.05
987.951	2268.29
988.249	2296.08
988.547	2263.32
988.844	2267.16
989.142	2248.63
989.44	2260.83
989.737	2250.44
990.035	2214.05
990.332	2207.72
990.63	2182.41
990.927	2191.91
991.224	2206.14
991.521	2194.84
991.819	2178.35
992.116	2162.75
992.413	2132.25
992.71	2111.46
993.006	2118.46
993.303	2160.04
993.6	2097.9
993.897	2104.68
994.193	2116.43
994.49	2079.14
994.787	2044.11
995.083	2040.72
995.379	2056.09
995.676	2034.62
995.972	2003.21
996.268	2024.23
996.565	2012.25
996.861	1996.88
997.157	1999.14
997.453	1987.62
997.749	1982.87
998.044	1969.76
998.34	1942.42
998.636	1943.78
998.932	1932.7
999.227	1940.61
999.523	1922.08
999.818	1916.43
1000.114	1898.58
1000.409	1897.45
1000.704	1864.46
1001	1896.55
1001.295	1826.27
1001.59	1839.15
1001.885	1850.67
1002.18	1827.17
1002.475	1836.21
1002.77	1812.48
1003.065	1794.85
1003.359	1805.93
1003.654	1779.49
1003.949	1780.84
1004.243	1749.88
1004.538	1790.11
1004.832	1731.8
1005.127	1738.81
1005.421	1723.67
1005.715	1728.19
1006.009	1680.28
1006.304	1701.98
1006.598	1679.83
1006.892	1696.33
1007.186	1678.02
1007.48	1671.92
1007.773	1663.78
1008.067	1667.63
1008.361	1641.19
1008.655	1592.15
1008.948	1622.2
1009.242	1588.76
1009.535	1601.41
1009.829	1594.86
1010.122	1563.67
1010.415	1591.24
1010.708	1569.1
1011.001	1559.83
1011.295	1567.52
1011.588	1531.36
1011.881	1517.57
1012.173	1511.25
1012.466	1491.59
1012.759	1488.65
1013.052	1496.78
1013.344	1502.88
1013.637	1506.27
1013.93	1451.36
1014.222	1453.39
1014.514	1477.8
1014.807	1458.37
1015.099	1450.91
1015.391	1448.2
1015.683	1404.58
1015.976	1415.65
1016.268	1383.11
1016.56	1378.59
1016.851	1388.99
1017.143	1370.68
1017.435	1382.66
1017.727	1383.11
1018.018	1366.39
1018.31	1344.24
1018.602	1324.81
1018.893	1326.84
1019.185	1303.79
1019.476	1306.51
1019.767	1284.36
1020.058	1312.38
1020.35	1316.67
1020.641	1249.78
1020.932	1267.64
1021.223	1269.22
1021.514	1288.2
1021.804	1257.47
1022.095	1249.11
1022.386	1248.2
1022.677	1241.42
1022.967	1225.83
1023.258	1196.23
1023.548	1201.88
1023.839	1197.58
1024.129	1170.92
1024.419	1199.62
1024.709	1141.54
1025	1164.59
1025.29	1154.42
1025.58	1169.33
1025.87	1132.72
1026.16	1156.9
1026.449	1139.73
1026.739	1116.45
1027.029	1110.58
1027.319	1116.68
1027.608	1117.13
1027.898	1106.74
1028.187	1088.43
1028.477	1087.08
1028.766	1060.41
1029.055	1055.89
1029.344	1066.74
1029.634	1064.25
1029.923	1065.38
1030.212	1029.22
1030.501	1021.31
1030.79	1042.11
1031.078	1021.77
1031.367	1019.96
1031.656	1019.51
1031.945	993.97
1032.233	1008.89
1032.522	1023.35
1032.81	970.02
1033.099	969.34
1033.387	960.98
1033.675	977.47
1033.963	986.29
1034.251	967.31
1034.54	939.74
1034.828	956.46
1035.116	944.25
1035.403	932.73
1035.691	923.24
1035.979	943.35
1036.267	897.48
1036.554	911.04
1036.842	902.9
1037.129	907.19
1037.417	903.58
1037.704	907.87
1037.992	902.9
1038.279	870.58
1038.566	870.58
1038.853	870.58
1039.14	870.58
