Data from hue_32_FLMS001491_00003.txt Node
Date: Tue Feb 07 17:22:49 GMT 2017
User: dcchb
Spectrometer: FLMS00149
Trigger mode: 0
Integration Time (sec): 2.000000E-2
Scans to average: 10
Electric dark correction enabled: true
Nonlinearity correction enabled: false
Boxcar width: 0
XAxis mode: Wavelengths
Number of Pixels in Spectrum: 2048
>>>>>Begin Spectral Data<<<<<
341.393	-13.63
341.776	-13.63
342.16	-13.63
342.543	-63.35
342.927	-56.11
343.31	-79.39
343.693	-68.77
344.077	-57.02
344.46	-56.57
344.843	-44.82
345.226	-63.12
345.61	-33.74
345.993	-25.83
346.376	-12.95
346.759	4.9
347.142	39.7
347.525	67.5
347.908	55.07
348.291	78.35
348.674	91.9
349.057	104.79
349.44	128.97
349.823	153.6
350.206	196.08
350.588	199.02
350.971	211
351.354	211
351.737	241.73
352.119	262.97
352.502	262.52
352.884	260.94
353.267	289.19
353.65	311.11
354.032	306.14
354.414	314.05
354.797	303.2
355.179	331.45
355.562	321.28
355.944	338.9
356.326	340.71
356.709	355.4
357.091	332.12
357.473	367.83
357.855	336.64
358.238	346.81
358.62	347.94
359.002	345.23
359.384	361.05
359.766	342.52
360.148	350.88
360.53	331.22
360.912	341.62
361.294	317.89
361.676	349.75
362.057	325.12
362.439	340.26
362.821	311.33
363.203	348.62
363.584	327.15
363.966	316.31
364.348	347.49
364.729	337.32
365.111	326.02
365.493	325.34
365.874	330.77
366.256	319.69
366.637	335.51
367.019	328.96
367.4	339.36
367.781	323.76
368.163	293.26
368.544	314.27
368.925	317.21
369.306	319.02
369.688	331.67
370.069	308.17
370.45	347.26
370.831	313.37
371.212	336.64
371.593	308.62
371.974	331.22
372.355	325.34
372.736	320.6
373.117	328.73
373.498	318.79
373.879	323.08
374.26	315.63
374.641	328.06
375.021	318.34
375.402	323.99
375.783	349.98
376.163	339.36
376.544	348.85
376.925	340.49
377.305	324.21
377.686	337.1
378.066	323.31
378.447	344.78
378.827	337.77
379.208	340.94
379.588	333.93
379.968	340.94
380.349	354.95
380.729	335.29
381.109	361.28
381.489	334.16
381.87	362.63
382.25	350.43
382.63	340.71
383.01	339.58
383.39	354.95
383.77	344.55
384.15	355.4
384.53	341.39
384.91	358.34
385.29	344.33
385.67	364.44
386.049	360.15
386.429	364.21
386.809	361.28
387.189	362.63
387.568	372.8
387.948	366.93
388.328	373.7
388.707	379.13
389.087	362.86
389.466	378.22
389.846	365.57
390.225	381.16
390.605	373.7
390.984	378.45
391.363	382.74
391.743	396.76
392.122	351.33
392.501	380.94
392.881	380.48
393.26	385.68
393.639	361.28
394.018	384.55
394.397	386.36
394.776	384.55
395.155	389.52
395.534	387.49
395.913	387.26
396.292	389.3
396.671	386.59
397.05	391.78
397.429	382.29
397.808	407.6
398.186	402.63
398.565	404.21
398.944	400.37
399.323	390.2
399.701	410.99
400.08	400.82
400.458	382.74
400.837	422.07
401.215	420.26
401.594	411.67
401.972	429.07
402.351	414.83
402.729	425.91
403.107	416.87
403.486	418.9
403.864	432.23
404.242	433.36
404.62	445.34
404.999	427.04
405.377	455.06
405.755	425
406.133	434.49
406.511	434.27
406.889	429.97
407.267	443.76
407.645	464.78
408.023	454.61
408.401	459.13
408.779	457.09
409.156	467.94
409.534	462.29
409.912	457.32
410.29	478.79
410.667	474.04
411.045	460.26
411.422	473.59
411.8	479.46
412.178	465
412.555	485.57
412.933	479.24
413.31	504.55
413.687	509.75
414.065	486.24
414.442	476.08
414.819	507.03
415.197	510.65
415.574	503.19
415.951	506.36
416.328	506.81
416.705	511.1
417.082	494.83
417.46	512.68
417.837	536.86
418.214	513.14
418.591	512.01
418.967	527.37
419.344	519.46
419.721	537.99
420.098	520.14
420.475	538.9
420.852	534.38
421.228	533.02
421.605	550.2
421.982	541.16
422.358	556.52
422.735	561.72
423.111	555.4
423.488	561.27
423.864	559.91
424.241	587.71
424.617	580.03
424.994	580.03
425.37	562.4
425.746	592.46
426.123	581.61
426.499	578.67
426.875	614.83
427.251	605.56
427.627	609.63
428.003	613.02
428.379	610.08
428.756	643.53
429.132	636.75
429.507	631.1
429.883	627.71
430.259	654.83
430.635	641.72
431.011	655.96
431.387	671.32
431.763	655.96
432.138	671.1
432.514	688.5
432.89	672.68
433.265	702.06
433.641	677.43
434.016	677.65
434.392	685.79
434.767	674.71
435.143	712.45
435.518	729.4
435.894	696.63
436.269	722.62
436.644	720.81
437.02	705.9
437.395	744.54
437.77	751.77
438.145	753.81
438.52	744.32
438.895	781.15
439.271	764.43
439.646	767.59
440.021	779.8
440.395	781.6
440.77	794.03
441.145	780.02
441.52	782.06
441.895	787.93
442.27	824.31
442.645	802.62
443.019	798.55
443.394	839.68
443.769	824.54
444.143	832.22
444.518	839.46
444.892	816.63
445.267	820.92
445.641	843.97
446.016	828.16
446.39	835.16
446.764	840.36
447.139	858.21
447.513	851.21
447.887	867.93
448.262	870.87
448.636	858.66
449.01	885.1
449.384	893.24
449.758	869.96
450.132	865.22
450.506	888.95
450.88	896.4
451.254	902.28
451.628	908.83
452.002	909.96
452.376	956.06
452.75	956.97
453.123	961.03
453.497	955.84
453.871	983.41
454.244	982.73
454.618	971.43
454.992	988.38
455.365	1005.33
455.739	999
456.112	996.97
456.486	1033.57
456.859	1023.41
457.232	1052.56
457.606	1052.78
457.979	1071.54
458.352	1076.96
458.725	1091.2
459.099	1109.73
459.472	1109.05
459.845	1147.92
460.218	1114.02
460.591	1112.22
460.964	1157.19
461.337	1174.14
461.71	1179.79
462.083	1222.72
462.456	1192.67
462.829	1221.37
463.201	1222.5
463.574	1257.3
463.947	1259.11
464.32	1274.92
464.692	1284.64
465.065	1310.63
465.438	1323.74
465.81	1333.45
466.183	1353.79
466.555	1365.32
466.928	1397.41
467.3	1403.06
467.672	1416.39
468.045	1428.37
468.417	1444.64
468.789	1476.05
469.161	1473.11
469.534	1520.34
469.906	1537.74
470.278	1581.36
470.65	1575.03
471.022	1604.86
471.394	1657.06
471.766	1665.42
472.138	1661.13
472.51	1723.73
472.882	1770.5
473.253	1776.15
473.625	1798.3
473.997	1824.51
474.369	1878.07
474.74	1901.35
475.112	1925.53
475.484	1936.6
475.855	2002.59
476.227	2026.77
476.598	2097.95
476.97	2119.2
477.341	2136.37
477.713	2226.99
478.084	2250.49
478.455	2297.5
478.827	2347.89
479.198	2437.61
479.569	2438.96
479.94	2560.31
480.311	2530.71
480.682	2631.95
481.053	2690.71
481.424	2773.87
481.795	2815.67
482.166	2880.08
482.537	2927.08
482.908	2992.85
483.279	3062.67
483.65	3151.71
484.021	3220.18
484.391	3301.54
484.762	3350.35
485.133	3402.78
485.503	3443.68
485.874	3540.85
486.244	3632.15
486.615	3691.81
486.985	3784.46
487.356	3904.46
487.726	3940.62
488.097	3995.3
488.467	4101.52
488.837	4239.82
489.207	4262.19
489.578	4376.31
489.948	4422.19
490.318	4532.69
490.688	4585.12
491.058	4720.26
491.428	4762.74
491.798	4849.07
492.168	4988.72
492.538	5028.72
492.908	5109.63
493.278	5168.16
493.648	5233.01
494.017	5407.47
494.387	5457.19
494.757	5497.19
495.126	5610.18
495.496	5639.33
495.866	5712.55
496.235	5795.71
496.605	5941.92
496.974	5966.78
497.344	6027.12
497.713	6151.63
498.082	6190.28
498.452	6298.75
498.821	6317.05
499.19	6401.79
499.559	6503.26
499.928	6492.87
500.298	6628.91
500.667	6723.59
501.036	6719.98
501.405	6847.21
501.774	6826.42
502.143	6919.07
502.512	6966.75
502.88	7095.56
503.249	7143.47
503.618	7184.37
503.987	7259.17
504.356	7307.08
504.724	7321.54
505.093	7379.4
505.462	7509.34
505.83	7528.32
506.199	7585.04
506.567	7732.61
506.936	7738.03
507.304	7863.23
507.672	7829.55
508.041	8000.62
508.409	7991.81
508.777	8044.24
509.145	8124.24
509.514	8110
509.882	8202.88
510.25	8244.91
510.618	8319.03
510.986	8333.5
511.354	8434.74
511.722	8480.84
512.09	8560.16
512.458	8517.22
512.826	8689.64
513.193	8682.64
513.561	8695.07
513.929	8774.61
514.297	8891
514.664	8914.05
515.032	8928.51
515.4	9070.65
515.767	9072.91
516.135	9115.62
516.502	9156.07
516.869	9298.22
517.237	9255.51
517.604	9343.64
517.972	9398.55
518.339	9440.13
518.706	9471.09
519.073	9510.19
519.44	9524.2
519.808	9608.26
520.175	9685.32
520.542	9745.44
520.909	9802.16
521.276	9772.78
521.643	9859.33
522.009	9926
522.376	10029.95
522.743	10068.59
523.11	10154.46
523.477	10231.3
523.843	10280.11
524.21	10347.23
524.577	10449.82
524.943	10514.68
525.31	10487.56
525.676	10627.9
526.043	10612.98
526.409	10707.22
526.776	10751.74
527.142	10895.46
527.508	10834.9
527.874	10939.98
528.241	11072.41
528.607	11084.61
528.973	11136.81
529.339	11100.88
529.705	11232.18
530.071	11390.82
530.437	11403.92
530.803	11544.48
531.169	11590.81
531.535	11634.65
531.901	11558.5
532.267	11613.86
532.632	11760.75
532.998	11738.38
533.364	11734.54
533.73	11891.14
534.095	11960.97
534.461	12057.47
534.826	12006.85
535.192	12145.15
535.557	12237.12
535.923	12145.82
536.288	12184.24
536.653	12323.45
537.019	12292.26
537.384	12362.09
537.749	12462.65
538.114	12495.87
538.479	12500.17
538.845	12592.14
539.21	12635.76
539.575	12672.36
539.94	12736.32
540.305	12855.18
540.67	12791.46
541.034	12789.2
541.399	12944.22
541.764	12954.39
542.129	13048.4
542.494	13001.4
542.858	13189.19
543.223	13072.81
543.587	13251.78
543.952	13230.54
544.316	13277.55
544.681	13283.65
545.045	13434.6
545.41	13482.74
545.774	13520.03
546.138	13555.51
546.503	13607.93
546.867	13641.38
547.231	13802.28
547.595	13797.53
547.959	13787.59
548.324	13759.79
548.688	13888.6
549.052	13921.37
549.416	13934.93
549.779	14016.96
550.143	14023.29
550.507	14190.06
550.871	14175.15
551.235	14172.66
551.599	14348.93
551.962	14298.99
552.326	14369.27
552.689	14394.81
553.053	14302.6
553.417	14399.1
553.78	14614.23
554.143	14542.15
554.507	14666.21
554.87	14665.53
555.234	14863.27
555.597	14776.72
555.96	14800.22
556.323	14940.55
556.686	14834.12
557.05	15021
557.413	15033.88
557.776	15095.13
558.139	15298.74
558.502	15170.83
558.865	15143.49
559.228	15269.81
559.59	15407.21
559.953	15495.12
560.316	15490.14
560.679	15505.28
561.041	15743.24
561.404	15726.07
561.767	15695.11
562.129	15736.01
562.492	15905.05
562.854	15954.09
563.217	15809.46
563.579	15966.74
563.941	15947.08
564.304	16023.46
564.666	16187.98
565.028	16253.74
565.39	16191.37
565.753	16281.31
566.115	16263.23
566.477	16492.6
566.839	16507.52
567.201	16534.64
567.563	16587.06
567.925	16734.86
568.287	16776.21
568.648	16746.61
569.01	16900.73
569.372	16991.12
569.734	17014.17
570.095	17130.33
570.457	17251.45
570.819	17175.07
571.18	17235.86
571.542	17399.92
571.903	17424.33
572.265	17418.45
572.626	17517.43
572.987	17541.84
573.349	17723.08
573.71	17704.55
574.071	17770.31
574.432	17944.54
574.794	18131.66
575.155	18098.66
575.516	18190.19
575.877	18324.42
576.238	18427.69
576.599	18485.32
576.96	18633.11
577.32	18681.7
577.681	18860
578.042	19029.49
578.403	19150.61
578.763	19123.49
579.124	19420.66
579.485	19565.29
579.845	19718.05
580.206	19757.6
580.566	19929.35
580.927	20055.45
581.287	20345.16
581.648	20366.85
582.008	20609.33
582.368	20721.64
582.728	21035.76
583.089	21132.26
583.449	21214.06
583.809	21481.62
584.169	21587.61
584.529	21773.37
584.889	22259.68
585.249	22267.37
585.609	22474.37
585.969	22842.72
586.329	22934.24
586.688	23238.19
587.048	23417.84
587.408	23613.55
587.768	23861.22
588.127	24109.35
588.487	24183.93
588.846	24660.75
589.206	24736.45
589.565	25014.41
589.925	25368.08
590.284	25512.03
590.643	25756.54
591.003	26062.07
591.362	26436.97
591.721	26554.49
592.08	26904.76
592.44	27282.6
592.799	27438.53
593.158	27697.73
593.517	27926.88
593.876	28184.95
594.235	28401.22
594.593	28665.84
594.952	29033.97
595.311	29183.34
595.67	29456.56
596.029	29803.44
596.387	30125.69
596.746	30296.08
597.104	30460.37
597.463	30633.93
597.822	31118.21
598.18	31206.79
598.538	31504.64
598.897	31897.62
599.255	31860.11
599.613	32510.94
599.972	32623.93
600.33	32789.58
600.688	32944.6
601.046	33353.85
601.404	33476.34
601.762	33733.51
602.12	33997
602.478	34185.7
602.836	34492.81
603.194	34520.83
603.552	34791.1
603.91	34714.27
604.268	35222.05
604.625	35223.64
604.983	35624.98
605.341	35651.2
605.698	35937.97
606.056	36230.62
606.413	36334.12
606.771	36519.87
607.128	36693.88
607.485	36837.15
607.843	37014.1
608.2	37376.35
608.557	37548.55
608.914	37478.72
609.272	37741.54
609.629	37969.33
609.986	38391.69
610.343	38270.79
610.7	38754.62
611.057	38661.51
611.414	38827.61
611.771	39022.18
612.127	39200.48
612.484	39265.79
612.841	39511.21
613.198	39591.88
613.554	39670.98
613.911	40065.77
614.267	40068.93
614.624	40066.45
614.98	40223.05
615.337	40559.77
615.693	40564.96
616.05	40625.75
616.406	41005.4
616.762	40878.85
617.118	40990.49
617.475	40992.3
617.831	41349.8
618.187	41248.56
618.543	41515.45
618.899	41711.38
619.255	41732.62
619.611	41655.33
619.967	41966.51
620.323	42108.88
620.678	42059.84
621.034	42003.34
621.39	42096.68
621.746	42181.42
622.101	42620.05
622.457	42418.7
622.812	42655.98
623.168	42714.74
623.523	42749.09
623.879	42885.58
624.234	42695.3
624.589	42902.08
624.945	42951.12
625.3	43091.68
625.655	43013.49
626.01	43188.4
626.365	43079.7
626.72	43214.16
627.075	43220.49
627.43	43197.66
627.785	43197.21
628.14	43321.95
628.495	43563.08
628.85	43445.34
629.205	43282.41
629.559	43596.98
629.914	43541.61
630.269	43601.27
630.623	43454.15
630.978	43416.87
631.332	43557.65
631.687	43734.82
632.041	43619.12
632.396	43648.73
632.75	43554.04
633.104	43608.73
633.459	43412.35
633.813	43419.8
634.167	43474.72
634.521	43566.69
634.875	43553.13
635.229	43450.09
635.583	43381.61
635.937	43285.8
636.291	43415.96
636.645	43418.9
636.999	43394.27
637.352	43480.82
637.706	43379.58
638.06	43481.5
638.413	43310.88
638.767	43162.64
639.121	43356.3
639.474	43202.86
639.828	43173.26
640.181	43312.91
640.534	43154.05
640.888	43107.95
641.241	42988.63
641.594	43306.81
641.947	43347.72
642.301	43166.03
642.654	43096.65
643.007	43121.28
643.36	43154.27
643.713	43145.24
644.066	43232.92
644.419	43062.07
644.771	42823.21
645.124	42301.42
645.477	42248.31
645.83	42061.2
646.182	41959.05
646.535	41757.02
646.888	41982.1
647.24	41721.32
647.593	42085.38
647.945	41843.8
648.298	41689.23
648.65	41530.36
649.002	41543.02
649.355	41819.85
649.707	41685.84
650.059	41982.33
650.411	42307.52
650.763	42439.49
651.115	42771.23
651.467	42512.94
651.819	42583.67
652.171	42642.42
652.523	42485.37
652.875	42516.78
653.227	42446.5
653.578	42493.28
653.93	42538.25
654.282	42369.44
654.633	42287.63
654.985	42435.42
655.337	42434.75
655.688	42387.06
656.039	42416.44
656.391	42189.55
656.742	42176.67
657.094	42293.51
657.445	42350.45
657.796	42233.4
658.147	42101.87
658.498	42219.61
658.849	42299.61
659.2	42098.03
659.551	42017.81
659.902	42238.37
660.253	42227.97
660.604	42383.45
660.955	42113.85
661.306	42184.36
661.656	41992.72
662.007	42168.99
662.358	42209.44
662.708	42111.14
663.059	42183.45
663.409	41777.36
663.76	42349.55
664.11	42095.77
664.461	42180.74
664.811	42131.7
665.161	42158.37
665.511	41983.68
665.862	42025.94
666.212	42084.47
666.562	42085.83
666.912	42017.58
667.262	41989.11
667.612	41978.26
667.962	41940.75
668.312	41882.67
668.662	42011.25
669.011	42021.2
669.361	41921.31
669.711	41932.84
670.06	41903.69
670.41	41905.27
670.76	41806.74
671.109	41909.79
671.459	41847.64
671.808	41771.03
672.157	41858.04
672.507	41693.3
672.856	41602.23
673.205	41646.29
673.554	41837.93
673.904	41750.92
674.253	41923.8
674.602	41668.66
674.951	41205.63
675.3	40985.97
675.649	41560.42
675.998	41618.5
676.346	41823.46
676.695	41741.66
677.044	41494.66
677.393	41438.16
677.741	41660.75
678.09	41290.37
678.438	41556.35
678.787	41494.21
679.135	41433.19
679.484	41286.98
679.832	41342.35
680.181	41170.6
680.529	41266.41
680.877	41168.34
681.225	41057.38
681.573	41223.7
681.922	40852.19
682.27	40878.63
682.618	40972.19
682.966	40806.09
683.314	40983.03
683.661	40752.98
684.009	40685.41
684.357	40523.61
684.705	40509.6
685.053	40663.04
685.4	40410.62
685.748	40390.28
686.095	40268.48
686.443	40267.57
686.79	40184.18
687.138	40275.48
687.485	40245.65
687.832	40091.08
688.18	40021.7
688.527	39835.72
688.874	39861.25
689.221	39683.63
689.568	39660.13
689.915	39672.33
690.262	39528.61
690.609	39437.54
690.956	39273.47
691.303	39401.83
691.65	39125.23
691.997	39220.82
692.344	38946.48
692.69	38924.78
693.037	38961.62
693.383	38530.44
693.73	38832.81
694.077	38520.72
694.423	38544
694.769	38479.14
695.116	38289.32
695.462	38256.1
695.808	38164.58
696.155	38257
696.501	38088.65
696.847	37925.26
697.193	37724.36
697.539	37811.82
697.885	37574.53
698.231	37516.01
698.577	37570.24
698.923	37551.26
699.269	37312.39
699.614	37215
699.96	36960.99
700.306	37038.28
700.651	36768.91
700.997	36683.48
701.342	36761.22
701.688	36607.55
702.033	36563.94
702.379	36504.96
702.724	36430.61
703.069	36474.9
703.415	36143.16
703.76	35971.64
704.105	36110.39
704.45	35955.82
704.795	35787.69
705.14	35793.56
705.485	35711.98
705.83	35500.92
706.175	35666.56
706.52	35387.25
706.865	35386.8
707.209	35442.16
707.554	35155.62
707.899	35305.44
708.243	34990.65
708.588	35183.64
708.932	34890.76
709.277	34898.45
709.621	34754.5
709.966	34741.16
710.31	34775.29
710.654	34421.62
710.998	34571
711.342	34354.51
711.687	34406.03
712.031	34284.9
712.375	34192.02
712.719	34195.19
713.063	34121.74
713.407	34240.16
713.75	33915.87
714.094	33968.98
714.438	33740.29
714.782	33876.33
715.125	33748.42
715.469	33688.08
715.812	33556.11
716.156	33467.52
716.499	33446.06
716.843	33425.94
717.186	33176.23
717.53	33467.52
717.873	33392.72
718.216	33165.84
718.559	33035.22
718.902	32861.44
719.246	32860.31
719.589	32902.12
719.932	32663.7
720.275	32734.66
720.617	32795.45
720.96	32710.71
721.303	32589.81
721.646	32594.33
721.989	32502.13
722.331	32529.02
722.674	32412.18
723.016	32491.96
723.359	32324.73
723.701	32436.36
724.044	32061.69
724.386	32019.88
724.729	32201.34
725.071	32006.55
725.413	32022.36
725.755	32043.38
726.097	31812.65
726.439	31754.8
726.782	31644.75
727.124	31836.15
727.465	31602.49
727.807	31848.58
728.149	31674.12
728.491	31607.23
728.833	31557.74
729.175	31420.12
729.516	31490.4
729.858	31353.91
730.199	31457.18
730.541	31322.27
730.882	31305.32
731.224	31352.55
731.565	31014.71
731.906	31026.68
732.248	31133.57
732.589	30999.79
732.93	30807.03
733.271	30917.31
733.612	30942.39
733.953	30884.09
734.294	30738.1
734.635	30700.14
734.976	30757.54
735.317	30623.3
735.658	30704.88
735.999	30518.22
736.339	30524.55
736.68	30523.87
737.021	30446.81
737.361	30391.9
737.702	30443.87
738.042	30381.5
738.383	30327.04
738.723	30416.08
739.063	30240.72
739.404	30288.62
739.744	30338.79
740.084	30032.59
740.424	30095.41
740.764	30160.72
741.104	30096.31
741.444	29959.59
741.784	29781.52
742.124	29942.19
742.464	29794.4
742.804	29699.49
743.143	29673.95
743.483	29715.53
743.823	29584.91
744.162	29591.69
744.502	29493.39
744.841	29606.61
745.181	29538.59
745.52	29401.42
745.86	29414.98
746.199	29422.66
746.538	29415.43
746.877	29549.43
747.216	29433.28
747.556	29395.99
747.895	29233.74
748.234	29194.64
748.573	29140.86
748.911	29045.27
749.25	29166.62
749.589	28958.26
749.928	28923.69
750.267	29093.63
750.605	28966.63
750.944	28761.43
751.283	28680.98
751.621	28827.65
751.96	28644.83
752.298	28471.95
752.636	28638.5
752.975	28549.91
753.313	28394.66
753.651	28486.64
753.989	28231.96
754.327	28283.25
754.666	28129.59
755.004	28152.86
755.342	28161.22
755.679	28033.99
756.017	27965.07
756.355	28091.39
756.693	27902.47
757.031	27868.12
757.368	27726.21
757.706	27749.48
758.044	27654.12
758.381	27604.63
758.719	27572.99
759.056	27659.99
759.394	27462.71
759.731	27270.4
760.068	27342.26
760.405	27083.96
760.743	26972.78
761.08	27082.16
761.417	26976.62
761.754	26883.52
762.091	26931.2
762.428	26766.68
762.765	26554.71
763.102	26661.15
763.438	26461.38
763.775	26431.1
764.112	26326.92
764.449	26438.78
764.785	26334.6
765.122	26225.45
765.458	26133.71
765.795	26034.05
766.131	25907.72
766.467	25946.37
766.804	25906.14
767.14	25688.52
767.476	25652.14
767.812	25526.04
768.148	25586.38
768.485	25397
768.821	25273.62
769.157	25259.15
769.492	25127.86
769.828	25122.66
770.164	24973.51
770.5	24877.24
770.836	24930.57
771.171	24690.13
771.507	24720.41
771.842	24616.68
772.178	24527.42
772.513	24400.42
772.849	24290.36
773.184	24204.04
773.519	24144.38
773.855	24060.54
774.19	24021.44
774.525	23897.15
774.86	23874.56
775.195	23841.11
775.53	23727.22
775.865	23635.24
776.2	23433.66
776.535	23355.7
776.87	23302.14
777.205	23113.9
777.539	23151.41
777.874	23080.68
778.209	22887.92
778.543	22912.77
778.878	22788.93
779.212	22786
779.547	22674.14
779.881	22654.25
780.215	22501.94
780.55	22577.19
780.884	22328.16
781.218	22355.27
781.552	22272.79
781.886	22200.93
782.22	22117.54
782.554	22057.2
782.888	21663.99
783.222	21785.35
783.556	21656.08
783.889	21551.91
784.223	21396.88
784.557	21429.2
784.89	21457.44
785.224	21359.37
785.557	21225.59
785.891	21205.7
786.224	21106.95
786.558	21125.93
786.891	20908.76
787.224	20794.86
787.557	20728.65
787.891	20637.8
788.224	20771.59
788.557	20649.1
788.89	20573.63
789.223	20612.49
789.556	20358.26
789.888	20417.92
790.221	20230.36
790.554	20115.11
790.887	20198.95
791.219	20050.48
791.552	19935.9
791.884	19857.03
792.217	19763.48
792.549	19699.75
792.882	19562.58
793.214	19582.24
793.546	19541.79
793.879	19508.79
794.211	19355.35
794.543	19335.69
794.875	19337.27
795.207	19299.08
795.539	19139.99
795.871	19237.84
796.203	19005.98
796.535	18938.19
796.867	18968.24
797.198	18838.98
797.53	18842.15
797.862	18737.06
798.193	18687.12
798.525	18645.31
798.856	18637.86
799.188	18476.05
799.519	18431.08
799.85	18309.73
800.182	18357.19
800.513	18319.9
800.844	18111.32
801.175	18252.1
801.506	18084.88
801.837	18035.16
802.168	18056.18
802.499	17930.53
802.83	17863.41
803.161	17817.77
803.491	17782.29
803.822	17741.16
804.153	17589.75
804.483	17578.45
804.814	17543.65
805.145	17503.42
805.475	17528.96
805.805	17361.51
806.136	17315.86
806.466	17370.32
806.796	17387.49
807.126	17161.06
807.457	17124
807.787	17206.26
808.117	17039.93
808.447	16924.91
808.777	17035.41
809.107	17013.49
809.436	16900.05
809.766	16835.42
810.096	16826.15
810.426	16718.36
810.755	16738.47
811.085	16657.34
811.414	16659.6
811.744	16564.47
812.073	16523.34
812.403	16523.34
812.732	16464.81
813.061	16371.02
813.39	16283.34
813.719	16293.29
814.049	16303.91
814.378	16296.22
814.707	16101.65
815.036	16023.91
815.365	16004.48
815.693	15883.58
816.022	15896.91
816.351	15943.24
816.68	15816.91
817.008	15917.02
817.337	15752.51
817.665	15689.91
817.994	15819.85
818.322	15671.61
818.651	15611.27
818.979	15649.24
819.307	15655.34
819.636	15495.34
819.964	15469.58
820.292	15533.08
820.62	15472.97
820.948	15456.47
821.276	15534.21
821.604	15376.47
821.932	15496.47
822.259	15478.17
822.587	15354.33
822.915	15380.09
823.243	15477.94
823.57	15413.54
823.898	15440.2
824.225	15348.45
824.553	15350.94
824.88	15324.72
825.207	15263.26
825.535	15366.76
825.862	15387.55
826.189	15336.7
826.516	15381.67
826.843	15304.61
827.17	15431.61
827.497	15314.1
827.824	15343.03
828.151	15387.1
828.478	15317.72
828.805	15374.67
829.131	15300.09
829.458	15302.13
829.785	15232.07
830.111	15340.77
830.438	15371.05
830.764	15308.45
831.09	15261.9
831.417	15210.6
831.743	15259.42
832.069	15357.94
832.395	15202.02
832.722	15252.86
833.048	15236.59
833.374	15327.21
833.7	15133.09
834.026	15203.82
834.351	15239.75
834.677	15134.22
835.003	15149.81
835.329	15107.1
835.654	15131.28
835.98	15050.38
836.306	15115.69
836.631	15074.11
836.956	15061.45
837.282	15038.63
837.607	14932.19
837.932	14854.23
838.258	14964.28
838.583	14910.27
838.908	14802.03
839.233	14783.5
839.558	14754.34
839.883	14734.68
840.208	14646.1
840.533	14699.66
840.858	14761.12
841.182	14636.15
841.507	14618.98
841.832	14549.38
842.156	14564.74
842.481	14515.48
842.805	14526.78
843.13	14432.54
843.454	14517.97
843.778	14387.12
844.103	14340.12
844.427	14376.27
844.751	14286.56
845.075	14237.07
845.399	14214.02
845.723	14187.35
846.047	14174.25
846.371	14047.47
846.695	13960.24
847.019	13940.81
847.343	13924.08
847.666	13854.03
847.99	13776.52
848.313	13719.79
848.637	13700.13
848.96	13648.16
849.284	13524.09
849.607	13400.26
849.931	13498.78
850.254	13433.93
850.577	13369.75
850.9	13268.73
851.223	13217.43
851.546	13189.87
851.869	13198.45
852.192	13145.8
852.515	13098.79
852.838	13010.43
853.161	12960.04
853.483	12936.31
853.806	12918.23
854.129	12846.82
854.451	12749.88
854.774	12682.53
855.096	12704.91
855.419	12631.46
855.741	12574.74
856.063	12492.71
856.385	12527.51
856.708	12479.83
857.03	12442.77
857.352	12476.21
857.674	12376.33
857.996	12391.02
858.318	12265.82
858.64	12240.51
858.961	12314.86
859.283	12125.94
859.605	12141.31
859.926	12135.2
860.248	12094.98
860.57	12058.6
860.891	12061.08
861.212	12009.78
861.534	11916.68
861.855	11948.32
862.176	11887.98
862.498	11888.43
862.819	11942.44
863.14	11749
863.461	11812.05
863.782	11820.18
864.103	11781.99
864.424	11755.78
864.745	11779.05
865.065	11627.42
865.386	11635.56
865.707	11639.62
866.027	11547.42
866.348	11680.3
866.668	11543.81
866.989	11520.76
867.309	11534.77
867.63	11504.26
867.95	11469.91
868.27	11384.71
868.59	11430.14
868.91	11442.11
869.23	11366.18
869.55	11356.69
869.87	11415.67
870.19	11409.12
870.51	11373.19
870.83	11392.4
871.15	11307.2
871.469	11284.38
871.789	11357.82
872.109	11277.82
872.428	11175.23
872.748	11174.55
873.067	11195.12
873.386	11226.3
873.706	11169.81
874.025	11118.28
874.344	11166.64
874.663	11047.55
874.982	11090.49
875.301	11056.81
875.62	11049.58
875.939	11090.03
876.258	11018.85
876.577	11048.9
876.896	11005.52
877.214	11003.03
877.533	10966.65
877.852	10891.62
878.17	10884.39
878.489	10903.82
878.807	10875.35
879.125	10856.14
879.444	10898.4
879.762	10807.1
880.08	10779.76
880.398	10746.31
880.716	10784.05
881.034	10742.25
881.352	10706.54
881.67	10690.04
881.988	10735.69
882.306	10632.42
882.624	10614.11
882.941	10612.08
883.259	10583.15
883.577	10547.67
883.894	10557.84
884.212	10448.02
884.529	10421.8
884.846	10449.82
885.164	10409.37
885.481	10398.3
885.798	10390.16
886.115	10299.09
886.432	10334.57
886.75	10226.1
887.067	10290.73
887.383	10201.47
887.7	10280.34
888.017	10189.94
888.334	10254.12
888.651	10114.47
888.967	10189.72
889.284	10050.74
889.6	10144.3
889.917	10049.16
890.233	9987.92
890.55	9955.37
890.866	9914.24
891.182	9885.32
891.498	9938.43
891.815	9867.24
892.131	9812.33
892.447	9837.86
892.763	9809.39
893.079	9776.85
893.395	9750.18
893.71	9700.47
894.026	9690.3
894.342	9622.5
894.657	9602.84
894.973	9539.57
895.289	9594.93
895.604	9562.62
895.92	9509.06
896.235	9409.85
896.55	9455.95
896.865	9365.11
897.181	9405.78
897.496	9352.45
897.811	9338.67
898.126	9348.38
898.441	9248.27
898.756	9239.46
899.071	9146.13
899.386	9179.12
899.7	9124.21
900.015	9029.52
900.33	8983.2
900.644	9009.86
900.959	8932.8
901.273	8960.37
901.588	8909.53
901.902	8820.26
902.216	8831.79
902.531	8845.35
902.845	8716.31
903.159	8700.94
903.473	8696.2
903.787	8676.99
904.101	8652.81
904.415	8572.81
904.729	8616.43
905.042	8550.21
905.356	8528.29
905.67	8502.08
905.984	8473.6
906.297	8473.38
906.611	8359.94
906.924	8381.18
907.237	8338.02
907.551	8350.44
907.864	8270.9
908.177	8243.1
908.491	8281.75
908.804	8168.3
909.117	8138.7
909.43	8086.5
909.743	8058.47
910.056	8074.97
910.368	8023.22
910.681	7981.19
910.994	8004.46
911.307	7935.09
911.619	7879.5
911.932	7905.71
912.244	7880.63
912.557	7808.09
912.869	7774.87
913.181	7679.5
913.494	7677.24
913.806	7690.8
914.118	7667.3
914.43	7599.28
914.742	7624.14
915.054	7534.65
915.366	7498.04
915.678	7474.99
915.99	7455.1
916.302	7393.63
916.613	7396.35
916.925	7338.04
917.236	7313.64
917.548	7289.68
917.859	7254.43
918.171	7199.29
918.482	7164.49
918.794	7171.04
919.105	7155.67
919.416	7038.39
919.727	7076.13
920.038	7037.03
920.349	6937.37
920.66	7008.56
920.971	6951.61
921.282	6964.49
921.593	6851.95
921.903	6862.35
922.214	6801.11
922.525	6712.07
922.835	6802.91
923.146	6753.2
923.456	6717.49
923.767	6709.36
924.077	6650.6
924.387	6608.57
924.697	6610.83
925.008	6577.84
925.318	6557.5
925.628	6500.32
925.938	6520.21
926.248	6403.38
926.558	6387.11
926.867	6392.76
927.177	6395.92
927.487	6350.72
927.796	6336.94
928.106	6323.38
928.416	6259.43
928.725	6290.61
929.034	6177.17
929.344	6228.69
929.653	6208.35
929.962	6151.63
930.271	6095.59
930.581	6124.06
930.89	6063.95
931.199	6022.82
931.508	5959.55
931.817	5997.96
932.125	5998.87
932.434	5981.92
932.743	5904.18
933.051	5829.83
933.36	5892.43
933.669	5794.13
933.977	5795.26
934.286	5797.97
934.594	5769.04
934.902	5729.27
935.21	5681.14
935.519	5679.55
935.827	5701.25
936.135	5653.57
936.443	5591.19
936.751	5591.87
937.059	5544.42
937.367	5544.87
937.674	5517.98
937.982	5473.23
938.29	5495.38
938.597	5440.69
938.905	5418.54
939.213	5434.14
939.52	5416.06
939.827	5348.49
940.135	5311.88
940.442	5281.37
940.749	5308.49
941.056	5289.28
941.363	5219
941.67	5216.52
941.977	5206.35
942.284	5146.01
942.591	5149.62
942.898	5149.62
943.205	5101.49
943.511	5099.46
943.818	5049.06
944.125	5035.05
944.431	5051.77
944.738	5005.67
945.044	4951.44
945.35	4969.74
945.657	4940.36
945.963	4914.38
946.269	4875.06
946.575	4830.54
946.881	4861.04
947.187	4844.55
947.493	4806.36
947.799	4789.86
948.105	4749.18
948.41	4725.91
948.716	4739.92
949.022	4716.42
949.327	4711.67
949.633	4660.82
949.938	4633.71
950.244	4612.24
950.549	4573.14
950.854	4566.14
951.16	4562.75
951.465	4572.92
951.77	4529.53
952.075	4519.36
952.38	4492.69
952.685	4462.64
952.99	4436.65
953.294	4417.44
953.599	4387.16
953.904	4365.69
954.209	4294.28
954.513	4317.33
954.818	4284.56
955.122	4352.81
955.426	4283.88
955.731	4263.09
956.035	4209.76
956.339	4228.07
956.643	4207.28
956.948	4158.01
957.252	4186.94
957.556	4160.5
957.86	4125.7
958.163	4164.11
958.467	4095.64
958.771	4093.83
959.075	4106.26
959.378	4081.63
959.682	4053.16
959.985	4002.31
960.289	4026.04
960.592	3996.21
960.896	3973.38
961.199	3956.21
961.502	3948.07
961.805	3911.46
962.108	3902.2
962.411	3936.78
962.714	3871.24
963.017	3831.02
963.32	3856.33
963.623	3825.59
963.926	3846.16
964.228	3800.28
964.531	3742.88
964.833	3744.69
965.136	3723.45
965.438	3704.46
965.741	3729.55
966.043	3730.9
966.345	3674.86
966.648	3650
966.95	3626.95
967.252	3588.08
967.554	3633.73
967.856	3629.89
968.158	3564.81
968.46	3582.21
968.761	3503.79
969.063	3518.93
969.365	3523.45
969.666	3485.26
969.968	3462.44
970.269	3463.34
970.571	3416.56
970.872	3443.91
971.174	3422.21
971.475	3399.84
971.776	3378.37
972.077	3385.6
972.378	3332.05
972.679	3336.11
972.98	3339.28
973.281	3346.28
973.582	3342.21
973.883	3301.99
974.183	3288.88
974.484	3281.43
974.785	3243.01
975.085	3223.35
975.386	3202.56
975.686	3248.88
975.986	3191.71
976.287	3204.82
976.587	3151.03
976.887	3138.38
977.187	3141.99
977.487	3135.67
977.787	3123.92
978.087	3092.73
978.387	3080.98
978.687	3084.14
978.987	3075.55
979.286	3047.76
979.586	3028.32
979.885	2968.66
980.185	2963.69
980.484	2947.87
980.784	2954.88
981.083	2969.57
981.382	2950.13
981.682	2921.89
981.981	2895.9
982.28	2913.75
982.579	2895.67
982.878	2912.85
983.177	2866.97
983.475	2887.99
983.774	2823.36
984.073	2798.5
984.372	2803.92
984.67	2821.55
984.969	2826.07
985.267	2813.41
985.566	2779.97
985.864	2794.66
986.162	2733.64
986.461	2747.2
986.759	2740.65
987.057	2662.01
987.355	2724.6
987.653	2706.75
987.951	2699.52
988.249	2658.39
988.547	2652.97
988.844	2629.24
989.142	2641.67
989.44	2641.89
989.737	2592.63
990.035	2601.44
990.332	2563.48
990.63	2556.47
990.927	2506.98
991.224	2543.14
991.521	2506.53
991.819	2502.01
992.116	2505.17
992.413	2481.9
992.71	2484.16
993.006	2462.01
993.303	2450.71
993.6	2457.49
993.897	2450.94
994.193	2430.6
994.49	2428.79
994.787	2392.41
995.083	2349.25
995.379	2380.66
995.676	2372.75
995.972	2345.4
996.268	2346.53
996.565	2331.17
996.861	2303.37
997.157	2288.68
997.453	2330.72
997.749	2297.72
998.044	2277.61
998.34	2289.13
998.636	2250.27
998.932	2242.36
999.227	2217.05
999.523	2212.07
999.818	2206.88
1000.114	2156.71
1000.409	2191.74
1000.704	2189.02
1001	2195.35
1001.295	2150.16
1001.59	2130.49
1001.885	2125.75
1002.18	2088.69
1002.475	2137.95
1002.77	2078.74
1003.065	2092.08
1003.359	2056.37
1003.654	2072.64
1003.949	2040.55
1004.243	2033.55
1004.538	2022.7
1004.832	2041.91
1005.127	1994.45
1005.421	1989.93
1005.715	1964.4
1006.009	1984.74
1006.304	1951.74
1006.598	1942.7
1006.892	1951.06
1007.186	1912.42
1007.48	1950.84
1007.773	1914.91
1008.067	1889.37
1008.361	1873.78
1008.655	1894.12
1008.948	1871.29
1009.242	1850.28
1009.535	1870.84
1009.829	1822.48
1010.122	1839.2
1010.415	1841.69
1010.708	1823.84
1011.001	1799.88
1011.295	1795.14
1011.588	1747.45
1011.881	1747
1012.173	1761.46
1012.466	1747.45
1012.759	1749.26
1013.052	1720.11
1013.344	1725.31
1013.637	1677.63
1013.93	1696.16
1014.222	1695.7
1014.514	1687.57
1014.807	1662.48
1015.099	1633.33
1015.391	1640.11
1015.683	1622.49
1015.976	1634.46
1016.268	1573.22
1016.56	1611.41
1016.851	1603.28
1017.143	1558.76
1017.435	1580.9
1017.727	1524.41
1018.018	1550.62
1018.31	1549.72
1018.602	1530.06
1018.893	1528.02
1019.185	1548.36
1019.476	1511.98
1019.767	1502.26
1020.058	1485.31
1020.35	1456.61
1020.641	1489.38
1020.932	1436.73
1021.223	1450.51
1021.514	1424.07
1021.804	1406.45
1022.095	1431.53
1022.386	1390.85
1022.677	1406.9
1022.967	1388.14
1023.258	1360.8
1023.548	1364.87
1023.839	1382.27
1024.129	1367.35
1024.419	1375.71
1024.709	1323.74
1025	1333.91
1025.29	1331.42
1025.58	1279.44
1025.87	1299.78
1026.16	1289.84
1026.449	1312.21
1026.739	1271.53
1027.029	1282.38
1027.319	1266.56
1027.608	1258.88
1027.898	1241.25
1028.187	1241.03
1028.477	1246.45
1028.766	1220.01
1029.055	1235.15
1029.344	1205.77
1029.634	1182.05
1029.923	1179.56
1030.212	1187.69
1030.501	1184.76
1030.79	1180.01
1031.078	1146.79
1031.367	1157.41
1031.656	1133.01
1031.945	1150.18
1032.233	1130.97
1032.522	1123.97
1032.81	1111.54
1033.099	1121.48
1033.387	1111.09
1033.675	1116.28
1033.963	1091.88
1034.251	1064.31
1034.54	1068.15
1034.828	1067.7
1035.116	1069.28
1035.403	1017.3
1035.691	1057.98
1035.979	1029.96
1036.267	1032.67
1036.554	1034.93
1036.842	987.93
1037.129	998.32
1037.417	1017.98
1037.704	1008.04
1037.992	1015.04
1038.279	969.17
1038.566	994.03
1038.853	994.03
1039.14	994.03
