Data from hue_240_FLMS001491_00042.txt Node
Date: Tue Feb 07 16:35:31 GMT 2017
User: dcchb
Spectrometer: FLMS00149
Trigger mode: 0
Integration Time (sec): 2.000000E-2
Scans to average: 10
Electric dark correction enabled: true
Nonlinearity correction enabled: false
Boxcar width: 0
XAxis mode: Wavelengths
Number of Pixels in Spectrum: 2048
>>>>>Begin Spectral Data<<<<<
341.393	-5.71
341.776	-5.71
342.16	-5.71
342.543	-73.95
342.927	-59.94
343.31	-59.04
343.693	-65.59
344.077	-64.69
344.46	-65.59
344.843	-34.41
345.226	-59.26
345.61	-16.33
345.993	-35.54
346.376	1.75
346.759	8.76
347.142	24.12
347.525	37.91
347.908	51.92
348.291	58.47
348.674	93.5
349.057	124.01
349.44	113.39
349.823	142.09
350.206	178.92
350.588	171.24
350.971	204.68
351.354	218.02
351.737	218.69
352.119	242.42
352.502	234.74
352.884	246.04
353.267	266.6
353.65	274.29
354.032	278.35
354.414	282.65
354.797	311.8
355.179	299.82
355.562	324.91
355.944	322.19
356.326	317
356.709	323.55
357.091	318.13
357.473	314.74
357.855	315.64
358.238	318.81
358.62	318.35
359.002	326.26
359.384	339.14
359.766	311.57
360.148	327.17
360.53	335.08
360.912	323.1
361.294	322.42
361.676	326.94
362.057	332.36
362.439	307.05
362.821	324.23
363.203	307.28
363.584	310.67
363.966	323.32
364.348	314.06
364.729	295.98
365.111	288.3
365.493	292.82
365.874	321.74
366.256	294.4
366.637	316.09
367.019	291.01
367.4	296.21
367.781	309.54
368.163	305.92
368.544	294.17
368.925	295.53
369.306	320.16
369.688	307.51
370.069	291.46
370.45	288.52
370.831	289.2
371.212	322.19
371.593	284.91
371.974	306.38
372.355	292.37
372.736	321.29
373.117	324.68
373.498	304.34
373.879	296.43
374.26	309.09
374.641	311.12
375.021	313.38
375.402	308.18
375.783	307.73
376.163	296.21
376.544	314.51
376.925	310.22
377.305	305.47
377.686	296.66
378.066	317.45
378.447	329.88
378.827	315.87
379.208	320.61
379.588	310.9
379.968	330.33
380.349	321.74
380.729	325.36
381.109	307.05
381.489	324.68
381.87	314.74
382.25	333.04
382.63	318.35
383.01	332.59
383.39	315.19
383.77	328.97
384.15	333.72
384.53	310.9
384.91	322.65
385.29	318.81
385.67	348.18
386.049	358.13
386.429	334.4
386.809	347.96
387.189	350.44
387.568	352.93
387.948	348.86
388.328	353.83
388.707	354.51
389.087	349.31
389.466	343.21
389.846	351.8
390.225	362.65
390.605	355.41
390.984	353.38
391.363	339.6
391.743	366.26
392.122	340.95
392.501	366.71
392.881	350.89
393.26	368.3
393.639	378.24
394.018	361.29
394.397	366.71
394.776	364.91
395.155	369.43
395.534	369.65
395.913	379.14
396.292	384.57
396.671	387.5
397.05	371.23
397.429	375.98
397.808	378.46
398.186	360.61
398.565	391.57
398.944	383.21
399.323	401.97
399.701	389.09
400.08	409.88
400.458	394.74
400.837	386.83
401.215	378.69
401.594	401.51
401.972	418.24
402.351	404.9
402.729	412.36
403.107	418.69
403.486	422.98
403.864	415.98
404.242	415.98
404.62	429.99
404.999	425.47
405.377	420.5
405.755	424.79
406.133	450.1
406.511	431.8
406.889	433.15
407.267	433.15
407.645	449.42
408.023	467.5
408.401	473.15
408.779	452.81
409.156	469.08
409.534	471.8
409.912	472.25
410.29	506.37
410.667	464.11
411.045	504.79
411.422	498.91
411.8	498.91
412.178	519.25
412.555	532.36
412.933	524
413.31	541.85
413.687	542.3
414.065	543.43
414.442	542.08
414.819	545.01
415.197	560.61
415.574	571.91
415.951	568.97
416.328	581.17
416.705	579.14
417.082	585.46
417.46	591.34
417.837	608.29
418.214	582.08
418.591	632.02
418.967	607.39
419.344	584.33
419.721	614.84
420.098	611.45
420.475	654.84
420.852	641.73
421.228	639.25
421.605	686.93
421.982	664.33
422.358	688.74
422.735	684.9
423.111	677.89
423.488	724.44
423.864	713.6
424.241	727.16
424.617	726.48
424.994	720.38
425.37	765.8
425.746	764.9
426.123	777.55
426.499	754.05
426.875	775.52
427.251	797.21
427.627	819.36
428.003	807.15
428.379	801.73
428.756	833.82
429.132	843.09
429.507	849.86
429.883	854.61
430.259	867.27
430.635	879.24
431.011	890.09
431.387	916.98
431.763	890.32
432.138	905.91
432.514	905.23
432.89	951.56
433.265	953.14
433.641	974.61
434.016	980.71
434.392	989.52
434.767	1015.96
435.143	1013.02
435.518	1036.98
435.894	1050.54
436.269	1041.72
436.644	1093.7
437.02	1080.14
437.395	1086.69
437.77	1122.85
438.145	1145.68
438.52	1173.02
438.895	1174.6
439.271	1180.25
439.646	1215.73
440.021	1187.93
440.395	1224.32
440.77	1232.45
441.145	1224.09
441.52	1250.31
441.895	1257.54
442.27	1269.29
442.645	1284.2
443.019	1315.84
443.394	1291.43
443.769	1324.65
444.143	1328.95
444.518	1318.1
444.892	1319.91
445.267	1354.26
445.641	1378.66
446.016	1374.6
446.39	1395.16
446.764	1385.67
447.139	1379.57
447.513	1393.13
447.887	1392.68
448.262	1406.69
448.636	1417.53
449.01	1460.24
449.384	1455.72
449.758	1450.53
450.132	1479.9
450.506	1483.29
450.88	1502.73
451.254	1506.34
451.628	1524.42
452.002	1552.22
452.376	1546.12
452.75	1595.38
453.123	1595.61
453.497	1599
453.871	1606.68
454.244	1633.8
454.618	1624.99
454.992	1667.02
455.365	1655.04
455.739	1701.82
456.112	1714.02
456.486	1726.9
456.859	1731.42
457.232	1746.56
457.606	1813
457.979	1799.67
458.352	1813.91
458.725	1828.14
459.099	1836.51
459.472	1853.23
459.845	1891.87
460.218	1894.81
460.591	1923.96
460.964	1918.54
461.337	1991.3
461.71	1985.88
462.083	2012.55
462.456	2030.4
462.829	2031.75
463.201	2063.39
463.574	2064.97
463.947	2099.78
464.32	2156.72
464.692	2129.15
465.065	2184.97
465.438	2175.25
465.81	2244.63
466.183	2256.16
466.555	2255.25
466.928	2302.93
467.3	2292.99
467.672	2358.3
468.045	2388.13
468.417	2400.78
468.789	2398.75
469.161	2436.49
469.534	2451.63
469.906	2529.14
470.278	2531.4
470.65	2555.58
471.022	2608.46
471.394	2639.65
471.766	2645.07
472.138	2679.42
472.51	2720.1
472.882	2761.45
473.253	2798.74
473.625	2823.82
473.997	2889.13
474.369	2922.58
474.74	2902.92
475.112	2937.72
475.484	2978.62
475.855	2995.12
476.227	3088.45
476.598	3143.59
476.97	3151.27
477.341	3226.07
477.713	3287.77
478.084	3260.65
478.455	3342.23
478.827	3385.62
479.198	3483.02
479.569	3443.69
479.94	3553.75
480.311	3564.14
480.682	3664.03
481.053	3744.25
481.424	3785.15
481.795	3788.09
482.166	3885.72
482.537	3891.82
482.908	3974.08
483.279	3983.34
483.65	4080.74
484.021	4115.99
484.391	4165.48
484.762	4148.99
485.133	4245.48
485.503	4281.19
485.874	4310.79
486.244	4391.69
486.615	4432.37
486.985	4524.34
487.356	4551.69
487.726	4564.57
488.097	4633.95
488.467	4725.47
488.837	4731.8
489.207	4782.87
489.578	4879.36
489.948	4887.72
490.318	4980.6
490.688	4954.84
491.058	5040.04
491.428	5115.74
491.798	5132.92
492.168	5258.56
492.538	5242.29
492.908	5268.05
493.278	5340.59
493.648	5340.37
494.017	5406.81
494.387	5443.19
494.757	5530.87
495.126	5520.48
495.496	5492.68
495.866	5583.3
496.235	5658.78
496.605	5685.9
496.974	5706.46
497.344	5741.49
497.713	5734.71
498.082	5761.6
498.452	5841.37
498.821	5845.21
499.19	5916.62
499.559	5868.72
499.928	5945.55
500.298	5998.66
500.667	6024.64
501.036	5941.93
501.405	6046.56
501.774	6040.46
502.143	6137.18
502.512	6141.25
502.88	6160.46
503.249	6166.79
503.618	6216.05
503.987	6194.13
504.356	6202.72
504.724	6268.03
505.093	6235.94
505.462	6294.47
505.83	6327.46
506.199	6373.11
506.567	6386.67
506.936	6432.99
507.304	6486.1
507.672	6486.78
508.041	6447.23
508.409	6527.46
508.777	6550.28
509.145	6605.42
509.514	6566.55
509.882	6575.14
510.25	6630.28
510.618	6631.86
510.986	6696.49
511.354	6658.07
511.722	6725.42
512.09	6792.76
512.458	6764.29
512.826	6797.96
513.193	6823.04
513.561	6781.69
513.929	6846.54
514.297	6870.5
514.664	6874.34
515.032	6860.55
515.4	6973.32
515.767	6971.74
516.135	7002.92
516.502	6894.9
516.869	6985.75
517.237	6989.14
517.604	7001.57
517.972	7112.07
518.339	7070.94
518.706	7057.16
519.073	7062.13
519.44	7089.25
519.808	7142.81
520.175	7145.52
520.542	7183.94
520.909	7210.83
521.276	7150.49
521.643	7114.56
522.009	7264.61
522.376	7196.59
522.743	7270.71
523.11	7281.11
523.477	7336.93
523.843	7407.88
524.21	7350.71
524.577	7454.89
524.943	7399.97
525.31	7436.36
525.676	7425.28
526.043	7555.23
526.409	7483.14
526.776	7576.24
527.142	7515.45
527.508	7569.24
527.874	7583.7
528.241	7595
528.607	7594.55
528.973	7614.43
529.339	7563.13
529.705	7651.49
530.071	7626.41
530.437	7709.57
530.803	7687.2
531.169	7685.39
531.535	7693.98
531.901	7722.9
532.267	7708.67
532.632	7759.29
532.998	7768.55
533.364	7708.44
533.73	7755.9
534.095	7778.04
534.461	7705.73
534.826	7744.82
535.192	7788.67
535.557	7839.06
535.923	7750.93
536.288	7781.43
536.653	7751.6
537.019	7750.25
537.384	7806.97
537.749	7759.29
538.114	7733.75
538.479	7639.52
538.845	7731.72
539.21	7772.62
539.575	7734.2
539.94	7720.87
540.305	7779.4
540.67	7661.89
541.034	7764.71
541.399	7736.01
541.764	7703.47
542.129	7706.41
542.494	7654.43
542.858	7652.85
543.223	7670.93
543.587	7721.32
543.952	7614.43
544.316	7648.56
544.681	7643.81
545.045	7659.63
545.41	7639.29
545.774	7599.74
546.138	7624.83
546.503	7600.42
546.867	7599.74
547.231	7632.29
547.595	7636.58
547.959	7696.46
548.324	7673.87
548.688	7670.7
549.052	7602.91
549.416	7578.95
549.779	7597.94
550.143	7573.53
550.507	7616.69
550.871	7540.08
551.235	7523.14
551.599	7606.98
551.962	7589.35
552.326	7573.3
552.689	7566.98
553.053	7552.29
553.417	7568.78
553.78	7599.97
554.143	7550.03
554.507	7571.27
554.87	7600.2
555.234	7616.69
555.597	7539.63
555.96	7559.97
556.323	7591.16
556.686	7589.57
557.05	7596.13
557.413	7580.31
557.776	7609.69
558.139	7636.35
558.502	7552.51
558.865	7548.67
559.228	7639.29
559.59	7622.57
559.953	7643.58
560.316	7689.68
560.679	7678.61
561.041	7714.09
561.404	7739.4
561.767	7812.62
562.129	7682
562.492	7767.2
562.854	7728.78
563.217	7746.86
563.579	7745.28
563.941	7803.13
564.304	7780.76
564.666	7904.59
565.028	7857.36
565.39	7850.58
565.753	7907.31
566.115	7929.68
566.477	7924.93
566.839	7955.89
567.201	7966.97
567.563	7931.94
567.925	8010.58
568.287	8036.57
568.648	8036.79
569.01	8053.97
569.372	8095.55
569.734	8044.25
570.095	8156.11
570.457	8134.64
570.819	8066.4
571.18	8145.49
571.542	8124.7
571.903	8167.64
572.265	8181.88
572.626	8239.05
572.987	8223
573.349	8226.85
573.71	8248.77
574.071	8294.87
574.432	8304.13
574.794	8333.96
575.155	8338.03
575.516	8332.61
575.877	8276.34
576.238	8355.88
576.599	8424.13
576.96	8399.72
577.32	8420.29
577.681	8457.35
578.042	8479.27
578.403	8449.21
578.763	8515.88
579.124	8494.86
579.485	8480.17
579.845	8541.64
580.206	8545.03
580.566	8610.79
580.927	8512.04
581.287	8612.37
581.648	8597.91
582.008	8610.79
582.368	8637
582.728	8628.19
583.089	8642.65
583.449	8694.86
583.809	8670.68
584.169	8675.65
584.529	8641.3
584.889	8745.02
585.249	8691.47
585.609	8712.71
585.969	8794.74
586.329	8746.38
586.688	8761.97
587.048	8744.8
587.408	8705.93
587.768	8703.9
588.127	8770.33
588.487	8730.56
588.846	8856.89
589.206	8732.82
589.565	8760.62
589.925	8830.22
590.284	8825.7
590.643	8793.38
591.003	8943.66
591.362	8879.26
591.721	8913.16
592.08	8936.66
592.44	8943.21
592.799	8912.93
593.158	8900.95
593.517	8934.85
593.876	8915.87
594.235	8867.28
594.593	8909.99
594.952	8937.34
595.311	8945.02
595.67	8947.73
596.029	8988.86
596.387	8999.71
596.746	8983.44
597.104	8949.31
597.463	8945.02
597.822	9011.68
598.18	8967.62
598.538	9000.16
598.897	9061.4
599.255	8986.6
599.613	9113.83
599.972	8989.76
600.33	9021.85
600.688	8995.19
601.046	8988.18
601.404	9134.84
601.762	9097.78
602.12	9094.17
602.478	9102.53
602.836	9088.29
603.194	9060.04
603.552	9095.98
603.91	9046.94
604.268	9054.17
604.625	9108.86
604.983	9125.81
605.341	9045.58
605.698	9194.05
606.056	9138.91
606.413	9151.79
606.771	9098.46
607.128	9144.56
607.485	9124
607.843	9109.53
608.2	9134.17
608.557	9168.29
608.914	9225.24
609.272	9228.63
609.629	9208.74
609.986	9161.06
610.343	9233.37
610.7	9247.61
611.057	9193.6
611.414	9159.25
611.771	9167.84
612.127	9241.28
612.484	9228.4
612.841	9308.4
613.198	9244.45
613.554	9320.15
613.911	9300.49
614.267	9330.77
614.624	9249.19
614.98	9284.45
615.337	9393.82
615.693	9336.87
616.05	9375.97
616.406	9339.36
616.762	9405.35
617.118	9333.94
617.475	9265.01
617.831	9406.7
618.187	9399.7
618.543	9371
618.899	9473.59
619.255	9459.58
619.611	9439.02
619.967	9446.7
620.323	9473.59
620.678	9426.59
621.034	9376.42
621.39	9415.74
621.746	9453.48
622.101	9430.2
622.457	9420.26
622.812	9458.9
623.168	9449.86
623.523	9460.03
623.879	9421.39
624.234	9407.38
624.589	9496.87
624.945	9430.66
625.3	9487.38
625.655	9502.07
626.01	9427.27
626.365	9367.15
626.72	9416.65
627.075	9384.33
627.43	9432.24
627.785	9394.27
628.14	9383.2
628.495	9461.62
628.85	9422.29
629.205	9290.09
629.559	9451.22
629.914	9407.15
630.269	9374.16
630.623	9333.03
630.978	9304.33
631.332	9397.66
631.687	9380.94
632.041	9317.66
632.396	9403.31
632.75	9312.02
633.104	9356.08
633.459	9315.63
633.813	9320.6
634.167	9262.98
634.521	9248.51
634.875	9257.55
635.229	9309.53
635.583	9304.33
635.937	9238.34
636.291	9216.42
636.645	9228.63
636.999	9220.49
637.352	9201.96
637.706	9107.73
638.06	9176.65
638.413	9158.35
638.767	9120.83
639.121	9123.77
639.474	9111.12
639.828	9114.51
640.181	9126.71
640.534	9067.5
640.888	9085.81
641.241	9065.47
641.594	9055.98
641.947	9021.18
642.301	9025.02
642.654	8977.11
643.007	9046.49
643.36	9013.72
643.713	8954.06
644.066	9088.97
644.419	8947.28
644.771	8897.56
645.124	8877
645.477	8891.69
645.83	8739.6
646.182	8779.6
646.535	8636.1
646.888	8733.73
647.24	8700.51
647.593	8729.21
647.945	8666.16
648.298	8652.15
648.65	8670.68
649.002	8646.27
649.355	8667.06
649.707	8717.45
650.059	8714.97
650.411	8818.47
650.763	8762.2
651.115	8868.41
651.467	8870.67
651.819	8872.48
652.171	8864.34
652.523	8792.48
652.875	8856.21
653.227	8803.33
653.578	8872.7
653.93	8811.24
654.282	8776.89
654.633	8782.09
654.985	8846.72
655.337	8854.85
655.688	8815.76
656.039	8933.04
656.391	8788.64
656.742	8889.2
657.094	8817.79
657.445	8852.82
657.796	8836.32
658.147	8771.69
658.498	8817.34
658.849	8807.17
659.2	8826.6
659.551	8797
659.902	8874.74
660.253	8817.34
660.604	8832.71
660.955	8826.38
661.306	8898.92
661.656	8845.59
662.007	8845.59
662.358	8826.15
662.708	8869.54
663.059	8848.3
663.409	8784.12
663.76	8867.05
664.11	8844.23
664.461	8819.82
664.811	8855.3
665.161	8824.12
665.511	8805.14
665.862	8808.75
666.212	8910.67
666.562	8887.62
666.912	8845.13
667.262	8878.81
667.612	8846.94
667.962	8796.32
668.312	8805.59
668.662	8823.67
669.011	8901.63
669.361	8837.9
669.711	8788.19
670.06	8784.35
670.41	8841.74
670.76	8790.22
671.109	8817.79
671.459	8832.93
671.808	8808.3
672.157	8812.82
672.507	8722.43
672.856	8645.82
673.205	8668.42
673.554	8784.35
673.904	8721.75
674.253	8763.78
674.602	8777.79
674.951	8635.87
675.3	8560.17
675.649	8745.93
675.998	8720.17
676.346	8719.04
676.695	8738.24
677.044	8685.14
677.393	8699.6
677.741	8720.39
678.09	8671.58
678.438	8662.99
678.787	8634.74
679.135	8631.35
679.484	8566.95
679.832	8594.97
680.181	8533.28
680.529	8552.71
680.877	8533.73
681.225	8491.92
681.573	8585.48
681.922	8503.22
682.27	8543.67
682.618	8443.11
682.966	8549.1
683.314	8465.48
683.661	8438.37
684.009	8371.47
684.357	8412.83
684.705	8367.41
685.053	8331.02
685.4	8337.58
685.748	8260.52
686.095	8343.23
686.443	8304.13
686.79	8280.4
687.138	8327.63
687.485	8306.62
687.832	8231.14
688.18	8270.23
688.527	8255.32
688.874	8211.48
689.221	8203.8
689.568	8140.97
689.915	8109.79
690.262	8162.89
690.609	8090.8
690.956	8044.48
691.303	8007.64
691.65	8005.16
691.997	7981.88
692.344	7921.09
692.69	7917.25
693.037	7895.56
693.383	7874.76
693.73	7952.28
694.077	7834.77
694.423	7838.83
694.769	7811.49
695.116	7679.06
695.462	7760.19
695.808	7721.77
696.155	7703.92
696.501	7666.41
696.847	7654.88
697.193	7585.73
697.539	7603.81
697.885	7580.54
698.231	7531.04
698.577	7508.67
698.923	7472.97
699.269	7439.52
699.614	7454.89
699.96	7378.05
700.306	7412.4
700.651	7411.73
700.997	7321.56
701.342	7330.6
701.688	7263.71
702.033	7320.2
702.379	7243.37
702.724	7206.76
703.069	7226.42
703.415	7134.45
703.76	7190.71
704.105	7144.84
704.45	7155.01
704.795	7068.46
705.14	7070.27
705.485	7078.85
705.83	7007.67
706.175	7037.27
706.52	7011.74
706.865	6941.91
707.209	6942.13
707.554	6960.66
707.899	6911.4
708.243	6887.67
708.588	6886.54
708.932	6876.15
709.277	6813.1
709.621	6795.25
709.966	6767.68
710.31	6855.36
710.654	6709.15
710.998	6811.97
711.342	6763.38
711.687	6724.06
712.031	6691.07
712.375	6664.4
712.719	6676.38
713.063	6612.88
713.407	6661.69
713.75	6624.85
714.094	6674.34
714.438	6616.04
714.782	6643.16
715.125	6596.38
715.469	6635.48
715.812	6558.19
716.156	6543.5
716.499	6551.18
716.843	6554.35
717.186	6449.04
717.53	6548.92
717.873	6506.21
718.216	6490.39
718.559	6515.03
718.902	6465.99
719.246	6509.6
719.589	6456.5
719.932	6418.31
720.275	6451.07
720.617	6422.83
720.96	6450.4
721.303	6413.33
721.646	6434.12
721.989	6352.32
722.331	6373.34
722.674	6401.36
723.016	6406.1
723.359	6372.66
723.701	6396.16
724.044	6392.32
724.386	6321.81
724.729	6362.71
725.071	6291.76
725.413	6334.92
725.755	6275.71
726.097	6315.71
726.439	6245.2
726.782	6286.11
727.124	6290.63
727.465	6318.2
727.807	6287.46
728.149	6334.92
728.491	6248.37
728.833	6281.59
729.175	6240.23
729.516	6228.03
729.858	6174.02
730.199	6228.71
730.541	6248.82
730.882	6190.74
731.224	6244.98
731.565	6290.17
731.906	6260.8
732.248	6207.69
732.589	6194.81
732.93	6167.01
733.271	6197.07
733.612	6214.92
733.953	6244.07
734.294	6214.47
734.635	6178.99
734.976	6202.04
735.317	6171.98
735.658	6220.8
735.999	6180.8
736.339	6182.83
736.68	6255.37
737.021	6170.18
737.361	6219.44
737.702	6237.75
738.042	6239.33
738.383	6188.71
738.723	6237.07
739.063	6178.09
739.404	6241.59
739.744	6180.35
740.084	6179.67
740.424	6244.98
740.764	6221.47
741.104	6298.76
741.444	6234.13
741.784	6265.32
742.124	6295.6
742.464	6307.12
742.804	6264.64
743.143	6299.66
743.483	6266.9
743.823	6302.15
744.162	6300.12
744.502	6348.93
744.841	6383.05
745.181	6395.71
745.52	6475.25
745.86	6391.19
746.199	6437.51
746.538	6475.93
746.877	6539.88
747.216	6558.64
747.556	6516.16
747.895	6551.41
748.234	6569.71
748.573	6592.99
748.911	6643.84
749.25	6658.75
749.589	6682.25
749.928	6748.01
750.267	6839.76
750.605	6843.15
750.944	6822.81
751.283	6934
751.621	6997.73
751.96	6988.01
752.298	7048.8
752.636	7155.24
752.975	7143.03
753.313	7167.66
753.651	7302.58
753.989	7291.73
754.327	7407.66
754.666	7416.7
755.004	7565.39
755.342	7601.33
755.679	7715.67
756.017	7725.39
756.355	7834.54
756.693	7911.6
757.031	8049.22
757.368	8070.47
757.706	8139.16
758.044	8227.52
758.381	8349.78
758.719	8338.48
759.056	8532.6
759.394	8633.61
759.731	8686.72
760.068	8740.73
760.405	8819.6
760.743	8910.9
761.08	9054.17
761.417	9095.3
761.754	9237.67
762.091	9282.64
762.428	9373.93
762.765	9409.19
763.102	9570.54
763.438	9652.12
763.775	9695.51
764.112	9862.96
764.449	9928.04
764.785	9974.82
765.122	10053.69
765.458	10119.23
765.795	10193.57
766.131	10256.85
766.467	10354.02
766.804	10382.04
767.14	10474.92
767.476	10602.38
767.812	10611.42
768.148	10702.03
768.485	10766.44
768.821	10777.06
769.157	10879.21
769.492	10801.69
769.828	10994.68
770.164	11015.93
770.5	11062.25
770.836	11143.38
771.171	11194
771.507	11190.16
771.842	11127.56
772.178	11293.66
772.513	11311.28
772.849	11291.85
773.184	11370.94
773.519	11348.57
773.855	11445.74
774.19	11392.19
774.525	11430.38
774.86	11499.98
775.195	11530.26
775.53	11520.32
775.865	11533.2
776.2	11496.82
776.535	11569.81
776.87	11611.39
777.205	11582.69
777.539	11559.64
777.874	11636.47
778.209	11627.66
778.543	11572.52
778.878	11574.33
779.212	11604.61
779.547	11575.46
779.881	11685.06
780.215	11556.02
780.55	11695.46
780.884	11582.69
781.218	11593.54
781.552	11709.92
781.886	11540.88
782.22	11588.79
782.554	11613.42
782.888	11504.73
783.222	11525.74
783.556	11471.28
783.889	11419.53
784.223	11435.58
784.557	11457.72
784.89	11434.9
785.224	11385.18
785.557	11456.14
785.891	11416.37
786.224	11404.16
786.558	11379.98
786.891	11347.67
787.224	11205.98
787.557	11308.8
787.891	11198.07
788.224	11296.6
788.557	11234.9
788.89	11237.61
789.223	11188.12
789.556	11227.44
789.888	11137.96
790.221	11112.87
790.554	10967.11
790.887	11093.21
791.219	11058.86
791.552	11085.53
791.884	11065.42
792.217	11003.95
792.549	11001.46
792.882	10905.65
793.214	10923.5
793.546	10919.88
793.879	10906.55
794.211	10868.36
794.543	10820.22
794.875	10798.98
795.207	10829.49
795.539	10824.74
795.871	10798.98
796.203	10685.54
796.535	10709.27
796.867	10657.06
797.198	10591.08
797.53	10647.57
797.862	10518.99
798.193	10580.46
798.525	10545.88
798.856	10504.53
799.188	10412.1
799.519	10427.01
799.85	10394.7
800.182	10349.73
800.513	10394.25
800.844	10269.73
801.175	10304.76
801.506	10365.32
801.837	10280.13
802.168	10267.24
802.499	10220.24
802.83	10220.69
803.161	10162.39
803.491	10119.68
803.822	10191.09
804.153	10127.13
804.483	10092.33
804.814	10027.48
805.145	10009.85
805.475	9987.7
805.805	9960.36
806.136	9920.13
806.466	9951.09
806.796	10027.7
807.126	9852.34
807.457	9855.5
807.787	9868.84
808.117	9790.19
808.447	9830.42
808.777	9757.43
809.107	9744.77
809.436	9723.98
809.766	9766.92
810.096	9645.11
810.426	9662.06
810.755	9671.33
811.085	9612.12
811.414	9615.51
811.744	9580.48
812.073	9554.95
812.403	9599.92
812.732	9524.89
813.061	9515.4
813.39	9457.1
813.719	9435.63
814.049	9514.72
814.378	9502.52
814.707	9399.24
815.036	9408.74
815.365	9378
815.693	9366.7
816.022	9378.91
816.351	9296.2
816.68	9195.86
817.008	9305.91
817.337	9229.31
817.665	9177.56
817.994	9150.21
818.322	9188.85
818.651	9093.04
818.979	9145.01
819.307	9198.12
819.636	9105.01
819.964	9060.95
820.292	9065.24
820.62	9062.3
820.948	9079.7
821.276	9027.28
821.604	9057.11
821.932	9133.49
822.259	9148.86
822.587	9064.34
822.915	9075.86
823.243	9089.42
823.57	9003.1
823.898	9065.47
824.225	8999.71
824.553	9043.32
824.88	9058.91
825.207	9079.25
825.535	9066.6
825.862	9022.08
826.189	9008.29
826.516	9062.98
826.843	9094.17
827.17	9086.71
827.497	9040.16
827.824	9113.15
828.151	9120.38
828.478	9027.5
828.805	9104.56
829.131	9047.39
829.458	9118.35
829.785	9029.31
830.111	9073.83
830.438	9116.31
830.764	9053.49
831.09	9014.4
831.417	8997.45
831.743	9047.39
832.069	9130.32
832.395	9040.61
832.722	9063.43
833.048	9035.41
833.374	9080.38
833.7	9054.62
834.026	9038.58
834.351	8994.74
834.677	8986.6
835.003	9046.03
835.329	8924.68
835.654	8994.06
835.98	8917.22
836.306	8978.01
836.631	8955.64
836.956	8929.2
837.282	8928.3
837.607	8943.66
837.932	8806.72
838.258	8921.52
838.583	8863.89
838.908	8825.7
839.233	8877.68
839.558	8825.7
839.883	8770.11
840.208	8812.82
840.533	8776.21
840.858	8762.42
841.182	8783.44
841.507	8720.39
841.832	8782.76
842.156	8748.41
842.481	8678.59
842.805	8675.2
843.13	8656.44
843.454	8623.45
843.778	8620.73
844.103	8585.71
844.427	8602.2
844.751	8597.01
845.075	8599.94
845.399	8509.55
845.723	8539.61
846.047	8505.93
846.371	8456.22
846.695	8471.36
847.019	8350.91
847.343	8306.39
847.666	8323.11
847.99	8212.61
848.313	8288.09
848.637	8191.14
848.96	8177.81
849.284	8168.99
849.607	8130.13
849.931	8091.03
850.254	8018.04
850.577	8019.62
850.9	7967.42
851.223	7993.63
851.546	7903.46
851.869	7842.68
852.192	7931.26
852.515	7806.74
852.838	7838.38
853.161	7808.1
853.483	7755.67
853.806	7744.37
854.129	7683.81
854.451	7648.78
854.774	7670.25
855.096	7610.14
855.419	7542.57
855.741	7595.68
856.063	7515.23
856.385	7478.84
856.708	7486.3
857.03	7466.41
857.352	7465.96
857.674	7459.41
857.996	7436.81
858.318	7445.62
858.64	7394.1
858.961	7338.51
859.283	7308.23
859.605	7310.03
859.926	7292.63
860.248	7303.93
860.57	7235.01
860.891	7239.08
861.212	7220.54
861.534	7171.51
861.855	7152.3
862.176	7174.44
862.498	7222.35
862.819	7178.51
863.14	7138.29
863.461	7140.09
863.782	7159.98
864.103	7115.69
864.424	7120.89
864.745	7127.67
865.065	7055.8
865.386	7066.42
865.707	7052.19
866.027	7039.08
866.348	7067.33
866.668	7018.97
866.989	6978.97
867.309	6952.76
867.63	6963.83
867.95	6942.81
868.27	6943.26
868.59	6942.36
868.91	6929.93
869.23	6910.04
869.55	6898.07
869.87	6901
870.19	6832.31
870.51	6886.09
870.83	6898.29
871.15	6869.82
871.469	6829.37
871.789	6830.72
872.109	6826.66
872.428	6796.83
872.748	6836.83
873.067	6781.69
873.386	6771.74
873.706	6755.7
874.025	6717.06
874.344	6719.99
874.663	6786.21
874.982	6679.54
875.301	6715.7
875.62	6642.25
875.939	6691.07
876.258	6680.22
876.577	6615.36
876.896	6663.72
877.214	6614.91
877.533	6606.55
877.852	6570.17
878.17	6618.98
878.489	6661.69
878.807	6600.22
879.125	6598.41
879.444	6550.73
879.762	6572.65
880.08	6538.3
880.398	6570.84
880.716	6597.51
881.034	6483.39
881.352	6535.14
881.67	6452.43
881.988	6479.32
882.306	6472.77
882.624	6424.41
882.941	6522.94
883.259	6420.79
883.577	6385.99
883.894	6385.99
884.212	6448.81
884.529	6387.35
884.846	6370.85
885.164	6327.91
885.481	6385.31
885.798	6391.87
886.115	6294.24
886.432	6269.84
886.75	6282.26
887.067	6330.17
887.383	6235.94
887.7	6241.59
888.017	6206.11
888.334	6243.85
888.651	6247.91
888.967	6177.86
889.284	6173.79
889.6	6174.7
889.917	6111.2
890.233	6101.48
890.55	6069.39
890.866	6128.14
891.182	6076.62
891.498	6091.53
891.815	6072.33
892.131	6035.27
892.447	5967.02
892.763	5967.02
893.079	5958.43
893.395	5927.7
893.71	5949.39
894.026	5920.92
894.342	5905.32
894.657	5860.13
894.973	5905.1
895.289	5851.32
895.604	5830.75
895.92	5787.14
896.235	5748.04
896.55	5822.62
896.865	5725.22
897.181	5758.89
897.496	5735.39
897.811	5743.75
898.126	5680.25
898.441	5655.84
898.756	5648.38
899.071	5598.21
899.386	5585.56
899.7	5601.15
900.015	5532
900.33	5593.92
900.644	5507.14
900.959	5504.43
901.273	5468.05
901.588	5460.82
901.902	5399.58
902.216	5385.34
902.531	5422.63
902.845	5430.31
903.159	5380.82
903.473	5332.68
903.787	5299.24
904.101	5276.64
904.415	5347.6
904.729	5273.48
905.042	5273.93
905.356	5249.97
905.67	5229.18
905.984	5234.83
906.297	5167.49
906.611	5153.93
906.924	5132.24
907.237	5108.28
907.551	5083.65
907.864	5087.27
908.177	5082.97
908.491	5048.17
908.804	5012.24
909.117	5023.54
909.43	5013.82
909.743	4950.77
910.056	4974.73
910.368	4920.04
910.681	4906.03
910.994	4909.42
911.307	4892.92
911.619	4860.83
911.932	4858.12
912.244	4801.63
912.557	4823.32
912.869	4746.26
913.181	4757.56
913.494	4774.73
913.806	4680.95
914.118	4723.89
914.43	4696.09
914.742	4657.22
915.054	4678.69
915.366	4650.44
915.678	4610.9
915.99	4608.41
916.302	4581.52
916.613	4565.25
916.925	4546.26
917.236	4563.67
917.548	4494.74
917.859	4520.28
918.171	4473.05
918.482	4420.62
918.794	4419.49
919.105	4390.79
919.416	4411.13
919.727	4358.92
920.038	4353.95
920.349	4356.67
920.66	4322.77
920.971	4314.18
921.282	4330.23
921.593	4308.3
921.903	4227.63
922.214	4218.59
922.525	4198.48
922.835	4216.1
923.146	4238.25
923.456	4174.75
923.767	4174.07
924.077	4142.43
924.387	4152.15
924.697	4117.58
925.008	4113.96
925.318	4103.34
925.628	4068.54
925.938	4034.64
926.248	4039.61
926.558	4032.83
926.867	3982.89
927.177	3996.45
927.487	3989.44
927.796	3927.07
928.106	3937.24
928.416	3931.59
928.725	3887.98
929.034	3869.67
929.344	3865.6
929.653	3860.41
929.962	3823.8
930.271	3791.71
930.581	3828.09
930.89	3783.8
931.199	3753.52
931.508	3796.91
931.817	3787.41
932.125	3755.78
932.434	3752.39
932.743	3709.9
933.051	3680.75
933.36	3690.69
933.669	3625.38
933.977	3653.41
934.286	3595.78
934.594	3645.27
934.902	3589
935.21	3588.55
935.519	3578.38
935.827	3596.91
936.135	3545.61
936.443	3528.89
936.751	3498.38
937.059	3526.86
937.367	3487.08
937.674	3485.28
937.982	3452.28
938.29	3425.84
938.597	3440.31
938.905	3430.36
939.213	3387.2
939.52	3389.46
939.827	3433.98
940.135	3404.37
940.442	3347.2
940.749	3355.11
941.056	3353.53
941.363	3317.37
941.67	3329.8
941.977	3291.16
942.284	3281.67
942.591	3257.03
942.898	3277.15
943.205	3243.93
943.511	3212.51
943.818	3248.45
944.125	3196.92
944.431	3173.65
944.738	3198.05
945.044	3175.23
945.35	3165.74
945.657	3168
945.963	3123.25
946.269	3091.16
946.575	3147.88
946.881	3090.03
947.187	3042.8
947.493	3058.62
947.799	3037.38
948.105	3050.26
948.41	3024.04
948.716	3006.42
949.022	2986.08
949.327	2991.5
949.633	2986.98
949.938	2963.26
950.244	2964.16
950.549	2936.14
950.854	2929.13
951.16	2925.97
951.465	2945.63
951.77	2882.13
952.075	2876.93
952.38	2862.92
952.685	2868.57
952.99	2845.07
953.294	2800.55
953.599	2795.12
953.904	2816.14
954.209	2794.67
954.513	2787.89
954.818	2806.88
955.122	2771.17
955.426	2766.65
955.731	2730.72
956.035	2728.01
956.339	2739.31
956.643	2719.65
956.948	2683.94
957.252	2653.21
957.556	2668.57
957.86	2636.94
958.163	2699.99
958.467	2651.63
958.771	2627.45
959.075	2617.28
959.378	2595.13
959.682	2622.93
959.985	2589.25
960.289	2594.9
960.592	2576.6
960.896	2531.85
961.199	2561.23
961.502	2540.22
961.805	2502.93
962.108	2508.8
962.411	2525.75
962.714	2493.21
963.017	2485.53
963.32	2483.72
963.623	2475.13
963.926	2422.7
964.228	2462.7
964.531	2438.75
964.833	2437.17
965.136	2424.06
965.438	2408.92
965.741	2400.78
966.043	2420.67
966.345	2400.78
966.648	2379.09
966.95	2373.44
967.252	2345.87
967.554	2323.95
967.856	2365.76
968.158	2303.39
968.46	2291.41
968.761	2279.21
969.063	2285.53
969.365	2280.34
969.666	2255.03
969.968	2252.09
970.269	2249.38
970.571	2247.12
970.872	2243.27
971.174	2230.62
971.475	2219.55
971.776	2200.34
972.077	2181.58
972.378	2198.08
972.679	2190.85
972.98	2187.91
973.281	2180.23
973.582	2179.1
973.883	2119.89
974.183	2145.88
974.484	2132.77
974.785	2112.88
975.085	2133.67
975.386	2145.2
975.686	2099.1
975.986	2081.47
976.287	2103.62
976.587	2063.62
976.887	2066.56
977.187	2035.37
977.487	2057.97
977.787	2042.15
978.087	2029.27
978.387	2040.57
978.687	2025.88
978.987	1995.6
979.286	1981.36
979.586	1990.4
979.885	1967.12
980.185	1958.76
980.484	1943.62
980.784	1947.46
981.083	1960.34
981.382	1928.71
981.682	1929.38
981.981	1920.57
982.28	1906.56
982.579	1897.07
982.878	1928.03
983.177	1918.76
983.475	1904.53
983.774	1863.85
984.073	1864.53
984.372	1847.58
984.67	1855.49
984.969	1859.1
985.267	1838.99
985.566	1860.91
985.864	1836.28
986.162	1800.8
986.461	1830.4
986.759	1778.43
987.057	1770.97
987.355	1786.34
987.653	1777.3
987.951	1785.21
988.249	1757.64
988.547	1779.33
988.844	1772.55
989.142	1732.55
989.44	1710.41
989.737	1732.78
990.035	1733.01
990.332	1736.4
990.63	1688.94
990.927	1730.52
991.224	1690.97
991.521	1695.27
991.819	1664.53
992.116	1674.02
992.413	1695.04
992.71	1666.57
993.006	1623.18
993.303	1629.73
993.6	1655.49
993.897	1611.43
994.193	1647.13
994.49	1627.25
994.787	1607.81
995.083	1628.6
995.379	1570.07
995.676	1565.78
995.972	1597.42
996.268	1576.85
996.565	1575.95
996.861	1588.38
997.157	1552.45
997.453	1538.66
997.749	1515.16
998.044	1521.26
998.34	1537.98
998.636	1533.69
998.932	1517.87
999.227	1504.76
999.523	1505.21
999.818	1482.62
1000.114	1474.03
1000.409	1458.44
1000.704	1465.89
1001	1444.2
1001.295	1433.13
1001.59	1423.63
1001.885	1469.51
1002.18	1429.06
1002.475	1400.13
1002.77	1392.9
1003.065	1413.01
1003.359	1406.91
1003.654	1380.7
1003.949	1380.92
1004.243	1392.45
1004.538	1381.15
1004.832	1399
1005.127	1372.11
1005.421	1340.7
1005.715	1359.68
1006.009	1344.99
1006.304	1335.95
1006.598	1315.16
1006.892	1300.93
1007.186	1307.93
1007.48	1310.64
1007.773	1293.92
1008.067	1296.86
1008.361	1277.2
1008.655	1287.14
1008.948	1258.67
1009.242	1290.08
1009.535	1243.07
1009.829	1225.22
1010.122	1231.1
1010.415	1223.87
1010.708	1232
1011.001	1223.87
1011.295	1186.35
1011.588	1203.08
1011.881	1206.01
1012.173	1184.09
1012.466	1191.32
1012.759	1144.09
1013.052	1169.86
1013.344	1170.31
1013.637	1192.68
1013.93	1156.98
1014.222	1145.45
1014.514	1157.2
1014.807	1140.7
1015.099	1129.86
1015.391	1144.55
1015.683	1111.55
1015.976	1105.23
1016.268	1104.55
1016.56	1102.51
1016.851	1111.1
1017.143	1123.08
1017.435	1089.63
1017.727	1057.99
1018.018	1081.05
1018.31	1081.27
1018.602	1041.27
1018.893	1073.81
1019.185	1069.75
1019.476	1040.14
1019.767	1048.28
1020.058	1035.17
1020.35	1038.33
1020.641	1029.07
1020.932	987.26
1021.223	1021.84
1021.514	1002.63
1021.804	982.52
1022.095	1002.63
1022.386	994.49
1022.677	994.04
1022.967	991.1
1023.258	971.22
1023.548	956.75
1023.839	963.76
1024.129	973.25
1024.419	933.7
1024.709	932.57
1025	948.17
1025.29	924.21
1025.58	921.73
1025.87	907.26
1026.16	913.59
1026.449	898.68
1026.739	890.77
1027.029	899.13
1027.319	911.11
1027.608	905.46
1027.898	906.36
1028.187	897.77
1028.477	874.72
1028.766	869.98
1029.055	881.95
1029.344	852.58
1029.634	872.01
1029.923	881.5
1030.212	838.11
1030.501	855.74
1030.79	836.08
1031.078	840.15
1031.367	823.2
1031.656	809.87
1031.945	800.83
1032.233	838.11
1032.522	809.64
1032.81	803.54
1033.099	803.76
1033.387	796.31
1033.675	799.24
1033.963	792.47
1034.251	796.76
1034.54	795.18
1034.828	781.39
1035.116	770.32
1035.403	774.16
1035.691	761.51
1035.979	761.73
1036.267	765.12
1036.554	747.95
1036.842	740.26
1037.129	735.52
1037.417	731.45
1037.704	727.16
1037.992	710.89
1038.279	724.9
1038.566	711.34
1038.853	711.34
1039.14	711.34
