Data from hue_110_FLMS001491_00085.txt Node
Date: Tue Feb 07 17:01:56 GMT 2017
User: dcchb
Spectrometer: FLMS00149
Trigger mode: 0
Integration Time (sec): 2.000000E-2
Scans to average: 10
Electric dark correction enabled: true
Nonlinearity correction enabled: false
Boxcar width: 0
XAxis mode: Wavelengths
Number of Pixels in Spectrum: 2048
>>>>>Begin Spectral Data<<<<<
341.393	-6.45
341.776	-6.45
342.16	-6.45
342.543	-61.82
342.927	-74.48
343.31	-71.09
343.693	-56.17
344.077	-74.93
344.46	-75.61
344.843	-48.94
345.226	-44.19
345.61	-30.41
345.993	-20.01
346.376	0.78
346.759	-3.06
347.142	25.18
347.525	42.13
347.908	76.93
348.291	87.78
348.674	86.65
349.057	104.95
349.44	126.42
349.823	155.8
350.206	157.61
350.588	186.08
350.971	208.45
351.354	205.97
351.737	226.99
352.119	244.61
352.502	264.72
352.884	255.69
353.267	265.63
353.65	290.03
354.032	311.28
354.414	311.28
354.797	298.4
355.179	330.49
355.562	330.71
355.944	315.12
356.326	335.23
356.709	329.13
357.091	343.14
357.473	349.24
357.855	342.24
358.238	358.28
358.62	347.21
359.002	354.21
359.384	356.25
359.766	328
360.148	320.99
360.53	329.36
360.912	316.25
361.294	320.99
361.676	326.87
362.057	327.55
362.439	342.01
362.821	327.1
363.203	315.57
363.584	312.41
363.966	308.57
364.348	326.19
364.729	308.79
365.111	309.24
365.493	311.73
365.874	329.36
366.256	318.51
366.637	308.34
367.019	325.06
367.4	324.16
367.781	314.21
368.163	284.39
368.544	323.71
368.925	292.52
369.306	332.52
369.688	310.83
370.069	314.67
370.45	301.79
370.831	312.86
371.212	312.41
371.593	306.53
371.974	307.89
372.355	311.73
372.736	322.8
373.117	327.1
373.498	325.51
373.879	316.25
374.26	311.05
374.641	336.36
375.021	311.5
375.402	302.92
375.783	314.21
376.163	328.45
376.544	320.77
376.925	304.05
377.305	296.81
377.686	324.16
378.066	330.49
378.447	309.02
378.827	323.48
379.208	330.03
379.588	324.84
379.968	317.83
380.349	337.94
380.729	308.79
381.109	353.76
381.489	323.71
381.87	334.55
382.25	347.66
382.63	336.81
383.01	348.79
383.39	326.42
383.77	344.27
384.15	346.53
384.53	349.02
384.91	337.27
385.29	348.11
385.67	352.41
386.049	350.82
386.429	338.62
386.809	347.89
387.189	347.21
387.568	356.47
387.948	361.45
388.328	373.42
388.707	349.92
389.087	358.51
389.466	362.12
389.846	360.32
390.225	357.83
390.605	366.64
390.984	357.83
391.363	344.04
391.743	358.28
392.122	399.64
392.501	363.25
392.881	363.25
393.26	371.16
393.639	371.61
394.018	358.06
394.397	361.9
394.776	375.46
395.155	357.38
395.534	384.5
395.913	375.68
396.292	375
396.671	415.23
397.05	380.2
397.429	372.52
397.808	390.82
398.186	393.99
398.565	390.6
398.944	397.15
399.323	390.15
399.701	375.23
400.08	375.23
400.458	387.89
400.837	393.76
401.215	391.28
401.594	396.25
401.972	397.38
402.351	392.86
402.729	417.72
403.107	409.13
403.486	420.43
403.864	414.33
404.242	406.87
404.62	389.02
404.999	423.36
405.377	419.75
405.755	440.77
406.133	428.34
406.511	438.51
406.889	410.26
407.267	417.49
407.645	433.53
408.023	430.14
408.401	439.41
408.779	448.67
409.156	432.4
409.534	448.9
409.912	459.3
410.29	444.61
410.667	477.83
411.045	462.91
411.422	473.53
411.8	448.22
412.178	462.91
412.555	479.86
412.933	465.17
413.31	460.43
413.687	471.95
414.065	505.85
414.442	510.14
414.819	466.08
415.197	486.87
415.574	503.36
415.951	498.39
416.328	495.23
416.705	512.18
417.082	499.52
417.46	492.97
417.837	514.21
418.214	523.47
418.591	506.53
418.967	500.65
419.344	524.6
419.721	540.42
420.098	537.94
420.475	518.28
420.852	516.47
421.228	555.56
421.605	519.41
421.982	527.99
422.358	538.62
422.735	548.11
423.111	557.15
423.488	567.99
423.864	564.83
424.241	569.58
424.617	567.77
424.994	554.21
425.37	543.36
425.746	559.41
426.123	586.3
426.499	580.2
426.875	601.89
427.251	600.54
427.627	616.13
428.003	579.29
428.379	603.02
428.756	589.24
429.132	599.18
429.507	625.39
429.883	618.84
430.259	631.04
430.635	664.49
431.011	630.59
431.387	648.67
431.763	626.75
432.138	650.7
432.514	663.13
432.89	655
433.265	660.87
433.641	679.63
434.016	665.39
434.392	706.75
434.767	708.78
435.143	695.9
435.518	690.7
435.894	709.68
436.269	737.48
436.644	714.66
437.02	730.02
437.395	736.58
437.77	735.9
438.145	745.39
438.52	759.4
438.895	772.51
439.271	770.93
439.646	759.17
440.021	770.25
440.395	774.77
440.77	760.98
441.145	784.26
441.52	782
441.895	833.52
442.27	805.28
442.645	820.42
443.019	797.37
443.394	820.42
443.769	809.57
444.143	830.59
444.518	838.72
444.892	828.33
445.267	835.56
445.641	864.03
446.016	848.21
446.39	850.92
446.764	861.09
447.139	862.68
447.513	857.93
447.887	861.09
448.262	892.96
448.636	872.84
449.01	876.23
449.384	924.14
449.758	911.49
450.132	914.88
450.506	899.96
450.88	904.26
451.254	936.8
451.628	975.44
452.002	955.78
452.376	968.21
452.75	963.69
453.123	956.01
453.497	973.41
453.871	1010.02
454.244	1008.21
454.618	997.81
454.992	1005.27
455.365	1025.38
455.739	1062.22
456.112	1072.39
456.486	1081.88
456.859	1063.35
457.232	1081.2
457.606	1083.69
457.979	1097.47
458.352	1138.6
458.725	1149
459.099	1119.39
459.472	1164.81
459.845	1195.77
460.218	1217.47
460.591	1196
460.964	1221.54
461.337	1215.43
461.71	1241.65
462.083	1248.88
462.456	1274.64
462.829	1245.04
463.201	1315.77
463.574	1332.72
463.947	1321.19
464.32	1345.15
464.692	1365.71
465.065	1356.9
465.438	1365.94
465.81	1417.69
466.183	1426.5
466.555	1475.09
466.928	1498.36
467.3	1508.76
467.672	1527.52
468.045	1548.53
468.417	1559.61
468.789	1607.06
469.161	1612.03
469.534	1629.89
469.906	1699.72
470.278	1675.99
470.65	1772.03
471.022	1786.27
471.394	1809.09
471.766	1843.21
472.138	1856.77
472.51	1887.28
472.882	1934.29
473.253	1981.74
473.625	2011.12
473.997	2064.45
474.369	2095.64
474.74	2107.16
475.112	2184
475.484	2246.14
475.855	2279.13
476.227	2332.92
476.598	2430.77
476.97	2481.62
477.341	2532.01
477.713	2590.77
478.084	2631.22
478.455	2746.69
478.827	2770.2
479.198	2879.57
479.569	2889.51
479.94	3024.2
480.311	3059.23
480.682	3167.25
481.053	3275.04
481.424	3355.49
481.795	3434.36
482.166	3508.93
482.537	3607.91
482.908	3720.23
483.279	3800.22
483.65	3947.79
484.021	4061.01
484.391	4144.62
484.762	4240.89
485.133	4320.21
485.503	4425.29
485.874	4585.97
486.244	4713.42
486.615	4803.36
486.985	4936.69
487.356	5045.39
487.726	5129.68
488.097	5277.93
488.467	5394.76
488.837	5570.12
489.207	5726.28
489.578	5855.31
489.948	5956.33
490.318	6086.72
490.688	6207.85
491.058	6350.67
491.428	6470.44
491.798	6626.14
492.168	6774.84
492.538	6867.49
492.908	7010.08
493.278	7184.54
493.648	7279.23
494.017	7434.93
494.387	7552.22
494.757	7694.81
495.126	7881.25
495.496	7913.11
495.866	8009.61
496.235	8137.51
496.605	8357.62
496.974	8447.33
497.344	8615.69
497.713	8677.61
498.082	8785.4
498.452	8986.08
498.821	9034.66
499.19	9106.3
499.559	9274.66
499.928	9302
500.298	9493.63
500.667	9640.98
501.036	9551.03
501.405	9778.82
501.774	9844.59
502.143	9936.33
502.512	9949.22
502.88	10150.79
503.249	10232.6
503.618	10228.98
503.987	10352.82
504.356	10437.56
504.724	10549.88
505.093	10611.35
505.462	10683.89
505.83	10800.49
506.199	10871.45
506.567	10991
506.936	11017.89
507.304	11180.6
507.672	11193.02
508.041	11235.06
508.409	11345.11
508.777	11475.05
509.145	11585.56
509.514	11611.77
509.882	11626.01
510.25	11661.71
510.618	11836.85
510.986	11772.9
511.354	11974.02
511.722	12025.77
512.09	12130.18
512.458	12062.61
512.826	12113.9
513.193	12240.45
513.561	12276.16
513.929	12284.52
514.297	12430.05
514.664	12487.45
515.032	12484.97
515.4	12584.4
515.767	12649.03
516.135	12665.08
516.502	12603.84
516.869	12819.42
517.237	12881.57
517.604	12740.78
517.972	12905.3
518.339	13023.94
518.706	12903.04
519.073	13041.79
519.44	12986.2
519.808	13135.35
520.175	13077.27
520.542	13248.79
520.909	13298.51
521.276	13203.59
521.643	13250.37
522.009	13357.04
522.376	13369.69
522.743	13433.87
523.11	13492.17
523.477	13510.7
523.843	13576.24
524.21	13658.95
524.577	13719.29
524.943	13738.27
525.31	13738.27
525.676	13830.92
526.043	13912.28
526.409	13830.02
526.776	13909.11
527.142	14005.38
527.508	14028.66
527.874	14010.35
528.241	14007.41
528.607	14047.41
528.973	14048.32
529.339	14048.09
529.705	14119.05
530.071	14187.75
530.437	14137.58
530.803	14158.6
531.169	14198.82
531.535	14129.67
531.901	14131.48
532.267	14159.5
532.632	14190.46
532.998	14197.24
533.364	14244.7
533.73	14170.35
534.095	14249.44
534.461	14229.56
534.826	14228.65
535.192	14157.69
535.557	14216.67
535.923	14211.48
536.288	14156.56
536.653	14183.68
537.019	14112.95
537.384	14159.05
537.749	14119.5
538.114	14092.38
538.479	13972.84
538.845	14044.93
539.21	13907.53
539.575	13928.32
539.94	13832.28
540.305	14016.23
540.67	13947.3
541.034	13810.36
541.399	13846.97
541.764	13926.51
542.129	13806.29
542.494	13766.06
542.858	13819.62
543.223	13733.75
543.587	13817.59
543.952	13695.33
544.316	13658.95
544.681	13625.73
545.045	13691.26
545.41	13618.72
545.774	13569.69
546.138	13635.9
546.503	13511.38
546.867	13514.09
547.231	13555.22
547.595	13455.56
547.959	13526.52
548.324	13452.85
548.688	13425.96
549.052	13407.2
549.416	13368.79
549.779	13295.79
550.143	13291.27
550.507	13309.35
550.871	13283.37
551.235	13178.96
551.599	13283.59
551.962	13237.49
552.326	13161.79
552.689	13220.54
553.053	13085.63
553.417	13088.79
553.78	13206.76
554.143	13111.62
554.507	13101.68
554.87	13052.64
555.234	13215.57
555.597	13090.38
555.96	13051.51
556.323	13102.58
556.686	13014.45
557.05	13044.95
557.413	13053.54
557.776	12993.88
558.139	12978.29
558.502	12994.11
558.865	12951.17
559.228	13152.75
559.59	13049.93
559.953	12967.89
560.316	13065.29
560.679	13085.86
561.041	13052.64
561.404	13070.94
561.767	13082.24
562.129	12953.88
562.492	13116.14
562.854	13084.27
563.217	13064.39
563.579	13068
563.941	13147.32
564.304	13130.83
564.666	13199.53
565.028	13258.51
565.39	13141
565.753	13183.93
566.115	13185.74
566.477	13264.83
566.839	13201.56
567.201	13254.67
567.563	13201.56
567.925	13272.74
568.287	13260.32
568.648	13297.38
569.01	13284.27
569.372	13333.53
569.734	13372.18
570.095	13302.35
570.457	13375.34
570.819	13415.79
571.18	13293.31
571.542	13451.95
571.903	13376.47
572.265	13427.77
572.626	13446.75
572.987	13486.07
573.349	13460.08
573.71	13536.92
574.071	13567.88
574.432	13477.48
574.794	13577.37
575.155	13522
575.516	13516.35
575.877	13613.3
576.238	13598.84
576.599	13687.65
576.96	13568.1
577.32	13526.75
577.681	13561.32
578.042	13683.58
578.403	13594.32
578.763	13605.62
579.124	13597.26
579.485	13665.28
579.845	13664.15
580.206	13637.25
580.566	13516.13
580.927	13570.82
581.287	13612.4
581.648	13564.49
582.008	13643.36
582.368	13593.41
582.728	13541.89
583.089	13601.55
583.449	13556.13
583.809	13605.16
584.169	13557.48
584.529	13487.88
584.889	13581.44
585.249	13534.66
585.609	13436.58
585.969	13516.58
586.329	13533.75
586.688	13550.7
587.048	13426.86
587.408	13420.99
587.768	13419.41
588.127	13530.59
588.487	13424.15
588.846	13495.79
589.206	13389.35
589.565	13409.69
589.925	13437.03
590.284	13486.52
590.643	13393.42
591.003	13418.5
591.362	13491.72
591.721	13437.26
592.08	13400.42
592.44	13517.71
592.799	13454.21
593.158	13373.76
593.517	13399.07
593.876	13413.98
594.235	13350.03
594.593	13353.87
594.952	13364.27
595.311	13308.22
595.67	13355.23
596.029	13399.52
596.387	13357.71
596.746	13422.34
597.104	13331.27
597.463	13298.96
597.822	13283.14
598.18	13364.95
598.538	13298.51
598.897	13361.78
599.255	13247.66
599.613	13426.41
599.972	13307.09
600.33	13387.77
600.688	13312.29
601.046	13381.67
601.404	13391.84
601.762	13322.01
602.12	13376.02
602.478	13418.28
602.836	13310.26
603.194	13267.55
603.552	13320.2
603.91	13227.55
604.268	13284.72
604.625	13307.32
604.983	13420.54
605.341	13331.5
605.698	13377.15
606.056	13366.08
606.413	13327.88
606.771	13440.42
607.128	13392.74
607.485	13330.6
607.843	13344.15
608.2	13414.21
608.557	13450.14
608.914	13411.5
609.272	13422.8
609.629	13481.78
609.986	13494.89
610.343	13402.23
610.7	13534.43
611.057	13463.93
611.414	13518.16
611.771	13505.51
612.127	13472.51
612.484	13493.98
612.841	13606.29
613.198	13521.55
613.554	13623.24
613.911	13582.57
614.267	13571.95
614.624	13546.18
614.98	13684.48
615.337	13638.38
615.693	13685.39
616.05	13543.7
616.406	13734.88
616.762	13714.31
617.118	13631.6
617.475	13672.28
617.831	13742.11
618.187	13690.13
618.543	13666.63
618.899	13805.84
619.255	13778.72
619.611	13763.58
619.967	13815.1
620.323	13853.75
620.678	13737.36
621.034	13736.69
621.39	13640.64
621.746	13714.54
622.101	13852.84
622.457	13833.41
622.812	13869.11
623.168	13842.67
623.523	13848.1
623.879	13836.12
624.234	13729.91
624.589	13793.86
624.945	13784.6
625.3	13826.18
625.655	13759.29
626.01	13750.25
626.365	13818.94
626.72	13745.05
627.075	13713.86
627.43	13778.27
627.785	13673.41
628.14	13734.2
628.495	13794.76
628.85	13759.74
629.205	13652.62
629.559	13686.52
629.914	13632.51
630.269	13640.87
630.623	13686.74
630.978	13584.83
631.332	13642.68
631.687	13707.08
632.041	13644.94
632.396	13649.68
632.75	13592.28
633.104	13647.42
633.459	13611.49
633.813	13584.6
634.167	13575.56
634.521	13550.48
634.875	13533.3
635.229	13561.55
635.583	13515.22
635.937	13485.17
636.291	13393.19
636.645	13420.54
636.999	13391.39
637.352	13456.02
637.706	13357.94
638.06	13353.65
638.413	13344.83
638.767	13377.83
639.121	13362.23
639.474	13280.88
639.828	13282.24
640.181	13361.56
640.534	13263.25
640.888	13281.11
641.241	13218.28
641.594	13266.87
641.947	13316.13
642.301	13275.91
642.654	13197.94
643.007	13268.68
643.36	13283.14
643.713	13334.44
644.066	13324.04
644.419	13213.76
644.771	13147.32
645.124	12999.76
645.477	12986.88
645.83	12943.04
646.182	12917.05
646.535	12811.74
646.888	12823.04
647.24	12799.76
647.593	12814.23
647.945	12826.43
648.298	12649.94
648.65	12722.48
649.002	12733.1
649.355	12669.82
649.707	12749.59
650.059	12759.54
650.411	12896.93
650.763	12971.28
651.115	13081.56
651.467	12969.48
651.819	13023.49
652.171	12911.4
652.523	13030.94
652.875	13001.34
653.227	12912.53
653.578	13109.58
653.93	13077.95
654.282	12915.47
654.633	13004.5
654.985	12969.7
655.337	12971.96
655.688	13013.54
656.039	13010.38
656.391	12946.88
656.742	13019.87
657.094	13000.21
657.445	13004.73
657.796	13043.82
658.147	12973.32
658.498	13027.1
658.849	13081.34
659.2	13004.5
659.551	13026.65
659.902	13089.02
660.253	13051.73
660.604	13103.26
660.955	13021.68
661.306	13078.85
661.656	13081.34
662.007	13068.68
662.358	13130.15
662.708	13106.65
663.059	13089.7
663.409	13002.92
663.76	13113.65
664.11	13108.45
664.461	13083.82
664.811	13073.65
665.161	13119.08
665.511	13080.21
665.862	13017.16
666.212	13100.32
666.562	13069.81
666.912	13151.62
667.262	13090.6
667.612	13132.18
667.962	13131.05
668.312	13004.95
668.662	13190.49
669.011	13199.98
669.361	13079.98
669.711	13099.19
670.06	13069.13
670.41	13046.31
670.76	13029.81
671.109	13094.9
671.459	13031.17
671.808	13065.52
672.157	13145.74
672.507	12969.7
672.856	13009.47
673.205	12965.86
673.554	13018.74
673.904	12949.81
674.253	12981.68
674.602	12887.44
674.951	12797.05
675.3	12690.16
675.649	12942.13
675.998	12836.37
676.346	12881.79
676.695	12907.78
677.044	12804.06
677.393	12826.65
677.741	12822.81
678.09	12856.71
678.438	12852.64
678.787	12785.53
679.135	12791.17
679.484	12785.98
679.832	12801.57
680.181	12642.7
680.529	12776.49
680.877	12694.68
681.225	12704.85
681.573	12715.47
681.922	12625.08
682.27	12599.54
682.618	12595.25
682.966	12551.41
683.314	12616.04
683.661	12568.58
684.009	12488.58
684.357	12456.04
684.705	12423.73
685.053	12464.18
685.4	12479.54
685.748	12336.95
686.095	12331.53
686.443	12331.07
686.79	12302.37
687.138	12289.49
687.485	12294.46
687.832	12233.45
688.18	12190.29
688.527	12150.29
688.874	12133.57
689.221	12051.08
689.568	12094.92
689.915	12059.67
690.262	11999.56
690.609	11932.67
690.956	11894.02
691.303	11884.76
691.65	11824.65
691.997	11798.88
692.344	11772.9
692.69	11719.34
693.037	11726.12
693.383	11569.74
693.73	11581.26
694.077	11614.71
694.423	11637.31
694.769	11540.36
695.116	11452.23
695.462	11469.63
695.808	11451.1
696.155	11395.28
696.501	11316.19
696.847	11317.09
697.193	11240.48
697.539	11295.62
697.885	11210.88
698.231	11147.15
698.577	11090.43
698.923	11082.97
699.269	11115.96
699.614	10996.42
699.96	10946.25
700.306	10933.82
700.651	10901.28
700.997	10829.19
701.342	10776.31
701.688	10760.49
702.033	10746.03
702.379	10642.53
702.724	10678.24
703.069	10717.78
703.415	10589.65
703.76	10599.37
704.105	10502.42
704.45	10552.14
704.795	10438.69
705.14	10437.79
705.485	10357.11
705.83	10308.98
706.175	10409.54
706.52	10343.1
706.865	10263.56
707.209	10278.02
707.554	10216.33
707.899	10261.3
708.243	10185.59
708.588	10094.07
708.932	10101.53
709.277	10053.62
709.621	10032.6
709.966	9959.84
710.31	10028.08
710.654	9966.39
710.998	9972.49
711.342	10000.29
711.687	9882.78
712.031	9876.22
712.375	9776.56
712.719	9879.39
713.063	9843.91
713.407	9757.36
713.75	9756.68
714.094	9771.37
714.438	9682.1
714.782	9713.06
715.125	9667.19
715.469	9718.94
715.812	9606.17
716.156	9585.38
716.499	9583.12
716.843	9555.78
717.186	9535.44
717.53	9646.85
717.873	9598.49
718.216	9555.55
718.559	9507.87
718.902	9449.34
719.246	9479.85
719.589	9456.35
719.932	9430.13
720.275	9391.49
720.617	9414.54
720.96	9435.33
721.303	9456.12
721.646	9376.12
721.989	9333.64
722.331	9390.59
722.674	9310.14
723.016	9402.34
723.359	9388.78
723.701	9333.41
724.044	9373.86
724.386	9302.45
724.729	9376.58
725.071	9328.44
725.413	9226.07
725.755	9277.6
726.097	9254.09
726.439	9248.9
726.782	9251.38
727.124	9272.4
727.465	9240.99
727.807	9267.65
728.149	9207.99
728.491	9212.06
728.833	9242.57
729.175	9191.5
729.516	9147.65
729.858	9186.07
730.199	9145.85
730.541	9176.58
730.882	9131.38
731.224	9146.07
731.565	9169.8
731.906	9145.85
732.248	9134.77
732.589	9143.36
732.93	9134.55
733.271	9160.76
733.612	9100.42
733.953	9137.94
734.294	9172.06
734.635	9113.08
734.976	9119.86
735.317	9100.2
735.658	9085.06
735.999	9150.82
736.339	9188.56
736.68	9151.04
737.021	9197.15
737.361	9079.41
737.702	9117.83
738.042	9141.33
738.383	9150.82
738.723	9201.66
739.063	9182
739.404	9195.11
739.744	9109.24
740.084	9151.5
740.424	9233.08
740.764	9171.38
741.104	9247.54
741.444	9177.71
741.784	9219.97
742.124	9262.45
742.464	9313.98
742.804	9264.71
743.143	9273.3
743.483	9356.24
743.823	9305.16
744.162	9328.89
744.502	9407.31
744.841	9379.29
745.181	9396.01
745.52	9477.82
745.86	9516.91
746.199	9510.81
746.538	9509.23
746.877	9626.74
747.216	9643.24
747.556	9709.67
747.895	9757.81
748.234	9725.94
748.573	9781.99
748.911	9914.41
749.25	9913.96
749.589	9956.67
749.928	10107.86
750.267	10166.39
750.605	10166.39
750.944	10264.24
751.283	10296.78
751.621	10426.27
751.96	10515.75
752.298	10567.73
752.636	10631.68
752.975	10721.85
753.313	10798.01
753.651	10993.03
753.989	11040.26
754.327	11142.18
754.666	11187.83
755.004	11329.97
755.342	11507.82
755.679	11649.74
756.017	11726.57
756.355	11867.36
756.693	12029.39
757.031	12150.74
757.368	12256.73
757.706	12416.95
758.044	12454.23
758.381	12656.72
758.719	12777.62
759.056	12936.93
759.394	13030.26
759.731	13170.83
760.068	13240.43
760.405	13468.9
760.743	13571.27
761.08	13850.13
761.417	13948.66
761.754	14108.65
762.091	14300.51
762.428	14358.37
762.765	14514.75
763.102	14777.34
763.438	14827.28
763.775	14881.06
764.112	15086.48
764.449	15267.04
764.785	15410.77
765.122	15484.44
765.458	15658.9
765.795	15798.78
766.131	15948.38
766.467	16099.79
766.804	16125.32
767.14	16205.55
767.476	16422.27
767.812	16432.66
768.148	16639.44
768.485	16712.2
768.821	16866.55
769.157	16906.55
769.492	17048.69
769.828	17204.62
770.164	17167.56
770.5	17249.14
770.836	17398.06
771.171	17361.9
771.507	17494.55
771.842	17644.61
772.178	17644.15
772.513	17776.35
772.849	17773.87
773.184	17772.74
773.519	17970.7
773.855	17970.7
774.19	18006.41
774.525	18022
774.86	18091.37
775.195	18213.18
775.53	18197.36
775.865	18147.42
776.2	18163.46
776.535	18118.72
776.87	18260.41
777.205	18251.14
777.539	18225.16
777.874	18377.02
778.209	18363.23
778.543	18337.47
778.878	18388.09
779.212	18451.14
779.547	18273.06
779.881	18463.79
780.215	18408.43
780.55	18444.36
780.884	18467.18
781.218	18496.79
781.552	18493.85
781.886	18471.48
782.22	18424.25
782.554	18419.95
782.888	18241.65
783.222	18322.1
783.556	18290.92
783.889	18230.81
784.223	18085.73
784.557	18087.08
784.89	18228.32
785.224	18163.01
785.557	18163.92
785.891	18201.2
786.224	18109
786.558	18117.14
786.891	18066.06
787.224	17950.81
787.557	18024.48
787.891	17936.58
788.224	18072.39
788.557	18004.6
788.89	18032.62
789.223	17995.11
789.556	17867.65
789.888	17904.71
790.221	17832.85
790.554	17722.8
790.887	17779.52
791.219	17662.23
791.552	17609.81
791.884	17617.49
792.217	17551.28
792.549	17550.15
792.882	17469.24
793.214	17454.78
793.546	17475.8
793.879	17365.52
794.211	17242.81
794.543	17289.36
794.875	17239.65
795.207	17337.5
795.539	17168.24
795.871	17212.53
796.203	17029.71
796.535	17084.62
796.867	16976.6
797.198	16903.38
797.53	17037.17
797.862	16781.13
798.193	16886.21
798.525	16895.02
798.856	16792.2
799.188	16674.01
799.519	16637.4
799.85	16581.58
800.182	16625.42
800.513	16584.97
800.844	16456.62
801.175	16565.99
801.506	16526.44
801.837	16504.98
802.168	16486.45
802.499	16389.27
802.83	16275.6
803.161	16345.21
803.491	16194.7
803.822	16262.04
804.153	16225.89
804.483	16102.73
804.814	16088.49
805.145	16084.2
805.475	16040.58
805.805	16035.38
806.136	15988.38
806.466	15925.56
806.796	15935.73
807.126	15847.14
807.457	15738.44
807.787	15822.73
808.117	15698.67
808.447	15682.4
808.777	15691.89
809.107	15671.78
809.436	15610.31
809.766	15620.48
810.096	15537.32
810.426	15455.06
810.755	15519.69
811.085	15448.96
811.414	15423.65
811.744	15314.5
812.073	15234.73
812.403	15238.57
812.732	15238.57
813.061	15222.3
813.39	15058.46
813.719	15098.46
814.049	15128.74
814.378	15136.88
814.707	15087.84
815.036	15114.96
815.365	14888.29
815.693	14775.98
816.022	14861.18
816.351	14884.68
816.68	14728.75
817.008	14817.11
817.337	14646.49
817.665	14605.82
817.994	14789.54
818.322	14698.47
818.651	14671.8
818.979	14573.5
819.307	14612.82
819.636	14625.25
819.964	14493.05
820.292	14597.23
820.62	14529.89
820.948	14484.92
821.276	14495.31
821.604	14487.85
821.932	14537.57
822.259	14502.77
822.587	14484.92
822.915	14487.63
823.243	14511.81
823.57	14538.7
823.898	14462.54
824.225	14400.62
824.553	14408.08
824.88	14462.32
825.207	14484.01
825.535	14361.98
825.862	14499.38
826.189	14391.81
826.516	14486.05
826.843	14549.55
827.17	14522.43
827.497	14561.52
827.824	14507.51
828.151	14540.51
828.478	14625.7
828.805	14546.38
829.131	14512.71
829.458	14526.72
829.785	14461.64
830.111	14439.95
830.438	14587.06
830.764	14525.14
831.09	14469.77
831.417	14413.51
831.743	14497.57
832.069	14446.27
832.395	14384.35
832.722	14465.93
833.048	14426.16
833.374	14435.65
833.7	14344.13
834.026	14394.52
834.351	14407.63
834.677	14394.52
835.003	14370.57
835.329	14321.76
835.654	14299.61
835.98	14222.78
836.306	14311.59
836.631	14227.3
836.956	14303.9
837.282	14274.3
837.607	14279.95
837.932	14162.44
838.258	14170.8
838.583	14134.64
838.908	14018.49
839.233	14077.69
839.558	14047.64
839.883	13961.09
840.208	13915.21
840.533	13984.36
840.858	13971.26
841.182	13880.19
841.507	13937.59
841.832	13905.27
842.156	13930.81
842.481	13797.02
842.805	13820.07
843.13	13722.9
843.454	13797.7
843.778	13752.28
844.103	13706.41
844.427	13677.03
844.751	13739.4
845.075	13574.66
845.399	13604.94
845.723	13493.08
846.047	13526.97
846.371	13468.45
846.695	13419.41
847.019	13347.32
847.343	13172.63
847.666	13205.85
847.99	13143.71
848.313	13124.73
848.637	12972.41
848.96	13044.95
849.284	13004.28
849.607	12888.12
849.931	12888.8
850.254	12848.35
850.577	12722.93
850.9	12620.11
851.223	12602.25
851.546	12554.57
851.869	12556.6
852.192	12547.57
852.515	12424.18
852.838	12324.52
853.161	12298.98
853.483	12309.61
853.806	12246.33
854.129	12234.81
854.451	12211.3
854.774	12158.42
855.096	12152.1
855.419	12008.6
855.741	11992.1
856.063	11948.71
856.385	11962.72
856.708	11951.88
857.03	11795.95
857.352	11872.56
857.674	11858.77
857.996	11724.08
858.318	11725.44
858.64	11724.99
858.961	11631.88
859.283	11620.36
859.605	11565.9
859.926	11604.77
860.248	11589.17
860.57	11533.81
860.891	11477.99
861.212	11411.55
861.534	11393.25
861.855	11393.7
862.176	11418.33
862.498	11454.26
862.819	11367.71
863.14	11291.78
863.461	11324.55
863.782	11233.02
864.103	11233.48
864.424	11266.7
864.745	11272.34
865.065	11188.73
865.386	11165.46
865.707	11148.05
866.027	11183.76
866.348	11113.03
866.668	11113.25
866.989	10993.48
867.309	11068.96
867.63	11072.12
867.95	11041.16
868.27	10920.26
868.59	10930.66
868.91	10982.41
869.23	10957.32
869.55	10823.54
869.87	10923.65
870.19	10844.33
870.51	10883.2
870.83	10869.64
871.15	10814.5
871.469	10833.49
871.789	10794.17
872.109	10852.02
872.428	10762.98
872.748	10794.62
873.067	10692.93
873.386	10721.85
873.706	10654.06
874.025	10620.16
874.344	10587.84
874.663	10626.94
874.982	10608.18
875.301	10610.67
875.62	10545.58
875.939	10580.84
876.258	10564.57
876.577	10501.74
876.896	10549.2
877.214	10419.94
877.533	10407.28
877.852	10451.35
878.17	10514.85
878.489	10442.08
878.807	10431.24
879.125	10380.62
879.444	10446.15
879.762	10389.2
880.08	10361.18
880.398	10368.87
880.716	10365.7
881.034	10353.5
881.352	10333.39
881.67	10240.51
881.988	10299.49
882.306	10236.67
882.624	10175.88
882.941	10142.66
883.259	10126.61
883.577	10128.87
883.894	10128.87
884.212	10075.54
884.529	10119.38
884.846	10021.53
885.164	9975.66
885.481	9942.21
885.798	10006.16
886.115	9905.15
886.432	9976.11
886.75	9850.46
887.067	9850.46
887.383	9850.46
887.7	9826.96
888.017	9782.21
888.334	9838.94
888.651	9793.51
888.967	9753.97
889.284	9693.18
889.6	9751.93
889.917	9575.21
890.233	9636.91
890.55	9558.49
890.866	9522.11
891.182	9537.25
891.498	9521.43
891.815	9479.62
892.131	9495.22
892.447	9414.77
892.763	9388.1
893.079	9301.78
893.395	9357.82
893.71	9287.09
894.026	9282.79
894.342	9210.03
894.657	9182.91
894.973	9146.3
895.289	9174.09
895.604	9139.52
895.92	9118.05
896.235	9007.32
896.55	8962.35
896.865	9022.23
897.181	9015.91
897.496	8972.29
897.811	8898.4
898.126	8902.01
898.441	8885.06
898.756	8833.99
899.071	8810.94
899.386	8796.48
899.7	8669.25
900.015	8627.44
900.33	8598.97
900.644	8632.64
900.959	8631.96
901.273	8559.65
901.588	8530.95
901.902	8511.74
902.216	8494.79
902.531	8489.14
902.845	8398.07
903.159	8307.45
903.473	8356.72
903.787	8273.1
904.101	8243.72
904.415	8241.46
904.729	8207.11
905.042	8132.99
905.356	8121.69
905.67	8115.59
905.984	8117.85
906.297	8051.64
906.611	7985.43
906.924	7971.19
907.237	8025.88
907.551	7938.2
907.864	7954.01
908.177	7872.66
908.491	7895.71
908.804	7786.33
909.117	7788.82
909.43	7759.44
909.743	7674.02
910.056	7641.48
910.368	7690.97
910.681	7600.8
910.994	7623.63
911.307	7603.74
911.619	7539.56
911.932	7494.37
912.244	7460.47
912.557	7451.65
912.869	7352.67
913.181	7369.17
913.494	7382.28
913.806	7274.94
914.118	7234.48
914.43	7237.87
914.742	7256.63
915.054	7215.95
915.366	7083.98
915.678	7080.82
915.99	7092.79
916.302	7056.64
916.613	7099.12
916.925	7034.26
917.236	7019.12
917.548	6946.13
917.859	6996.07
918.171	6890.09
918.482	6895.28
918.794	6850.77
919.105	6837.66
919.416	6790.43
919.727	6772.8
920.038	6759.47
920.349	6728.51
920.66	6711.11
920.971	6683.54
921.282	6664.78
921.593	6624.56
921.903	6558.8
922.214	6559.47
922.525	6566.03
922.835	6526.93
923.146	6438.8
923.456	6497.56
923.767	6417.56
924.077	6380.72
924.387	6385.47
924.697	6297.33
925.008	6304.11
925.318	6259.37
925.628	6256.66
925.938	6288.52
926.248	6213.49
926.558	6142.31
926.867	6178.69
927.177	6128.53
927.487	6068.64
927.796	6082.42
928.106	6050.79
928.416	6017.12
928.725	5988.42
929.034	5919.27
929.344	5959.72
929.653	5904.58
929.962	5889.89
930.271	5867.06
930.581	5818.48
930.89	5826.84
931.199	5798.14
931.508	5762.89
931.817	5764.47
932.125	5750.23
932.434	5743.45
932.743	5670.01
933.051	5665.94
933.36	5607.41
933.669	5600.63
933.977	5551.37
934.286	5549.56
934.594	5551.37
934.902	5470.92
935.21	5481.76
935.519	5481.76
935.827	5430.24
936.135	5432.5
936.443	5349.56
936.751	5407.19
937.059	5366.06
937.367	5343.69
937.674	5353.18
937.982	5291.26
938.29	5311.82
938.597	5304.14
938.905	5230.47
939.213	5173.52
939.52	5169.91
939.827	5232.5
940.135	5173.97
940.442	5117.25
940.749	5135.78
941.056	5072.28
941.363	5018.95
941.67	4980.98
941.977	4989.57
942.284	4984.15
942.591	4971.95
942.898	4915
943.205	4964.04
943.511	4913.64
943.818	4904.15
944.125	4843.59
944.431	4821.67
944.738	4843.36
945.044	4789.13
945.35	4750.71
945.657	4751.16
945.963	4777.6
946.269	4686.76
946.575	4714.55
946.881	4679.52
947.187	4694.66
947.493	4623.93
947.799	4659.64
948.105	4635.91
948.41	4597.04
948.716	4607.66
949.022	4556.14
949.327	4531.28
949.633	4481.56
949.938	4479.98
950.244	4468
950.549	4451.28
950.854	4418.51
951.16	4372.41
951.465	4442.47
951.77	4339.42
952.075	4382.58
952.38	4331.06
952.685	4315.01
952.99	4301.91
953.294	4270.04
953.599	4271.85
953.904	4273.43
954.209	4164.96
954.513	4228.91
954.818	4177.39
955.122	4157.28
955.426	4153.89
955.731	4143.27
956.035	4118.41
956.339	4152.98
956.643	4078.18
956.948	4050.84
957.252	4007
957.556	4008.36
957.86	4015.36
958.163	4021.69
958.467	3932.88
958.771	3973.33
959.075	3945.76
959.378	3968.58
959.682	3938.98
959.985	3894.91
960.289	3886.55
960.592	3884.97
960.896	3804.74
961.199	3821.69
961.502	3764.97
961.805	3789.6
962.108	3764.75
962.411	3744.63
962.714	3715.48
963.017	3711.87
963.32	3725.42
963.623	3713
963.926	3695.14
964.228	3636.61
964.531	3651.53
964.833	3629.83
965.136	3611.53
965.438	3607.46
965.741	3573.56
966.043	3539.21
966.345	3550.51
966.648	3529.5
966.95	3520.91
967.252	3501.93
967.554	3469.84
967.856	3464.41
968.158	3447.24
968.46	3453.12
968.761	3415.83
969.063	3386.9
969.365	3404.08
969.666	3400.01
969.968	3350.07
970.269	3357.75
970.571	3328.15
970.872	3325.66
971.174	3306.9
971.475	3315.27
971.776	3286.34
972.077	3297.19
972.378	3244.31
972.679	3251.31
972.98	3248.6
973.281	3225.78
973.582	3229.39
973.883	3163.41
974.183	3185.33
974.484	3165.44
974.785	3160.47
975.085	3111.66
975.386	3121.37
975.686	3073.92
975.986	3075.72
976.287	3087.7
976.587	3062.62
976.887	3029.17
977.187	3048.38
977.487	3040.24
977.787	3016.06
978.087	3009.29
978.387	2995.95
978.687	2949.17
978.987	2957.54
979.286	2944.65
979.586	2930.19
979.885	2888.84
980.185	2923.41
980.484	2869.18
980.784	2866.92
981.083	2850.65
981.382	2863.75
981.682	2848.16
981.981	2805
982.28	2854.26
982.579	2790.53
982.878	2801.38
983.177	2774.49
983.475	2754.6
983.774	2757.77
984.073	2725.45
984.372	2708.05
984.67	2717.77
984.969	2735.17
985.267	2701.72
985.566	2667.6
985.864	2654.04
986.162	2628.05
986.461	2632.57
986.759	2668.28
987.057	2599.58
987.355	2613.82
987.653	2571.1
987.951	2588.73
988.249	2575.4
988.547	2589.64
988.844	2564.33
989.142	2566.81
989.44	2539.02
989.737	2528.85
990.035	2491.78
990.332	2503.54
990.63	2479.58
990.927	2481.16
991.224	2447.94
991.521	2456.53
991.819	2447.72
992.116	2412.01
992.413	2430.32
992.71	2391.22
993.006	2408.62
993.303	2388.28
993.6	2365.01
993.897	2338.12
994.193	2363.65
994.49	2337.44
994.787	2342.41
995.083	2333.82
995.379	2297.67
995.676	2284.56
995.972	2278.68
996.268	2278.01
996.565	2241.17
996.861	2242.75
997.157	2230.77
997.453	2240.49
997.749	2206.37
998.044	2228.06
998.34	2181.51
998.636	2213.37
998.932	2202.75
999.227	2140.83
999.523	2139.25
999.818	2131.34
1000.114	2121.85
1000.409	2112.36
1000.704	2126.14
1001	2098.35
1001.295	2069.2
1001.59	2106.03
1001.885	2073.49
1002.18	2053.6
1002.475	2022.87
1002.77	1977
1003.065	2012.48
1003.359	2000.05
1003.654	1978.8
1003.949	1979.26
1004.243	1956.21
1004.538	1969.09
1004.832	1974.74
1005.127	1939.03
1005.421	1892.7
1005.715	1925.25
1006.009	1901.29
1006.304	1914.85
1006.598	1852.03
1006.892	1882.54
1007.186	1854.97
1007.48	1873.27
1007.773	1843.21
1008.067	1841.86
1008.361	1814.06
1008.655	1805.25
1008.948	1815.87
1009.242	1796.21
1009.535	1808.19
1009.829	1774.97
1010.122	1763.44
1010.415	1769.09
1010.708	1736.32
1011.001	1742.88
1011.295	1711.92
1011.588	1718.25
1011.881	1686.61
1012.173	1695.87
1012.466	1674.18
1012.759	1665.37
1013.052	1676.66
1013.344	1643.9
1013.637	1665.14
1013.93	1601.19
1014.222	1606.61
1014.514	1613.84
1014.807	1623.78
1015.099	1602.09
1015.391	1572.03
1015.683	1570.23
1015.976	1591.02
1016.268	1566.16
1016.56	1550.79
1016.851	1530.91
1017.143	1559.38
1017.435	1531.36
1017.727	1512.38
1018.018	1511.7
1018.31	1496.1
1018.602	1500.62
1018.893	1480.29
1019.185	1454.3
1019.476	1435.54
1019.767	1442.55
1020.058	1429.21
1020.35	1426.73
1020.641	1412.49
1020.932	1421.98
1021.223	1381.53
1021.514	1385.6
1021.804	1355.09
1022.095	1388.99
1022.386	1350.12
1022.677	1367.07
1022.967	1337.69
1023.258	1307.86
1023.548	1326.84
1023.839	1341.31
1024.129	1327.75
1024.419	1302.21
1024.709	1312.38
1025	1311.48
1025.29	1278.26
1025.58	1250.24
1025.87	1263.12
1026.16	1246.62
1026.449	1248.43
1026.739	1243.46
1027.029	1210.46
1027.319	1225.15
1027.608	1217.47
1027.898	1195.55
1028.187	1218.37
1028.477	1183.8
1028.766	1183.8
1029.055	1176.57
1029.344	1181.54
1029.634	1150.35
1029.923	1148.77
1030.212	1160.52
1030.501	1148.32
1030.79	1152.16
1031.078	1135.66
1031.367	1104.93
1031.656	1115.78
1031.945	1139.96
1032.233	1105.38
1032.522	1093.63
1032.81	1050.24
1033.099	1080.3
1033.387	1064.7
1033.675	1050.92
1033.963	1075.32
1034.251	1067.42
1034.54	1053.4
1034.828	1067.64
1035.116	1030.81
1035.403	1033.29
1035.691	991.49
1035.979	1006.4
1036.267	998.94
1036.554	1002.56
1036.842	979.96
1037.129	991.26
1037.417	984.25
1037.704	962.56
1037.992	957.36
1038.279	974.08
1038.566	960.75
1038.853	960.75
1039.14	960.75
