Data from hue_34_FLMS001491_00081.txt Node
Date: Tue Feb 07 17:26:18 GMT 2017
User: dcchb
Spectrometer: FLMS00149
Trigger mode: 0
Integration Time (sec): 2.000000E-2
Scans to average: 10
Electric dark correction enabled: true
Nonlinearity correction enabled: false
Boxcar width: 0
XAxis mode: Wavelengths
Number of Pixels in Spectrum: 2048
>>>>>Begin Spectral Data<<<<<
341.393	-9.69
341.776	-9.69
342.16	-9.69
342.543	-50.59
342.927	-75.22
343.31	-63.02
343.693	-64.83
344.077	-64.83
344.46	-58.05
344.843	-35
345.226	-30.71
345.61	-31.38
345.993	-30.03
346.376	-9.91
346.759	-10.59
347.142	15.17
347.525	31.67
347.908	67.37
348.291	92.68
348.674	91.78
349.057	99.69
349.44	134.49
349.823	150.08
350.206	175.16
350.588	223.07
350.971	204.32
351.354	215.39
351.737	233.69
352.119	251.32
352.502	261.94
352.884	269.17
353.267	289.06
353.65	299.23
354.032	290.42
354.414	298.1
354.797	321.15
355.179	330.64
355.562	333.35
355.944	351.43
356.326	324.99
356.709	344.88
357.091	329.29
357.473	333.58
357.855	338.55
358.238	342.39
358.62	346.01
359.002	348.72
359.384	357.76
359.766	343.75
360.148	348.49
360.53	349.17
360.912	343.3
361.294	347.14
361.676	337.65
362.057	343.52
362.439	349.17
362.821	312.56
363.203	328.61
363.584	352.34
363.966	336.52
364.348	322.51
364.729	313.69
365.111	319.57
365.493	307.59
365.874	304.43
366.256	314.37
366.637	328.83
367.019	322.73
367.4	312.79
367.781	302.62
368.163	307.14
368.544	308.27
368.925	311.21
369.306	330.64
369.688	326.12
370.069	331.32
370.45	324.54
370.831	323.18
371.212	326.35
371.593	334.26
371.974	329.74
372.355	329.29
372.736	316.86
373.117	316.4
373.498	317.31
373.879	322.96
374.26	326.8
374.641	318.66
375.021	317.08
375.402	319.12
375.783	330.87
376.163	327.48
376.544	339.91
376.925	341.04
377.305	337.87
377.686	325.22
378.066	337.65
378.447	338.1
378.827	348.49
379.208	329.06
379.588	327.93
379.968	343.97
380.349	353.92
380.729	335.84
381.109	348.04
381.489	339.45
381.87	340.36
382.25	334.48
382.63	339.68
383.01	347.36
383.39	340.13
383.77	359.11
384.15	331.09
384.53	358.66
384.91	349.17
385.29	355.27
385.67	343.75
386.049	354.82
386.429	369.28
386.809	351.66
387.189	362.5
387.568	360.92
387.948	378.32
388.328	369.96
388.707	361.83
389.087	368.83
389.466	363.18
389.846	389.85
390.225	380.81
390.605	363.18
390.984	366.12
391.363	365.22
391.743	381.94
392.122	379.45
392.501	365.44
392.881	375.39
393.26	381.71
393.639	400.47
394.018	350.98
394.397	397.76
394.776	404.31
395.155	372.9
395.534	392.56
395.913	391.43
396.292	371.77
396.671	402.28
397.05	386.68
397.429	369.06
397.808	393.92
398.186	387.14
398.565	391.43
398.944	409.73
399.323	384.65
399.701	370.64
400.08	390.98
400.458	395.5
400.837	387.36
401.215	409.06
401.594	407.93
401.972	418.55
402.351	408.38
402.729	410.86
403.107	405.44
403.486	436.17
403.864	412.67
404.242	440.69
404.62	414.93
404.999	428.49
405.377	433.01
405.755	420.13
406.133	409.96
406.511	437.3
406.889	437.98
407.267	434.59
407.645	440.24
408.023	453.12
408.401	433.01
408.779	434.14
409.156	432.79
409.534	451.77
409.912	444.31
410.29	444.54
410.667	436.63
411.045	456.06
411.422	462.16
411.8	461.49
412.178	466.23
412.555	461.71
412.933	462.61
413.31	471.65
413.687	476.17
414.065	481.37
414.442	479.34
414.819	487.25
415.197	483.63
415.574	488.15
415.951	498.09
416.328	493.57
416.705	517.53
417.082	504.42
417.46	493.8
417.837	519.34
418.214	504.87
418.591	521.37
418.967	515.27
419.344	518.66
419.721	523.63
420.098	502.39
420.475	516.17
420.852	525.89
421.228	519.34
421.605	541.71
421.982	558.88
422.358	546.91
422.735	539
423.111	539.22
423.488	551.2
423.864	572.22
424.241	574.25
424.617	561.6
424.994	596.85
425.37	577.41
425.746	575.38
426.123	588.26
426.499	554.82
426.875	562.5
427.251	573.8
427.627	581.71
428.003	596.85
428.379	607.02
428.756	600.69
429.132	602.72
429.507	598.43
429.883	580.35
430.259	621.25
430.635	632.55
431.011	630.29
431.387	649.95
431.763	641.82
432.138	634.14
432.514	645.44
432.89	649.28
433.265	648.6
433.641	656.96
434.016	673.91
434.392	669.16
434.767	680.91
435.143	700.57
435.518	673.23
435.894	691.54
436.269	689.95
436.644	667.13
437.02	694.02
437.395	725.66
437.77	708.03
438.145	718.43
438.52	721.59
438.895	725.43
439.271	743.96
439.646	727.24
440.021	737.18
440.395	764.3
440.77	744.64
441.145	757.97
441.52	753.68
441.895	767.92
442.27	759.78
442.645	752.1
443.019	805.2
443.394	779.44
443.769	803.4
444.143	782.38
444.518	791.42
444.892	820.8
445.267	817.18
445.641	806.56
446.016	807.24
446.39	828.26
446.764	811.08
447.139	818.09
447.513	819.89
447.887	832.55
448.262	816.5
448.636	815.15
449.01	858.31
449.384	838.65
449.758	874.13
450.132	863.28
450.506	839.55
450.88	866.9
451.254	876.84
451.628	875.94
452.002	886.78
452.376	894.92
452.75	894.92
453.123	881.36
453.497	948.03
453.871	920.68
454.244	945.31
454.618	925.65
454.992	937.63
455.365	940.34
455.739	958.65
456.112	978.08
456.486	977.18
456.859	992.54
457.232	1008.59
457.606	1009.49
457.979	989.83
458.352	1025.76
458.725	1044.29
459.099	1060.57
459.472	1042.94
459.845	1054.92
460.218	1078.64
460.591	1079.55
460.964	1091.3
461.337	1099.43
461.71	1116.38
462.083	1124.29
462.456	1134.91
462.829	1150.28
463.201	1166.55
463.574	1150.51
463.947	1185.76
464.32	1215.36
464.692	1223.5
465.065	1208.36
465.438	1260.11
465.81	1261.01
466.183	1289.71
466.555	1275.25
466.928	1307.34
467.3	1324.74
467.672	1345.3
468.045	1354.12
468.417	1360.67
468.789	1391.4
469.161	1421.01
469.534	1416.71
469.906	1468.92
470.278	1461.91
470.65	1482.02
471.022	1493.1
471.394	1548.91
471.766	1532.19
472.138	1548.01
472.51	1620.1
472.882	1639.76
473.253	1646.31
473.625	1682.02
473.997	1712.75
474.369	1743.03
474.74	1740.1
475.112	1803.82
475.484	1830.94
475.855	1898.06
476.227	1919.53
476.598	1952.52
476.97	1991.16
477.341	2069.35
477.713	2102.35
478.084	2117.03
478.455	2185.28
478.827	2220.53
479.198	2307.31
479.569	2313.64
479.94	2410.59
480.311	2423.47
480.682	2508.89
481.053	2596.8
481.424	2652.61
481.795	2638.38
482.166	2693.74
482.537	2772.16
482.908	2860.52
483.279	2907.97
483.65	2988.88
484.021	3094.64
484.391	3122.88
484.762	3183.9
485.133	3265.25
485.503	3327.85
485.874	3396.55
486.244	3481.07
486.615	3554.74
486.985	3630.67
487.356	3738.91
487.726	3796.76
488.097	3938.91
488.467	3958.12
488.837	4062.52
489.207	4133.93
489.578	4200.82
489.948	4294.15
490.318	4382.29
490.688	4440.14
491.058	4517.42
491.428	4645.1
491.798	4694.14
492.168	4800.58
492.538	4880.35
492.908	4980.69
493.278	5091.87
493.648	5180.46
494.017	5230.63
494.387	5345.42
494.757	5363.73
495.126	5480.79
495.496	5528.47
495.866	5631.97
496.235	5718.07
496.605	5772.31
496.974	5859.08
497.344	5921.23
497.713	5956.71
498.082	6063.6
498.452	6136.82
498.821	6200.09
499.19	6254.1
499.559	6359.64
499.928	6425.4
500.298	6491.16
500.667	6564.38
501.036	6581.32
501.405	6686.41
501.774	6682.11
502.143	6754.88
502.512	6781.54
502.88	6916.91
503.249	7005.95
503.618	7027.87
503.987	7068.77
504.356	7148.99
504.724	7214.3
505.093	7227.86
505.462	7302.44
505.83	7407.52
506.199	7437.12
506.567	7574.29
506.936	7588.98
507.304	7653.16
507.672	7708.98
508.041	7765.25
508.409	7800.5
508.777	7857.67
509.145	7973.83
509.514	8009.54
509.882	8097.44
510.25	8133.83
510.618	8122.3
510.986	8209.98
511.354	8251.11
511.722	8285.69
512.09	8422.63
512.458	8425.12
512.826	8499.69
513.193	8501.27
513.561	8614.04
513.929	8621.27
514.297	8659.01
514.664	8782.62
515.032	8808.38
515.4	8856.07
515.767	8853.81
516.135	8908.49
516.502	8873.24
516.869	8955.95
517.237	9082.73
517.604	9090.41
517.972	9220.12
518.339	9215.83
518.706	9268.94
519.073	9246.56
519.44	9362.49
519.808	9433.45
520.175	9427.13
520.542	9545.31
520.909	9602.04
521.276	9617.18
521.643	9615.82
522.009	9755.48
522.376	9719.77
522.743	9862.59
523.11	9875.7
523.477	9952.08
523.843	10005.19
524.21	10158.86
524.577	10254
524.943	10242.24
525.31	10239.76
525.676	10369.47
526.043	10381.22
526.409	10494.67
526.776	10595.68
527.142	10590.03
527.508	10664.61
527.874	10755.68
528.241	10801.55
528.607	10829.12
528.973	11024.6
529.339	10921.77
529.705	10962.68
530.071	11119.74
530.437	11167.42
530.803	11196.34
531.169	11277.25
531.535	11265.49
531.901	11382.33
532.267	11381.42
532.632	11436.79
532.998	11529.67
533.364	11550.68
533.73	11620.51
534.095	11684.69
534.461	11748.65
534.826	11767.85
535.192	11811.02
535.557	11907.29
535.923	11898.25
536.288	12015.31
536.653	11967.4
537.019	12012.14
537.384	12097.11
537.749	12185.02
538.114	12185.02
538.479	12209.42
538.845	12295.52
539.21	12307.95
539.575	12319.93
539.94	12406.93
540.305	12430.44
540.67	12546.37
541.034	12523.77
541.399	12534.39
541.764	12617.55
542.129	12730.77
542.494	12780.03
542.858	12801.27
543.223	12849.86
543.587	12856.41
543.952	12879.69
544.316	12985.22
544.681	12999.23
545.045	13108.16
545.41	13070.65
545.774	13184.77
546.138	13288.72
546.503	13306.35
546.867	13283.29
547.231	13379.34
547.595	13385.44
547.959	13427.92
548.324	13394.7
548.688	13477.87
549.052	13561.71
549.416	13537.07
549.779	13595.6
550.143	13667.69
550.507	13724.87
550.871	13889.38
551.235	13813
551.599	13904.97
551.962	13930.06
552.326	13946.78
552.689	14072.65
553.053	14125.31
553.417	14099.77
553.78	14240.56
554.143	14222.93
554.507	14237.39
554.87	14333.44
555.234	14391.06
555.597	14401.68
555.96	14426.09
556.323	14485.75
556.686	14521.23
557.05	14581.11
557.413	14660.66
557.776	14736.36
558.139	14777.04
558.502	14739.98
558.865	14835.57
559.228	14994.44
559.59	15015.23
559.953	15050.25
560.316	15206.18
560.679	15150.14
561.041	15329.12
561.404	15258.38
561.767	15423.35
562.129	15325.5
562.492	15428.32
562.854	15456.8
563.217	15409.11
563.579	15533.18
563.941	15580.41
564.304	15683.68
564.666	15734.76
565.028	15759.39
565.39	15815.88
565.753	15878.25
566.115	15939.95
566.477	15987.4
566.839	16026.27
567.201	16174.29
567.563	16104.69
567.925	16300.39
568.287	16303.78
568.648	16368.86
569.01	16476.21
569.372	16514.85
569.734	16512.14
570.095	16687.27
570.457	16728.4
570.819	16736.99
571.18	16738.8
571.542	16944.44
571.903	16994.38
572.265	17037.77
572.626	17184.89
572.987	17179.92
573.349	17264.21
573.71	17284.55
574.071	17411.1
574.432	17552.11
574.794	17616.74
575.155	17689.51
575.516	17703.97
575.877	17880.24
576.238	18027.58
576.599	18078.2
576.96	18099.67
577.32	18269.6
577.681	18472.99
578.042	18489.71
578.403	18692.87
578.763	18686.99
579.124	18923.15
579.485	19101.67
579.845	19207.21
580.206	19302.12
580.566	19540.98
580.927	19641.09
581.287	19826.63
581.648	19905.49
582.008	20076.79
582.368	20138.48
582.728	20401.07
583.089	20475.65
583.449	20664.57
583.809	20916.31
584.169	21098
584.529	21235.85
584.889	21544.32
585.249	21654.6
585.609	21781.15
585.969	22199.9
586.329	22282.83
586.688	22468.14
587.048	22678.08
587.408	22985.19
587.768	23112.41
588.127	23291.17
588.487	23511.05
588.846	23892.96
589.206	24053.18
589.565	24254.31
589.925	24532.49
590.284	24815.42
590.643	24995.53
591.003	25293.83
591.362	25597.32
591.721	25674.16
592.08	26017.2
592.44	26480.01
592.799	26675.03
593.158	26741.92
593.517	27067.79
593.876	27267.56
594.235	27520.43
594.593	27752.29
594.952	28051.95
595.311	28172.62
595.67	28550.69
596.029	28914.52
596.387	29170.79
596.746	29468.86
597.104	29500.04
597.463	29758.79
597.822	30124.66
598.18	30081.05
598.538	30413.92
598.897	30860.69
599.255	30656.17
599.613	31497.05
599.972	31349.26
600.33	31786.09
600.688	31715.8
601.046	32052.52
601.404	32442.57
601.762	32482.56
602.12	32784.25
602.478	32979.5
602.836	33241.19
603.194	33168.65
603.552	33396.66
603.91	33482.54
604.268	33794.85
604.625	34006.82
604.983	34353.93
605.341	34213.59
605.698	34564.77
606.056	34692
606.413	34931.09
606.771	35198.65
607.128	35238.42
607.485	35487
607.843	35588.02
608.2	35867.79
608.557	36086.54
608.914	36212.64
609.272	36390.94
609.629	36696.46
609.986	36872.51
610.343	36711.61
610.7	37214.42
611.057	37222.55
611.414	37289.67
611.771	37385.94
612.127	37771.24
612.484	37818.47
612.841	37986.15
613.198	37934.85
613.554	38132.81
613.911	38260.94
614.267	38351.56
614.624	38488.06
614.98	38749.97
615.337	38857.54
615.693	38913.36
616.05	39033.13
616.406	39293.01
616.762	39145.89
617.118	39403.29
617.475	39379.33
617.831	39733.45
618.187	39791.07
618.543	39908.36
618.899	40017.06
619.255	40203.49
619.611	40131.85
619.967	40342.24
620.323	40585.4
620.678	40411.85
621.034	40435.8
621.39	40497.04
621.746	40577.72
622.101	40966.41
622.457	40786.53
622.812	40922.57
623.168	40930.93
623.523	40983.13
623.879	41212.96
624.234	41027.65
624.589	41152.39
624.945	41223.58
625.3	41377.25
625.655	41262.45
626.01	41351.94
626.365	41511.25
626.72	41470.12
627.075	41564.13
627.43	41410.01
627.785	41490.91
628.14	41692.27
628.495	41793.28
628.85	41860.85
629.205	41565.49
629.559	41871.7
629.914	41734.75
630.269	41817.23
630.623	41600.52
630.978	41612.04
631.332	41752.38
631.687	41944.24
632.041	41818.82
632.396	41980.39
632.75	41662.21
633.104	41848.87
633.459	41642.78
633.813	41752.38
634.167	41814.97
634.521	41727.29
634.875	41754.86
635.229	41818.36
635.583	41557.13
635.937	41672.15
636.291	41623.11
636.645	41763.9
636.999	41764.81
637.352	41797.8
637.706	41621.31
638.06	41724.81
638.413	41655.66
638.767	41546.51
639.121	41659.05
639.474	41477.81
639.828	41499.95
640.181	41602.55
640.534	41529.56
640.888	41386.96
641.241	41478.49
641.594	41474.19
641.947	41558.03
642.301	41463.12
642.654	41352.61
643.007	41441.2
643.36	41465.6
643.713	41411.14
644.066	41424.25
644.419	41293.86
644.771	41008.44
645.124	40701.33
645.477	40627.21
645.83	40443.26
646.182	40246.2
646.535	40176.15
646.888	40323.04
647.24	40082.59
647.593	40414.11
647.945	40207.11
648.298	40092.08
648.65	39812.99
649.002	39792.88
649.355	39876.49
649.707	39899.09
650.059	40142.02
650.411	40536.59
650.763	40648
651.115	40891.61
651.467	40813.42
651.819	40855.45
652.171	40704.27
652.523	40688.45
652.875	40859.52
653.227	40581.79
653.578	40780.88
653.93	40866.07
654.282	40711.95
654.633	40485.07
654.985	40696.13
655.337	40563.48
655.688	40633.08
656.039	40821.33
656.391	40476.48
656.742	40597.83
657.094	40546.53
657.445	40659.75
657.796	40473.99
658.147	40634.44
658.498	40532.07
658.849	40608.23
659.2	40520.09
659.551	40376.59
659.902	40505.18
660.253	40408.01
660.604	40430.38
660.955	40323.26
661.306	40404.84
661.656	40324.39
662.007	40405.52
662.358	40389.47
662.708	40429.02
663.059	40365.97
663.409	40101.12
663.76	40399.19
664.11	40409.36
664.461	40556.93
664.811	40438.96
665.161	40321.68
665.511	40153.32
665.862	40338.4
666.212	40480.77
666.562	40442.58
666.912	40348.12
667.262	40337.72
667.612	40293.88
667.962	40178.63
668.312	40237.84
668.662	40473.99
669.011	40226.09
669.361	40352.87
669.711	40126.66
670.06	40129.37
670.41	40169.82
670.76	40204.17
671.109	40304.28
671.459	40062.93
671.808	40109.93
672.157	40068.58
672.507	39883.95
672.856	39885.31
673.205	39939.09
673.554	40072.19
673.904	39914.23
674.253	40236.94
674.602	39993.1
674.951	39365.77
675.3	39281.93
675.649	39888.92
675.998	39870.84
676.346	39857.96
676.695	40110.84
677.044	39667.69
677.393	39807.34
677.741	39814.8
678.09	39737.97
678.438	39594.02
678.787	39662.49
679.135	39787.91
679.484	39589.5
679.832	39584.07
680.181	39554.02
680.529	39493.91
680.877	39491.42
681.225	39552.43
681.573	39714.01
681.922	39262.5
682.27	39182.05
682.618	39193.12
682.966	39158.55
683.314	39173.69
683.661	39111.32
684.009	38919.68
684.357	38916.75
684.705	38884.43
685.053	38959.68
685.4	38811.44
685.748	38685.11
686.095	38685.79
686.443	38564.66
686.79	38550.88
687.138	38526.25
687.485	38444.67
687.832	38358.79
688.18	38400.83
688.527	38202.19
688.874	38293.71
689.221	38182.75
689.568	38046.03
689.915	37909.99
690.262	37974.62
690.609	37843.78
690.956	37655.54
691.303	37740.73
691.65	37581.86
691.997	37505.93
692.344	37327.18
692.69	37205.83
693.037	37377.8
693.383	36860.75
693.73	37008.55
694.077	36931.71
694.423	36927.19
694.769	36698.95
695.116	36751.15
695.462	36664.6
695.808	36490.37
696.155	36673.87
696.501	36310.26
696.847	36323.14
697.193	36137.84
697.539	36351.84
697.885	35955.24
698.231	35853.1
698.577	35818.07
698.923	35910.04
699.269	35628.92
699.614	35461.02
699.96	35492.65
700.306	35507.57
700.651	35348.7
700.997	35141.48
701.342	35127.24
701.688	35134.25
702.033	34954.82
702.379	34945.32
702.724	34982.61
703.069	34934.93
703.415	34526.13
703.76	34564.77
704.105	34648.38
704.45	34591.89
704.795	34294.95
705.14	34133.14
705.485	34233.48
705.83	33947.38
706.175	34058.57
706.52	33956.88
706.865	33820.83
707.209	33820.38
707.554	33711.68
707.899	33782.64
708.243	33538.13
708.588	33512.59
708.932	33372.71
709.277	33363.67
709.621	33356.67
709.966	33226.73
710.31	33140.4
710.654	32805.27
710.998	32900.41
711.342	33017.47
711.687	32946.73
712.031	32789.22
712.375	32639.4
712.719	32764.14
713.063	32531.38
713.407	32776.79
713.75	32417.03
714.094	32435.11
714.438	32284.6
714.782	32405.73
715.125	32181.33
715.469	32258.16
715.812	32225.62
716.156	31897.49
716.499	31919.87
716.843	31866.99
717.186	31855.24
717.53	32030.15
717.873	31895.91
718.216	31649.14
718.559	31631.06
718.902	31368.02
719.246	31407.79
719.589	31303.84
719.932	31357.85
720.275	31407.34
720.617	31296.38
720.96	31126.67
721.303	31243.27
721.646	31100.91
721.989	30988.82
722.331	31106.78
722.674	30909.95
723.016	31077.18
723.359	30933.9
723.701	31006.9
724.044	30786.56
724.386	30654.14
724.729	30834.02
725.071	30660.24
725.413	30640.35
725.755	30646.23
726.097	30430.64
726.439	30279.68
726.782	30281.04
727.124	30460.92
727.465	30280.81
727.807	30317.2
728.149	30179.12
728.491	30211.66
728.833	30161.72
729.175	30125.79
729.516	30095.28
729.858	30012.12
730.199	30053.48
730.541	29920.6
730.882	29821.17
731.224	29933.7
731.565	29655.07
731.906	29806.02
732.248	29832.92
732.589	29640.83
732.93	29487.16
733.271	29619.14
733.612	29576.88
733.953	29589.53
734.294	29386.15
734.635	29429.54
734.976	29444.68
735.317	29238.36
735.658	29264.34
735.999	29222.08
736.339	29243.33
736.68	29218.47
737.021	29084.01
737.361	29008.31
737.702	29153.84
738.042	28958.36
738.383	29072.26
738.723	29092.82
739.063	28863
739.404	28951.58
739.744	28854.64
740.084	28812.38
740.424	28784.81
740.764	28744.81
741.104	28894.64
741.444	28640.18
741.784	28613.06
742.124	28668.88
742.464	28612.61
742.804	28488.09
743.143	28433.63
743.483	28453.97
743.823	28326.74
744.162	28193.19
744.502	28444.48
744.841	28248.55
745.181	28366.97
745.52	28205.61
745.86	28312.5
746.199	28173.07
746.538	28026.18
746.877	28170.81
747.216	28055.56
747.556	28020.31
747.895	27992.74
748.234	27830.93
748.573	27880.2
748.911	27943.93
749.25	27803.14
749.589	27744.84
749.928	27792.07
750.267	27811.73
750.605	27668
750.944	27556.14
751.283	27577.83
751.621	27566.08
751.96	27421.91
752.298	27333.77
752.636	27523.82
752.975	27286.54
753.313	27174.91
753.651	27330.16
753.989	27165.19
754.327	27041.13
754.666	27012.43
755.004	27002.48
755.342	26976.72
755.679	26964.52
756.017	26910.28
756.355	26849.72
756.693	26727.46
757.031	26741.47
757.368	26546.45
757.706	26575.37
758.044	26540.12
758.381	26493.12
758.719	26371.31
759.056	26359.11
759.394	26288.83
759.731	26211.54
760.068	26119.57
760.405	26017.88
760.743	25903.98
761.08	26035.05
761.417	25906.69
761.754	25972.9
762.091	25757.77
762.428	25746.02
762.765	25475.97
763.102	25600.49
763.438	25501.96
763.775	25277.33
764.112	25345.8
764.449	25375.18
764.785	25178.8
765.122	25038.92
765.458	24944.01
765.795	24886.83
766.131	24910.11
766.467	24859.04
766.804	24758.02
767.14	24531.36
767.476	24634.63
767.812	24521.42
768.148	24577.91
768.485	24407.3
768.821	24292.5
769.157	24208.21
769.492	24197.81
769.828	24120.52
770.164	23801.44
770.5	23828.78
770.836	23845.95
771.171	23690.25
771.507	23603.48
771.842	23498.62
772.178	23476.7
772.513	23347.44
772.849	23346.53
773.184	23160.32
773.519	23042.81
773.855	23156.71
774.19	22918.07
774.525	22943.83
774.86	22907.9
775.195	22719.43
775.53	22775.7
775.865	22601.24
776.2	22508.36
776.535	22424.98
776.87	22407.12
777.205	22271.53
777.539	22206.68
777.874	22248.93
778.209	22051.43
778.543	21996.51
778.878	21824.09
779.212	21898.66
779.547	21659.12
779.881	21753.13
780.215	21528.05
780.55	21621.38
780.884	21475.4
781.218	21402.18
781.552	21484.44
781.886	21201.96
782.22	21147.95
782.554	21018.68
782.888	20786.6
783.222	20807.62
783.556	20735.98
783.889	20741.86
784.223	20593.84
784.557	20603.1
784.89	20542.09
785.224	20434.07
785.557	20292.15
785.891	20290.34
786.224	20260.96
786.558	20203.56
786.891	20009.45
787.224	19987.07
787.557	19921.09
787.891	19851.71
788.224	19804.71
788.557	19844.93
788.89	19779.17
789.223	19652.17
789.556	19556.58
789.888	19452.17
790.221	19357.49
790.554	19281.56
790.887	19335.57
791.219	19168.56
791.552	19185.74
791.884	19047.89
792.217	18983.71
792.549	18901.23
792.882	18757.73
793.214	18802.02
793.546	18750.04
793.879	18684.06
794.211	18529.26
794.543	18585.98
794.875	18576.94
795.207	18590.95
795.539	18423.5
795.871	18435.7
796.203	18250.85
796.535	18162.26
796.867	18101.47
797.198	18140.57
797.53	18014.7
797.862	18109.38
798.193	18044.07
798.525	17848.82
798.856	17946.45
799.188	17695.83
799.519	17743.52
799.85	17605.44
800.182	17583.52
800.513	17488.16
800.844	17389.85
801.175	17472.34
801.506	17376.29
801.837	17348.05
802.168	17226.47
802.499	17247.03
802.83	17038.22
803.161	16999.81
803.491	17093.82
803.822	17067.83
804.153	16946.02
804.483	16826.93
804.814	16845.24
805.145	16720.49
805.475	16671.68
805.805	16698.12
806.136	16653.6
806.466	16670.78
806.796	16581.97
807.126	16505.36
807.457	16325.93
807.787	16400.73
808.117	16279.6
808.447	16280.5
808.777	16316.44
809.107	16284.8
809.436	16167.96
809.766	16172.03
810.096	16066.95
810.426	16046.61
810.755	15994.41
811.085	15962.09
811.414	15944.69
811.744	15794.87
812.073	15802.55
812.403	15737.69
812.732	15707.19
813.061	15739.73
813.39	15618.37
813.719	15532.5
814.049	15673.51
814.378	15598.04
814.707	15483.69
815.036	15491.37
815.365	15289.12
815.693	15211.83
816.022	15284.15
816.351	15201.89
816.68	15152.4
817.008	15182.91
817.337	15059.29
817.665	15079.86
817.994	15134.77
818.322	15106.75
818.651	15028.33
818.979	14932.97
819.307	15063.81
819.636	14878.96
819.964	14868.56
820.292	14916.47
820.62	14842.8
820.948	14797.38
821.276	14870.15
821.604	14807.1
821.932	14803.93
822.259	14756.93
822.587	14821.33
822.915	14803.71
823.243	14818.62
823.57	14746.08
823.898	14690.72
824.225	14746.99
824.553	14673.54
824.88	14686.65
825.207	14719.19
825.535	14732.52
825.862	14716.7
826.189	14758.06
826.516	14732.52
826.843	14758.06
827.17	14759.41
827.497	14730.71
827.824	14672.41
828.151	14745.4
828.478	14669.93
828.805	14760.54
829.131	14642.36
829.458	14637.84
829.785	14653.65
830.111	14646.87
830.438	14598.97
830.764	14670.83
831.09	14631.28
831.417	14575.92
831.743	14534.79
832.069	14695.01
832.395	14591.73
832.722	14597.16
833.048	14555.58
833.374	14530.49
833.7	14488.01
834.026	14499.08
834.351	14592.86
834.677	14506.54
835.003	14480.55
835.329	14464.05
835.654	14429.93
835.98	14389.03
836.306	14371.85
836.631	14402.59
836.956	14353.55
837.282	14316.26
837.607	14301.35
837.932	14163.5
838.258	14320.1
838.583	14286.43
838.908	14219.99
839.233	14256.15
839.558	14123.72
839.883	14072.2
840.208	14131.18
840.533	14129.37
840.858	14097.74
841.182	14135.93
841.507	13995.37
841.832	13955.14
842.156	14038.76
842.481	13931.64
842.805	13915.59
843.13	13837.86
843.454	13857.07
843.778	13762.83
844.103	13774.58
844.427	13794.24
844.751	13790.17
845.075	13726.22
845.399	13685.54
845.723	13587.24
846.047	13580.91
846.371	13531.42
846.695	13409.62
847.019	13357.19
847.343	13283.29
847.666	13285.1
847.99	13212.34
848.313	13107.48
848.637	13113.36
848.96	13105.67
849.284	13057.54
849.607	12899.35
849.931	12909.07
850.254	12796.98
850.577	12770.99
850.9	12683.31
851.223	12716.76
851.546	12681.95
851.869	12606.25
852.192	12606.48
852.515	12545.69
852.838	12451
853.161	12361.74
853.483	12376.43
853.806	12374.62
854.129	12291
854.451	12194.74
854.774	12235.19
855.096	12192.7
855.419	12194.74
855.741	12159.03
856.063	12009.88
856.385	11962.65
856.708	11954.52
857.03	11910
857.352	11873.16
857.674	11834.52
857.996	11798.59
858.318	11710.45
858.64	11772.15
858.961	11684.24
859.283	11630.68
859.605	11642.66
859.926	11677.46
860.248	11596.11
860.57	11584.81
860.891	11567.41
861.212	11481.76
861.534	11435.43
861.855	11439.73
862.176	11422.55
862.498	11470.69
862.819	11405.38
863.14	11200.64
863.461	11302.78
863.782	11273.4
864.103	11336
864.424	11294.87
864.745	11284.25
865.065	11207.42
865.386	11217.13
865.707	11190.92
866.027	11189.11
866.348	11168.1
866.668	11135.1
866.989	11092.84
867.309	11026.63
867.63	10985.28
867.95	11094.88
868.27	10957.25
868.59	10963.81
868.91	10992.73
869.23	10950.47
869.55	10859.63
869.87	10955.9
870.19	11044.48
870.51	10992.28
870.83	10919.74
871.15	10880.65
871.469	10810.14
871.789	10837.94
872.109	10835
872.428	10674.78
872.748	10797.03
873.067	10704.83
873.386	10750.93
873.706	10776.24
874.025	10628.22
874.344	10652.63
874.663	10718.84
874.982	10670.48
875.301	10741.89
875.62	10576.47
875.939	10563.14
876.258	10593.42
876.577	10521.33
876.896	10583.7
877.214	10520.66
877.533	10415.12
877.852	10534.21
878.17	10485.63
878.489	10534.21
878.807	10418.96
879.125	10427.55
879.444	10354.56
879.762	10387.55
880.08	10375.12
880.398	10283.6
880.716	10308.23
881.034	10290.38
881.352	10300.77
881.67	10254
881.988	10261.91
882.306	10221.68
882.624	10134.68
882.941	10138.52
883.259	10090.61
883.577	10131.06
883.894	10073.89
884.212	10099.88
884.529	10050.16
884.846	9969.94
885.164	9950.05
885.481	9938.75
885.798	9987.79
886.115	9868.7
886.432	9805.87
886.75	9813.1
887.067	9884.29
887.383	9780.34
887.7	9841.13
888.017	9719.55
888.334	9762.26
888.651	9732.43
888.967	9769.04
889.284	9666.89
889.6	9722.48
889.917	9678.19
890.233	9628.93
890.55	9542.15
890.866	9535.37
891.182	9515.26
891.498	9495.6
891.815	9429.61
892.131	9445.2
892.447	9434.36
892.763	9373.34
893.079	9355.94
893.395	9321.59
893.71	9338.09
894.026	9269.39
894.342	9305.09
894.657	9220.35
894.973	9191.2
895.289	9125.89
895.604	9114.36
895.92	9045.21
896.235	9035.5
896.55	9023.29
896.865	9095.16
897.181	8992.56
897.496	8970.41
897.811	8942.39
898.126	8859.46
898.441	8808.16
898.756	8824.88
899.071	8755.28
899.386	8736.52
899.7	8763.19
900.015	8667.37
900.33	8611.78
900.644	8595.73
900.959	8602.74
901.273	8610.42
901.588	8563.42
901.902	8522.06
902.216	8487.49
902.531	8479.81
902.845	8353.48
903.159	8399.58
903.473	8398
903.787	8319.81
904.101	8307.38
904.415	8284.78
904.729	8251.34
905.042	8231.68
905.356	8203.43
905.67	8234.61
905.984	8153.94
906.297	8173.37
906.611	8119.59
906.924	8124.11
907.237	8005.02
907.551	8073.49
907.864	7986.48
908.177	7958.92
908.491	7848.41
908.804	7894.96
909.117	7829.2
909.43	7788.07
909.743	7753.27
910.056	7773.38
910.368	7748.75
910.681	7724.57
910.994	7703.1
911.307	7599.38
911.619	7564.58
911.932	7525.25
912.244	7515.54
912.557	7475.76
912.869	7410.23
913.181	7421.75
913.494	7407.74
913.806	7353.28
914.118	7284.36
914.43	7337.46
914.742	7286.62
915.054	7230.35
915.366	7191.03
915.678	7229.22
915.99	7102.89
916.302	7110.8
916.613	7091.37
916.925	7047.53
917.236	7043.68
917.548	6936.34
917.859	7014.08
918.171	6901.09
918.482	6909.45
918.794	6864.03
919.105	6872.62
919.416	6811.6
919.727	6765.95
920.038	6774.99
920.349	6717.59
920.66	6749
920.971	6666.75
921.282	6675.11
921.593	6624.94
921.903	6545.84
922.214	6551.95
922.525	6614.32
922.835	6502.68
923.146	6521.89
923.456	6437.15
923.767	6464.94
924.077	6381.78
924.387	6354.89
924.697	6359.86
925.008	6349.69
925.318	6285.51
925.628	6253.2
925.938	6248.23
926.248	6186.53
926.558	6163.71
926.867	6210.26
927.177	6118.96
927.487	6148.12
927.796	6022.92
928.106	6068.34
928.416	6014.79
928.725	6033.32
929.034	5947.89
929.344	5985.41
929.653	5945.18
929.962	5917.16
930.271	5829.71
930.581	5812.3
930.89	5789.03
931.199	5815.24
931.508	5765.3
931.817	5797.16
932.125	5762.14
932.434	5755.58
932.743	5676.26
933.051	5606.43
933.36	5582.93
933.669	5613.67
933.977	5593.55
934.286	5626.1
934.594	5590.84
934.902	5477.17
935.21	5530.5
935.519	5492.99
935.827	5438.53
936.135	5450.96
936.443	5359.66
936.751	5356.5
937.059	5395.59
937.367	5304.52
937.674	5321.92
937.982	5285.54
938.29	5276.95
938.597	5261.58
938.905	5207.57
939.213	5227.91
939.52	5147.01
939.827	5175.49
940.135	5130.97
940.442	5077.86
940.749	5075.6
941.056	5065.21
941.363	5030.4
941.67	5010.07
941.977	4978.43
942.284	4945.89
942.591	4946.34
942.898	4911.76
943.205	4952.89
943.511	4901.14
943.818	4880.35
944.125	4876.96
944.431	4841.03
944.738	4762.84
945.044	4779.79
945.35	4775.04
945.657	4747.02
945.963	4728.49
946.269	4647.59
946.575	4707.02
946.881	4668.83
947.187	4658.21
947.493	4603.52
947.799	4620.92
948.105	4612.11
948.41	4584.99
948.716	4536.63
949.022	4503.19
949.327	4500.02
949.633	4507.03
949.938	4486.24
950.244	4457.99
950.549	4426.58
950.854	4392
951.16	4433.13
951.465	4391.1
951.77	4331.44
952.075	4359.91
952.38	4295.73
952.685	4321.72
952.99	4282.63
953.294	4251.67
953.599	4228.84
953.904	4201.5
954.209	4154.27
954.513	4178.22
954.818	4144.33
955.122	4137.09
955.426	4136.42
955.731	4122.63
956.035	4093.25
956.339	4043.31
956.643	4048.74
956.948	4045.35
957.252	4039.47
957.556	3968.74
957.86	3989.3
958.163	3993.14
958.467	3954.05
958.771	3959.92
959.075	3916.08
959.378	3911.34
959.682	3884.9
959.985	3839.48
960.289	3884.22
960.592	3855.75
960.896	3829.98
961.199	3815.75
961.502	3776.2
961.805	3791.79
962.108	3761.29
962.411	3738.46
962.714	3732.13
963.017	3707.28
963.32	3672.25
963.623	3662.98
963.926	3684.9
964.228	3632.7
964.531	3665.24
964.833	3620.27
965.136	3577.34
965.438	3588.41
965.741	3595.87
966.043	3524.91
966.345	3506.15
966.648	3505.47
966.95	3526.94
967.252	3471.58
967.554	3459.15
967.856	3444.01
968.158	3433.38
968.46	3368.98
968.761	3397.91
969.063	3376.66
969.365	3374.63
969.666	3376.21
969.968	3331.47
970.269	3324.91
970.571	3275.87
970.872	3305.7
971.174	3278.81
971.475	3253.5
971.776	3282.2
972.077	3254.86
972.378	3234.97
972.679	3226.38
972.98	3244.91
973.281	3211.02
973.582	3228.42
973.883	3174.63
974.183	3140.28
974.484	3159.72
974.785	3144.35
975.085	3138.93
975.386	3096.67
975.686	3087.4
975.986	3082.43
976.287	3057.8
976.587	3022.1
976.887	3057.35
977.187	3021.64
977.487	3037.91
977.787	2995.43
978.087	3001.98
978.387	2965.15
978.687	2966.05
978.987	2939.39
979.286	2944.13
979.586	2929.44
979.885	2900.97
980.185	2869.11
980.484	2873.63
980.784	2822.55
981.083	2859.39
981.382	2839.5
981.682	2839.05
981.981	2854.64
982.28	2784.81
982.579	2802.89
982.878	2785.27
983.177	2773.29
983.475	2732.16
983.774	2744.14
984.073	2712.05
984.372	2706.17
984.67	2695.1
984.969	2683.12
985.267	2676.79
985.566	2647.64
985.864	2671.14
986.162	2664.59
986.461	2622.11
986.759	2624.82
987.057	2602.9
987.355	2592.05
987.653	2583.01
987.951	2571.71
988.249	2565.38
988.547	2574.88
988.844	2543.46
989.142	2523.13
989.44	2512.5
989.737	2488.1
990.035	2499.4
990.332	2475.22
990.63	2480.42
990.927	2457.36
991.224	2415.78
991.521	2433.64
991.819	2411.04
992.116	2422.79
992.413	2409
992.71	2402.9
993.006	2392.73
993.303	2377.37
993.6	2366.97
993.897	2324.94
994.193	2336.24
994.49	2312.06
994.787	2275
995.083	2290.36
995.379	2302.34
995.676	2313.19
995.972	2269.57
996.268	2280.19
996.565	2258.05
996.861	2230.93
997.157	2212.63
997.453	2234.32
997.749	2207.43
998.044	2206.52
998.34	2141.89
998.636	2183.02
998.932	2169.91
999.227	2137.15
999.523	2125.17
999.818	2144.38
1000.114	2099.86
1000.409	2071.16
1000.704	2085.62
1001	2073.65
1001.295	2048.34
1001.59	2048.79
1001.885	2080.43
1002.18	2004.95
1002.475	2011.05
1002.77	2002.91
1003.065	2003.82
1003.359	1996.81
1003.654	2001.33
1003.949	1989.58
1004.243	1996.13
1004.538	1990.03
1004.832	1941.67
1005.127	1917.94
1005.421	1913.88
1005.715	1911.84
1006.009	1916.59
1006.304	1934.44
1006.598	1882.01
1006.892	1870.26
1007.186	1861
1007.48	1878.62
1007.773	1851.73
1008.067	1825.97
1008.361	1803.6
1008.655	1777.83
1008.948	1801.11
1009.242	1783.94
1009.535	1806.08
1009.829	1759.08
1010.122	1745.97
1010.415	1762.69
1010.708	1725.63
1011.001	1727.21
1011.295	1737.61
1011.588	1709.59
1011.881	1707.55
1012.173	1677.5
1012.466	1689.7
1012.759	1680.89
1013.052	1642.7
1013.344	1685.86
1013.637	1643.83
1013.93	1616.71
1014.222	1626.43
1014.514	1607.22
1014.807	1609.25
1015.099	1622.13
1015.391	1604.73
1015.683	1592.75
1015.976	1586.88
1016.268	1561.8
1016.56	1522.47
1016.851	1554.56
1017.143	1529.71
1017.435	1512.76
1017.727	1493.32
1018.018	1534
1018.31	1509.14
1018.602	1496.71
1018.893	1474.11
1019.185	1475.92
1019.476	1467.79
1019.767	1439.99
1020.058	1427.11
1020.35	1411.52
1020.641	1403.38
1020.932	1399.09
1021.223	1374
1021.514	1381.23
1021.804	1357.73
1022.095	1376.72
1022.386	1353.89
1022.677	1352.08
1022.967	1355.92
1023.258	1367.68
1023.548	1301.46
1023.839	1287.68
1024.129	1339.65
1024.419	1333.78
1024.709	1296.49
1025	1264.63
1025.29	1299.43
1025.58	1266.44
1025.87	1268.47
1026.16	1248.81
1026.449	1245.42
1026.739	1235.25
1027.029	1230.05
1027.319	1210.17
1027.608	1210.62
1027.898	1193.9
1028.187	1175.14
1028.477	1205.19
1028.766	1180.56
1029.055	1190.96
1029.344	1147.34
1029.634	1164.29
1029.923	1154.57
1030.212	1138.76
1030.501	1141.02
1030.79	1142.6
1031.078	1132.2
1031.367	1120.68
1031.656	1120.22
1031.945	1124.97
1032.233	1099.21
1032.522	1086.78
1032.81	1076.16
1033.099	1069.83
1033.387	1058.08
1033.675	1036.61
1033.963	1061.24
1034.251	1059.66
1034.54	1039.55
1034.828	1035.26
1035.116	1046.33
1035.403	1033.9
1035.691	1018.98
1035.979	1023.05
1036.267	1025.99
1036.554	960.68
1036.842	969.04
1037.129	969.95
1037.417	984.41
1037.704	956.61
1037.992	960.45
1038.279	977.86
1038.566	937.86
1038.853	937.86
1039.14	937.86
