Data from hue_240_FLMS001491_00003.txt Node
Date: Tue Feb 07 16:34:58 GMT 2017
User: dcchb
Spectrometer: FLMS00149
Trigger mode: 0
Integration Time (sec): 2.000000E-2
Scans to average: 10
Electric dark correction enabled: true
Nonlinearity correction enabled: false
Boxcar width: 0
XAxis mode: Wavelengths
Number of Pixels in Spectrum: 2048
>>>>>Begin Spectral Data<<<<<
341.393	-7.92
341.776	-7.92
342.16	-7.92
342.543	-49.28
342.927	-77.75
343.31	-74.81
343.693	-59.9
344.077	-57.87
344.46	-64.87
344.843	-54.7
345.226	-26.45
345.61	-14.93
345.993	-40.24
346.376	-5.66
346.759	6.99
347.142	29.59
347.525	24.84
347.908	53.09
348.291	80.44
348.674	96.71
349.057	107.78
349.44	110.72
349.823	152.98
350.206	163.15
350.588	194.56
350.971	208.12
351.354	195.23
351.737	233.65
352.119	268.23
352.502	258.06
352.884	250.83
353.267	260.54
353.65	265.97
354.032	283.14
354.414	302.35
354.797	292.86
355.179	307.55
355.562	321.11
355.944	311.62
356.326	305.06
356.709	307.1
357.091	318.62
357.473	322.24
357.855	323.59
358.238	329.69
358.62	331.05
359.002	301.22
359.384	315.91
359.766	310.94
360.148	321.56
360.53	311.84
360.912	320.43
361.294	338.51
361.676	325.85
362.057	314.78
362.439	321.56
362.821	319.75
363.203	317.49
363.584	336.25
363.966	323.82
364.348	317.04
364.729	310.26
365.111	300.99
365.493	298.06
365.874	295.12
366.256	316.14
366.637	287.21
367.019	301.67
367.4	317.04
367.781	289.47
368.163	323.82
368.544	317.27
368.925	286.53
369.306	315.01
369.688	294.89
370.069	326.76
370.45	310.26
370.831	302.58
371.212	276.81
371.593	295.12
371.974	314.78
372.355	309.58
372.736	299.19
373.117	289.92
373.498	302.58
373.879	319.53
374.26	312.97
374.641	303.48
375.021	304.16
375.402	316.59
375.783	291.05
376.163	320.43
376.544	308.23
376.925	306.19
377.305	317.94
377.686	303.93
378.066	296.25
378.447	328.11
378.827	309.36
379.208	325.85
379.588	316.59
379.968	308.45
380.349	316.81
380.729	320.66
381.109	322.69
381.489	313.2
381.87	337.83
382.25	336.7
382.63	328.11
383.01	329.47
383.39	333.54
383.77	353.87
384.15	355.91
384.53	317.72
384.91	331.5
385.29	339.64
385.67	334.21
386.049	338.73
386.429	334.44
386.809	336.47
387.189	352.52
387.568	331.5
387.948	352.29
388.328	342.58
388.707	353.42
389.087	338.51
389.466	361.33
389.846	350.26
390.225	368.79
390.605	343.03
390.984	355.68
391.363	350.49
391.743	352.97
392.122	357.04
392.501	350.49
392.881	375.57
393.26	369.02
393.639	387.32
394.018	375.34
394.397	349.36
394.776	387.09
395.155	376.93
395.534	366.3
395.913	365.85
396.292	378.28
396.671	373.31
397.05	368.56
397.429	385.74
397.808	387.55
398.186	377.83
398.565	379.18
398.944	402.01
399.323	391.84
399.701	397.49
400.08	384.61
400.458	411.73
400.837	408.11
401.215	430.71
401.594	387.55
401.972	391.16
402.351	398.39
402.729	402.46
403.107	413.76
403.486	406.98
403.864	421.9
404.242	403.14
404.62	409.47
404.999	440.43
405.377	442.46
405.755	443.59
406.133	436.81
406.511	439.97
406.889	444.04
407.267	456.47
407.645	457.83
408.023	461.67
408.401	463.02
408.779	474.1
409.156	474.32
409.534	504.38
409.912	490.14
410.29	492.85
410.667	511.84
411.045	517.94
411.422	481.33
411.8	507.09
412.178	534.21
412.555	532.63
412.933	538.95
413.31	540.54
413.687	539.63
414.065	561.1
414.442	543.25
414.819	550.25
415.197	593.87
415.574	584.6
415.951	576.47
416.328	569.01
416.705	601.33
417.082	578.95
417.46	606.52
417.837	604.94
418.214	613.08
418.591	627.77
418.967	656.01
419.344	641.55
419.721	661.44
420.098	639.74
420.475	643.58
420.852	661.89
421.228	641.55
421.605	652.17
421.982	681.32
422.358	705.5
422.735	720.42
423.111	691.72
423.488	722
423.864	745.5
424.241	757.03
424.617	744.83
424.994	738.05
425.37	771.27
425.746	778.72
426.123	785.95
426.499	805.61
426.875	804.94
427.251	813.52
427.627	826.63
428.003	864.37
428.379	837.48
428.756	861.66
429.132	870.02
429.507	852.84
429.883	878.15
430.259	882.22
430.635	898.72
431.011	906.18
431.387	926.52
431.763	905.5
432.138	951.6
432.514	967.42
432.89	953.41
433.265	980.53
433.641	991.37
434.016	975.78
434.392	1014.65
434.767	1044.93
435.143	1037.25
435.518	1058.49
435.894	1057.36
436.269	1088.09
436.644	1119.96
437.02	1128.77
437.395	1108.88
437.77	1167.41
438.145	1160.86
438.52	1177.36
438.895	1193.4
439.271	1192.27
439.646	1202.67
440.021	1240.18
440.395	1259.39
440.77	1235.43
441.145	1249.22
441.52	1280.4
441.895	1293.06
442.27	1315.43
442.645	1299.16
443.019	1337.58
443.394	1310.23
443.769	1351.81
444.143	1331.7
444.518	1386.84
444.892	1376.22
445.267	1378.93
445.641	1406.05
446.016	1415.99
446.39	1442.66
446.764	1412.15
447.139	1442.43
447.513	1448.31
447.887	1458.48
448.262	1466.84
448.636	1458.7
449.01	1488.53
449.384	1543.9
449.758	1516.1
450.132	1491.25
450.506	1542.77
450.88	1521.98
451.254	1550.91
451.628	1602.43
452.002	1590.23
452.376	1607.18
452.75	1616.44
453.123	1625.71
453.497	1620.06
453.871	1607.85
454.244	1670.45
454.618	1696.66
454.992	1738.02
455.365	1710
455.739	1772.37
456.112	1771.01
456.486	1760.84
456.859	1774.85
457.232	1822.08
457.606	1774.18
457.979	1839.49
458.352	1874.29
458.725	1897.56
459.099	1884.23
459.472	1938.92
459.845	1955.19
460.218	1955.64
460.591	1977.56
460.964	1966.49
461.337	2008.29
461.71	2053.04
462.083	2084.45
462.456	2079.03
462.829	2107.73
463.201	2123.32
463.574	2150.21
463.947	2149.76
464.32	2219.14
464.692	2254.16
465.065	2229.31
465.438	2252.58
465.81	2280.83
466.183	2310.89
466.555	2343.65
466.928	2365.57
467.3	2369.19
467.672	2391.79
468.045	2445.35
468.417	2417.55
468.789	2500.49
469.161	2482.63
469.534	2509.07
469.906	2586.13
470.278	2585.68
470.65	2626.13
471.022	2645.79
471.394	2695.51
471.766	2739.12
472.138	2737.99
472.51	2803.53
472.882	2846.46
473.253	2858.22
473.625	2901.6
473.997	2966.69
474.369	2948.83
474.74	3029.74
475.112	3042.84
475.484	3059.79
475.855	3162.16
476.227	3161.71
476.598	3253.23
476.97	3266.57
477.341	3330.75
477.713	3403.06
478.084	3372.33
478.455	3443.06
478.827	3495.49
479.198	3582.26
479.569	3520.8
479.94	3636.05
480.311	3660.45
480.682	3751.3
481.053	3813.44
481.424	3874.23
481.795	3877.85
482.166	3931.18
482.537	4003.72
482.908	4062.03
483.279	4058.41
483.65	4154.23
484.021	4214.56
484.391	4268.35
484.762	4295.47
485.133	4314.45
485.503	4373.2
485.874	4415.01
486.244	4496.14
486.615	4562.35
486.985	4590.37
487.356	4657.72
487.726	4716.25
488.097	4749.69
488.467	4798.05
488.837	4896.13
489.207	4900.87
489.578	4944.94
489.948	5024.03
490.318	5087.08
490.688	5083.92
491.058	5149.45
491.428	5218.15
491.798	5219.74
492.168	5347.42
492.538	5356
492.908	5393.97
493.278	5463.35
493.648	5477.36
494.017	5549.9
494.387	5546.51
494.757	5614.08
495.126	5636.9
495.496	5689.1
495.866	5671.93
496.235	5740.17
496.605	5765.94
496.974	5799.61
497.344	5862.2
497.713	5912.15
498.082	5887.29
498.452	5968.19
498.821	5976.1
499.19	6007.74
499.559	6010.22
499.928	6096.32
500.298	6094.74
500.667	6136.77
501.036	6148.3
501.405	6188.52
501.774	6161.86
502.143	6241.18
502.512	6233.95
502.88	6290.67
503.249	6264.91
503.618	6289.31
503.987	6345.13
504.356	6358.91
504.724	6370.89
505.093	6383.77
505.462	6405.24
505.83	6456.54
506.199	6456.31
506.567	6530.21
506.936	6535.63
507.304	6676.19
507.672	6577.44
508.041	6606.37
508.409	6675.29
508.777	6707.15
509.145	6707.61
509.514	6685.69
509.882	6751.67
510.25	6722.75
510.618	6758.45
510.986	6783.54
511.354	6836.19
511.722	6851.11
512.09	6848.39
512.458	6859.92
512.826	6957.77
513.193	6879.58
513.561	6949.18
513.929	6942.85
514.297	7006.13
514.664	6992.12
515.032	7023.98
515.4	7048.16
515.767	7088.84
516.135	7102.4
516.502	6999.58
516.869	7134.26
517.237	7123.87
517.604	7127.03
517.972	7125
518.339	7192.79
518.706	7162.28
519.073	7189.18
519.44	7178.55
519.808	7223.75
520.175	7235.73
520.542	7288.16
520.909	7346.23
521.276	7259
521.643	7290.42
522.009	7277.08
522.376	7343.97
522.743	7300.58
523.11	7417.87
523.477	7451.09
523.843	7485.89
524.21	7496.06
524.577	7572.44
524.943	7546.68
525.31	7556.62
525.676	7561.82
526.043	7645.66
526.409	7611.31
526.776	7720.46
527.142	7641.37
527.508	7660.58
527.874	7736.28
528.241	7711.87
528.607	7637.98
528.973	7746.22
529.339	7707.58
529.705	7683.85
530.071	7815.37
530.437	7771.98
530.803	7801.59
531.169	7792.55
531.535	7735.83
531.901	7792.78
532.267	7768.82
532.632	7807.46
532.998	7811.98
533.364	7853.34
533.73	7829.16
534.095	7840.23
534.461	7880
534.826	7833.45
535.192	7773.57
535.557	7866.9
535.923	7879.1
536.288	7829.38
536.653	7893.56
537.019	7799.55
537.384	7808.37
537.749	7838.65
538.114	7795.04
538.479	7788.03
538.845	7802.49
539.21	7764.08
539.575	7807.24
539.94	7790.74
540.305	7808.37
540.67	7782.15
541.034	7770.4
541.399	7747.58
541.764	7781.93
542.129	7830.06
542.494	7752.55
542.858	7803.85
543.223	7839.55
543.587	7822.15
543.952	7794.13
544.316	7752.78
544.681	7745.32
545.045	7722.27
545.41	7742.38
545.774	7717.98
546.138	7706
546.503	7713.68
546.867	7663.51
547.231	7729.73
547.595	7696.28
547.959	7736.73
548.324	7690.18
548.688	7658.77
549.052	7655.38
549.416	7626.23
549.779	7722.49
550.143	7626.9
550.507	7702.83
550.871	7703.51
551.235	7561.37
551.599	7665.77
551.962	7689.5
552.326	7667.58
552.689	7650.86
553.053	7548.71
553.417	7620.58
553.78	7693.57
554.143	7613.35
554.507	7650.63
554.87	7636.17
555.234	7739.67
555.597	7597.3
555.96	7630.97
556.323	7713.91
556.686	7683.85
557.05	7678.88
557.413	7662.84
557.776	7681.59
558.139	7658.09
558.502	7719.33
558.865	7696.51
559.228	7734.02
559.59	7698.31
559.953	7776.5
560.316	7755.71
560.679	7724.53
561.041	7772.21
561.404	7860.57
561.767	7798.88
562.129	7772.44
562.492	7892.89
562.854	7812.21
563.217	7837.75
563.579	7871.42
563.941	7922.26
564.304	7914.81
564.666	7964.75
565.028	7940.57
565.39	7936.95
565.753	7932.43
566.115	7996.61
566.477	8009.72
566.839	8064.41
567.201	8095.14
567.563	8061.47
567.925	8074.8
568.287	8107.34
568.648	8095.59
569.01	8148.7
569.372	8130.39
569.734	8165.87
570.095	8138.75
570.457	8203.84
570.819	8204.74
571.18	8242.71
571.542	8253.1
571.903	8264.4
572.265	8261.24
572.626	8321.35
572.987	8294.68
573.349	8305.3
573.71	8361.57
574.071	8442.7
574.432	8466.2
574.794	8423.27
575.155	8503.72
575.516	8404.96
575.877	8479.76
576.238	8468.01
576.599	8524.73
576.96	8481.34
577.32	8573.32
577.681	8542.36
578.042	8591.85
578.403	8519.31
578.763	8611.28
579.124	8606.77
579.485	8638.4
579.845	8666.88
580.206	8662.81
580.566	8721.11
580.927	8598.18
581.287	8711.4
581.648	8749.59
582.008	8738.51
582.368	8729.25
582.728	8847.44
583.089	8804.73
583.449	8822.13
583.809	8801.56
584.169	8793.88
584.529	8736.93
584.889	8835.23
585.249	8816.93
585.609	8824.16
585.969	8879.07
586.329	8817.16
586.688	8912.52
587.048	8797.95
587.408	8862.8
587.768	8854.44
588.127	8863.48
588.487	8858.51
588.846	8952.07
589.206	8903.93
589.565	8903.71
589.925	8946.42
590.284	8943.25
590.643	8922.46
591.003	8991.61
591.362	9046.75
591.721	8940.54
592.08	8981.9
592.44	9040.88
592.799	9072.06
593.158	9085.85
593.517	9039.3
593.876	9078.62
594.235	9063.93
594.593	9043.14
594.952	9061.67
595.311	9094.44
595.67	9096.02
596.029	9109.35
596.387	9187.77
596.746	9177.15
597.104	9098.73
597.463	9066.87
597.822	9134.89
598.18	9186.19
598.538	9119.07
598.897	9192.51
599.255	9126.53
599.613	9269.8
599.972	9185.96
600.33	9211.5
600.688	9149.12
601.046	9183.02
601.404	9280.87
601.762	9221.21
602.12	9218.95
602.478	9226.64
602.836	9325.16
603.194	9256.01
603.552	9309.57
603.91	9231.16
604.268	9278.61
604.625	9172.85
604.983	9266.41
605.341	9179.63
605.698	9259.18
606.056	9341.44
606.413	9318.84
606.771	9355.45
607.128	9320.42
607.485	9319.74
607.843	9252.4
608.2	9374.2
608.557	9327.65
608.914	9316.58
609.272	9369.01
609.629	9349.57
609.986	9433.64
610.343	9359.74
610.7	9443.35
611.057	9362
611.414	9411.49
611.771	9376.46
612.127	9451.04
612.484	9435.44
612.841	9471.38
613.198	9427.99
613.554	9425.73
613.911	9463.24
614.267	9513.86
614.624	9498.49
614.98	9501.88
615.337	9512.05
615.693	9511.15
616.05	9560.41
616.406	9554.76
616.762	9552.28
617.118	9624.37
617.475	9573.75
617.831	9507.53
618.187	9562.9
618.543	9599.06
618.899	9607.19
619.255	9580.07
619.611	9578.49
619.967	9622.78
620.323	9628.66
620.678	9641.31
621.034	9630.92
621.39	9615.78
621.746	9646.29
622.101	9675.66
622.457	9564.93
622.812	9631.15
623.168	9663.91
623.523	9630.92
623.879	9704.82
624.234	9588.21
624.589	9650.35
624.945	9641.09
625.3	9616
625.655	9652.61
626.01	9586.63
626.365	9657.59
626.72	9533.97
627.075	9618.72
627.43	9571.49
627.785	9610.81
628.14	9619.85
628.495	9630.02
628.85	9646.74
629.205	9526.29
629.559	9601.09
629.914	9539.17
630.269	9603.12
630.623	9543.01
630.978	9590.69
631.332	9494.88
631.687	9575.78
632.041	9529.45
632.396	9471.83
632.75	9507.98
633.104	9587.3
633.459	9470.92
633.813	9444.48
634.167	9440.19
634.521	9426.86
634.875	9450.13
635.229	9424.14
635.583	9431.6
635.937	9389.8
636.291	9364.94
636.645	9406.97
636.999	9377.82
637.352	9431.15
637.706	9311.83
638.06	9411.26
638.413	9327.42
638.767	9282.45
639.121	9304.83
639.474	9206.3
639.828	9280.42
640.181	9275.67
640.534	9249.01
640.888	9296.01
641.241	9237.71
641.594	9268.22
641.947	9319.74
642.301	9190.03
642.654	9176.92
643.007	9222.12
643.36	9253.75
643.713	9230.7
644.066	9227.77
644.419	9143.93
644.771	9115
645.124	9026.42
645.477	9041.33
645.83	8937.6
646.182	8926.98
646.535	8863.48
646.888	8918.85
647.24	8842.24
647.593	8887.66
647.945	8872.29
648.298	8837.04
648.65	8789.59
649.002	8796.59
649.355	8854.67
649.707	8782.35
650.059	8915.68
650.411	8973.31
650.763	9001.78
651.115	9076.36
651.467	9059.18
651.819	9034.55
652.171	9018.05
652.523	8967.89
652.875	9039.07
653.227	8995.91
653.578	9053.08
653.93	8996.36
654.282	9015.12
654.633	8945.51
654.985	9010.14
655.337	8940.54
655.688	8993.2
656.039	9041.33
656.391	8979.64
656.742	8994.78
657.094	9041.1
657.445	8954.78
657.796	8983.48
658.147	9010.14
658.498	8975.34
658.849	9006.08
659.2	9008.11
659.551	9049.01
659.902	9032.97
660.253	8962.91
660.604	9001.33
660.955	8915.01
661.306	8963.14
661.656	9004.72
662.007	9031.84
662.358	9011.27
662.708	8976.7
663.059	8962.01
663.409	8894.44
663.76	8970.6
664.11	9003.82
664.461	8976.7
664.811	8937.38
665.161	8957.04
665.511	9008.56
665.862	8993.87
666.212	9032.74
666.562	8964.72
666.912	9002.46
667.262	8949.36
667.612	9022.35
667.962	9003.14
668.312	8938.28
668.662	8997.72
669.011	8965.85
669.361	9002.91
669.711	8913.42
670.06	8890.83
670.41	8945.74
670.76	8945.06
671.109	8941.9
671.459	8886.76
671.808	8978.05
672.157	8932.18
672.507	8864.16
672.856	8894.89
673.205	8904.84
673.554	8924.05
673.904	8889.02
674.253	8943.03
674.602	8860.77
674.951	8754.78
675.3	8756.59
675.649	8870.94
675.998	8897.15
676.346	8825.74
676.695	8864.61
677.044	8854.44
677.393	8881.33
677.741	8832.75
678.09	8858.74
678.438	8848.11
678.787	8818.74
679.135	8812.64
679.484	8769.02
679.832	8755.69
680.181	8726.08
680.529	8778.96
680.877	8732.64
681.225	8630.95
681.573	8739.19
681.922	8625.07
682.27	8670.49
682.618	8630.72
682.966	8594.79
683.314	8706.42
683.661	8599.08
684.009	8558.86
684.357	8483.83
684.705	8574.9
685.053	8528.12
685.4	8501.23
685.748	8479.99
686.095	8491.74
686.443	8392.53
686.79	8402.02
687.138	8525.41
687.485	8467.33
687.832	8420.78
688.18	8327.45
688.527	8365.42
688.874	8308.69
689.221	8323.83
689.568	8283.16
689.915	8267.11
690.262	8238.41
690.609	8255.14
690.956	8196.15
691.303	8184.18
691.65	8200.67
691.997	8139.21
692.344	8093.11
692.69	8110.51
693.037	8096.27
693.383	8043.62
693.73	7981.47
694.077	8047.01
694.423	7967.01
694.769	7850.85
695.116	7889.27
695.462	7877.52
695.808	7811.31
696.155	7817.86
696.501	7786.9
696.847	7761.14
697.193	7738.54
697.539	7817.63
697.885	7724.98
698.231	7714.13
698.577	7684.3
698.923	7675.26
699.269	7670.97
699.614	7564.08
699.96	7498.32
700.306	7515.49
700.651	7510.75
700.997	7511.43
701.342	7445.44
701.688	7467.36
702.033	7430.52
702.379	7347.14
702.724	7346.23
703.069	7404.08
703.415	7282.73
703.76	7303.3
704.105	7332.9
704.45	7279.34
704.795	7249.74
705.14	7215.16
705.485	7213.81
705.83	7153.7
706.175	7200.25
706.52	7162.28
706.865	7099.23
707.209	7043.87
707.554	7060.37
707.899	7071.89
708.243	6991.89
708.588	7004.1
708.932	6957.09
709.277	6923.65
709.621	6925.91
709.966	6960.03
710.31	6958.45
710.654	6886.36
710.998	6900.82
711.342	6856.75
711.687	6870.54
712.031	6776.98
712.375	6806.36
712.719	6809.98
713.063	6874.38
713.407	6820.82
713.75	6764.55
714.094	6765.01
714.438	6779.24
714.782	6715.74
715.125	6734.95
715.469	6755.74
715.812	6705.35
716.156	6694.73
716.499	6641.17
716.843	6676.87
717.186	6567.04
717.53	6674.39
717.873	6648.85
718.216	6643.65
718.559	6587.38
718.902	6577.44
719.246	6564.33
719.589	6598.68
719.932	6545.12
720.275	6518.68
720.617	6546.03
720.96	6578.34
721.303	6482.75
721.646	6539.93
721.989	6461.74
722.331	6564.33
722.674	6527.5
723.016	6506.93
723.359	6520.49
723.701	6490.66
724.044	6465.13
724.386	6460.38
724.729	6461.06
725.071	6442.98
725.413	6521.85
725.755	6404.56
726.097	6348.07
726.439	6440.04
726.782	6401.4
727.124	6402.98
727.465	6414.96
727.807	6426.48
728.149	6365.69
728.491	6357.56
728.833	6338.58
729.175	6335.41
729.516	6358.69
729.858	6409.08
730.199	6328.18
730.541	6348.29
730.882	6392.59
731.224	6338.58
731.565	6348.07
731.906	6360.04
732.248	6372.02
732.589	6338.8
732.93	6299.03
733.271	6372.7
733.612	6318.92
733.953	6369.99
734.294	6358.24
734.635	6309.2
734.976	6367.5
735.317	6296.54
735.658	6340.84
735.999	6324.79
736.339	6312.36
736.68	6361.85
737.021	6340.84
737.361	6360.95
737.702	6357.33
738.042	6361.85
738.383	6333.6
738.723	6343.77
739.063	6322.31
739.404	6369.99
739.744	6364.56
740.084	6319.59
740.424	6417.44
740.764	6310.1
741.104	6369.54
741.444	6346.94
741.784	6422.87
742.124	6374.28
742.464	6400.95
742.804	6368.86
743.143	6407.05
743.483	6451.57
743.823	6383.09
744.162	6433.49
744.502	6455.18
744.841	6436.65
745.181	6532.24
745.52	6438.91
745.86	6530.21
746.199	6518.68
746.538	6555.52
746.877	6584.9
747.216	6652.47
747.556	6679.13
747.895	6652.01
748.234	6700.15
748.573	6743.09
748.911	6767.72
749.25	6777.89
749.589	6768.85
749.928	6873.25
750.267	6913.02
750.605	6953.7
750.944	6996.41
751.283	6991.21
751.621	7092.45
751.96	7064.66
752.298	7119.57
752.636	7178.78
752.975	7296.52
753.313	7231.89
753.651	7402.28
753.989	7463.29
754.327	7534.25
754.666	7558.21
755.004	7731.99
755.342	7748.26
755.679	7844.53
756.017	7884.75
756.355	8009.72
756.693	8114.57
757.031	8125.42
757.368	8245.42
757.706	8284.51
758.044	8341.91
758.381	8521.57
758.719	8617.61
759.056	8621.23
759.394	8801.11
759.731	8841.34
760.068	8966.98
760.405	8966.53
760.743	9123.59
761.08	9288.56
761.417	9281.55
761.754	9395.45
762.091	9550.92
762.428	9615.78
762.765	9721.54
763.102	9818.71
763.438	9898.48
763.775	9914.53
764.112	10084.92
764.449	10260.28
764.785	10266.61
765.122	10326.04
765.458	10411.92
765.795	10552.93
766.131	10577.79
766.467	10688.52
766.804	10748.86
767.14	10810.55
767.476	10925.35
767.812	10942.07
768.148	11081.05
768.485	11043.54
768.821	11163.53
769.157	11247.37
769.492	11233.81
769.828	11296.64
770.164	11314.72
770.5	11460.25
770.836	11507.25
771.171	11441.94
771.507	11515.16
771.842	11581.38
772.178	11672
772.513	11667.7
772.849	11739.11
773.184	11692.56
773.519	11779.56
773.855	11772.78
774.19	11744.99
774.525	11861.82
774.86	11941.37
775.195	11907.24
775.53	11983.63
775.865	11913.57
776.2	11963.51
776.535	11957.19
776.87	12062.04
777.205	11987.69
777.539	11973.91
777.874	12073.79
778.209	12066.11
778.543	11981.82
778.878	12066.79
779.212	12054.81
779.547	12006
779.881	12100.68
780.215	12041.7
780.55	12147.24
780.884	12096.16
781.218	12130.51
781.552	12163.73
781.886	12071.98
782.22	12006
782.554	12086.9
782.888	11915.83
783.222	11960.12
783.556	11952.44
783.889	11990.41
784.223	11876.06
784.557	11887.81
784.89	11906.57
785.224	11841.93
785.557	11829.05
785.891	11804.65
786.224	11805.1
786.558	11859.11
786.891	11809.17
787.224	11811.2
787.557	11709.96
787.891	11721.94
788.224	11728.49
788.557	11694.82
788.89	11730.07
789.223	11699.79
789.556	11585.9
789.888	11655.72
790.221	11544.77
790.554	11596.74
790.887	11561.49
791.219	11490.31
791.552	11448.27
791.884	11460.02
792.217	11414.15
792.549	11423.19
792.882	11291.89
793.214	11379.8
793.546	11309.74
793.879	11199.92
794.211	11192.91
794.543	11272.23
794.875	11206.02
795.207	11339.35
795.539	11223.65
795.871	11243.76
796.203	11170.77
796.535	11095.97
796.867	11085.8
797.198	11117.66
797.53	11076.76
797.862	11009.41
798.193	11020.04
798.525	10924.67
798.856	10981.62
799.188	10908.85
799.519	10805.35
799.85	10774.17
800.182	10862.98
800.513	10834.96
800.844	10709.76
801.175	10788.63
801.506	10808.97
801.837	10725.58
802.168	10724
802.499	10721.06
802.83	10623.66
803.161	10664.79
803.491	10566.49
803.822	10653.04
804.153	10553.61
804.483	10484
804.814	10413.5
805.145	10426.83
805.475	10494.17
805.805	10436.55
806.136	10405.81
806.466	10388.41
806.796	10415.08
807.126	10312.48
807.457	10283.78
807.787	10310.45
808.117	10295.08
808.447	10270.68
808.777	10285.14
809.107	10216.21
809.436	10157.46
809.766	10135.54
810.096	10084.01
810.426	10089.21
810.755	10139.83
811.085	10001.08
811.414	10030.91
811.744	9985.49
812.073	9950.91
812.403	9906.39
812.732	9938.93
813.061	9921.53
813.39	9833.63
813.719	9932.83
814.049	9837.24
814.378	9804.25
814.707	9786.62
815.036	9772.16
815.365	9732.39
815.693	9719.96
816.022	9715.44
816.351	9735.55
816.68	9623.91
817.008	9662.56
817.337	9539.85
817.665	9567.64
817.994	9601.77
818.322	9566.97
818.651	9549.57
818.979	9532.62
819.307	9639.96
819.636	9541.2
819.964	9506.63
820.292	9552.73
820.62	9437.03
820.948	9485.61
821.276	9536.23
821.604	9501.2
821.932	9496.46
822.259	9469.57
822.587	9472.73
822.915	9390.7
823.243	9433.64
823.57	9401.32
823.898	9481.09
824.225	9413.07
824.553	9437.93
824.88	9462.56
825.207	9417.37
825.535	9453.75
825.862	9522.9
826.189	9453.75
826.516	9471.15
826.843	9574.2
827.17	9500.08
827.497	9507.98
827.824	9452.62
828.151	9468.44
828.478	9500.53
828.805	9433.86
829.131	9460.08
829.458	9411.04
829.785	9382.79
830.111	9442.9
830.438	9503.24
830.764	9489
831.09	9485.39
831.417	9464.37
831.743	9513.41
832.069	9482.67
832.395	9408.78
832.722	9443.81
833.048	9435.44
833.374	9455.78
833.7	9411.04
834.026	9360.87
834.351	9444.03
834.677	9385.73
835.003	9465.05
835.329	9422.11
835.654	9357.25
835.98	9402.45
836.306	9325.16
836.631	9300.98
836.956	9319.97
837.282	9343.92
837.607	9353.41
837.932	9283.81
838.258	9297.37
838.583	9286.52
838.908	9286.52
839.233	9275.22
839.558	9200.2
839.883	9219.18
840.208	9160.2
840.533	9117.03
840.858	9188.22
841.182	9176.69
841.507	9116.58
841.832	9045.17
842.156	9047.66
842.481	9083.36
842.805	9033.42
843.13	9032.74
843.454	9039.07
843.778	8941.45
844.103	8951.84
844.427	8958.62
844.751	8971.95
845.075	8911.84
845.399	8825.06
845.723	8840.88
846.047	8851.28
846.371	8723.82
846.695	8757.27
847.019	8679.53
847.343	8638.18
847.666	8640.21
847.99	8610.15
848.313	8597.05
848.637	8560.66
848.96	8570.38
849.284	8564.96
849.607	8485.86
849.931	8465.3
850.254	8370.84
850.577	8394.34
850.9	8329.48
851.223	8279.99
851.546	8222.14
851.869	8196.61
852.192	8223.27
852.515	8168.58
852.838	8133.11
853.161	8131.3
853.483	8078.42
853.806	8050.4
854.129	8021.92
854.451	7976.95
854.774	7967.23
855.096	7939.89
855.419	7904.41
855.741	7964.07
856.063	7848.37
856.385	7840.23
856.708	7894.69
857.03	7745.54
857.352	7787.13
857.674	7763.62
857.996	7790.74
858.318	7705.55
858.64	7682.04
858.961	7710.52
859.283	7701.7
859.605	7565.66
859.926	7587.36
860.248	7628.94
860.57	7565.66
860.891	7591.2
861.212	7547.36
861.534	7486.12
861.855	7448.38
862.176	7495.61
862.498	7488.83
862.819	7529.28
863.14	7444.99
863.461	7410.86
863.782	7429.62
864.103	7478.43
864.424	7393.92
864.745	7410.41
865.065	7334.48
865.386	7363.63
865.707	7363.18
866.027	7326.57
866.348	7351.43
866.668	7300.36
866.989	7286.8
867.309	7273.47
867.63	7317.76
867.95	7312.56
868.27	7218.55
868.59	7304.2
868.91	7302.39
869.23	7259.68
869.55	7229.63
869.87	7218.33
870.19	7187.59
870.51	7227.59
870.83	7209.51
871.15	7162.74
871.469	7163.87
871.789	7179.23
872.109	7131.32
872.428	7079.12
872.748	7077.99
873.067	7137.2
873.386	7097.65
873.706	7075.51
874.025	7029.86
874.344	7042.29
874.663	7002.51
874.982	7018.11
875.301	6989.41
875.62	6950.76
875.939	6980.37
876.258	7025.34
876.577	7005.45
876.896	6979.24
877.214	6911.67
877.533	6938.33
877.852	6881.84
878.17	6970.2
878.489	6897.88
878.807	6943.08
879.125	6865.12
879.444	6956.41
879.762	6849.07
880.08	6853.59
880.398	6822.41
880.716	6828.51
881.034	6808.17
881.352	6785.12
881.67	6838
881.988	6755.97
882.306	6749.64
882.624	6690.66
882.941	6663.54
883.259	6670.32
883.577	6692.24
883.894	6648.17
884.212	6675.74
884.529	6619.25
884.846	6590.77
885.164	6612.47
885.481	6618.79
885.798	6641.85
886.115	6551.9
886.432	6536.54
886.75	6512.81
887.067	6543.77
887.383	6507.16
887.7	6493.6
888.017	6488.63
888.334	6513.49
888.651	6441.85
888.967	6409.99
889.284	6421.29
889.6	6460.83
889.917	6345.36
890.233	6352.14
890.55	6339.03
890.866	6384
891.182	6400.27
891.498	6319.59
891.815	6305.36
892.131	6304.45
892.447	6274.17
892.763	6240.27
893.079	6191.91
893.395	6213.16
893.71	6122.08
894.026	6175.64
894.342	6170.22
894.657	6071.92
894.973	6055.42
895.289	6157.11
895.604	6115.31
895.92	5996.21
896.235	6003.44
896.55	5990.79
896.865	5988.08
897.181	5914.41
897.496	5957.57
897.811	5929.1
898.126	5876.67
898.441	5926.16
898.756	5866.5
899.071	5837.12
899.386	5815.65
899.7	5811.81
900.015	5777.01
900.33	5696.56
900.644	5716.22
900.959	5764.35
901.273	5723.68
901.588	5659.5
901.902	5677.12
902.216	5648.2
902.531	5608.43
902.845	5627.86
903.159	5579.5
903.473	5554.42
903.787	5505.38
904.101	5471.48
904.415	5536.79
904.729	5544.02
905.042	5449.56
905.356	5408.43
905.67	5477.13
905.984	5466.28
906.297	5422.44
906.611	5349
906.924	5347.64
907.237	5361.88
907.551	5315.33
907.864	5265.38
908.177	5268.55
908.491	5239.85
908.804	5225.16
909.117	5208.44
909.43	5189.45
909.743	5177.7
910.056	5139.29
910.368	5143.58
910.681	5088.21
910.994	5111.72
911.307	5076.01
911.619	5048.21
911.932	5088.89
912.244	5000.53
912.557	4961.66
912.869	4942.23
913.181	4957.14
913.494	4916.69
913.806	4885.96
914.118	4906.98
914.43	4842.57
914.742	4823.36
915.054	4833.08
915.366	4816.13
915.678	4792.63
915.99	4795.79
916.302	4792.4
916.613	4739.75
916.925	4750.14
917.236	4706.53
917.548	4666.98
917.859	4637.6
918.171	4646.42
918.482	4658.17
918.794	4626.08
919.105	4655.23
919.416	4554.22
919.727	4551.96
920.038	4579.3
920.349	4571.39
920.66	4512.18
920.971	4560.77
921.282	4438.29
921.593	4418.17
921.903	4413.66
922.214	4448.91
922.525	4406.2
922.835	4357.16
923.146	4358.97
923.456	4376.37
923.767	4356.93
924.077	4319.42
924.387	4276.03
924.697	4307.22
925.008	4249.37
925.318	4240.55
925.628	4209.82
925.938	4241.91
926.248	4170.72
926.558	4183.38
926.867	4187.45
927.177	4156.26
927.487	4172.08
927.796	4101.57
928.106	4085.98
928.416	4031.52
928.725	4025.42
929.034	4031.29
929.344	4062.48
929.653	4020.22
929.962	4018.86
930.271	3965.53
930.581	3965.76
930.89	3963.5
931.199	3904.97
931.508	3932.99
931.817	3963.27
932.125	3916.95
932.434	3889.83
932.743	3857.74
933.051	3881.24
933.36	3844.63
933.669	3818.42
933.977	3825.42
934.286	3809.15
934.594	3830.39
934.902	3797.17
935.21	3717.85
935.519	3733.9
935.827	3745.88
936.135	3729.38
936.443	3663.39
936.751	3700
937.059	3636.27
937.367	3630.85
937.674	3636.73
937.982	3618.42
938.29	3584.75
938.597	3594.69
938.905	3528.25
939.213	3575.26
939.52	3534.58
939.827	3530.29
940.135	3475.15
940.442	3505.88
940.749	3458.65
941.056	3446
941.363	3429.27
941.67	3430.63
941.977	3431.31
942.284	3416.17
942.591	3378.65
942.898	3381.37
943.205	3369.39
943.511	3341.14
943.818	3369.84
944.125	3319.67
944.431	3291.65
944.738	3356.51
945.044	3310.63
945.35	3279.9
945.657	3261.14
945.963	3271.31
946.269	3260.47
946.575	3215.49
946.881	3213.23
947.187	3199.68
947.493	3191.54
947.799	3159.45
948.105	3158.09
948.41	3136.17
948.716	3141.82
949.022	3122.16
949.327	3102.28
949.633	3073.13
949.938	3072.22
950.244	3087.36
950.549	3062.73
950.854	3055.72
951.16	2995.39
951.465	3000.81
951.77	2995.16
952.075	2987.03
952.38	2987.93
952.685	2964.88
952.99	2948.61
953.294	2917.88
953.599	2937.54
953.904	2943.86
954.209	2886.24
954.513	2947.25
954.818	2889.4
955.122	2857.99
955.426	2876.75
955.731	2841.72
956.035	2818.44
956.339	2820.7
956.643	2833.58
956.948	2808.95
957.252	2808.05
957.556	2776.64
957.86	2799.23
958.163	2781.83
958.467	2748.39
958.771	2755.39
959.075	2707.03
959.378	2704.55
959.682	2678.79
959.985	2680.14
960.289	2683.53
960.592	2659.12
960.896	2663.42
961.199	2612.57
961.502	2638.79
961.805	2623.87
962.108	2645.34
962.411	2587.71
962.714	2581.39
963.017	2573.03
963.32	2568.96
963.623	2580.26
963.926	2559.47
964.228	2527.38
964.531	2508.17
964.833	2507.04
965.136	2522.18
965.438	2432.92
965.741	2504.1
966.043	2483.08
966.345	2470.2
966.648	2483.76
966.95	2466.59
967.252	2427.27
967.554	2438.79
967.856	2419.36
968.158	2386.36
968.46	2409.19
968.761	2393.82
969.063	2379.13
969.365	2352.01
969.666	2361.05
969.968	2340.04
970.269	2330.55
970.571	2321.73
970.872	2309.53
971.174	2306.59
971.475	2259.81
971.776	2283.09
972.077	2289.87
972.378	2290.32
972.679	2275.86
972.98	2256.42
973.281	2243.99
973.582	2235.18
973.883	2241.73
974.183	2218.01
974.484	2216.2
974.785	2202.19
975.085	2216.2
975.386	2222.98
975.686	2211
975.986	2159.7
976.287	2156.99
976.587	2124.45
976.887	2152.02
977.187	2140.04
977.487	2117.22
977.787	2131.91
978.087	2114.73
978.387	2083.77
978.687	2093.94
978.987	2091.91
979.286	2093.94
979.586	2057.33
979.885	2075.64
980.185	2033.38
980.484	2035.41
980.784	2017.33
981.083	2042.42
981.382	2005.13
981.682	1980.95
981.981	1994.51
982.28	1992.93
982.579	1987.73
982.878	1982.76
983.177	1967.62
983.475	1970.56
983.774	1926.49
984.073	1932.14
984.372	1904.79
984.67	1907.73
984.969	1914.96
985.267	1897.79
985.566	1888.98
985.864	1876.77
986.162	1883.33
986.461	1843.1
986.759	1850.33
987.057	1856.43
987.355	1828.64
987.653	1834.06
987.951	1832.71
988.249	1821.18
988.547	1842.65
988.844	1793.39
989.142	1802.88
989.44	1768.07
989.737	1756.32
990.035	1782.99
990.332	1773.27
990.63	1751.13
990.927	1733.05
991.224	1742.99
991.521	1753.61
991.819	1735.76
992.116	1733.5
992.413	1716.78
992.71	1706.61
993.006	1704.57
993.303	1693.73
993.6	1681.98
993.897	1705.25
994.193	1722.88
994.49	1658.02
994.787	1673.84
995.083	1603.11
995.379	1677.68
995.676	1638.59
995.972	1629.77
996.268	1604.92
996.565	1641.98
996.861	1607.4
997.157	1612.37
997.453	1584.35
997.749	1592.71
998.044	1545.93
998.34	1578.7
998.636	1580.51
998.932	1557.69
999.227	1583.9
999.523	1539.38
999.818	1554.75
1000.114	1546.39
1000.409	1507.52
1000.704	1509.78
1001	1473.85
1001.295	1494.41
1001.59	1500.06
1001.885	1479.04
1002.18	1481.08
1002.475	1470.23
1002.77	1458.48
1003.065	1451.47
1003.359	1460.51
1003.654	1423.45
1003.949	1423
1004.243	1428.42
1004.538	1415.99
1004.832	1399.5
1005.127	1383
1005.421	1398.37
1005.715	1399.5
1006.009	1373.51
1006.304	1364.7
1006.598	1357.24
1006.892	1400.4
1007.186	1348.42
1007.48	1349.78
1007.773	1336.45
1008.067	1328.99
1008.361	1314.08
1008.655	1323.11
1008.948	1298.93
1009.242	1302.32
1009.535	1291.93
1009.829	1301.42
1010.122	1311.36
1010.415	1299.84
1010.708	1260.97
1011.001	1277.01
1011.295	1262.33
1011.588	1265.72
1011.881	1243.79
1012.173	1262.78
1012.466	1249.67
1012.759	1234.53
1013.052	1223.68
1013.344	1214.64
1013.637	1193.63
1013.93	1223.23
1014.222	1208.32
1014.514	1187.75
1014.807	1182.78
1015.099	1192.5
1015.391	1177.13
1015.683	1154.31
1015.976	1155.66
1016.268	1161.76
1016.56	1150.69
1016.851	1136.91
1017.143	1139.62
1017.435	1126.74
1017.727	1148.88
1018.018	1118.83
1018.31	1092.61
1018.602	1111.82
1018.893	1091.71
1019.185	1074.08
1019.476	1064.59
1019.767	1079.96
1020.058	1085.38
1020.35	1069.79
1020.641	1073.4
1020.932	1059.85
1021.223	1037.47
1021.514	1034.53
1021.804	1053.29
1022.095	1012.84
1022.386	998.15
1022.677	1019.62
1022.967	1013.29
1023.258	1013.07
1023.548	989.79
1023.839	992.5
1024.129	990.02
1024.419	982.11
1024.709	977.81
1025	983.46
1025.29	957.7
1025.58	971.71
1025.87	966.97
1026.16	954.54
1026.449	919.28
1026.739	941.2
1027.029	930.36
1027.319	911.83
1027.608	911.83
1027.898	921.09
1028.187	907.76
1028.477	915.44
1028.766	883.35
1029.055	915.89
1029.344	894.43
1029.634	871.38
1029.923	877.7
1030.212	870.47
1030.501	889
1030.79	864.6
1031.078	868.89
1031.367	853.07
1031.656	836.57
1031.945	830.92
1032.233	850.81
1032.522	842.45
1032.81	813.98
1033.099	828.89
1033.387	807.42
1033.675	808.78
1033.963	820.3
1034.251	801.09
1034.54	810.36
1034.828	806.29
1035.116	799.29
1035.403	775.56
1035.691	783.02
1035.979	795.22
1036.267	756.35
1036.554	771.94
1036.842	795.9
1037.129	760.64
1037.417	776.69
1037.704	769.91
1037.992	740.31
1038.279	737.59
1038.566	746.18
1038.853	746.18
1039.14	746.18
