Data from hue_38_FLMS001491_00046.txt Node
Date: Tue Feb 07 17:31:33 GMT 2017
User: dcchb
Spectrometer: FLMS00149
Trigger mode: 0
Integration Time (sec): 2.000000E-2
Scans to average: 10
Electric dark correction enabled: true
Nonlinearity correction enabled: false
Boxcar width: 0
XAxis mode: Wavelengths
Number of Pixels in Spectrum: 2048
>>>>>Begin Spectral Data<<<<<
341.393	-18.53
341.776	-18.53
342.16	-18.53
342.543	-43.39
342.927	-83.16
343.31	-59.66
343.693	-87.68
344.077	-66.21
344.46	-61.24
344.843	-49.49
345.226	-53.56
345.61	-33.67
345.993	-21.02
346.376	18.08
346.759	11.07
347.142	25.54
347.525	38.87
347.908	61.69
348.291	65.99
348.674	85.87
349.057	125.42
349.44	138.08
349.823	165.87
350.206	169.71
350.588	212.65
350.971	229.37
351.354	237.06
351.737	245.87
352.119	241.12
352.502	285.64
352.884	250.84
353.267	285.64
353.65	274.12
354.032	310.27
354.414	315.7
354.797	342.14
355.179	327
355.562	348.24
355.944	327.45
356.326	329.26
356.709	352.99
357.091	337.39
357.473	368.58
357.855	350.73
358.238	348.24
358.62	338.75
359.002	363.15
359.384	334
359.766	335.58
360.148	342.59
360.53	356.83
360.912	349.37
361.294	355.92
361.676	331.29
362.057	364.28
362.439	325.87
362.821	329.93
363.203	334
363.584	318.86
363.966	348.69
364.348	351.18
364.729	324.74
365.111	321.8
365.493	320.67
365.874	331.06
366.256	311.63
366.637	339.2
367.019	299.88
367.4	325.42
367.781	323.61
368.163	308.47
368.544	326.77
368.925	324.51
369.306	346.21
369.688	310.95
370.069	340.33
370.45	335.13
370.831	322.25
371.212	320.22
371.593	310.73
371.974	328.58
372.355	306.43
372.736	338.3
373.117	314.34
373.498	322.7
373.879	326.77
374.26	322.48
374.641	326.32
375.021	324.29
375.402	333.78
375.783	341.23
376.163	317.73
376.544	343.27
376.925	341.01
377.305	343.72
377.686	336.26
378.066	340.1
378.447	360.89
378.827	347.11
379.208	329.26
379.588	337.17
379.968	349.14
380.349	359.99
380.729	346.21
381.109	343.27
381.489	350.73
381.87	350.5
382.25	339.88
382.63	334.68
383.01	353.21
383.39	331.74
383.77	357.28
384.15	322.48
384.53	348.01
384.91	370.39
385.29	355.24
385.67	360.22
386.049	352.53
386.429	345.53
386.809	354.11
387.189	360.89
387.568	367.22
387.948	376.49
388.328	381.01
388.707	367.22
389.087	354.57
389.466	399.76
389.846	357.5
390.225	371.06
390.605	366.09
390.984	374.23
391.363	368.13
391.743	397.96
392.122	365.41
392.501	386.2
392.881	386.2
393.26	380.78
393.639	374.68
394.018	376.71
394.397	400.44
394.776	392.31
395.155	402.7
395.534	374.68
395.913	399.76
396.292	405.41
396.671	392.76
397.05	383.94
397.429	390.95
397.808	375.58
398.186	398.18
398.565	389.59
398.944	391.4
399.323	411.51
399.701	404.51
400.08	395.47
400.458	419.42
400.837	394.79
401.215	389.37
401.594	397.96
401.972	416.71
402.351	402.48
402.729	405.87
403.107	403.83
403.486	418.52
403.864	433.66
404.242	405.87
404.62	405.19
404.999	424.62
405.377	436.82
405.755	444.06
406.133	444.51
406.511	436.15
406.889	427.33
407.267	430.05
407.645	438.41
408.023	445.41
408.401	438.63
408.779	453.32
409.156	445.64
409.534	452.42
409.912	465.98
410.29	462.81
410.667	465.75
411.045	473.21
411.422	457.39
411.8	456.03
412.178	454.23
412.555	455.13
412.933	456.49
413.31	483.38
413.687	479.99
414.065	493.32
414.442	501
414.819	489.03
415.197	481.12
415.574	507.33
415.951	505.98
416.328	498.29
416.705	490.61
417.082	477.95
417.46	534.68
417.837	512.53
418.214	518.63
418.591	505.98
418.967	504.39
419.344	524.51
419.721	535.81
420.098	526.99
420.475	547.56
420.852	528.57
421.228	534.9
421.605	532.42
421.982	526.31
422.358	555.01
422.735	550.72
423.111	554.34
423.488	545.75
423.864	540.78
424.241	550.04
424.617	550.27
424.994	545.3
425.37	568.35
425.746	571.28
426.123	587.56
426.499	582.36
426.875	577.16
427.251	566.09
427.627	582.36
428.003	595.01
428.379	570.15
428.756	618.51
429.132	596.37
429.507	594.33
429.883	599.76
430.259	634.79
430.635	611.06
431.011	608.35
431.387	626.65
431.763	636.37
432.138	651.06
432.514	654.9
432.89	664.16
433.265	656.93
433.641	653.99
434.016	665.75
434.392	679.76
434.767	682.24
435.143	689.47
435.518	674.78
435.894	697.61
436.269	699.19
436.644	680.89
437.02	709.36
437.395	711.17
437.77	698.74
438.145	724.5
438.52	716.59
438.895	711.62
439.271	721.56
439.646	751.39
440.021	753.2
440.395	761.11
440.77	732.64
441.145	755.23
441.52	772.18
441.895	774.89
442.27	775.57
442.645	768.34
443.019	783.26
443.394	777.38
443.769	777.61
444.143	788
444.518	775.57
444.892	799.98
445.267	798.4
445.641	796.82
446.016	807.21
446.39	812.63
446.764	830.49
447.139	804.95
447.513	821.22
447.887	833.65
448.262	849.47
448.636	846.98
449.01	851.95
449.384	858.73
449.758	850.15
450.132	851.05
450.506	858.96
450.88	891.28
451.254	885.85
451.628	911.84
452.002	911.16
452.376	908.9
452.75	933.08
453.123	931.95
453.497	917.26
453.871	923.14
454.244	960.2
454.618	925.17
454.992	945.06
455.365	952.97
455.739	977.83
456.112	985.96
456.486	980.31
456.859	1032.06
457.232	1002.91
457.606	994.78
457.979	1035.23
458.352	1044.27
458.725	1056.24
459.099	1036.13
459.472	1042.91
459.845	1075.9
460.218	1089.46
460.591	1126.98
460.964	1092.17
461.337	1144.15
461.71	1146.18
462.083	1145.96
462.456	1173.75
462.829	1163.36
463.201	1194.09
463.574	1176.69
463.947	1200.42
464.32	1236.13
464.692	1228.44
465.065	1265.73
465.438	1259.63
465.81	1268.44
466.183	1295.11
466.555	1348.21
466.928	1329
467.3	1335.33
467.672	1364.71
468.045	1393.86
468.417	1414.88
468.789	1416.69
469.161	1444.26
469.534	1460.98
469.906	1491.03
470.278	1499.85
470.65	1535.78
471.022	1577.13
471.394	1583.24
471.766	1577.36
472.138	1640.41
472.51	1677.47
472.882	1743.68
473.253	1764.47
473.625	1816.68
473.997	1778.03
474.369	1842.89
474.74	1885.37
475.112	1942.32
475.484	1950.91
475.855	1981.87
476.227	2009.89
476.598	2098.25
476.97	2119.94
477.341	2191.13
477.713	2258.7
478.084	2252.14
478.455	2353.61
478.827	2414.4
479.198	2473.16
479.569	2499.82
479.94	2584.56
480.311	2624.34
480.682	2726.26
481.053	2800.6
481.424	2862.3
481.795	2901.84
482.166	2999.02
482.537	3053.93
482.908	3135.06
483.279	3232.46
483.65	3304.55
484.021	3401.94
484.391	3483.3
484.762	3554.03
485.133	3615.72
485.503	3695.04
485.874	3832.44
486.244	3912.67
486.615	4016.62
486.985	4087.58
487.356	4222.49
487.726	4257.06
488.097	4389.49
488.467	4460
488.837	4631.97
489.207	4702.48
489.578	4813.88
489.948	4906.99
490.318	4999.42
490.688	5071.28
491.058	5232.63
491.428	5349.01
491.798	5470.59
492.168	5560.08
492.538	5621.77
492.908	5693.18
493.278	5865.38
493.648	5990.35
494.017	6056.11
494.387	6164.13
494.757	6337.01
495.126	6371.36
495.496	6451.81
495.866	6565.93
496.235	6679.82
496.605	6807.05
496.974	6879.82
497.344	6981.96
497.713	7113.71
498.082	7125.24
498.452	7290.43
498.821	7410.88
499.19	7404.55
499.559	7576.75
499.928	7626.92
500.298	7762.06
500.667	7869.62
501.036	7889.51
501.405	8052.22
501.774	8056.29
502.143	8132.89
502.512	8227.35
502.88	8400.46
503.249	8374.92
503.618	8512.32
503.987	8554.8
504.356	8670.96
504.724	8740.79
505.093	8827.34
505.462	8846.32
505.83	8962.93
506.199	9081.57
506.567	9180.32
506.936	9188.46
507.304	9336.48
507.672	9396.82
508.041	9441.79
508.409	9512.74
508.777	9673.64
509.145	9730.59
509.514	9770.36
509.882	9789.8
510.25	9936.01
510.618	10000.64
510.986	10034.09
511.354	10121.32
511.722	10218.94
512.09	10356.79
512.458	10356.56
512.826	10467.52
513.193	10518.37
513.561	10541.87
513.929	10677.23
514.297	10735.08
514.664	10837.46
515.032	10872.71
515.4	10968.07
515.767	11068.86
516.135	11131.46
516.502	11049.43
516.869	11190.67
517.237	11338.23
517.604	11279.93
517.972	11475.18
518.339	11481.28
518.706	11480.38
519.073	11547.72
519.44	11662.29
519.808	11872.46
520.175	11739.13
520.542	11961.72
520.909	11942.51
521.276	11942.74
521.643	12179.79
522.009	12285.55
522.376	12293.01
522.743	12346.12
523.11	12417.75
523.477	12542.04
523.843	12561.25
524.21	12763.96
524.577	12784.52
524.943	12844.86
525.31	12906.33
525.676	13064.29
526.043	13126.43
526.409	13163.95
526.776	13335.24
527.142	13378.63
527.508	13504.73
527.874	13537.72
528.241	13552.19
528.607	13691.84
528.973	13846.19
529.339	13770.94
529.705	13966.64
530.071	14027.88
530.437	14129.12
530.803	14155.79
531.169	14232.39
531.535	14332.96
531.901	14264.71
532.267	14346.52
532.632	14516.68
532.998	14523.01
533.364	14630.8
533.73	14602.78
534.095	14788.54
534.461	14883
534.826	14881.42
535.192	14904.24
535.557	15051.58
535.923	15039.83
536.288	15114.4
536.653	15225.59
537.019	15175.65
537.384	15292.93
537.749	15308.75
538.114	15394.17
538.479	15485.69
538.845	15650.21
539.21	15530.89
539.575	15668.97
539.94	15651.79
540.305	15765.46
540.67	15774.95
541.034	15930.43
541.399	16045.91
541.764	15949.86
542.129	16022.63
542.494	16134.49
542.858	16160.48
543.223	16157.09
543.587	16290.42
543.952	16322.73
544.316	16412.9
544.681	16442.73
545.045	16488.15
545.41	16611.77
545.774	16652.44
546.138	16716.85
546.503	16827.58
546.867	16735.38
547.231	16887.24
547.595	16949.16
547.959	16992.1
548.324	17097.63
548.688	17019.21
549.052	17198.64
549.416	17179.21
549.779	17240
550.143	17297.85
550.507	17416.27
550.871	17538.75
551.235	17487.9
551.599	17545.98
551.962	17603.83
552.326	17659.87
552.689	17867.78
553.053	17726.77
553.417	17817.16
553.78	18043.14
554.143	17983.93
554.507	18006.31
554.87	18049.24
555.234	18251.5
555.597	18200.88
555.96	18321.55
556.323	18392.28
556.686	18433.19
557.05	18491.04
557.413	18579.4
557.776	18643.13
558.139	18691.94
558.502	18684.71
558.865	18816.91
559.228	18820.3
559.59	18988.65
559.953	19083.57
560.316	19122.66
560.679	19123.79
561.041	19272.49
561.404	19459.6
561.767	19455.08
562.129	19495.31
562.492	19672.25
562.854	19617.56
563.217	19626.38
563.579	19729.65
563.941	19840.83
564.304	19921.28
564.666	20049.87
565.028	20082.41
565.39	20137.1
565.753	20149.98
566.115	20247.15
566.477	20375.28
566.839	20457.77
567.201	20561.95
567.563	20438.33
567.925	20677.65
568.287	20720.13
568.648	20853.91
569.01	20991.31
569.372	21024.53
569.734	21015.72
570.095	21088.49
570.457	21306.56
570.819	21380.68
571.18	21374.13
571.542	21564.4
571.903	21520.56
572.265	21712.42
572.626	21681.24
572.987	21712.88
573.349	21904.51
573.71	22039.19
574.071	22122.81
574.432	22073.77
574.794	22386.08
575.155	22364.61
575.516	22398.96
575.877	22506.53
576.238	22707.88
576.599	22919.62
576.96	22913.97
577.32	22944.03
577.681	23066.29
578.042	23255.66
578.403	23458.59
578.763	23466.05
579.124	23658.36
579.485	23914.4
579.845	24003.44
580.206	24131.34
580.566	24275.52
580.927	24377.66
581.287	24619.69
581.648	24698.33
582.008	24835.28
582.368	25015.84
582.728	25256.29
583.089	25273.69
583.449	25507.58
583.809	25729.49
584.169	25881.35
584.529	25997.28
584.889	26413.77
585.249	26411.06
585.609	26661.9
585.969	26930.14
586.329	26966.07
586.688	27219.62
587.048	27468.43
587.408	27530.12
587.768	27645.15
588.127	27888.53
588.487	28093.5
588.846	28484.9
589.206	28500.04
589.565	28708.85
589.925	29028.39
590.284	29224.54
590.643	29454.59
591.003	29657.75
591.362	29975.48
591.721	30073.56
592.08	30216.61
592.44	30523.04
592.799	30760.55
593.158	30919.19
593.517	30956.47
593.876	31354.66
594.235	31428.55
594.593	31758.49
594.952	31962.78
595.311	32065.37
595.67	32375.65
596.029	32686.6
596.387	32875.07
596.746	33094.5
597.104	33006.82
597.463	33239.35
597.822	33521.83
598.18	33626.01
598.538	33757.98
598.897	34156.39
599.255	33984.64
599.613	34793.21
599.972	34515.25
600.33	34934.67
600.688	34918.63
601.046	35224.84
601.404	35405.4
601.762	35561.1
602.12	35804.03
602.478	35953.86
602.836	36184.36
603.194	36201.76
603.552	36316.79
603.91	36357.46
604.268	36719.94
604.625	36691.46
604.983	36954.51
605.341	36866.6
605.698	37058.46
606.056	37382.29
606.413	37533.02
606.771	37485.34
607.128	37918.1
607.485	37767.59
607.843	37954.93
608.2	38103.18
608.557	38354.7
608.914	38396.5
609.272	38691.41
609.629	38686.89
609.986	38908.36
610.343	39026.32
610.7	39317.61
611.057	39185.18
611.414	39307.22
611.771	39463.6
612.127	39664.49
612.484	39662.91
612.841	40086.86
613.198	39946.07
613.554	39960.76
613.911	40257.02
614.267	40447.3
614.624	40443.68
614.98	40504.25
615.337	40785.59
615.693	40776.1
616.05	40819.72
616.406	41019.71
616.762	41007.06
617.118	41079.15
617.475	41256.99
617.831	41293.38
618.187	41560.72
618.543	41546.03
618.899	41737.21
619.255	41660.37
619.611	41798.45
619.967	41790.54
620.323	42130.19
620.678	41994.15
621.034	41939.01
621.39	42044.77
621.746	42031.89
622.101	42707.35
622.457	42251.09
622.812	42356.63
623.168	42465.78
623.523	42537.19
623.879	42715.49
624.234	42462.39
624.589	42567.69
624.945	42679.33
625.3	42785.09
625.655	42779.89
626.01	42837.74
626.365	42846.78
626.72	42831.64
627.075	42877.52
627.43	42877.52
627.785	42873.67
628.14	42976.95
628.495	42883.62
628.85	43017.63
629.205	42863.73
629.559	43112.99
629.914	42926.1
630.269	43023.95
630.623	42910.51
630.978	43014.01
631.332	43260.11
631.687	43230.73
632.041	43027.57
632.396	43078.19
632.75	43056.72
633.104	43195.47
633.459	43024.41
633.813	42949.38
634.167	43149.6
634.521	42981.47
634.875	43223.95
635.229	43169.26
635.583	42940.11
635.937	42987.12
636.291	42902.83
636.645	43147.34
636.999	42960.23
637.352	43090.84
637.706	42835.94
638.06	43075.93
638.413	42804.07
638.767	42786.22
639.121	42825.99
639.474	42699.89
639.828	42772.89
640.181	42713.91
640.534	42799.55
640.888	42680.01
641.241	42564.98
641.594	42593.23
641.947	42809.72
642.301	42617.86
642.654	42657.86
643.007	42631.65
643.36	42610.86
643.713	42450.18
644.066	42629.84
644.419	42450.86
644.771	42185.56
645.124	41840.48
645.477	41665.12
645.83	41591.9
646.182	41492.69
646.535	41342.42
646.888	41478.46
647.24	41235.07
647.593	41486.37
647.945	41496.99
648.298	41185.81
648.65	41153.27
649.002	41133.38
649.355	41169.09
649.707	41222.64
650.059	41298.58
650.411	41926.36
650.763	42003.19
651.115	42141.72
651.467	42049.97
651.819	42077.31
652.171	42028.5
652.523	41935.17
652.875	41933.36
653.227	41782.4
653.578	42035.05
653.93	42044.09
654.282	41821.5
654.633	41669.19
654.985	41830.99
655.337	41712.8
655.688	41887.94
656.039	41949.41
656.391	41607.27
656.742	41778.79
657.094	41840.03
657.445	41827.15
657.796	41814.49
658.147	41659.92
658.498	41677.77
658.849	41775.17
659.2	41644.55
659.551	41594.16
659.902	41631
660.253	41524.56
660.604	41738.11
660.955	41557.33
661.306	41604.56
661.656	41605.46
662.007	41653.59
662.358	41581.73
662.708	41621.5
663.059	41542.41
663.409	41367.27
663.76	41716.64
664.11	41572.24
664.461	41553.26
664.811	41629.87
665.161	41635.06
665.511	41528.63
665.862	41498.12
666.212	41670.32
666.562	41695.4
666.912	41531.79
667.262	41509.19
667.612	41473.94
667.962	41656.76
668.312	41416.76
668.662	41608.17
669.011	41466.25
669.361	41465.12
669.711	41445.92
670.06	41353.94
670.41	41306.94
670.76	41398.01
671.109	41443.88
671.459	41461.06
671.808	41228.97
672.157	41395.97
672.507	41248.41
672.856	41192.82
673.205	41239.59
673.554	41354.84
673.904	41222.64
674.253	41434.16
674.602	41357.56
674.951	40611.81
675.3	40564.58
675.649	41124.34
675.998	41097.22
676.346	41136.77
676.695	41304.68
677.044	40997.57
677.393	41092.93
677.741	41010
678.09	40978.58
678.438	40999.37
678.787	40894.07
679.135	41027.4
679.484	40655.43
679.832	40978.13
680.181	40589.67
680.529	40777.46
680.877	40757.12
681.225	40463.57
681.573	40741.75
681.922	40412.95
682.27	40359.39
682.618	40512.38
682.966	40278.04
683.314	40377.02
683.661	40206.17
684.009	40110.36
684.357	40099.06
684.705	40046.4
685.053	39984.26
685.4	39933.64
685.748	39751.95
686.095	39789.46
686.443	39692.97
686.79	39664.72
687.138	39810.7
687.485	39694.55
687.832	39545.17
688.18	39675.11
688.527	39511.05
688.874	39384.5
689.221	39271.96
689.568	39124.39
689.915	38958.98
690.262	39078.75
690.609	38943.16
690.956	38815.48
691.303	38758.75
691.65	38732.31
691.997	38688.02
692.344	38376.39
692.69	38553.34
693.037	38412.32
693.383	38078.55
693.73	38247.81
694.077	37993.13
694.423	38142.95
694.769	37894.82
695.116	37878.33
695.462	37798.78
695.808	37695.05
696.155	37819.34
696.501	37455.29
696.847	37459.58
697.193	37198.57
697.539	37276.31
697.885	37166.03
698.231	37042.42
698.577	37103.21
698.923	37208.29
699.269	36845.58
699.614	36588.64
699.96	36570.11
700.306	36628.87
700.651	36498.25
700.997	36431.81
701.342	36160.63
701.688	36203.34
702.033	36153.63
702.379	36125.83
702.724	35989.34
703.069	36160.86
703.415	35591.61
703.76	35694.43
704.105	35634.54
704.45	35555.45
704.795	35350.48
705.14	35263.93
705.485	35152.97
705.83	35034.11
706.175	35229.13
706.52	34988.46
706.865	35014.22
707.209	35012.86
707.554	34862.13
707.899	34835.69
708.243	34629.37
708.588	34596.83
708.932	34335.14
709.277	34300.57
709.621	34425.76
709.966	34236.16
710.31	34316.39
710.654	33988.48
710.998	34120.91
711.342	34033.91
711.687	33998.65
712.031	33823.07
712.375	33710.53
712.719	33687.93
713.063	33632.11
713.407	33673.01
713.75	33461.95
714.094	33505.33
714.438	33357.09
714.782	33387.14
715.125	33274.15
715.469	33339.46
715.812	33163.42
716.156	33117.1
716.499	32950.55
716.843	33083.88
717.186	32831.23
717.53	33007.72
717.873	32999.58
718.216	32877.78
718.559	32764.56
718.902	32600.95
719.246	32488.19
719.589	32417.9
719.932	32270.34
720.275	32184.01
720.617	32196.22
720.96	32295.87
721.303	32248.42
721.646	32212.94
721.989	32054.52
722.331	32070.57
722.674	31971.59
723.016	32005.26
723.359	31933.85
723.701	32005.03
724.044	31707.19
724.386	31574.54
724.729	31803.46
725.071	31669.22
725.413	31617.25
725.755	31633.74
726.097	31512.17
726.439	31264.94
726.782	31370.7
727.124	31510.81
727.465	31371.83
727.807	31300.65
728.149	31131.84
728.491	31157.6
728.833	31196.47
729.175	31063.36
729.516	31006.87
729.858	30986.3
730.199	31082.8
730.541	30993.76
730.882	30831.28
731.224	30934.1
731.565	30854.78
731.906	30769.59
732.248	30695.92
732.589	30613.21
732.93	30377.05
733.271	30608.01
733.612	30448.46
733.953	30517.16
734.294	30366.89
734.635	30360.56
734.976	30258.19
735.317	30299.99
735.658	30209.38
735.999	30174.8
736.339	30097.29
736.68	30186.78
737.021	30023.62
737.361	29872.43
737.702	30124.18
738.042	29942.94
738.383	29968.25
738.723	29921.25
739.063	29805.32
739.404	29889.38
739.744	29735.49
740.084	29745.66
740.424	29704.53
740.764	29754.7
741.104	29742.04
741.444	29551.54
741.784	29494.82
742.124	29577.98
742.464	29556.96
742.804	29374.37
743.143	29268.83
743.483	29380.02
743.823	29088.5
744.162	28981.61
744.502	29284.2
744.841	29060.93
745.181	29234.49
745.52	29099.8
745.86	29081.5
746.199	28997.88
746.538	28953.36
746.877	28920.82
747.216	28946.81
747.556	28881.27
747.895	28879.47
748.234	28713.37
748.573	28681.96
748.911	28767.15
749.25	28571.23
749.589	28470.89
749.928	28598.8
750.267	28534.39
750.605	28422.53
750.944	28420.95
751.283	28340.05
751.621	28231.12
751.96	28147.73
752.298	28114.29
752.636	28207.17
752.975	27981.86
753.313	28011.47
753.651	28094.18
753.989	27815.99
754.327	27843.79
754.666	27778.03
755.004	27771.93
755.342	27831.13
755.679	27795.43
756.017	27661.42
756.355	27519.73
756.693	27452.84
757.031	27444.48
757.368	27269.79
757.706	27247.19
758.044	27290.36
758.381	27261.2
758.719	27215.33
759.056	27218.27
759.394	27042
759.731	26815.57
760.068	26823.02
760.405	26780.54
760.743	26824.15
761.08	26721.78
761.417	26633.65
761.754	26558.62
762.091	26524.05
762.428	26438.17
762.765	26187.56
763.102	26314.79
763.438	26183.72
763.775	26007.23
764.112	26045.64
764.449	26009.49
764.785	25753.22
765.122	25716.16
765.458	25685.88
765.795	25509.16
766.131	25517.97
766.467	25428.03
766.804	25422.83
767.14	25220.13
767.476	25275.72
767.812	25138.32
768.148	25147.59
768.485	24925.67
768.821	24744.89
769.157	24807.03
769.492	24710.31
769.828	24740.59
770.164	24510.77
770.5	24488.17
770.836	24432.13
771.171	24255.41
771.507	24169.31
771.842	24037.33
772.178	24039.37
772.513	23971.12
772.849	23914.63
773.184	23910.11
773.519	23907.17
773.855	23664.46
774.19	23711.24
774.525	23524.13
774.86	23381.76
775.195	23481.87
775.53	23414.98
775.865	23235.1
776.2	23134.31
776.535	22891.6
776.87	22861.77
777.205	22800.3
777.539	22715.33
777.874	22741.1
778.209	22541.78
778.543	22617.48
778.878	22350.6
779.212	22327.55
779.547	22231.05
779.881	22332.97
780.215	22039.19
780.55	22152.41
780.884	21921.68
781.218	21937.5
781.552	21926.88
781.886	21741.8
782.22	21587.23
782.554	21605.76
782.888	21398.76
783.222	21306.56
783.556	21185.66
783.889	21195.6
784.223	21101.59
784.557	20962.39
784.89	21004.42
785.224	20933.46
785.557	20814.14
785.891	20760.13
786.224	20706.57
786.558	20762.62
786.891	20576.41
787.224	20450.31
787.557	20425.9
787.891	20365.79
788.224	20295.74
788.557	20236.98
788.89	20261.84
789.223	20212.58
789.556	19938.23
789.888	19957.44
790.221	19904.34
790.554	19774.62
790.887	19792.93
791.219	19682.19
791.552	19613.5
791.884	19575.3
792.217	19379.15
792.549	19394.97
792.882	19218.25
793.214	19184.58
793.546	19166.73
793.879	19119.27
794.211	18937.36
794.543	18990.46
794.875	18910.01
795.207	18986.85
795.539	18834.08
795.871	18779.85
796.203	18693.07
796.535	18500.08
796.867	18560.19
797.198	18463.7
797.53	18539.85
797.862	18399.74
798.193	18393.41
798.525	18249.92
798.856	18322.68
799.188	18147.32
799.519	18085.85
799.85	17936.7
800.182	17971.73
800.513	18028.45
800.844	17716.82
801.175	17943.26
801.506	17877.27
801.837	17801.79
802.168	17672.98
802.499	17680.44
802.83	17548.24
803.161	17508.01
803.491	17470.05
803.822	17548.69
804.153	17356.15
804.483	17235.25
804.814	17128.36
805.145	17225.08
805.475	17151.19
805.805	17100.12
806.136	17029.16
806.466	17043.17
806.796	16956.16
807.126	16789.84
807.457	16903.06
807.787	16791.65
808.117	16756.17
808.447	16689.5
808.777	16655.38
809.107	16595.5
809.436	16529.96
809.766	16567.7
810.096	16392.11
810.426	16454.48
810.755	16477.31
811.085	16394.37
811.414	16259.69
811.744	16222.85
812.073	16112.8
812.403	16129.07
812.732	16067.6
813.061	16083.64
813.39	16035.74
813.719	15922.52
814.049	16061.05
814.378	15933.14
814.707	15917.1
815.036	15775.18
815.365	15685.46
815.693	15603.21
816.022	15709.87
816.351	15555.75
816.68	15522.98
817.008	15638.23
817.337	15442.08
817.665	15445.7
817.994	15448.86
818.322	15515.75
818.651	15259.94
818.979	15280.73
819.307	15310.11
819.636	15183.1
819.964	15103.33
820.292	15257.9
820.62	15281.86
820.948	15226.94
821.276	15170
821.604	15144.69
821.932	15204.8
822.259	15217.68
822.587	15168.19
822.915	15102.43
823.243	15153.95
823.57	15107.17
823.898	15146.72
824.225	14995.31
824.553	15038.7
824.88	15108.53
825.207	15116.66
825.535	15007.29
825.862	15112.15
826.189	15129.77
826.516	15157.79
826.843	15143.78
827.17	15080.28
827.497	15137.23
827.824	15085.71
828.151	15137.23
828.478	15064.46
828.805	15115.99
829.131	14995.09
829.458	15031.92
829.785	14972.49
830.111	14995.76
830.438	15045.71
830.764	15070.11
831.09	15053.84
831.417	14878.03
831.743	15051.81
832.069	14947.4
832.395	15009.32
832.722	14915.77
833.048	14949.44
833.374	14931.36
833.7	14837.8
834.026	14832.38
834.351	14877.35
834.677	14897.69
835.003	14921.64
835.329	14804.36
835.654	14885.71
835.98	14765.94
836.306	14884.58
836.631	14729.33
836.956	14746.28
837.282	14793.74
837.607	14701.53
837.932	14634.87
838.258	14595.77
838.583	14584.7
838.908	14546.96
839.233	14580.41
839.558	14545.15
839.883	14484.82
840.208	14480.52
840.533	14481.43
840.858	14373.86
841.182	14502.9
841.507	14366.18
841.832	14344.03
842.156	14286.18
842.481	14365.27
842.805	14284.82
843.13	14294.31
843.454	14252.73
843.778	14171.15
844.103	14124.83
844.427	14163.47
844.751	14110.36
845.075	14062.91
845.399	14004.83
845.723	13919.63
846.047	13972.06
846.371	13800.54
846.695	13815.23
847.019	13748.34
847.343	13646.87
847.666	13571.85
847.99	13510.15
848.313	13578.4
848.637	13388.8
848.96	13419.08
849.284	13365.52
849.607	13287.11
849.931	13287.11
850.254	13230.16
850.577	13110.39
850.9	12984.07
851.223	13063.39
851.546	13004.86
851.869	12965.53
852.192	12888.47
852.515	12811.19
852.838	12721.7
853.161	12714.92
853.483	12746.11
853.806	12641.7
854.129	12660.68
854.451	12545.88
854.774	12569.16
855.096	12472.67
855.419	12475.6
855.741	12414.36
856.063	12348.6
856.385	12313.12
856.708	12267.02
857.03	12250.75
857.352	12264.54
857.674	12141.83
857.996	12160.13
858.318	12054.15
858.64	12029.51
858.961	11967.82
859.283	11949.74
859.605	11910.65
859.926	11930.99
860.248	11851.67
860.57	11826.81
860.891	11818.67
861.212	11737.77
861.534	11733.25
861.855	11659.35
862.176	11700.71
862.498	11663.87
862.819	11648.06
863.14	11629.07
863.461	11506.59
863.782	11596.31
864.103	11530.09
864.424	11572.58
864.745	11586.36
865.065	11479.92
865.386	11407.16
865.707	11468.62
866.027	11433.37
866.348	11482.86
866.668	11367.61
866.989	11332.13
867.309	11260.95
867.63	11291.91
867.95	11316.76
868.27	11196.77
868.59	11203.1
868.91	11209.2
869.23	11248.74
869.55	11166.71
869.87	11182.3
870.19	11190.67
870.51	11157.45
870.83	11182.53
871.15	11139.82
871.469	11163.32
871.789	11139.37
872.109	11128.97
872.428	11002.87
872.748	11052.82
873.067	10995.19
873.386	11100.27
873.706	11022.08
874.025	10905.25
874.344	10965.36
874.663	10977.79
874.982	10923.33
875.301	10865.93
875.62	10890.56
875.939	10797.23
876.258	10819.38
876.577	10806.04
876.896	10803.78
877.214	10782.54
877.533	10759.94
877.852	10754.07
878.17	10646.95
878.489	10766.95
878.807	10697.57
879.125	10682.43
879.444	10633.17
879.762	10634.3
880.08	10630.91
880.398	10575.99
880.716	10602.89
881.034	10517.46
881.352	10532.6
881.67	10546.39
881.988	10573.06
882.306	10433.85
882.624	10431.59
882.941	10336.23
883.259	10351.59
883.577	10331.71
883.894	10291.25
884.212	10313.85
884.529	10312.27
884.846	10279.28
885.164	10232.73
885.481	10224.36
885.798	10285.61
886.115	10152.95
886.432	10188.43
886.75	10058.72
887.067	10192.05
887.383	10089.23
887.7	10115.44
888.017	10092.16
888.334	10092.16
888.651	10050.58
888.967	9945.28
889.284	9945.95
889.6	9905.5
889.917	9823.7
890.233	9846.29
890.55	9793.87
890.866	9810.36
891.182	9776.47
891.498	9718.84
891.815	9690.14
892.131	9697.37
892.447	9636.36
892.763	9607.66
893.079	9632.29
893.395	9529.69
893.71	9514.1
894.026	9474.1
894.342	9525.17
894.657	9426.64
894.973	9389.81
895.289	9390.94
895.604	9458.73
895.92	9344.16
896.235	9266.65
896.55	9269.13
896.865	9265.52
897.181	9237.27
897.496	9183.26
897.811	9138.74
898.126	9075.92
898.441	9119.53
898.756	9036.37
899.071	9028.24
899.386	9019.42
899.7	8952.08
900.015	8931.06
900.33	8788.24
900.644	8832.54
900.959	8817.17
901.273	8851.97
901.588	8786.21
901.902	8679.09
902.216	8678.87
902.531	8691.52
902.845	8655.82
903.159	8574.01
903.473	8547.57
903.787	8527.01
904.101	8513
904.415	8512.54
904.729	8430.96
905.042	8381.47
905.356	8422.15
905.67	8351.42
905.984	8388.03
906.297	8325.2
906.611	8330.63
906.924	8224.19
907.237	8188.71
907.551	8231.65
907.864	8097.64
908.177	8116.17
908.491	8079.79
908.804	8006.57
909.117	7995.95
909.43	7917.08
909.743	7971.32
910.056	7910.53
910.368	7884.54
910.681	7853.58
910.994	7835.5
911.307	7804.09
911.619	7734.49
911.932	7750.53
912.244	7741.49
912.557	7643.41
912.869	7602.06
913.181	7560.93
913.494	7550.76
913.806	7501.72
914.118	7440.48
914.43	7453.14
914.742	7481.16
915.054	7409.97
915.366	7396.64
915.678	7322.75
915.99	7343.31
916.302	7226.25
916.613	7245.69
916.925	7225.8
917.236	7191.45
917.548	7194.39
917.859	7153.48
918.171	7110.1
918.482	7080.04
918.794	7115.52
919.105	7021.74
919.416	6961.62
919.727	6935.41
920.038	6939.48
920.349	6854.28
920.66	6871.46
920.971	6865.36
921.282	6854.74
921.593	6783.55
921.903	6738.35
922.214	6731.8
922.525	6712.59
922.835	6670.56
923.146	6581.75
923.456	6608.64
923.767	6561.86
924.077	6570
924.387	6534.52
924.697	6497.68
925.008	6496.78
925.318	6485.93
925.628	6409.1
925.938	6372.26
926.248	6336.33
926.558	6332.94
926.867	6338.14
927.177	6268.31
927.487	6271.47
927.796	6206.16
928.106	6202.1
928.416	6208.65
928.725	6160.06
929.034	6099.95
929.344	6136.11
929.653	6075.09
929.962	6055.66
930.271	5957.13
930.581	5979.5
930.89	5941.31
931.199	5878.49
931.508	5887.98
931.817	5822.45
932.125	5852.5
932.434	5872.16
932.743	5833.07
933.051	5776.8
933.36	5785.16
933.669	5760.3
933.977	5686.63
934.286	5676.01
934.594	5694.99
934.902	5652.73
935.21	5580.19
935.519	5560.31
935.827	5604.15
936.135	5549.23
936.443	5504.71
936.751	5501.55
937.059	5548.1
937.367	5417.71
937.674	5455.45
937.982	5442.79
938.29	5421.33
938.597	5365.06
938.905	5293.42
939.213	5318.5
939.52	5282.57
939.827	5281.22
940.135	5227.43
940.442	5215.91
940.749	5231.95
941.056	5209.35
941.363	5193.54
941.67	5196.02
941.977	5097.95
942.284	5138.62
942.591	5043.94
942.898	5010.49
943.205	5052.3
943.511	5002.13
943.818	5030.38
944.125	4984.73
944.431	4932.53
944.738	4965.07
945.044	4930.72
945.35	4831.74
945.657	4889.36
945.963	4812.08
946.269	4828.35
946.575	4849.36
946.881	4816.14
947.187	4766.43
947.493	4758.97
947.799	4743.6
948.105	4706.32
948.41	4660.22
948.716	4636.71
949.022	4647.11
949.327	4582.48
949.633	4532.76
949.938	4575.47
950.244	4590.16
950.549	4530.28
950.854	4488.02
951.16	4498.64
951.465	4464.52
951.77	4437.4
952.075	4432.2
952.38	4424.29
952.685	4412.09
952.99	4392.65
953.294	4335.25
953.599	4290.28
953.904	4317.4
954.209	4299.77
954.513	4265.2
954.818	4267.68
955.122	4280.57
955.426	4229.04
955.731	4191.3
956.035	4162.83
956.339	4128.93
956.643	4164.41
956.948	4183.17
957.252	4087.58
957.556	4106.56
957.86	4053.68
958.163	4077.18
958.467	4008.71
958.771	4044.41
959.075	4044.87
959.378	3970.29
959.682	3986.34
959.985	3970.74
960.289	3930.74
960.592	3917.19
960.896	3919.44
961.199	3916.28
961.502	3885.32
961.805	3849.39
962.108	3830.18
962.411	3866.79
962.714	3796.06
963.017	3803.29
963.32	3788.37
963.623	3791.76
963.926	3781.14
964.228	3722.61
964.531	3735.5
964.833	3715.38
965.136	3705.67
965.438	3632.45
965.741	3631.09
966.043	3634.93
966.345	3611.66
966.648	3596.97
966.95	3582.28
967.252	3562.62
967.554	3575.5
967.856	3533.69
968.158	3476.52
968.46	3544.99
968.761	3517.65
969.063	3497.08
969.365	3466.35
969.666	3444.88
969.968	3420.02
970.269	3434.49
970.571	3410.76
970.872	3411.44
971.174	3352.68
971.475	3355.39
971.776	3330.99
972.077	3334.38
972.378	3313.36
972.679	3292.12
972.98	3285.56
973.281	3265.9
973.582	3269.97
973.883	3254.15
974.183	3259.12
974.484	3200.82
974.785	3196.3
975.085	3209.86
975.386	3200.37
975.686	3162.85
975.986	3150.43
976.287	3110.2
976.587	3117.21
976.887	3121.27
977.187	3073.82
977.487	3087.6
977.787	3024.78
978.087	2993.82
978.387	3024.78
978.687	2986.59
978.987	3018
979.286	2961.96
979.586	2985.91
979.885	2961.96
980.185	2917.21
980.484	2927.38
980.784	2923.99
981.083	2935.29
981.382	2882.86
981.682	2905.46
981.981	2886.93
982.28	2868.4
982.579	2822.98
982.878	2836.08
983.177	2815.97
983.475	2842.86
983.774	2804.45
984.073	2767.84
984.372	2775.52
984.67	2729.65
984.969	2793.82
985.267	2753.83
985.566	2710.89
985.864	2740.94
986.162	2681.51
986.461	2698.46
986.759	2705.24
987.057	2657.11
987.355	2645.58
987.653	2646.48
987.951	2629.54
988.249	2622.98
988.547	2593.15
988.844	2599.03
989.142	2587.05
989.44	2584.34
989.737	2581.85
990.035	2541.63
990.332	2587.73
990.63	2535.07
990.927	2500.95
991.224	2497.11
991.521	2487.17
991.819	2466.6
992.116	2452.82
992.413	2479.26
992.71	2436.32
993.006	2455.98
993.303	2430.44
993.6	2388.86
993.897	2410.56
994.193	2391.58
994.49	2382.99
994.787	2364.01
995.083	2357.68
995.379	2377.79
995.676	2336.66
995.972	2277.91
996.268	2305.25
996.565	2300.5
996.861	2267.96
997.157	2280.62
997.453	2308.87
997.749	2283.78
998.044	2216.66
998.34	2208.08
998.636	2196.78
998.932	2172.6
999.227	2186.38
999.523	2174.18
999.818	2202.2
1000.114	2155.2
1000.409	2136.89
1000.704	2146.61
1001	2160.62
1001.295	2107.74
1001.59	2110.9
1001.885	2077.69
1002.18	2086.72
1002.475	2052.83
1002.77	2052.83
1003.065	2058.02
1003.359	2016.44
1003.654	2008.53
1003.949	2024.35
1004.243	2003.79
1004.538	1997.24
1004.832	1965.82
1005.127	2001.76
1005.421	1943.45
1005.715	1943.68
1006.009	1936.45
1006.304	1942.1
1006.598	1917.92
1006.892	1900.97
1007.186	1919.72
1007.48	1867.3
1007.773	1863.45
1008.067	1866.84
1008.361	1875.2
1008.655	1836.34
1008.948	1825.04
1009.242	1809.44
1009.535	1802.44
1009.829	1804.7
1010.122	1813.51
1010.415	1768.09
1010.708	1752.5
1011.001	1769.67
1011.295	1760.86
1011.588	1756.34
1011.881	1732.16
1012.173	1737.58
1012.466	1708.43
1012.759	1698.71
1013.052	1691.93
1013.344	1697.58
1013.637	1661.88
1013.93	1649.9
1014.222	1649.45
1014.514	1636.34
1014.807	1630.24
1015.099	1644.48
1015.391	1618.04
1015.683	1629.34
1015.976	1634.53
1016.268	1595.66
1016.56	1593.4
1016.851	1582.11
1017.143	1567.87
1017.435	1531.49
1017.727	1514.76
1018.018	1536.23
1018.31	1498.49
1018.602	1504.14
1018.893	1520.64
1019.185	1531.49
1019.476	1477.7
1019.767	1482.22
1020.058	1472.05
1020.35	1478.15
1020.641	1442.22
1020.932	1443.13
1021.223	1442.67
1021.514	1432.5
1021.804	1406.97
1022.095	1406.29
1022.386	1385.95
1022.677	1371.72
1022.967	1355.9
1023.258	1365.61
1023.548	1372.62
1023.839	1333.52
1024.129	1297.82
1024.419	1330.36
1024.709	1300.98
1025	1331.94
1025.29	1323.36
1025.58	1299.17
1025.87	1289.01
1026.16	1278.38
1026.449	1285.39
1026.739	1264.83
1027.029	1236.58
1027.319	1239.06
1027.608	1226.63
1027.898	1228.89
1028.187	1232.28
1028.477	1207.65
1028.766	1232.28
1029.055	1209.23
1029.344	1199.97
1029.634	1167.2
1029.923	1183.47
1030.212	1177.82
1030.501	1164.49
1030.79	1150.25
1031.078	1138.73
1031.367	1149.8
1031.656	1117.26
1031.945	1150.48
1032.233	1115.22
1032.522	1102.8
1032.81	1112.29
1033.099	1077.03
1033.387	1077.03
1033.675	1094.21
1033.963	1095.56
1034.251	1079.97
1034.54	1057.37
1034.828	1070.48
1035.116	1052.63
1035.403	1047.43
1035.691	1044.27
1035.979	1037.03
1036.267	1002.69
1036.554	1032.97
1036.842	1023.93
1037.129	1018.28
1037.417	985.74
1037.704	1001.56
1037.992	977.38
1038.279	976.47
1038.566	983.02
1038.853	983.02
1039.14	983.02
