Data from hue_32_FLMS001491_00008.txt Node
Date: Tue Feb 07 17:22:50 GMT 2017
User: dcchb
Spectrometer: FLMS00149
Trigger mode: 0
Integration Time (sec): 2.000000E-2
Scans to average: 10
Electric dark correction enabled: true
Nonlinearity correction enabled: false
Boxcar width: 0
XAxis mode: Wavelengths
Number of Pixels in Spectrum: 2048
>>>>>Begin Spectral Data<<<<<
341.393	6.3
341.776	6.3
342.16	6.3
342.543	-52.91
342.927	-54.04
343.31	-73.25
343.693	-87.94
344.077	-72.34
344.46	-62.17
344.843	-35.06
345.226	-36.86
345.61	-30.99
345.993	-15.62
346.376	-12.23
346.759	-0.25
347.142	38.39
347.525	17.15
347.908	59.18
348.291	86.07
348.674	105.05
349.057	120.87
349.44	122.91
349.823	135.56
350.206	174.66
350.588	208.78
350.971	232.28
351.354	237.71
351.737	245.39
352.119	255.11
352.502	280.42
352.884	301.21
353.267	274.77
353.65	290.81
354.032	312.28
354.414	324.93
354.797	313.41
355.179	317.7
355.562	323.81
355.944	307.76
356.326	353.63
356.709	335.1
357.091	326.97
357.473	379.85
357.855	326.97
358.238	340.53
358.62	343.92
359.002	339.4
359.384	326.74
359.766	354.99
360.148	350.25
360.53	362.22
360.912	327.42
361.294	358.15
361.676	339.17
362.057	329
362.439	344.6
362.821	317.7
363.203	331.71
363.584	349.34
363.966	319.74
364.348	326.06
364.729	355.44
365.111	320.87
365.493	329.23
365.874	323.13
366.256	314.09
366.637	324.93
367.019	317.03
367.4	314.31
367.781	323.35
368.163	311.6
368.544	317.25
368.925	333.3
369.306	327.19
369.688	312.51
370.069	339.85
370.45	322.9
370.831	327.65
371.212	316.12
371.593	321.77
371.974	333.3
372.355	323.81
372.736	308.44
373.117	316.57
373.498	337.36
373.879	316.8
374.26	303.92
374.641	343.92
375.021	328.32
375.402	317.93
375.783	318.83
376.163	317.03
376.544	328.1
376.925	325.16
377.305	330.36
377.686	342.79
378.066	352.28
378.447	333.75
378.827	340.98
379.208	324.71
379.588	320.19
379.968	326.97
380.349	340.53
380.729	356.12
381.109	343.24
381.489	345.27
381.87	333.52
382.25	359.96
382.63	366.97
383.01	345.5
383.39	361.77
383.77	362
384.15	339.62
384.53	357.48
384.91	361.77
385.29	350.7
385.67	354.54
386.049	360.41
386.429	374.2
386.809	354.99
387.189	377.81
387.568	370.58
387.948	345.27
388.328	377.36
388.707	362.45
389.087	384.82
389.466	344.82
389.846	387.08
390.225	374.2
390.605	358.38
390.984	376.01
391.363	348.21
391.743	388.21
392.122	376.46
392.501	381.43
392.881	382.11
393.26	374.43
393.639	382.11
394.018	401.09
394.397	405.38
394.776	378.27
395.155	385.95
395.534	405.16
395.913	392.28
396.292	392.5
396.671	383.69
397.05	387.76
397.429	403.35
397.808	388.21
398.186	400.19
398.565	392.05
398.944	407.19
399.323	403.35
399.701	396.57
400.08	387.31
400.458	392.28
400.837	425.05
401.215	420.07
401.594	410.58
401.972	391.15
402.351	413.52
402.729	397.93
403.107	420.98
403.486	416.01
403.864	411.03
404.242	434.31
404.62	407.42
404.999	427.31
405.377	414.88
405.755	446.06
406.133	440.19
406.511	442.67
406.889	436.57
407.267	435.21
407.645	441.99
408.023	429.34
408.401	436.57
408.779	450.36
409.156	440.19
409.534	454.42
409.912	447.64
410.29	466.4
410.667	466.63
411.045	461.88
411.422	454.65
411.8	471.15
412.178	493.97
412.555	463.46
412.933	491.71
413.31	478.15
413.687	498.94
414.065	483.35
414.442	486.06
414.819	482.9
415.197	486.74
415.574	499.85
415.951	512.27
416.328	510.69
416.705	491.26
417.082	502.78
417.46	534.19
417.837	525.38
418.214	526.51
418.591	523.35
418.967	512.5
419.344	525.83
419.721	529.22
420.098	538.26
420.475	532.84
420.852	551.6
421.228	533.52
421.605	545.04
421.982	547.98
422.358	556.57
422.735	539.84
423.111	544.36
423.488	569.22
423.864	581.88
424.241	584.36
424.617	571.71
424.994	564.02
425.37	558.15
425.746	573.97
426.123	584.14
426.499	598.6
426.875	587.53
427.251	604.93
427.627	599.96
428.003	605.15
428.379	603.8
428.756	643.8
429.132	594.53
429.507	630.69
429.883	627.3
430.259	634.53
430.635	650.8
431.011	646.96
431.387	665.72
431.763	671.14
432.138	681.08
432.514	685.38
432.89	670.91
433.265	694.87
433.641	688.32
434.016	682.44
434.392	703.46
434.767	687.19
435.143	704.59
435.518	707.3
435.894	720.4
436.269	699.61
436.644	717.92
437.02	733.06
437.395	727.86
437.77	740.52
438.145	730.12
438.52	752.72
438.895	754.98
439.271	767.64
439.646	746.17
440.021	764.25
440.395	792.04
440.77	785.71
441.145	791.14
441.52	785.26
441.895	790.23
442.27	797.46
442.645	812.61
443.019	818.26
443.394	813.51
443.769	816.45
444.143	802.44
444.518	849.21
444.892	830.01
445.267	835.2
445.641	840.4
446.016	829.78
446.39	839.95
446.764	851.02
447.139	833.85
447.513	845.15
447.887	856.67
448.262	859.84
448.636	902.09
449.01	839.05
449.384	875.65
449.758	877.24
450.132	896.67
450.506	903.9
450.88	910
451.254	907.07
451.628	933.51
452.002	937.57
452.376	907.52
452.75	942.32
453.123	921.08
453.497	965.6
453.871	961.08
454.244	981.41
454.618	973.73
454.992	986.84
455.365	1001.53
455.739	1034.75
456.112	1028.87
456.486	1030.68
456.859	1030
457.232	1046.27
457.606	1057.57
457.979	1047.18
458.352	1110.23
458.725	1092.6
459.099	1094.41
459.472	1123.11
459.845	1133.73
460.218	1110
460.591	1148.42
460.964	1143.22
461.337	1154.52
461.71	1188.87
462.083	1222.31
462.456	1199.71
462.829	1220.73
463.201	1209.43
463.574	1267.51
463.947	1246.04
464.32	1269.09
464.692	1307.28
465.065	1293.72
465.438	1320.39
465.81	1334.85
466.183	1344.57
466.555	1371.01
466.928	1378.24
467.3	1418.47
467.672	1402.19
468.045	1453.94
468.417	1424.34
468.789	1472.48
469.161	1495.07
469.534	1505.24
469.906	1548.18
470.278	1538.01
470.65	1570.1
471.022	1604.22
471.394	1650.32
471.766	1654.17
472.138	1670.44
472.51	1759.47
472.882	1731.45
473.253	1780.04
473.625	1799.47
473.997	1802.41
474.369	1863.65
474.74	1872.46
475.112	1926.7
475.484	1966.25
475.855	1993.14
476.227	2046.7
476.598	2093.48
476.97	2154.27
477.341	2166.69
477.713	2215.96
478.084	2246.47
478.455	2314.04
478.827	2341.38
479.198	2398.1
479.569	2459.79
479.94	2502.96
480.311	2537.53
480.682	2626.57
481.053	2711.31
481.424	2773.01
481.795	2793.8
482.166	2888.03
482.537	2922.38
482.908	2988.59
483.279	3030.4
483.65	3108.59
484.021	3215.71
484.391	3288.7
484.762	3321.24
485.133	3382.71
485.503	3513.78
485.874	3543.38
486.244	3640.1
486.615	3727.78
486.985	3751.96
487.356	3897.04
487.726	3948.12
488.097	4039.41
488.467	4093.2
488.837	4207.77
489.207	4285.96
489.578	4397.14
489.948	4443.7
490.318	4545.84
490.688	4580.87
491.058	4696.8
491.428	4762.33
491.798	4862.22
492.168	4956
492.538	5036
492.908	5113.74
493.278	5211.81
493.648	5256.78
494.017	5375.88
494.387	5424.69
494.757	5521.86
495.126	5607.28
495.496	5721.63
495.866	5709.43
496.235	5888.63
496.605	5878.24
496.974	5958.91
497.344	6066.93
497.713	6117.1
498.082	6195.52
498.452	6318.9
498.821	6324.1
499.19	6422.4
499.559	6469.41
499.928	6529.74
500.298	6607.48
500.667	6728.16
501.036	6711.43
501.405	6868.04
501.774	6847.93
502.143	6967.92
502.512	6967.47
502.88	7046.79
503.249	7136.51
503.618	7187.58
503.987	7189.39
504.356	7345.99
504.724	7344.64
505.093	7384.64
505.462	7433.67
505.83	7537.63
506.199	7539.43
506.567	7698.98
506.936	7723.61
507.304	7863.27
507.672	7911.18
508.041	7935.58
508.409	8028.46
508.777	8083.6
509.145	8138.97
509.514	8180.77
509.882	8259.19
510.25	8216.93
510.618	8328.34
510.986	8338.28
511.354	8422.35
511.722	8492.4
512.09	8581.22
512.458	8565.4
512.826	8667.09
513.193	8711.16
513.561	8744.15
513.929	8860.76
514.297	8896.69
514.664	8957.93
515.032	9011.94
515.4	9011.03
515.767	9081.09
516.135	9110.24
516.502	9104.59
516.869	9266.39
517.237	9261.65
517.604	9257.58
517.972	9393.85
518.339	9467.07
518.706	9486.95
519.073	9492.6
519.44	9559.27
519.808	9625.48
520.175	9660.96
520.542	9756.33
520.909	9824.57
521.276	9787.51
521.643	9880.16
522.009	9948.41
522.376	9973.27
522.743	10088.29
523.11	10096.2
523.477	10199.03
523.843	10325.35
524.21	10410.77
524.577	10433.14
524.943	10491.9
525.31	10543.88
525.676	10611.9
526.043	10644.21
526.409	10717.66
526.776	10825.68
527.142	10914.26
527.508	10972.34
527.874	10933.7
528.241	10999.23
528.607	11038.78
528.973	11183.63
529.339	11187.93
529.705	11231.31
530.071	11390.86
530.437	11380.92
530.803	11475.15
531.169	11539.1
531.535	11530.29
531.901	11575.94
532.267	11704.52
532.632	11686.44
532.998	11719.21
533.364	11860.68
533.73	11837.63
534.095	11926.44
534.461	12035.14
534.826	12048.47
535.192	12124.62
535.557	12187.45
535.923	12177.28
536.288	12217.5
536.653	12296.15
537.019	12321.91
537.384	12437.38
537.749	12403.71
538.114	12494.33
538.479	12492.75
538.845	12618.17
539.21	12565.52
539.575	12689.13
539.94	12685.29
540.305	12842.57
540.67	12759.64
541.034	12895.45
541.399	12979.74
541.764	13006.41
542.129	12971.16
542.494	13119.63
542.858	13146.07
543.223	13176.8
543.587	13235.33
543.952	13200.08
544.316	13310.58
544.681	13276.68
545.045	13463.12
545.41	13429.45
545.774	13505.61
546.138	13504.48
546.503	13579.5
546.867	13633.74
547.231	13753.06
547.595	13839.83
547.959	13792.83
548.324	13855.43
548.688	13835.09
549.052	13976.55
549.416	13932.03
549.779	14025.82
550.143	14100.62
550.507	14183.33
550.871	14162.76
551.235	14146.04
551.599	14297.45
551.962	14297.22
552.326	14355.3
552.689	14421.06
553.053	14482.3
553.417	14490.44
553.78	14623.54
554.143	14551.23
554.507	14691.11
554.87	14618.57
555.234	14778.34
555.597	14715.07
555.96	14855.63
556.323	14881.61
556.686	14890.2
557.05	14956.64
557.413	15140.59
557.776	15136.3
558.139	15227.37
558.502	15155.28
558.865	15268.72
559.228	15279.34
559.59	15367.48
559.953	15386.91
560.316	15539
560.679	15499.9
561.041	15627.81
561.404	15674.14
561.767	15808.82
562.129	15673.91
562.492	15942.15
562.854	15890.18
563.217	15781.03
563.579	15948.93
563.941	16032.77
564.304	16109.6
564.666	16192.77
565.028	16164.29
565.39	16229.6
565.753	16319.77
566.115	16348.92
566.477	16388.47
566.839	16474.11
567.201	16527.45
567.563	16616.71
567.925	16689.02
568.287	16764.05
568.648	16722.24
569.01	16900.77
569.372	17012.41
569.734	16972.86
570.095	17118.62
570.457	17173.76
570.819	17165.17
571.18	17347.76
571.542	17398.84
571.903	17385.05
572.265	17476.57
572.626	17548.21
572.987	17551.15
573.349	17720.41
573.71	17818.71
574.071	17822.1
574.432	18009.22
574.794	18039.95
575.155	18195.65
575.516	18129.66
575.877	18282.2
576.238	18461.18
576.599	18464.35
576.96	18623.89
577.32	18732.36
577.681	18870.66
578.042	18938.23
578.403	19114.05
578.763	19231.33
579.124	19395.62
579.485	19710.64
579.845	19639.46
580.206	19769.85
580.566	19848.72
580.927	20028.6
581.287	20402.37
581.648	20437.17
582.008	20716.04
582.368	20754.68
582.728	21012.98
583.089	21142.69
583.449	21273.76
583.809	21487.32
584.169	21797.59
584.529	21903.8
584.889	22262.89
585.249	22331.14
585.609	22475.76
585.969	22787.85
586.329	22977.22
586.688	23256.76
587.048	23454.72
587.408	23605.23
587.768	23861.49
588.127	24058.1
588.487	24248.6
588.846	24723.39
589.206	24810.39
589.565	25039.77
589.925	25422.58
590.284	25529.47
590.643	25778.28
591.003	26093.75
591.362	26446.96
591.721	26605.6
592.08	26929.89
592.44	27242.19
592.799	27552.69
593.158	27661.39
593.517	27873.82
593.876	28173.92
594.235	28333.92
594.593	28685.32
594.952	28957.18
595.311	29115.82
595.67	29469.03
596.029	29816.59
596.387	30159.86
596.746	30355.78
597.104	30503.35
597.463	30749.22
597.822	31060.85
598.18	31266.49
598.538	31431.46
598.897	31856.76
599.255	31796.2
599.613	32543.52
599.972	32640.02
600.33	32795.27
600.688	32978.31
601.046	33202.04
601.404	33497.62
601.762	33672.98
602.12	34084.05
602.478	34245.17
602.836	34519.74
603.194	34356.13
603.552	34817.59
603.91	34755.89
604.268	35279.95
604.625	35347.74
604.983	35652.14
605.341	35695.3
605.698	35983.21
606.056	36411.9
606.413	36340.49
606.771	36622.74
607.128	36859.57
607.485	36889.62
607.843	37128.04
608.2	37330.74
608.557	37561.92
608.914	37645.31
609.272	37837.17
609.629	37933.44
609.986	38261.79
610.343	38264.28
610.7	38612.97
611.057	38770.03
611.414	38795.56
611.771	39093.86
612.127	39190.35
612.484	39330.91
612.841	39471.02
613.198	39552.83
613.554	39678.93
613.911	39885.02
614.267	40149.2
614.624	40018.81
614.98	40332.24
615.337	40652.91
615.693	40447.72
616.05	40596.19
616.406	40944.21
616.762	40852.46
617.118	40937.43
617.475	41031.21
617.831	41234.59
618.187	41392.33
618.543	41496.51
618.899	41800.23
619.255	41896.05
619.611	41695.15
619.967	42064.85
620.323	42168.13
620.678	42152.31
621.034	42110.95
621.39	42193.66
621.746	42050.39
622.101	42780.09
622.457	42462.58
622.812	42535.58
623.168	42700.09
623.523	42798.85
623.879	42974.66
624.234	42689.7
624.589	43036.35
624.945	42992.74
625.3	43171.49
625.655	43045.39
626.01	43059.86
626.365	43226.18
626.72	43070.7
627.075	43270.92
627.43	43172.85
627.785	43199.97
628.14	43356.57
628.495	43444.48
628.85	43379.62
629.205	43276.35
629.559	43546.17
629.914	43345.05
630.269	43538.71
630.623	43433.63
630.978	43495.78
631.332	43478.15
631.687	43665.94
632.041	43729.9
632.396	43740.97
632.75	43464.14
633.104	43657.58
633.459	43536.91
633.813	43684.92
634.167	43553.18
634.521	43627.75
634.875	43627.3
635.229	43529.22
635.583	43361.54
635.937	43514.08
636.291	43393.63
636.645	43453.97
636.999	43430.02
637.352	43512.5
637.706	43283.13
638.06	43527.64
638.413	43398.6
638.767	43242.9
639.121	43380.98
639.474	43265.73
639.828	43209.23
640.181	43255.56
640.534	43275.9
640.888	43145.05
641.241	43134.43
641.594	43173.3
641.947	43250.36
642.301	43117.48
642.654	43091.49
643.007	43174.88
643.36	43173.53
643.713	43180.98
644.066	43218.72
644.419	42981.21
644.771	42815.57
645.124	42458.06
645.477	42357.73
645.83	42231.63
646.182	41988.47
646.535	41917.06
646.888	42010.39
647.24	41798.65
647.593	42029.83
647.945	41936.72
648.298	41743.28
648.65	41702.38
649.002	41660.35
649.355	41832.09
649.707	41752.09
650.059	41945.76
650.411	42531.73
650.763	42377.61
651.115	42769.02
651.467	42737.83
651.819	42601.34
652.171	42623.26
652.523	42584.84
652.875	42467.56
653.227	42368.8
653.578	42622.13
653.93	42482.47
654.282	42316.6
654.633	42262.14
654.985	42436.82
655.337	42455.58
655.688	42479.76
656.039	42419.42
656.391	42201.57
656.742	42327.22
657.094	42200.22
657.445	42395.69
657.796	42310.95
658.147	42127.68
658.498	42210.39
658.849	42337.62
659.2	42242.93
659.551	42121.35
659.902	42261.23
660.253	42116.15
660.604	42191.86
660.955	42049.49
661.306	42177.17
661.656	42088.81
662.007	42174.46
662.358	42112.54
662.708	42035.93
663.059	42143.72
663.409	41983.27
663.76	42147.34
664.11	42276.83
664.461	42119.77
664.811	42176.94
665.161	42112.08
665.511	41972.2
665.862	41984.63
666.212	42167.45
666.562	42120.9
666.912	41928.81
667.262	42031.86
667.612	42031.86
667.962	42035.7
668.312	41953.67
668.662	42018.08
669.011	41967.23
669.361	41969.04
669.711	41830.06
670.06	41930.62
670.41	41814.47
670.76	41790.06
671.109	41988.02
671.459	41926.33
671.808	41753.22
672.157	41839.78
672.507	41755.94
672.856	41632.55
673.205	41834.13
673.554	41873.9
673.904	41636.17
674.253	41853.79
674.602	41833.22
674.951	41135.16
675.3	41044.77
675.649	41624.41
675.998	41572.66
676.346	41615.83
676.695	41745.54
677.044	41508.03
677.393	41654.47
677.741	41576.73
678.09	41442.05
678.438	41402.95
678.787	41433.01
679.135	41420.58
679.484	41209.51
679.832	41376.96
680.181	41016.75
680.529	41173.58
680.877	41181.49
681.225	41103.52
681.573	41307.81
681.922	40936.97
682.27	40963.41
682.618	40923.87
682.966	40757.77
683.314	40946.69
683.661	40868.05
684.009	40599.36
684.357	40545.8
684.705	40613.59
685.053	40746.7
685.4	40530.21
685.748	40367.72
686.095	40297.44
686.443	40095.64
686.79	40289.76
687.138	40289.08
687.485	40260.16
687.832	40134.28
688.18	40141.52
688.527	39782.65
688.874	40013.83
689.221	39728.64
689.568	39575.43
689.915	39510.8
690.262	39610.46
690.609	39501.98
690.956	39311.48
691.303	39352.84
691.65	39131.82
691.997	39228.32
692.344	39022.22
692.69	39004.6
693.037	38999.85
693.383	38620.43
693.73	38855
694.077	38504.95
694.423	38516.7
694.769	38441.67
695.116	38404.84
695.462	38336.14
695.808	38152.41
696.155	38197.16
696.501	38044.85
696.847	37940.9
697.193	37623.62
697.539	37881.46
697.885	37558.98
698.231	37561.7
698.577	37590.85
698.923	37387.92
699.269	37347.69
699.614	37205.77
699.96	37002.16
700.306	37056.85
700.651	36958.32
700.997	36775.05
701.342	36686.92
701.688	36677.88
702.033	36432.69
702.379	36474.27
702.724	36363.54
703.069	36378.9
703.415	36126.48
703.76	36180.94
704.105	36139.81
704.45	35967.39
704.795	35886.49
705.14	35775.53
705.485	35594.06
705.83	35518.59
706.175	35622.54
706.52	35608.75
706.865	35476.78
707.209	35320.62
707.554	35176.22
707.899	35286.5
708.243	35098.48
708.588	35036.11
708.932	34895.1
709.277	34875.66
709.621	34871.15
709.966	34748.66
710.31	34717.03
710.654	34502.12
710.998	34622.56
711.342	34337.15
711.687	34411.27
712.031	34221.44
712.375	34172.41
712.719	34209.24
713.063	34169.02
713.407	34157.72
713.75	34077.95
714.094	33986.65
714.438	33867.78
714.782	33779.42
715.125	33657.84
715.469	33717.5
715.812	33529.71
716.156	33410.62
716.499	33414.23
716.843	33452.2
717.186	33349.15
717.53	33526.32
717.873	33457.62
718.216	33344.86
718.559	33176.5
718.902	32957.07
719.246	33034.13
719.589	32853.12
719.932	32757.3
720.275	32822.61
720.617	32712.78
720.96	32747.81
721.303	32613.13
721.646	32729.73
721.989	32410.64
722.331	32479.34
722.674	32390.76
723.016	32462.62
723.359	32287.26
723.701	32421.72
724.044	32296.07
724.386	31958.68
724.729	32283.42
725.071	32113.93
725.413	32137.88
725.755	31981.73
726.097	31919.13
726.439	31713.71
726.782	31840.26
727.124	31769.76
727.465	31729.76
727.807	31716.65
728.149	31645.47
728.491	31472.14
728.833	31660.38
729.175	31430.33
729.516	31349.66
729.858	31322.09
730.199	31352.37
730.541	31346.94
730.882	31248.87
731.224	31332.71
731.565	31117.57
731.906	31098.82
732.248	31083.9
732.589	31042.32
732.93	30896.11
733.271	30882.1
733.612	30998.48
733.953	31021.75
734.294	30695.66
734.635	30715.77
734.976	30792.61
735.317	30623.12
735.658	30542.45
735.999	30642.33
736.339	30426.52
736.68	30602.56
737.021	30404.14
737.361	30268.33
737.702	30573.86
738.042	30329.12
738.383	30358.04
738.723	30250.7
739.063	30199.63
739.404	30293.86
739.744	30135
740.084	30169.35
740.424	30145.85
740.764	30069.46
741.104	30064.27
741.444	29930.48
741.784	29801
742.124	29929.81
742.464	29863.14
742.804	29699.3
743.143	29781.11
743.483	29733.65
743.823	29593.77
744.162	29535.47
744.502	29619.08
744.841	29505.64
745.181	29540.21
745.52	29475.81
745.86	29591.28
746.199	29459.99
746.538	29387
746.877	29402.59
747.216	29340.67
747.556	29316.72
747.895	29335.02
748.234	29112.43
748.573	29063.84
748.911	29212.54
749.25	29124.63
749.589	28936.84
749.928	28989.49
750.267	28909.49
750.605	28891.42
750.944	28835.15
751.283	28761.02
751.621	28839.67
751.96	28629.5
752.298	28619.33
752.636	28586.11
752.975	28463.4
753.313	28361.03
753.651	28469.51
753.989	28310.41
754.327	28268.83
754.666	28170.08
755.004	28241.72
755.342	28101.15
755.679	28183.19
756.017	27970.99
756.355	27940.93
756.693	27957.2
757.031	27973.02
757.368	27870.2
757.706	27709.98
758.044	27719.24
758.381	27608.96
758.719	27566.48
759.056	27702.07
759.394	27458.23
759.731	27239.26
760.068	27300.95
760.405	27271.35
760.743	27153.83
761.08	27116.09
761.417	27003.33
761.754	26956.55
762.091	26971.24
762.428	26783.45
762.765	26616.22
763.102	26693.06
763.438	26655.99
763.775	26461.87
764.112	26499.16
764.449	26514.75
764.785	26389.56
765.122	26150.7
765.458	26100.3
765.795	26009.23
766.131	25990.93
766.467	25900.76
766.804	25881.1
767.14	25660.31
767.476	25707.09
767.812	25697.15
768.148	25470.49
768.485	25315.01
768.821	25281.11
769.157	25388.46
769.492	25260.1
769.828	25280.89
770.164	24967.9
770.5	24927.45
770.836	24952.54
771.171	24724.52
771.507	24652.88
771.842	24554.58
772.178	24619.44
772.513	24364.98
772.849	24331.54
773.184	24223.74
773.519	24291.08
773.855	24070.53
774.19	24040.24
774.525	23921.83
774.86	23920.92
775.195	23796.86
775.53	23844.77
775.865	23520.03
776.2	23483.42
776.535	23369.07
776.87	23296.31
777.205	23193.26
777.539	23125.92
777.874	23085.92
778.209	23040.95
778.543	22937.9
778.878	22822.65
779.212	22830.33
779.547	22608.42
779.881	22647.51
780.215	22490.45
780.55	22455.65
780.884	22398.25
781.218	22438.03
781.552	22190.57
781.886	22152.61
782.22	22054.99
782.554	22053.4
782.888	21793.52
783.222	21698.38
783.556	21663.81
783.889	21610.03
784.223	21358.96
784.557	21409.13
784.89	21590.36
785.224	21399.41
785.557	21214.33
785.891	21209.81
786.224	21034.22
786.558	21108.57
786.891	20911.51
787.224	20755.36
787.557	20771.4
787.891	20780.44
788.224	20696.15
788.557	20650.73
788.89	20587.68
789.223	20591.75
789.556	20272.66
789.888	20371.64
790.221	20234.24
790.554	20121.48
790.887	20143.17
791.219	20024.76
791.552	19962.84
791.884	19918.32
792.217	19933.68
792.549	19803.97
792.882	19655.95
793.214	19543.86
793.546	19695.27
793.879	19464.32
794.211	19380.25
794.543	19414.15
794.875	19361.72
795.207	19391.1
795.539	19215.74
795.871	19154.72
796.203	18994.95
796.535	18980.26
796.867	18938.91
797.198	18832.02
797.53	18945.01
797.862	18741.4
798.193	18739.14
798.525	18611.69
798.856	18685.58
799.188	18425.48
799.519	18422.76
799.85	18311.13
800.182	18213.05
800.513	18313.84
800.844	18202.21
801.175	18286.95
801.506	18203.33
801.837	18103.45
802.168	18052.38
802.499	17947.07
802.83	17896
803.161	17751.37
803.491	17822.1
803.822	17809.67
804.153	17655.78
804.483	17522
804.814	17565.61
805.145	17402
805.475	17531.94
805.805	17432.96
806.136	17364.71
806.466	17391.6
806.796	17341.44
807.126	17168.11
807.457	17162.46
807.787	17092.86
808.117	17091.95
808.447	16966.08
808.777	17123.82
809.107	16896.48
809.436	16919.75
809.766	16886.76
810.096	16787.33
810.426	16686.09
810.755	16761.79
811.085	16664.39
811.414	16657.84
811.744	16464.17
812.073	16477.28
812.403	16503.72
812.732	16305.08
813.061	16418.3
813.39	16334.23
813.719	16264.18
814.049	16374
814.378	16304.63
814.707	16222.37
815.036	16183.05
815.365	16090.62
815.693	15930.63
816.022	15889.05
816.351	15924.3
816.68	15810.86
817.008	15970.4
817.337	15708.26
817.665	15729.28
817.994	15759.33
818.322	15668.26
818.651	15632.78
818.979	15586.23
819.307	15604.08
819.636	15499.68
819.964	15446.8
820.292	15526.12
820.62	15608.15
820.948	15419.91
821.276	15498.77
821.604	15459.23
821.932	15518.43
822.259	15477.76
822.587	15504.42
822.915	15444.76
823.243	15454.25
823.57	15353.24
823.898	15368.16
824.225	15398.89
824.553	15393.92
824.88	15374.26
825.207	15349.17
825.535	15323.64
825.862	15419.45
826.189	15348.27
826.516	15328.83
826.843	15466.01
827.17	15454.25
827.497	15447.93
827.824	15300.81
828.151	15284.77
828.478	15360.7
828.805	15404.54
829.131	15296.74
829.458	15283.86
829.785	15267.82
830.111	15316.18
830.438	15310.76
830.764	15317.31
831.09	15292.9
831.417	15292.9
831.743	15307.14
832.069	15275.28
832.395	15161.16
832.722	15323.18
833.048	15172.45
833.374	15205.45
833.7	15163.19
834.026	15186.01
834.351	15232.79
834.677	15141.04
835.003	15166.35
835.329	15137.2
835.654	15042.74
835.98	14978.79
836.306	15137.88
836.631	15072.57
836.956	15019.01
837.282	15073.02
837.607	15017.2
837.932	14888.85
838.258	14960.71
838.583	14934.95
838.908	14815.63
839.233	14856.08
839.558	14830.54
839.883	14765.91
840.208	14699.02
840.533	14701.96
840.858	14649.98
841.182	14758.45
841.507	14707.61
841.832	14573.15
842.156	14566.59
842.481	14586.03
842.805	14539.93
843.13	14497.22
843.454	14478.01
843.778	14466.03
844.103	14327.73
844.427	14362.31
844.751	14333.38
845.075	14297
845.399	14226.72
845.723	14141.07
846.047	14180.84
846.371	14015.2
846.695	14021.75
847.019	13962.09
847.343	13867.86
847.666	13810
847.99	13757.12
848.313	13782.43
848.637	13696.11
848.96	13647.97
849.284	13617.47
849.607	13539.95
849.931	13459.28
850.254	13386.96
850.577	13385.83
850.9	13290.24
851.223	13263.8
851.546	13241.66
851.869	13121.66
852.192	13103.36
852.515	13063.58
852.838	12961.66
853.161	12980.42
853.483	12998.5
853.806	12876.92
854.129	12866.53
854.451	12776.58
854.774	12789.01
855.096	12695.91
855.419	12631.5
855.741	12638.74
856.063	12619.98
856.385	12596.7
856.708	12512.86
857.03	12521.9
857.352	12420.89
857.674	12398.29
857.996	12392.41
858.318	12298.18
858.64	12216.6
858.961	12251.4
859.283	12216.6
859.605	12173.66
859.926	12196.71
860.248	12087.79
860.57	12104.51
860.891	12092.99
861.212	11977.96
861.534	11952.65
861.855	11864.74
862.176	11985.42
862.498	11838.3
862.819	11884.18
863.14	11751.08
863.461	11799.44
863.782	11854.35
864.103	11832.43
864.424	11783.62
864.745	11749.04
865.065	11767.12
865.386	11704.75
865.707	11629.95
866.027	11675.6
866.348	11605.77
866.668	11604.64
866.989	11603.73
867.309	11442.38
867.63	11501.59
867.95	11528.48
868.27	11438.77
868.59	11469.5
868.91	11347.47
869.23	11386.11
869.55	11345.66
869.87	11385.89
870.19	11313.8
870.51	11384.08
870.83	11367.81
871.15	11444.19
871.469	11244.87
871.789	11382.27
872.109	11282.61
872.428	11204.87
872.748	11246.91
873.067	11213.46
873.386	11222.73
873.706	11196.51
874.025	11088.95
874.344	11090.98
874.663	11076.74
874.982	11073.8
875.301	11033.35
875.62	11018.44
875.939	10969.85
876.258	11060.25
876.577	11033.35
876.896	11053.69
877.214	10948.38
877.533	10969.17
877.852	10966.92
878.17	10960.36
878.489	10949.29
878.807	10914.94
879.125	10902.96
879.444	10830.2
879.762	10827.03
880.08	10837.2
880.398	10774.15
880.716	10790.42
881.034	10796.75
881.352	10732.57
881.67	10661.39
881.988	10695.96
882.306	10676.08
882.624	10640.6
882.941	10566.93
883.259	10566.25
883.577	10542.07
883.894	10555.4
884.212	10548.62
884.529	10506.36
884.846	10382.07
885.164	10430.66
885.481	10420.04
885.798	10322.86
886.115	10308.4
886.432	10276.99
886.75	10301.4
887.067	10347.04
887.383	10167.84
887.7	10307.5
888.017	10155.41
888.334	10218.46
888.651	10238.57
888.967	10170.1
889.284	10063.44
889.6	10131.23
889.917	10015.75
890.233	10006.04
890.55	9993.38
890.866	10021.18
891.182	9911.12
891.498	9907.51
891.815	9879.26
892.131	9827.06
892.447	9885.81
892.763	9768.75
893.079	9732.37
893.395	9696.21
893.71	9681.75
894.026	9698.02
894.342	9692.6
894.657	9566.5
894.973	9575.77
895.289	9611.92
895.604	9524.02
895.92	9481.53
896.235	9424.36
896.55	9434.98
896.865	9400.63
897.181	9334.87
897.496	9364.25
897.811	9338.48
898.126	9260.29
898.441	9266.17
898.756	9236.79
899.071	9163.57
899.386	9163.57
899.7	9085.16
900.015	9049.45
900.33	8994.76
900.644	8999.74
900.959	8999.51
901.273	8883.35
901.588	8918.61
901.902	8854.2
902.216	8793.64
902.531	8826.86
902.845	8781.44
903.159	8707.99
903.473	8752.28
903.787	8660.08
904.101	8623.93
904.415	8591.16
904.729	8578.05
905.042	8511.84
905.356	8544.38
905.67	8490.6
905.984	8544.38
906.297	8459.86
906.611	8385.97
906.924	8394.1
907.237	8326.31
907.551	8289.92
907.864	8218.74
908.177	8278.85
908.491	8246.31
908.804	8136.93
909.117	8147.33
909.43	8186.42
909.743	8016.94
910.056	8042.47
910.368	8032.3
910.681	7990.04
910.994	7969.03
911.307	7950.27
911.619	7892.87
911.932	7850.16
912.244	7812.87
912.557	7766.77
912.869	7818.07
913.181	7710.05
913.494	7641.13
913.806	7655.14
914.118	7711.63
914.43	7581.47
914.742	7616.04
915.054	7484.07
915.366	7515.93
915.678	7444.3
915.99	7385.99
916.302	7388.03
916.613	7333.79
916.925	7307.35
917.236	7325.88
917.548	7268.71
917.859	7294.02
918.171	7274.13
918.482	7180.35
918.794	7174.02
919.105	7143.74
919.416	7049.73
919.727	7077.75
920.038	7030.07
920.349	6996.85
920.66	6958.66
920.971	6932.44
921.282	6946.68
921.593	6881.82
921.903	6874.59
922.214	6872.11
922.525	6826.46
922.835	6820.58
923.146	6699.46
923.456	6790.53
923.767	6711.66
924.077	6640.02
924.387	6624.88
924.697	6638.22
925.008	6602.06
925.318	6542.85
925.628	6536.07
925.938	6457.43
926.248	6421.95
926.558	6420.59
926.867	6417.2
927.177	6369.97
927.487	6334.95
927.796	6252.46
928.106	6295.85
928.416	6256.08
928.725	6266.02
929.034	6229.86
929.344	6204.78
929.653	6195.29
929.962	6146.25
930.271	6131.11
930.581	6085.24
930.89	6069.19
931.199	6013.6
931.508	6027.16
931.817	6007.5
932.125	6005.46
932.434	5960.49
932.743	5886.82
933.051	5909.19
933.36	5917.33
933.669	5869.2
933.977	5773.83
934.286	5764.11
934.594	5796.2
934.902	5697.45
935.21	5710.78
935.519	5694.29
935.827	5716.43
936.135	5612.25
936.443	5543.55
936.751	5539.26
937.059	5611.58
937.367	5505.59
937.674	5532.26
937.982	5551.01
938.29	5493.39
938.597	5499.71
938.905	5381.07
939.213	5430.56
939.52	5352.15
939.827	5348.98
940.135	5308.08
940.442	5298.36
940.749	5258.82
941.056	5286.61
941.363	5212.72
941.67	5222.89
941.977	5203.9
942.284	5124.13
942.591	5110.35
942.898	5109.44
943.205	5103.34
943.511	5075.54
943.818	5040.97
944.125	5039.84
944.431	5017.01
944.738	5050.69
945.044	4992.38
945.35	4938.15
945.657	4900.63
945.963	4940.86
946.269	4905.83
946.575	4882.1
946.881	4839.62
947.187	4831.94
947.493	4777.02
947.799	4814.99
948.105	4771.6
948.41	4734.54
948.716	4778.15
949.022	4736.57
949.327	4694.54
949.633	4660.19
949.938	4610.02
950.244	4656.57
950.549	4604.82
950.854	4556.91
951.16	4570.47
951.465	4547.42
951.77	4550.36
952.075	4523.47
952.38	4514.66
952.685	4469.46
952.99	4424.94
953.294	4413.42
953.599	4407.99
953.904	4374.32
954.209	4338.61
954.513	4397.37
954.818	4334.1
955.122	4312.63
955.426	4249.13
955.731	4284.38
956.035	4259.07
956.339	4250.26
956.643	4226.75
956.948	4192.4
957.252	4175
957.556	4137.94
957.86	4138.85
958.163	4141.33
958.467	4076.02
958.771	4110.15
959.075	4125.29
959.378	4040.09
959.682	4039.19
959.985	3989.92
960.289	3996.25
960.592	3977.72
960.896	3989.25
961.199	3940.43
961.502	3962.35
961.805	3927.78
962.108	3873.32
962.411	3896.37
962.714	3822.47
963.017	3871.28
963.32	3841.45
963.623	3820.21
963.926	3823.83
964.228	3809.82
964.531	3762.36
964.833	3765.52
965.136	3747.22
965.438	3710.38
965.741	3660.67
966.043	3696.37
966.345	3683.49
966.648	3636.71
966.95	3657.73
967.252	3589.48
967.554	3604.17
967.856	3620.44
968.158	3570.5
968.46	3558.3
968.761	3566.21
969.063	3536.6
969.365	3531.63
969.666	3494.34
969.968	3443.72
970.269	3454.8
970.571	3450.73
970.872	3459.77
971.174	3442.14
971.475	3424.06
971.776	3383.61
972.077	3362.14
972.378	3348.58
972.679	3364.63
972.98	3330.73
973.281	3353.56
973.582	3311.3
973.883	3309.72
974.183	3280.79
974.484	3264.29
974.785	3257.29
975.085	3264.29
975.386	3226.1
975.686	3203.96
975.986	3215.71
976.287	3169.61
976.587	3168.02
976.887	3135.26
977.187	3141.81
977.487	3181.13
977.787	3099.1
978.087	3095.03
978.387	3069.5
978.687	3056.61
978.987	3065.2
979.286	3020.46
979.586	3028.82
979.885	3021.81
980.185	2975.26
980.484	2991.76
980.784	3002.83
981.083	2954.92
981.382	2951.76
981.682	2952.44
981.981	2936.17
982.28	2898.43
982.579	2908.6
982.878	2915.6
983.177	2843.06
983.475	2886.68
983.774	2863.4
984.073	2817.52
984.372	2833.34
984.67	2826.34
984.969	2822.95
985.267	2778.66
985.566	2781.37
985.864	2762.16
986.162	2736.4
986.461	2740.69
986.759	2710.86
987.057	2686.91
987.355	2688.26
987.653	2672.44
987.951	2669.05
988.249	2679
988.547	2649.62
988.844	2621.37
989.142	2652.56
989.44	2602.62
989.737	2584.54
990.035	2618.43
990.332	2576.85
990.63	2553.35
990.927	2574.37
991.224	2554.03
991.521	2518.32
991.819	2543.18
992.116	2523.07
992.413	2477.87
992.71	2470.64
993.006	2484.88
993.303	2486.46
993.6	2423.64
993.897	2448.27
994.193	2405.78
994.49	2421.83
994.787	2402.39
995.083	2398.78
995.379	2362.62
995.676	2350.42
995.972	2376.41
996.268	2344.09
996.565	2321.94
996.861	2331.66
997.157	2324.43
997.453	2301.15
997.749	2272.23
998.044	2272.68
998.34	2239.46
998.636	2250.99
998.932	2261.83
999.227	2253.7
999.523	2231.55
999.818	2201.5
1000.114	2188.84
1000.409	2201.5
1000.704	2150.2
1001	2158.11
1001.295	2141.16
1001.59	2138.9
1001.885	2100.71
1002.18	2087.15
1002.475	2069.75
1002.77	2086.7
1003.065	2055.51
1003.359	2074.04
1003.654	2065.23
1003.949	2068.17
1004.243	2053.93
1004.538	2005.57
1004.832	2011.9
1005.127	2044.66
1005.421	2030.65
1005.715	2005.57
1006.009	1946.14
1006.304	1971.67
1006.598	1970.77
1006.892	1946.81
1007.186	1950.43
1007.48	1944.78
1007.773	1938.68
1008.067	1906.36
1008.361	1846.25
1008.655	1892.13
1008.948	1855.29
1009.242	1851.67
1009.535	1842.18
1009.829	1832.01
1010.122	1805.35
1010.415	1829.98
1010.708	1807.61
1011.001	1801.05
1011.295	1773.26
1011.588	1752.47
1011.881	1741.62
1012.173	1718.8
1012.466	1749.53
1012.759	1733.03
1013.052	1745.46
1013.344	1714.95
1013.637	1695.75
1013.93	1692.36
1014.222	1677.67
1014.514	1646.26
1014.807	1681.28
1015.099	1650.55
1015.391	1663.2
1015.683	1617.56
1015.976	1622.75
1016.268	1624.56
1016.56	1618.23
1016.851	1586.82
1017.143	1602.19
1017.435	1573.49
1017.727	1563.55
1018.018	1557.9
1018.31	1551.34
1018.602	1532.81
1018.893	1504.34
1019.185	1500.95
1019.476	1504.56
1019.767	1523.77
1020.058	1460.95
1020.35	1509.76
1020.641	1476.77
1020.932	1438.35
1021.223	1445.13
1021.514	1423.66
1021.804	1424.34
1022.095	1423.21
1022.386	1404.45
1022.677	1414.4
1022.967	1419.82
1023.258	1372.37
1023.548	1382.31
1023.839	1377.11
1024.129	1365.59
1024.419	1341.86
1024.709	1336.43
1025	1369.43
1025.29	1286.49
1025.58	1324.91
1025.87	1307.28
1026.16	1310.67
1026.449	1270.22
1026.739	1294.63
1027.029	1269.54
1027.319	1273.61
1027.608	1222.54
1027.898	1253.5
1028.187	1244.23
1028.477	1236.32
1028.766	1222.31
1029.055	1243.33
1029.344	1212.82
1029.634	1193.61
1029.923	1193.61
1030.212	1186.16
1030.501	1203.56
1030.79	1179.38
1031.078	1175.08
1031.367	1161.75
1031.656	1147.74
1031.945	1121.07
1032.233	1143.67
1032.522	1109.32
1032.81	1119.94
1033.099	1117.23
1033.387	1105.48
1033.675	1084.91
1033.963	1075.42
1034.251	1100.28
1034.54	1049.44
1034.828	1065.48
1035.116	1071.13
1035.403	1035.88
1035.691	1059.38
1035.979	1057.8
1036.267	1030.91
1036.554	1023.67
1036.842	1017.8
1037.129	997.23
1037.417	1004.01
1037.704	991.36
1037.992	1002.43
1038.279	994.07
1038.566	968.53
1038.853	968.53
1039.14	968.53
