Data from hue_250_FLMS001491_00087.txt Node
Date: Tue Feb 07 16:01:35 GMT 2017
User: dcchb
Spectrometer: FLMS00149
Trigger mode: 0
Integration Time (sec): 2.000000E-2
Scans to average: 10
Electric dark correction enabled: true
Nonlinearity correction enabled: false
Boxcar width: 0
XAxis mode: Wavelengths
Number of Pixels in Spectrum: 2048
>>>>>Begin Spectral Data<<<<<
341.393	-25.37
341.776	-25.37
342.16	-25.37
342.543	-69.66
342.927	-69.89
343.31	-61.98
343.693	-79.83
344.077	-71.02
344.46	-54.97
344.843	-40.28
345.226	-52.03
345.61	-50
345.993	-10.68
346.376	-9.55
346.759	1.75
347.142	23.9
347.525	31.36
347.908	59.83
348.291	73.16
348.674	110.45
349.057	129.88
349.44	144.57
349.823	145.93
350.206	162.65
350.588	194.74
350.971	191.35
351.354	197.45
351.737	229.54
352.119	257.56
352.502	243.1
352.884	260.73
353.267	261.63
353.65	301.63
354.032	296.21
354.414	274.74
354.797	299.37
355.179	306.83
355.562	301.4
355.944	323.55
356.326	314.06
356.709	327.84
357.091	299.37
357.473	346.38
357.855	333.27
358.238	330.33
358.62	310.44
359.002	314.29
359.384	319.03
359.766	317.9
360.148	328.75
360.53	339.82
360.912	333.27
361.294	340.95
361.676	330.56
362.057	317.68
362.439	317.22
362.821	329.65
363.203	333.27
363.584	330.33
363.966	312.48
364.348	300.05
364.729	329.2
365.111	328.52
365.493	319.03
365.874	285.59
366.256	307.51
366.637	323.1
367.019	290.11
367.4	312.03
367.781	317.45
368.163	307.28
368.544	293.5
368.925	317.45
369.306	301.18
369.688	323.78
370.069	315.42
370.45	309.54
370.831	295.53
371.212	311.57
371.593	301.4
371.974	313.83
372.355	302.99
372.736	324.91
373.117	300.05
373.498	298.69
373.879	300.27
374.26	295.98
374.641	298.69
375.021	313.83
375.402	300.27
375.783	311.12
376.163	309.99
376.544	318.81
376.925	325.58
377.305	318.35
377.686	299.14
378.066	330.1
378.447	335.3
378.827	306.38
379.208	309.54
379.588	322.65
379.968	325.13
380.349	322.65
380.729	330.56
381.109	308.86
381.489	308.64
381.87	332.14
382.25	319.48
382.63	303.89
383.01	336.88
383.39	337.34
383.77	338.47
384.15	343.89
384.53	343.44
384.91	345.47
385.29	343.21
385.67	338.01
386.049	344.34
386.429	340.5
386.809	342.08
387.189	333.72
387.568	343.89
387.948	337.79
388.328	331.69
388.707	356.77
389.087	365.58
389.466	361.29
389.846	367.62
390.225	367.84
390.605	368.75
390.984	355.64
391.363	360.61
391.743	371.01
392.122	360.61
392.501	364.68
392.881	373.72
393.26	351.12
393.639	372.36
394.018	378.46
394.397	375.98
394.776	373.04
395.155	365.36
395.534	375.53
395.913	352.93
396.292	392.25
396.671	377.79
397.05	380.95
397.429	386.83
397.808	378.24
398.186	402.42
398.565	410.1
398.944	392.7
399.323	411.68
399.701	397.9
400.08	393.38
400.458	412.81
400.837	401.51
401.215	424.57
401.594	411.46
401.972	379.37
402.351	411.68
402.729	400.16
403.107	420.72
403.486	433.6
403.864	423.21
404.242	426.6
404.62	429.31
404.999	443.1
405.377	442.19
405.755	431.8
406.133	449.88
406.511	453.72
406.889	451.46
407.267	467.5
407.645	490.33
408.023	453.94
408.401	472.25
408.779	500.27
409.156	507.73
409.534	495.07
409.912	495.52
410.29	492.81
410.667	498.01
411.045	504.56
411.422	512.02
411.8	516.99
412.178	536.2
412.555	538.91
412.933	531
413.31	534.39
413.687	552.25
414.065	557.22
414.442	566.93
414.819	589.31
415.197	580.27
415.574	569.65
415.951	608.06
416.328	596.99
416.705	615.07
417.082	618.46
417.46	624.33
417.837	614.16
418.214	621.85
418.591	615.75
418.967	634.96
419.344	636.99
419.721	632.24
420.098	646.93
420.475	660.94
420.852	671.56
421.228	670.89
421.605	667.27
421.982	652.58
422.358	722.86
422.735	701.62
423.111	717.89
423.488	721.96
423.864	712.92
424.241	735.29
424.617	757.66
424.994	756.99
425.37	769.87
425.746	782.3
426.123	806.48
426.499	792.69
426.875	806.02
427.251	833.14
427.627	851.9
428.003	839.24
428.379	833.82
428.756	839.02
429.132	842.18
429.507	889.19
429.883	887.83
430.259	905
430.635	890.54
431.011	903.2
431.387	941.84
431.763	968.28
432.138	953.36
432.514	967.15
432.89	982.74
433.265	1009.63
433.641	1033.59
434.016	1043.98
434.392	1041.72
434.767	1055.28
435.143	1104.1
435.518	1061.38
435.894	1085.79
436.269	1121.27
436.644	1120.82
437.02	1130.76
437.395	1190.42
437.77	1198.1
438.145	1191.55
438.52	1202.4
438.895	1196.07
439.271	1234.49
439.646	1246.92
440.021	1272
440.395	1288.72
440.77	1260.25
441.145	1272.9
441.52	1307.03
441.895	1326.69
442.27	1327.82
442.645	1318.1
443.019	1369.17
443.394	1344.77
443.769	1388.83
444.143	1390.19
444.518	1405.78
444.892	1416.86
445.267	1450.3
445.641	1425.67
446.016	1444.2
446.39	1468.38
446.764	1433.58
447.139	1467.93
447.513	1484.42
447.887	1497.76
448.262	1506.57
448.636	1493.92
449.01	1513.58
449.384	1515.61
449.758	1538.89
450.132	1551.32
450.506	1582.27
450.88	1614.82
451.254	1586.12
451.628	1610.3
452.002	1645.55
452.376	1641.03
452.75	1646.23
453.123	1672.44
453.497	1725.32
453.871	1714.47
454.244	1744.08
454.618	1715.83
454.992	1733.68
455.365	1758.09
455.739	1805.55
456.112	1815.71
456.486	1829.05
456.859	1850.97
457.232	1847.35
457.606	1862.72
457.979	1900.01
458.352	1943.4
458.725	1951.53
459.099	1949.95
459.472	1981.59
459.845	2001.92
460.218	2041.25
460.591	1999.44
460.964	2039.21
461.337	2074.92
461.71	2106.55
462.083	2148.81
462.456	2096.16
462.829	2167.8
463.201	2197.4
463.574	2194.01
463.947	2259.32
464.32	2252.54
464.692	2273.56
465.065	2313.55
465.438	2285.76
465.81	2348.36
466.183	2368.69
466.555	2420.22
466.928	2439.2
467.3	2397.17
467.672	2446.43
468.045	2539.54
468.417	2502.25
468.789	2522.82
469.161	2564.4
469.534	2583.38
469.906	2643.72
470.278	2643.94
470.65	2710.15
471.022	2761
471.394	2770.49
471.766	2806.65
472.138	2856.37
472.51	2900.88
472.882	2927.55
473.253	2949.24
473.625	2979.75
473.997	3025.4
474.369	3045.97
474.74	3087.77
475.112	3111.5
475.484	3183.36
475.855	3208.67
476.227	3214.55
476.598	3300.2
476.97	3386.3
477.341	3388.55
477.713	3416.35
478.084	3444.37
478.455	3556.69
478.827	3580.41
479.198	3657.25
479.569	3648.89
479.94	3781.99
480.311	3797.58
480.682	3860.63
481.053	3919.39
481.424	4000.29
481.795	4005.71
482.166	4061.76
482.537	4116.22
482.908	4175.88
483.279	4192.38
483.65	4271.7
484.021	4334.29
484.391	4411.35
484.762	4426.49
485.133	4463.33
485.503	4507.17
485.874	4608.86
486.244	4614.51
486.615	4761.63
486.985	4748.07
487.356	4819.93
487.726	4853.83
488.097	4951.9
488.467	4906.93
488.837	5005.01
489.207	5116.87
489.578	5140.15
489.948	5218.11
490.318	5278.67
490.688	5265.79
491.058	5315.96
491.428	5353.7
491.798	5409.74
492.168	5506.24
492.538	5541.04
492.908	5575.39
493.278	5682.51
493.648	5651.09
494.017	5713.69
494.387	5790.53
494.757	5844.99
495.126	5775.84
495.496	5871.88
495.866	5926.34
496.235	5940.8
496.605	5949.17
496.974	6024.19
497.344	6037.52
497.713	6094.47
498.082	6112.78
498.452	6207.46
498.821	6154.58
499.19	6229.38
499.559	6255.37
499.928	6269.61
500.298	6327.23
500.667	6319.33
501.036	6324.3
501.405	6447.01
501.774	6381.7
502.143	6466.89
502.512	6429.38
502.88	6481.36
503.249	6523.61
503.618	6553.67
503.987	6557.29
504.356	6531.52
504.724	6560.9
505.093	6601.35
505.462	6636.83
505.83	6645.19
506.199	6721.35
506.567	6728.58
506.936	6782.82
507.304	6828.92
507.672	6785.08
508.041	6853.1
508.409	6862.59
508.777	6902.36
509.145	6959.99
509.514	6959.99
509.882	6997.95
510.25	6962.02
510.618	7054
510.986	7008.12
511.354	7065.97
511.722	7100.55
512.09	7101.45
512.458	7103.49
512.826	7143.94
513.193	7170.83
513.561	7202.69
513.929	7179.87
514.297	7192.52
514.664	7254.22
515.032	7264.39
515.4	7318.85
515.767	7279.98
516.135	7340.77
516.502	7291.5
516.869	7398.17
517.237	7399.07
517.604	7412.18
517.972	7435.23
518.339	7464.15
518.706	7401.56
519.073	7436.13
519.44	7470.26
519.808	7529.92
520.175	7540.08
520.542	7583.25
520.909	7573.3
521.276	7556.81
521.643	7623.25
522.009	7613.75
522.376	7700.76
522.743	7679.06
523.11	7713.41
523.477	7766.07
523.843	7775.33
524.21	7805.61
524.577	7865.5
524.943	7843.35
525.31	7865.27
525.676	7994.08
526.043	7959.28
526.409	7905.05
526.776	7981.2
527.142	7978.72
527.508	7959.51
527.874	8031.14
528.241	8038.38
528.607	7991.37
528.973	8049.22
529.339	8063.23
529.705	8030.01
530.071	8115.44
530.437	8072.5
530.803	8143.46
531.169	8162.44
531.535	8197.69
531.901	8117.47
532.267	8139.16
532.632	8210.12
532.998	8174.64
533.364	8190.24
533.73	8237.02
534.095	8197.24
534.461	8172.61
534.826	8192.27
535.192	8229.56
535.557	8271.82
535.923	8232.04
536.288	8225.04
536.653	8228.88
537.019	8249.44
537.384	8244.02
537.749	8281.31
538.114	8249.22
538.479	8176
538.845	8278.37
539.21	8208.32
539.575	8223.68
539.94	8227.07
540.305	8210.8
540.67	8202.67
541.034	8158.83
541.399	8195.21
541.764	8200.41
542.129	8184.81
542.494	8204.25
542.858	8243.12
543.223	8199.95
543.587	8192.72
543.952	8172.16
544.316	8200.18
544.681	8116.11
545.045	8189.11
545.41	8215.55
545.774	8140.52
546.138	8129.9
546.503	8194.08
546.867	8192.72
547.231	8202.67
547.595	8178.26
547.959	8165.6
548.324	8177.81
548.688	8129
549.052	8202.89
549.416	8116.34
549.779	8125.15
550.143	8138.03
550.507	8159.05
550.871	8181.42
551.235	8091.93
551.599	8157.47
551.962	8151.37
552.326	8155.66
552.689	8154.76
553.053	8161.54
553.417	8093.97
553.78	8173.06
554.143	8150.46
554.507	8167.41
554.87	8203.57
555.234	8218.26
555.597	8168.54
555.96	8158.15
556.323	8234.98
556.686	8184.36
557.05	8216.68
557.413	8241.31
557.776	8251.48
558.139	8297.13
558.502	8287.64
558.865	8260.97
559.228	8286.96
559.59	8288.99
559.953	8288.09
560.316	8387.29
560.679	8300.06
561.041	8390.68
561.404	8380.74
561.767	8439.04
562.129	8370.8
562.492	8479.27
562.854	8423.68
563.217	8444.69
563.579	8466.16
563.941	8472.94
564.304	8487.63
564.666	8530.57
565.028	8497.35
565.39	8572.15
565.753	8582.32
566.115	8653.95
566.477	8668.64
566.839	8619.15
567.201	8622.99
567.563	8674.29
567.925	8715.87
568.287	8711.8
568.648	8765.81
569.01	8746.61
569.372	8813.72
569.734	8823.21
570.095	8872.25
570.457	8882.2
570.819	8868.18
571.18	8891.91
571.542	8938.69
571.903	8925.58
572.265	8979.37
572.626	9009.88
572.987	8951.35
573.349	9020.95
573.71	9083.55
574.071	9100.27
574.432	9094.39
574.794	9192.02
575.155	9168.52
575.516	9133.71
575.877	9196.76
576.238	9194.28
576.599	9158.57
576.96	9213.49
577.32	9194.73
577.681	9218.91
578.042	9261.39
578.403	9300.04
578.763	9280.15
579.124	9269.76
579.485	9335.07
579.845	9442.63
580.206	9346.14
580.566	9390.88
580.927	9427.27
581.287	9382.97
581.648	9454.84
582.008	9484.89
582.368	9479.47
582.728	9486.47
583.089	9521.73
583.449	9509.98
583.809	9536.87
584.169	9582.29
584.529	9554.72
584.889	9574.61
585.249	9496.42
585.609	9550.43
585.969	9664.55
586.329	9549.3
586.688	9637.2
587.048	9611.89
587.408	9606.92
587.768	9581.61
588.127	9582.29
588.487	9648.96
588.846	9714.26
589.206	9691.44
589.565	9714.49
589.925	9711.78
590.284	9705
590.643	9735.96
591.003	9797.65
591.362	9831.1
591.721	9764.21
592.08	9790.19
592.44	9775.73
592.799	9786.35
593.158	9797.43
593.517	9772.79
593.876	9846.24
594.235	9822.28
594.593	9700.25
594.952	9829.74
595.311	9760.59
595.67	9794.26
596.029	9916.97
596.387	9837.2
596.746	9881.72
597.104	9904.77
597.463	9887.82
597.822	9924.65
598.18	9873.36
598.538	9826.13
598.897	9865.67
599.255	9894.15
599.613	9999.23
599.972	9895.28
600.33	9912.9
600.688	9951.55
601.046	9858.44
601.404	9964.88
601.762	9960.81
602.12	9989.06
602.478	10040.36
602.836	10011.43
603.194	9974.37
603.552	10097.53
603.91	9847.59
604.268	9984.77
604.625	9928.27
604.983	10012.11
605.341	9992.22
605.698	10069.51
606.056	10075.61
606.413	10045.33
606.771	10068.83
607.128	10109.73
607.485	9983.64
607.843	10044.43
608.2	10084.2
608.557	10166.46
608.914	10060.24
609.272	10144.08
609.629	10129.85
609.986	10163.97
610.343	10214.59
610.7	10136.85
611.057	10137.08
611.414	10177.75
611.771	10189.05
612.127	10247.13
612.484	10209.39
612.841	10263.85
613.198	10281.26
613.554	10225.66
613.911	10362.16
614.267	10314.7
614.624	10268.15
614.98	10179.56
615.337	10300.24
615.693	10289.16
616.05	10236.06
616.406	10355.38
616.762	10302.27
617.118	10271.31
617.475	10317.64
617.831	10309.73
618.187	10264.76
618.543	10293.01
618.899	10393.79
619.255	10322.38
619.611	10309.73
619.967	10351.76
620.323	10452.78
620.678	10329.62
621.034	10331.42
621.39	10365.09
621.746	10382.5
622.101	10476.73
622.457	10402.16
622.812	10381.37
623.168	10369.16
623.523	10426.79
623.879	10499.33
624.234	10483.06
624.589	10417.07
624.945	10425.21
625.3	10417.75
625.655	10430.4
626.01	10434.92
626.365	10442.61
626.72	10413.91
627.075	10358.09
627.43	10403.51
627.785	10307.7
628.14	10355.83
628.495	10369.16
628.85	10332.1
629.205	10313.57
629.559	10362.83
629.914	10275.83
630.269	10345.21
630.623	10324.64
630.978	10258.43
631.332	10231.99
631.687	10312.21
632.041	10227.7
632.396	10315.15
632.75	10281.03
633.104	10287.13
633.459	10125.33
633.813	10211.2
634.167	10170.3
634.521	10169.62
634.875	10233.57
635.229	10115.38
635.583	10145.44
635.937	10178.43
636.291	10175.72
636.645	10141.37
636.999	10046.68
637.352	10191.99
637.706	10018.66
638.06	10071.32
638.413	10083.75
638.767	10037.65
639.121	10050.3
639.474	10035.84
639.828	10009.85
640.181	10003.52
640.534	10021.15
640.888	9959
641.241	9929.85
641.594	9965.33
641.947	9972.11
642.301	9913.58
642.654	9872.68
643.007	9913.36
643.36	9895.28
643.713	9969.17
644.066	9839.68
644.419	9814.6
644.771	9813.47
645.124	9740.48
645.477	9764.66
645.83	9693.7
646.182	9623.19
646.535	9647.83
646.888	9588.39
647.24	9538
647.593	9563.08
647.945	9503.87
648.298	9511.56
648.65	9563.53
649.002	9487.38
649.355	9557.66
649.707	9528.51
650.059	9549.75
650.411	9653.25
650.763	9674.04
651.115	9734.38
651.467	9705.45
651.819	9688.05
652.171	9673.36
652.523	9685.56
652.875	9677.43
653.227	9640.37
653.578	9727.37
653.93	9737.99
654.282	9713.13
654.633	9700.71
654.985	9727.15
655.337	9718.56
655.688	9683.98
656.039	9769.63
656.391	9688.5
656.742	9662.06
657.094	9627.04
657.445	9719.01
657.796	9696.64
658.147	9705.45
658.498	9606.24
658.849	9683.3
659.2	9687.37
659.551	9681.72
659.902	9679.01
660.253	9660.93
660.604	9722.63
660.955	9605.34
661.306	9669.29
661.656	9694.38
662.007	9617.09
662.358	9643.76
662.708	9617.54
663.059	9652.8
663.409	9618.45
663.76	9666.81
664.11	9682.4
664.461	9633.59
664.811	9656.64
665.161	9698.67
665.511	9683.76
665.862	9626.81
666.212	9718.56
666.562	9635.4
666.912	9720.59
667.262	9650.54
667.612	9636.75
667.962	9679.69
668.312	9642.18
668.662	9680.37
669.011	9611.89
669.361	9578.45
669.711	9682.17
670.06	9622.29
670.41	9655.51
670.76	9643.76
671.109	9669.52
671.459	9594.49
671.808	9628.62
672.157	9593.82
672.507	9615.96
672.856	9578.22
673.205	9588.17
673.554	9610.76
673.904	9570.54
674.253	9583.65
674.602	9568.05
674.951	9455.97
675.3	9369.41
675.649	9497.09
675.998	9488.06
676.346	9531.9
676.695	9513.14
677.044	9487.38
677.393	9565.57
677.741	9493.25
678.09	9407.61
678.438	9453.03
678.787	9411.22
679.135	9433.59
679.484	9386.36
679.832	9423.42
680.181	9415.29
680.529	9411.22
680.877	9313.6
681.225	9364.22
681.573	9359.92
681.922	9296.65
682.27	9232.7
682.618	9227.72
682.966	9294.39
683.314	9294.84
683.661	9268.63
684.009	9179.36
684.357	9130.55
684.705	9157.22
685.053	9237.67
685.4	9143.88
685.748	9127.39
686.095	9097.33
686.443	9072.7
686.79	9072.25
687.138	9040.61
687.485	9094.17
687.832	9045.58
688.18	9044
688.527	8949.09
688.874	8974.4
689.221	8888.75
689.568	8900.5
689.915	8893.04
690.262	8833.16
690.609	8827.96
690.956	8792.03
691.303	8757.23
691.65	8722.88
691.997	8691.24
692.344	8655.99
692.69	8639.94
693.037	8660.51
693.383	8551.36
693.73	8597.23
694.077	8546.61
694.423	8559.94
694.769	8481.98
695.116	8477.01
695.462	8465.48
695.808	8488.76
696.155	8503
696.501	8442.21
696.847	8352.72
697.193	8277.69
697.539	8360.18
697.885	8265.26
698.231	8240.18
698.577	8213.51
698.923	8239.5
699.269	8175.55
699.614	8162.67
699.96	8093.52
700.306	8088.77
700.651	8145.04
700.997	8081.54
701.342	8006.06
701.688	8029.34
702.033	7989.11
702.379	7944.82
702.724	7920.87
703.069	7955.67
703.415	7831.83
703.76	7823.01
704.105	7861.43
704.45	7839.06
704.795	7782.79
705.14	7772.85
705.485	7757.93
705.83	7722.45
706.175	7749.34
706.52	7690.36
706.865	7622.57
707.209	7649.46
707.554	7591.38
707.899	7557.03
708.243	7580.08
708.588	7531.95
708.932	7499.18
709.277	7509.12
709.621	7498.5
709.966	7479.97
710.31	7410.6
710.654	7386.64
710.998	7361.33
711.342	7440.2
711.687	7379.18
712.031	7339.19
712.375	7350.03
712.719	7296.25
713.063	7310.03
713.407	7358.39
713.75	7251.96
714.094	7236.36
714.438	7222.13
714.782	7245.18
715.125	7235.69
715.469	7235.69
715.812	7219.64
716.156	7166.76
716.499	7127.21
716.843	7199.98
717.186	7129.02
717.53	7185.29
717.873	7129.02
718.216	7149.59
718.559	7039.31
718.902	7060.55
719.246	7070.04
719.589	6970.83
719.932	7022.58
720.275	7002.25
720.617	6995.47
720.96	7010.83
721.303	7059.42
721.646	7010.61
721.989	6933.09
722.331	7004.73
722.674	6980.55
723.016	6999.31
723.359	6955.24
723.701	6930.83
724.044	6905.3
724.386	6891.51
724.729	6948.46
725.071	6887.9
725.413	6901.23
725.755	6855.36
726.097	6804.51
726.439	6878.86
726.782	6812.19
727.124	6876.15
727.465	6903.94
727.807	6890.84
728.149	6857.16
728.491	6815.36
728.833	6858.07
729.175	6801.57
729.516	6814
729.858	6767.9
730.199	6877.05
730.541	6822.81
730.882	6789.37
731.224	6828.01
731.565	6799.09
731.906	6796.83
732.248	6814.91
732.589	6728.35
732.93	6768.58
733.271	6722.25
733.612	6769.48
733.953	6789.37
734.294	6755.47
734.635	6750.95
734.976	6764.96
735.317	6767.45
735.658	6743.5
735.999	6701.01
736.339	6703.95
736.68	6724.96
737.021	6748.92
737.361	6732.42
737.702	6724.96
738.042	6677.28
738.383	6771.29
738.723	6734.23
739.063	6708.92
739.404	6763.16
739.744	6769.71
740.084	6751.86
740.424	6751.4
740.764	6796.83
741.104	6840.67
741.444	6762.93
741.784	6737.85
742.124	6809.48
742.464	6793.66
742.804	6771.74
743.143	6850.84
743.483	6844.06
743.823	6766.77
744.162	6764.74
744.502	6802.25
744.841	6807.67
745.181	6867.33
745.52	6850.38
745.86	6894.45
746.199	6915.47
746.538	6908.01
746.877	6986.65
747.216	6995.01
747.556	7058.97
747.895	7053.09
748.234	7014.22
748.573	7130.6
748.911	7091.28
749.25	7164.5
749.589	7175.12
749.928	7252.41
750.267	7281.79
750.605	7273.88
750.944	7418.05
751.283	7408.79
751.621	7504.38
751.96	7540.08
752.298	7571.27
752.636	7625.28
752.975	7701.44
753.313	7712.96
753.651	7864.14
753.989	7907.08
754.327	7906.85
754.666	7993.18
755.004	8075.44
755.342	8230.46
755.679	8281.76
756.017	8262.78
756.355	8371.25
756.693	8472.04
757.031	8560.17
757.368	8665.48
757.706	8723.33
758.044	8876.09
758.381	8990.89
758.719	9029.54
759.056	9133.49
759.394	9226.59
759.731	9301.39
760.068	9332.13
760.405	9465.68
760.743	9455.51
761.08	9674.72
761.417	9756.3
761.754	9871.1
762.091	9917.87
762.428	10066.57
762.765	10162.61
763.102	10309.28
763.438	10387.02
763.775	10456.62
764.112	10570.74
764.449	10724.41
764.785	10769.15
765.122	10830.62
765.458	10887.57
765.795	10985.19
766.131	11184.28
766.467	11187.9
766.804	11303.6
767.14	11370.04
767.476	11398.51
767.812	11433.54
768.148	11651.84
768.485	11611.62
768.821	11681.67
769.157	11676.92
769.492	11869.69
769.828	11935.45
770.164	11933.87
770.5	11995.79
770.836	12091.6
771.171	12127.08
771.507	12212.96
771.842	12195.78
772.178	12250.47
772.513	12281.88
772.849	12386.28
773.184	12361.88
773.519	12458.37
773.855	12467.41
774.19	12436.23
774.525	12513.29
774.86	12606.84
775.195	12596.22
775.53	12641.42
775.865	12642.77
776.2	12581.53
776.535	12471.93
776.87	12678.25
777.205	12624.24
777.539	12706.95
777.874	12726.16
778.209	12717.35
778.543	12675.77
778.878	12598.93
779.212	12735.43
779.547	12718.48
779.881	12775.2
780.215	12740.85
780.55	12748.99
780.884	12734.07
781.218	12687.52
781.552	12786.95
781.886	12716.9
782.22	12726.84
782.554	12701.3
782.888	12617.92
783.222	12647.29
783.556	12627.86
783.889	12512.83
784.223	12630.57
784.557	12564.13
784.89	12591.93
785.224	12578.82
785.557	12514.19
785.891	12507.41
786.224	12535.66
786.558	12538.6
786.891	12417.24
787.224	12403.01
787.557	12401.2
787.891	12427.19
788.224	12393.97
788.557	12403.91
788.89	12350.13
789.223	12414.31
789.556	12318.04
789.888	12334.99
790.221	12324.37
790.554	12192.84
790.887	12231.49
791.219	12170.02
791.552	12179.74
791.884	12136.8
792.217	12138.61
792.549	12085.5
792.882	12069.23
793.214	12003.47
793.546	12056.12
793.879	12022.45
794.211	11860.42
794.543	11988.78
794.875	11897.26
795.207	11976.8
795.539	11932.51
795.871	11921.66
796.203	11773.19
796.535	11821.78
796.867	11758.5
797.198	11726.64
797.53	11749.01
797.862	11617.94
798.193	11706.08
798.525	11621.78
798.856	11584.95
799.188	11572.97
799.519	11460.43
799.85	11486.65
800.182	11491.62
800.513	11448.46
800.844	11393.32
801.175	11393.09
801.506	11398.51
801.837	11398.74
802.168	11344.5
802.499	11281.45
802.83	11115.13
803.161	11130.72
803.491	11159.88
803.822	11219.31
804.153	11157.84
804.483	11104.06
804.814	11034.91
805.145	11079.2
805.475	11016.6
805.805	10934.8
806.136	11031.29
806.466	11008.02
806.796	10970.28
807.126	10879.21
807.457	10925.53
807.787	10838.53
808.117	10824.97
808.447	10853.22
808.777	10845.31
809.107	10800.79
809.436	10807.34
809.766	10836.49
810.096	10782.48
810.426	10658.42
810.755	10745.65
811.085	10694.35
811.414	10650.28
811.744	10550.17
812.073	10590.63
812.403	10693.67
812.732	10583.62
813.061	10625.2
813.39	10480.8
813.719	10534.13
814.049	10528.03
814.378	10483.28
814.707	10418.2
815.036	10408.71
815.365	10420.23
815.693	10335.72
816.022	10285.1
816.351	10250.52
816.68	10234.7
817.008	10239.67
817.337	10128.49
817.665	10132.56
817.994	10201.03
818.322	10176.17
818.651	10083.07
818.979	10097.76
819.307	10136.63
819.636	10149.96
819.964	10076.29
820.292	10099.11
820.62	10075.84
820.948	10064.31
821.276	10116.51
821.604	10040.81
821.932	10062.96
822.259	10069.06
822.587	10084.65
822.915	9978.44
823.243	10097.76
823.57	10031.32
823.898	10051.66
824.225	10069.74
824.553	10053.24
824.88	10080.81
825.207	10031.77
825.535	9944.09
825.862	10040.36
826.189	10059.79
826.516	10054.37
826.843	10106.12
827.17	10040.81
827.497	10043.3
827.824	10022.96
828.151	10062.5
828.478	10008.27
828.805	10034.93
829.131	10032.9
829.458	10038.78
829.785	9992.68
830.111	10069.51
830.438	10038.1
830.764	10074.93
831.09	10047.36
831.417	9959.68
831.743	10038.1
832.069	10005.1
832.395	9991.77
832.722	10025.44
833.048	9951.32
833.374	10039.23
833.7	9949.74
834.026	9904.77
834.351	10034.71
834.677	9987.03
835.003	10017.08
835.329	9964.65
835.654	9930.08
835.98	9874.03
836.306	9889.4
836.631	9883.07
836.956	9930.53
837.282	9876.52
837.607	9877.65
837.932	9871.1
838.258	9825.45
838.583	9863.19
838.908	9816.18
839.233	9802.17
839.558	9781.61
839.883	9707.03
840.208	9655.96
840.533	9732.34
840.858	9745.68
841.182	9730.99
841.507	9725.11
841.832	9701.84
842.156	9563.99
842.481	9659.58
842.805	9593.14
843.13	9653.47
843.454	9598.79
843.778	9528.96
844.103	9536.19
844.427	9491.67
844.751	9458
845.075	9533.7
845.399	9458.9
845.723	9385.23
846.047	9397.66
846.371	9339.81
846.695	9378.23
847.019	9168.97
847.343	9250.32
847.666	9144.34
847.99	9143.21
848.313	9192.24
848.637	9096.88
848.96	9048.52
849.284	9056.88
849.607	8960.39
849.931	8915.42
850.254	8949.99
850.577	8842.2
850.9	8808.07
851.223	8814.18
851.546	8751.13
851.869	8702.77
852.192	8786.61
852.515	8656.89
852.838	8631.35
853.161	8620.51
853.483	8594.07
853.806	8511.81
854.129	8539.15
854.451	8513.39
854.774	8472.49
855.096	8446.05
855.419	8453.05
855.741	8393.17
856.063	8375.32
856.385	8452.15
856.708	8273.4
857.03	8258.26
857.352	8249.22
857.674	8241.99
857.996	8213.06
858.318	8172.38
858.64	8206.28
858.961	8219.16
859.283	8138.26
859.605	8040.41
859.926	8128.32
860.248	8117.7
860.57	8061.88
860.891	8076.57
861.212	8017.59
861.534	7952.28
861.855	7977.36
862.176	8037.92
862.498	7952.73
862.819	7985.72
863.14	7949.11
863.461	7953.86
863.782	7881.09
864.103	7895.56
864.424	7849.45
864.745	7839.29
865.065	7776.24
865.386	7783.92
865.707	7746.41
866.027	7802.22
866.348	7807.65
866.668	7797.48
866.989	7757.25
867.309	7692.85
867.63	7678.84
867.95	7771.49
868.27	7658.5
868.59	7692.4
868.91	7747.99
869.23	7669.12
869.55	7642
869.87	7719.06
870.19	7651.72
870.51	7564.04
870.83	7594.77
871.15	7549.58
871.469	7579.18
871.789	7588.9
872.109	7585.96
872.428	7485.62
872.748	7507.09
873.067	7512.51
873.386	7547.77
873.706	7597.71
874.025	7474.55
874.344	7456.24
874.663	7481.78
874.982	7440.65
875.301	7449.47
875.62	7392.97
875.939	7400.2
876.258	7375.12
876.577	7375.57
876.896	7341.45
877.214	7334.44
877.533	7393.2
877.852	7359.07
878.17	7352.29
878.489	7404.49
878.807	7335.57
879.125	7307.77
879.444	7288.11
879.762	7225.29
880.08	7215.57
880.398	7252.18
880.716	7287.89
881.034	7260.09
881.352	7223.71
881.67	7191.17
881.988	7172.86
882.306	7114.56
882.624	7109.81
882.941	7128.8
883.259	7099.42
883.577	7086.31
883.894	7081.11
884.212	7102.81
884.529	7066.65
884.846	7031.85
885.164	6943.94
885.481	7019.65
885.798	7021.91
886.115	7025.75
886.432	6972.42
886.75	6943.72
887.067	6996.6
887.383	6849.03
887.7	6852.19
888.017	6816.49
888.334	6895.81
888.651	6795.92
888.967	6888.12
889.284	6847.67
889.6	6761.57
889.917	6755.92
890.233	6802.48
890.55	6757.96
890.866	6740.56
891.182	6725.19
891.498	6661.92
891.815	6668.47
892.131	6618.07
892.447	6621.46
892.763	6607.91
893.079	6598.41
893.395	6615.36
893.71	6573.1
894.026	6519.09
894.342	6522.94
894.657	6479.77
894.973	6510.51
895.289	6488.36
895.604	6453.11
895.92	6418.31
896.235	6355.03
896.55	6432.54
896.865	6341.02
897.181	6331.3
897.496	6317.74
897.811	6313.22
898.126	6258.54
898.441	6250.17
898.756	6251.98
899.071	6194.81
899.386	6197.75
899.7	6164.53
900.015	6086.56
900.33	6042.72
900.644	6103.96
900.959	6018.32
901.273	6031.42
901.588	6018.77
901.902	5995.49
902.216	5951.43
902.531	5972.44
902.845	5940.35
903.159	5873.91
903.473	5881.37
903.787	5868.49
904.101	5766.57
904.415	5827.81
904.729	5764.76
905.042	5773.13
905.356	5784.65
905.67	5751.66
905.984	5743.3
906.297	5698.1
906.611	5706.91
906.924	5657.65
907.237	5665.11
907.551	5676.86
907.864	5595.5
908.177	5637.08
908.491	5588.5
908.804	5569.97
909.117	5543.07
909.43	5413.59
909.743	5420.59
910.056	5482.29
910.368	5415.39
910.681	5443.64
910.994	5397.77
911.307	5427.15
911.619	5372.46
911.932	5323.19
912.244	5295.17
912.557	5257.88
912.869	5278.22
913.181	5282.06
913.494	5219.47
913.806	5225.57
914.118	5173.37
914.43	5143.76
914.742	5130.66
915.054	5132.69
915.366	5087.72
915.678	5065.12
915.99	5075.29
916.302	5007.95
916.613	4990.55
916.925	5055.63
917.236	5025.57
917.548	4912.58
917.859	4976.31
918.171	4927.5
918.482	4896.54
918.794	4861.51
919.105	4903.54
919.416	4812.92
919.727	4827.39
920.038	4871
920.349	4766.6
920.66	4778.57
920.971	4754.62
921.282	4775.86
921.593	4713.72
921.903	4723.66
922.214	4685.7
922.525	4658.13
922.835	4604.79
923.146	4594.17
923.456	4654.06
923.767	4550.33
924.077	4615.64
924.387	4556.21
924.697	4558.02
925.008	4517.11
925.318	4484.35
925.628	4531.58
925.938	4442.54
926.248	4429.88
926.558	4430.11
926.867	4381.07
927.177	4423.78
927.487	4360.73
927.796	4319.83
928.106	4320.73
928.416	4336.55
928.725	4285.48
929.034	4294.52
929.344	4282.99
929.653	4259.94
929.962	4228.08
930.271	4181.75
930.581	4210
930.89	4205.93
931.199	4142.21
931.508	4140.63
931.817	4142.43
932.125	4127.52
932.434	4139.95
932.743	4033.96
933.051	4057.69
933.36	4039.16
933.669	4023.11
933.977	4036
934.286	3993.96
934.594	4002.1
934.902	3948.99
935.21	3977.24
935.519	3975.66
935.827	3891.14
936.135	3942.89
936.443	3868.32
936.751	3858.6
937.059	3880.75
937.367	3842.55
937.674	3856.79
937.982	3848.88
938.29	3798.71
938.597	3813.18
938.905	3761.2
939.213	3781.09
939.52	3738.83
939.827	3723.69
940.135	3700.41
940.442	3698.6
940.749	3692.73
941.056	3682.33
941.363	3638.27
941.67	3596.23
941.977	3626.29
942.284	3588.1
942.591	3617.7
942.898	3533.64
943.205	3566.4
943.511	3580.19
943.818	3566.86
944.125	3511.04
944.431	3503.81
944.738	3497.7
945.044	3475.33
945.35	3454.77
945.657	3443.69
945.963	3438.27
946.269	3402.34
946.575	3378.16
946.881	3372.06
947.187	3320.31
947.493	3376.58
947.799	3369.12
948.105	3316.01
948.41	3293.42
948.716	3283.7
949.022	3274.66
949.327	3263.13
949.633	3271.95
949.938	3263.36
950.244	3246.19
950.549	3180.42
950.854	3199.86
951.16	3192.4
951.465	3191.5
951.77	3173.87
952.075	3135.23
952.38	3134.32
952.685	3135
952.99	3121.44
953.294	3110.14
953.599	3075.12
953.904	3107.21
954.209	3071.05
954.513	3060.65
954.818	3010.49
955.122	2995.8
955.426	3029.24
955.731	2961.67
956.035	2999.41
956.339	2942.01
956.643	2958.28
956.948	2936.82
957.252	2913.31
957.556	2904.73
957.86	2917.15
958.163	2893.43
958.467	2906.53
958.771	2894.78
959.075	2875.35
959.378	2878.74
959.682	2865.4
959.985	2836.48
960.289	2844.61
960.592	2815.24
960.896	2791.28
961.199	2782.47
961.502	2761.23
961.805	2753.32
962.108	2781.79
962.411	2767.55
962.714	2746.76
963.017	2752.19
963.32	2753.32
963.623	2706.76
963.926	2710.38
964.228	2671.06
964.531	2642.13
964.833	2647.78
965.136	2652.76
965.438	2616.82
965.741	2622.02
966.043	2572.53
966.345	2600.33
966.648	2618.41
966.95	2593.32
967.252	2545.19
967.554	2575.02
967.856	2532.31
968.158	2525.53
968.46	2528.01
968.761	2522.36
969.063	2512.65
969.365	2478.52
969.666	2510.61
969.968	2480.78
970.269	2462.25
970.571	2453.21
970.872	2435.36
971.174	2428.58
971.475	2411.63
971.776	2401.69
972.077	2375.25
972.378	2374.8
972.679	2389.94
972.98	2385.87
973.281	2371.63
973.582	2372.08
973.883	2342.71
974.183	2349.49
974.484	2352.2
974.785	2318.07
975.085	2287.12
975.386	2295.7
975.686	2278.75
975.986	2255.7
976.287	2264.52
976.587	2258.42
976.887	2241.47
977.187	2261.8
977.487	2259.77
977.787	2191.98
978.087	2198.53
978.387	2207.8
978.687	2212.54
978.987	2142.71
979.286	2171.86
979.586	2200.56
979.885	2151.53
980.185	2154.46
980.484	2130.51
980.784	2154.69
981.083	2157.85
981.382	2128.7
981.682	2113.56
981.981	2097.74
982.28	2066.1
982.579	2074.01
982.878	2085.99
983.177	2075.6
983.475	2057.74
983.774	2052.09
984.073	2010.51
984.372	2004.41
984.67	2036.27
984.969	2011.42
985.267	1993.11
985.566	1989.04
985.864	1941.59
986.162	1974.13
986.461	1968.25
986.759	1951.98
987.057	1956.73
987.355	1949.5
987.653	1951.98
987.951	1925.54
988.249	1926.9
988.547	1935.03
988.844	1893.68
989.142	1905.43
989.44	1880.8
989.737	1882.15
990.035	1902.04
990.332	1875.37
990.63	1856.84
990.927	1819.78
991.224	1818.43
991.521	1829.73
991.819	1811.65
992.116	1801.48
992.413	1829.5
992.71	1811.65
993.006	1789.05
993.303	1787.24
993.6	1773.91
993.897	1768.03
994.193	1774.59
994.49	1751.99
994.787	1735.27
995.083	1717.86
995.379	1726.9
995.676	1714.7
995.972	1693.23
996.268	1673.57
996.565	1695.27
996.861	1680.13
997.157	1675.61
997.453	1686.45
997.749	1661.59
998.044	1650.3
998.34	1639
998.636	1666.34
998.932	1616.62
999.227	1627.7
999.523	1651.43
999.818	1591.31
1000.114	1610.3
1000.409	1573.69
1000.704	1559
1001	1582.27
1001.295	1553.35
1001.59	1534.37
1001.885	1540.24
1002.18	1564.2
1002.475	1525.78
1002.77	1532.33
1003.065	1502.5
1003.359	1519.68
1003.654	1484.2
1003.949	1467.93
1004.243	1472.67
1004.538	1502.05
1004.832	1476.29
1005.127	1462.96
1005.421	1459.79
1005.715	1468.15
1006.009	1448.72
1006.304	1414.37
1006.598	1446.69
1006.892	1423.41
1007.186	1401.49
1007.48	1390.42
1007.773	1413.47
1008.067	1418.66
1008.361	1369.63
1008.655	1373.69
1008.948	1370.53
1009.242	1373.92
1009.535	1374.37
1009.829	1344.99
1010.122	1320.59
1010.415	1316.52
1010.708	1334.82
1011.001	1328.27
1011.295	1340.02
1011.588	1321.49
1011.881	1336.41
1012.173	1288.27
1012.466	1268.16
1012.759	1254.15
1013.052	1265.9
1013.344	1236.75
1013.637	1266.35
1013.93	1251.44
1014.222	1230.87
1014.514	1239.91
1014.807	1229.06
1015.099	1226.35
1015.391	1232
1015.683	1194.49
1015.976	1191.78
1016.268	1208.95
1016.56	1200.14
1016.851	1188.39
1017.143	1197.2
1017.435	1137.31
1017.727	1149.52
1018.018	1183.19
1018.31	1142.29
1018.602	1149.29
1018.893	1128.28
1019.185	1127.37
1019.476	1152.46
1019.767	1116.3
1020.058	1115.17
1020.35	1095.28
1020.641	1059.12
1020.932	1083.76
1021.223	1099.12
1021.514	1058.22
1021.804	1057.09
1022.095	1068.84
1022.386	1047.15
1022.677	1061.84
1022.967	1077.88
1023.258	1038.56
1023.548	1016.19
1023.839	1037.88
1024.129	1028.39
1024.419	1041.95
1024.709	993.59
1025	990.65
1025.29	989.75
1025.58	983.65
1025.87	1018.45
1026.16	996.53
1026.449	994.04
1026.739	971.67
1027.029	964.44
1027.319	955.4
1027.608	943.65
1027.898	948.39
1028.187	938
1028.477	940.71
1028.766	937.32
1029.055	916.98
1029.344	905.46
1029.634	919.92
1029.923	904.1
1030.212	917.43
1030.501	915.63
1030.79	885.12
1031.078	876.53
1031.367	864.1
1031.656	869.53
1031.945	877.89
1032.233	891.67
1032.522	886.02
1032.81	843.99
1033.099	832.92
1033.387	837.66
1033.675	838.34
1033.963	825.01
1034.251	841.96
1034.54	840.15
1034.828	818.45
1035.116	819.81
1035.403	823.88
1035.691	801.96
1035.979	808.06
1036.267	810.77
1036.554	788.17
1036.842	787.27
1037.129	765.35
1037.417	799.02
1037.704	775.74
1037.992	786.82
1038.279	778
1038.566	800.15
1038.853	800.15
1039.14	800.15
