Data from hue_140_FLMS001491_00035.txt Node
Date: Tue Feb 07 16:55:50 GMT 2017
User: dcchb
Spectrometer: FLMS00149
Trigger mode: 0
Integration Time (sec): 2.000000E-2
Scans to average: 10
Electric dark correction enabled: true
Nonlinearity correction enabled: false
Boxcar width: 0
XAxis mode: Wavelengths
Number of Pixels in Spectrum: 2048
>>>>>Begin Spectral Data<<<<<
341.393	6.65
341.776	6.65
342.16	6.65
342.543	-53.69
342.927	-62.05
343.31	-64.31
343.693	-64.08
344.077	-55.04
344.46	-58.88
344.843	-65.21
345.226	-36.28
345.61	-32.44
345.993	-39.67
346.376	1.91
346.759	-1.93
347.142	1.91
347.525	64.05
347.908	53.66
348.291	95.24
348.674	80.1
349.057	121
349.44	115.8
349.823	147.21
350.206	162.13
350.588	208.91
350.971	207.1
351.354	229.92
351.737	234.67
352.119	250.26
352.502	269.92
352.884	255.69
353.267	293.42
353.65	301.11
354.032	313.76
354.414	295.23
354.797	310.15
355.179	313.31
355.562	321.67
355.944	317.38
356.326	352.41
356.709	335.91
357.091	325.06
357.473	334.78
357.855	332.29
358.238	360.32
358.62	338.4
359.002	366.42
359.384	340.43
359.766	329.36
360.148	341.56
360.53	325.51
360.912	334.1
361.294	331.84
361.676	325.97
362.057	333.88
362.439	340.88
362.821	323.03
363.203	332.52
363.584	323.93
363.966	319.19
364.348	323.03
364.729	318.73
365.111	328.68
365.493	346.53
365.874	318.51
366.256	331.62
366.637	327.1
367.019	334.78
367.4	325.97
367.781	309.02
368.163	315.8
368.544	323.48
368.925	327.1
369.306	347.21
369.688	319.19
370.069	309.02
370.45	320.09
370.831	315.34
371.212	316.47
371.593	319.41
371.974	298.85
372.355	339.07
372.736	305.4
373.117	320.99
373.498	313.99
373.879	347.43
374.26	329.13
374.641	316.47
375.021	323.48
375.402	328.45
375.783	337.72
376.163	342.91
376.544	326.19
376.925	325.97
377.305	332.97
377.686	328.23
378.066	311.5
378.447	343.37
378.827	338.4
379.208	345.4
379.588	335.46
379.968	328.23
380.349	325.97
380.729	346.98
381.109	350.6
381.489	351.05
381.87	343.14
382.25	346.53
382.63	342.91
383.01	340.88
383.39	342.91
383.77	362.12
384.15	369.58
384.53	389.92
384.91	325.74
385.29	371.84
385.67	360.54
386.049	358.06
386.429	369.58
386.809	362.8
387.189	371.16
387.568	389.92
387.948	385.63
388.328	368
388.707	362.35
389.087	370.71
389.466	372.97
389.846	354.89
390.225	372.97
390.605	358.73
390.984	381.78
391.363	377.72
391.743	373.65
392.122	368.9
392.501	387.89
392.881	370.48
393.26	389.24
393.639	380.88
394.018	392.18
394.397	393.76
394.776	391.73
395.155	401.67
395.534	393.99
395.913	402.12
396.292	395.12
396.671	415.68
397.05	398.96
397.429	412.52
397.808	401.67
398.186	411.84
398.565	405.29
398.944	390.6
399.323	400.09
399.701	416.81
400.08	418.39
400.458	408.68
400.837	401.9
401.215	436.02
401.594	419.75
401.972	432.18
402.351	412.97
402.729	415.23
403.107	417.04
403.486	417.49
403.864	421.78
404.242	417.49
404.62	438.96
404.999	457.71
405.377	446.41
405.755	442.57
406.133	433.76
406.511	444.83
406.889	467.21
407.267	435.34
407.645	471.72
408.023	465.62
408.401	471.5
408.779	452.74
409.156	464.95
409.534	470.37
409.912	499.97
410.29	485.28
410.667	478.96
411.045	460.88
411.422	485.51
411.8	494.32
412.178	512.18
412.555	505.62
412.933	503.14
413.31	477.37
413.687	497.94
414.065	491.16
414.442	508.33
414.819	518.96
415.197	509.46
415.574	517.6
415.951	531.16
416.328	538.84
416.705	536.36
417.082	549.46
417.46	548.33
417.837	561.44
418.214	548.79
418.591	543.14
418.967	558.95
419.344	547.43
419.721	579.07
420.098	560.76
420.475	545.62
420.852	559.63
421.228	559.63
421.605	574.32
421.982	582
422.358	556.92
422.735	579.97
423.111	576.81
423.488	584.04
423.864	586.75
424.241	590.14
424.617	597.82
424.994	610.7
425.37	608.9
425.746	629.91
426.123	613.87
426.499	607.99
426.875	627.43
427.251	644.15
427.627	650.7
428.003	627.88
428.379	652.51
428.756	666.52
429.132	648.44
429.507	664.94
429.883	681.66
430.259	696.13
430.635	689.57
431.011	682.57
431.387	692.96
431.763	701.32
432.138	699.52
432.514	697.48
432.89	716.01
433.265	711.72
433.641	740.87
434.016	737.48
434.392	729.8
434.767	738.84
435.143	751.72
435.518	754.66
435.894	777.93
436.269	774.54
436.644	784.71
437.02	786.29
437.395	751.72
437.77	784.26
438.145	791.94
438.52	793.75
438.895	833.07
439.271	837.82
439.646	834.2
440.021	826.97
440.395	825.39
440.77	847.76
441.145	843.47
441.52	852.28
441.895	868.55
442.27	874.2
442.645	871.26
443.019	870.58
443.394	873.3
443.769	899.28
444.143	914.43
444.518	894.99
444.892	878.27
445.267	913.97
445.641	926.18
446.016	919.17
446.39	916.23
446.764	948.1
447.139	933.63
447.513	918.94
447.887	947.42
448.262	947.87
448.636	960.07
449.01	974.31
449.384	951.03
449.758	985.84
450.132	1002.78
450.506	992.84
450.88	983.8
451.254	991.26
451.628	1016.34
452.002	1035.33
452.376	1037.13
452.75	1038.04
453.123	1039.62
453.497	1048.88
453.871	1073.29
454.244	1097.92
454.618	1112.61
454.992	1090.24
455.365	1102.22
455.739	1132.95
456.112	1134.53
456.486	1134.08
456.859	1180.86
457.232	1190.12
457.606	1188.09
457.979	1211.59
458.352	1221.54
458.725	1246.17
459.099	1249.33
459.472	1265.6
459.845	1264.92
460.218	1278.03
460.591	1308.54
460.964	1311.48
461.337	1318.03
461.71	1335.43
462.083	1366.62
462.456	1358.93
462.829	1408.65
463.201	1414.75
463.574	1404.36
463.947	1447.97
464.32	1468.76
464.692	1509.66
465.065	1484.13
465.438	1527.06
465.81	1542.66
466.183	1556.89
466.555	1598.7
466.928	1610
467.3	1592.37
467.672	1635.76
468.045	1693.16
468.417	1690.45
468.789	1727.74
469.161	1762.54
469.534	1744.69
469.906	1841.86
470.278	1801.41
470.65	1859.49
471.022	1923.44
471.394	1957.56
471.766	1979.26
472.138	2003.89
472.51	2071.46
472.882	2082.08
473.253	2135.86
473.625	2190.55
473.997	2225.35
474.369	2269.64
474.74	2319.13
475.112	2358.23
475.484	2430.77
475.855	2490.2
476.227	2512.35
476.598	2570.2
476.97	2662.63
477.341	2705.11
477.713	2813.81
478.084	2844.32
478.455	2917.31
478.827	2962.05
479.198	3098.77
479.569	3087.93
479.94	3265.32
480.311	3277.07
480.682	3381.93
481.053	3500.57
481.424	3613.79
481.795	3660.12
482.166	3770.17
482.537	3894.01
482.908	3977.4
483.279	4063.04
483.65	4179.88
484.021	4314.11
484.391	4461.22
484.762	4550.94
485.133	4644.95
485.503	4760.2
485.874	4900.53
486.244	4969.69
486.615	5167.87
486.985	5276.12
487.356	5442.44
487.726	5484.25
488.097	5697.35
488.467	5771.25
488.837	5935.31
489.207	6087.17
489.578	6234.29
489.948	6388.18
490.318	6533.71
490.688	6648.74
491.058	6784.78
491.428	6952.46
491.798	7078.33
492.168	7339.79
492.538	7417.98
492.908	7619.11
493.278	7688.26
493.648	7845.77
494.017	8016.61
494.387	8184.74
494.757	8322.82
495.126	8437.17
495.496	8517.16
495.866	8644.17
496.235	8824.05
496.605	8953.99
496.974	9056.36
497.344	9227.43
497.713	9325.96
498.082	9437.36
498.452	9590.13
498.821	9723.46
499.19	9811.82
499.559	9877.81
499.928	9995.77
500.298	10181.3
500.667	10257.23
501.036	10303.56
501.405	10504
501.774	10572.02
502.143	10595.53
502.512	10750.55
502.88	10887.04
503.249	10901.06
503.618	11050.2
503.987	11158
504.356	11268.28
504.724	11363.87
505.093	11408.39
505.462	11506.69
505.83	11570.19
506.199	11609.51
506.567	11872.78
506.936	11799.56
507.304	11912.55
507.672	11978.54
508.041	12088.37
508.409	12146.67
508.777	12301.24
509.145	12406.78
509.514	12446.55
509.882	12513.67
510.25	12508.92
510.618	12574.23
510.986	12653.55
511.354	12770.61
511.722	12820.78
512.09	12934.45
512.458	12929.93
512.826	12988.91
513.193	13077.5
513.561	13194.33
513.929	13186.19
514.297	13375.79
514.664	13336.47
515.032	13347.09
515.4	13502.57
515.767	13467.09
516.135	13544.38
516.502	13406.53
516.869	13667.31
517.237	13617.37
517.604	13538.73
517.972	13736.91
518.339	13748.21
518.706	13748.89
519.073	13734.88
519.44	13821.88
519.808	13960.86
520.175	13885.84
520.542	14081.99
520.909	14083.12
521.276	13988.88
521.643	14138.26
522.009	14125.38
522.376	14190.23
522.743	14284.02
523.11	14297.8
523.477	14339.61
523.843	14373.28
524.21	14488.76
524.577	14552.94
524.943	14528.3
525.31	14519.04
525.676	14622.09
526.043	14645.82
526.409	14712.93
526.776	14789.09
527.142	14732.37
527.508	14736.66
527.874	14811.23
528.241	14863.66
528.607	14760.84
528.973	14861.18
529.339	14863.66
529.705	14878.8
530.071	14924.45
530.437	14885.58
530.803	14951.57
531.169	14955.19
531.535	14861.18
531.901	14796.55
532.267	14804.23
532.632	14907.5
532.998	14843.78
533.364	14870.89
533.73	14884.45
534.095	14890.78
534.461	14794.06
534.826	14934.85
535.192	14839.48
535.557	14894.17
535.923	14821.63
536.288	14848.52
536.653	14758.13
537.019	14683.1
537.384	14666.61
537.749	14718.13
538.114	14665.7
538.479	14688.07
538.845	14639.04
539.21	14591.58
539.575	14549.09
539.94	14472.71
540.305	14523.78
540.67	14493.28
541.034	14535.31
541.399	14486.95
541.764	14361.08
542.129	14422.09
542.494	14316.33
542.858	14409.21
543.223	14321.08
543.587	14302.1
543.952	14266.39
544.316	14211.93
544.681	14128.31
545.045	14110.91
545.41	14211.25
545.774	14133.96
546.138	14020.52
546.503	14079.73
546.867	13961.99
547.231	14015.78
547.595	13942.33
547.959	13951.14
548.324	13867.08
548.688	13814.42
549.052	13877.25
549.416	13826.63
549.779	13746.18
550.143	13738.04
550.507	13840.64
550.871	13706.41
551.235	13588.44
551.599	13746.18
551.962	13692.17
552.326	13596.58
552.689	13660.76
553.053	13513.19
553.417	13573.53
553.78	13573.08
554.143	13468.9
554.507	13523.13
554.87	13543.7
555.234	13517.03
555.597	13467.99
555.96	13376.7
556.323	13472.96
556.686	13367.66
557.05	13399.97
557.413	13384.61
557.776	13347.77
558.139	13406.98
558.502	13376.24
558.865	13355.45
559.228	13468.9
559.59	13375.79
559.953	13376.92
560.316	13518.16
560.679	13387.54
561.041	13450.82
561.404	13475.68
561.767	13532.17
562.129	13321.56
562.492	13535.56
562.854	13436.81
563.217	13393.65
563.579	13512.29
563.941	13441.1
564.304	13522.46
564.666	13515.9
565.028	13484.94
565.39	13530.59
565.753	13590.48
566.115	13572.17
566.477	13619.63
566.839	13590.48
567.201	13677.71
567.563	13641.1
567.925	13710.47
568.287	13663.69
568.648	13721.55
569.01	13750.7
569.372	13740.53
569.734	13709.79
570.095	13706.18
570.457	13860.53
570.819	13670.47
571.18	13696.01
571.542	13767.87
571.903	13845.61
572.265	13758.61
572.626	13799.74
572.987	13840.86
573.349	13828.66
573.71	13877.02
574.071	13865.27
574.432	13906.85
574.794	13962.9
575.155	13978.04
575.516	13832.96
575.877	13934.65
576.238	13913.63
576.599	13985.95
576.96	13967.87
577.32	13979.62
577.681	14013.52
578.042	14045.83
578.403	13970.35
578.763	14003.12
579.124	14049.9
579.485	14084.93
579.845	14056.23
580.206	13975.32
580.566	14003.35
580.927	14046.74
581.287	14030.69
581.648	13954.31
582.008	14002.67
582.368	14020.3
582.728	14069.56
583.089	13956.34
583.449	14027.3
583.809	13962.67
584.169	13949.11
584.529	13966.74
584.889	14085.15
585.249	13984.59
585.609	13903.69
585.969	14009.67
586.329	13946.4
586.688	13947.08
587.048	13914.54
587.408	13883.58
587.768	13962.67
588.127	13848.1
588.487	13870.47
588.846	13990.92
589.206	13870.92
589.565	13865.5
589.925	13845.61
590.284	13876.57
590.643	13786.63
591.003	13876.34
591.362	13837.48
591.721	13854.65
592.08	13816.01
592.44	13818.72
592.799	13883.35
593.158	13890.81
593.517	13825.72
593.876	13772.62
594.235	13776.91
594.593	13791.15
594.952	13836.12
595.311	13696.69
595.67	13790.02
596.029	13832.73
596.387	13797.48
596.746	13868.66
597.104	13711.83
597.463	13775.33
597.822	13872.28
598.18	13684.71
598.538	13749.34
598.897	13826.4
599.255	13665.28
599.613	13871.37
599.972	13723.58
600.33	13777.82
600.688	13639.97
601.046	13758.38
601.404	13851.03
601.762	13738.27
602.12	13831.83
602.478	13681.55
602.836	13738.95
603.194	13740.75
603.552	13730.81
603.91	13694.2
604.268	13818.72
604.625	13646.52
604.983	13773.75
605.341	13750.02
605.698	13724.71
606.056	13769.91
606.413	13731.26
606.771	13839.73
607.128	13771.71
607.485	13717.93
607.843	13780.98
608.2	13802.45
608.557	13887.42
608.914	13836.8
609.272	13884.25
609.629	13900.3
609.986	14000.18
610.343	13869.34
610.7	13973.97
611.057	13864.14
611.414	13889.23
611.771	13936.68
612.127	13903.46
612.484	13892.61
612.841	13978.26
613.198	13966.51
613.554	14009.45
613.911	14026.4
614.267	13930.58
614.624	14047.64
614.98	14062.33
615.337	14023.68
615.693	14070.01
616.05	14040.18
616.406	14076.34
616.762	14089.67
617.118	14046.06
617.475	13975.32
617.831	14099.16
618.187	14065.49
618.543	14127.41
618.899	14161.76
619.255	14130.57
619.611	14096.45
619.967	14114.76
620.323	14228.43
620.678	14225.49
621.034	14137.13
621.39	14141.2
621.746	14179.61
622.101	14240.63
622.457	14162.89
622.812	14145.26
623.168	14260.29
623.523	14230.69
623.879	14207.86
624.234	14141.65
624.589	14066.17
624.945	14210.57
625.3	14272.72
625.655	14199.73
626.01	14173.06
626.365	14235.66
626.72	14165.15
627.075	14158.6
627.43	14199.5
627.785	14063.68
628.14	14141.65
628.495	14205.83
628.85	14157.01
629.205	14127.86
629.559	14274.07
629.914	14076.34
630.269	14063.23
630.623	14068.66
630.978	14053.51
631.332	14133.29
631.687	14162.89
632.041	14112.27
632.396	14098.49
632.75	14014.87
633.104	14074.53
633.459	13921.99
633.813	14006.74
634.167	13996.79
634.521	13982.1
634.875	13985.49
635.229	13886.97
635.583	13854.2
635.937	13915.21
636.291	13854.42
636.645	13880.41
636.999	13875.44
637.352	13831.83
637.706	13780.53
638.06	13815.1
638.413	13825.72
638.767	13810.36
639.121	13759.06
639.474	13647.2
639.828	13664.15
640.181	13800.64
640.534	13680.64
640.888	13663.02
641.241	13650.36
641.594	13639.29
641.947	13709.79
642.301	13552.96
642.654	13663.69
643.007	13553.87
643.36	13643.81
643.713	13626.41
644.066	13561.55
644.419	13596.8
644.771	13430.93
645.124	13369.92
645.477	13381.22
645.83	13301.9
646.182	13213.76
646.535	13097.38
646.888	13138.51
647.24	13114.56
647.593	13122.47
647.945	13188.23
648.298	13081.11
648.65	13088.12
649.002	13032.07
649.355	13024.84
649.707	13101.22
650.059	13113.43
650.411	13317.04
650.763	13267.77
651.115	13466.64
651.467	13318.62
651.819	13329.69
652.171	13314.78
652.523	13342.57
652.875	13326.53
653.227	13323.82
653.578	13407.66
653.93	13361.1
654.282	13267.32
654.633	13362.91
654.985	13284.27
655.337	13351.16
655.688	13349.13
656.039	13437.71
656.391	13269.58
656.742	13322.23
657.094	13319.52
657.445	13445.85
657.796	13339.18
658.147	13295.57
658.498	13290.6
658.849	13304.16
659.2	13398.16
659.551	13272.29
659.902	13346.41
660.253	13363.14
660.604	13348.22
660.955	13332.86
661.306	13345.96
661.656	13334.89
662.007	13357.26
662.358	13322.46
662.708	13382.57
663.059	13274.33
663.409	13255.8
663.76	13399.97
664.11	13375.57
664.461	13418.5
664.811	13378.28
665.161	13411.95
665.511	13326.3
665.862	13405.17
666.212	13424.38
666.562	13523.36
666.912	13400.65
667.262	13295.12
667.612	13430.71
667.962	13394.55
668.312	13364.49
668.662	13428.67
669.011	13472.51
669.361	13406.75
669.711	13365.85
670.06	13315.68
670.41	13304.16
670.76	13296.92
671.109	13376.92
671.459	13381.44
671.808	13233.88
672.157	13382.12
672.507	13278.62
672.856	13215.12
673.205	13256.47
673.554	13356.13
673.904	13280.2
674.253	13261.45
674.602	13289.01
674.951	13091.05
675.3	13025.07
675.649	13245.4
675.998	13222.35
676.346	13219.19
676.695	13263.48
677.044	13131.51
677.393	13188.68
677.741	13176.48
678.09	13121.79
678.438	13143.71
678.787	13173.54
679.135	13116.36
679.484	13020.32
679.832	13014.9
680.181	12985.07
680.529	13014.45
680.877	12967.22
681.225	13041.56
681.573	13002.47
681.922	12878.18
682.27	12892.87
682.618	12920.89
682.966	12815.36
683.314	12876.6
683.661	12875.24
684.009	12787.56
684.357	12740.78
684.705	12714.57
685.053	12725.64
685.4	12689.48
685.748	12704.4
686.095	12625.3
686.443	12526.78
686.79	12611.97
687.138	12648.58
687.485	12629.6
687.832	12573.78
688.18	12495.36
688.527	12463.95
688.874	12340.79
689.221	12355.93
689.568	12305.09
689.915	12288.82
690.262	12305.76
690.609	12279.32
690.956	12216.05
691.303	12150.51
691.65	12133.11
691.997	12104.64
692.344	12040.91
692.69	12051.53
693.037	11955.94
693.383	11870.97
693.73	11948.03
694.077	11886.57
694.423	11870.07
694.769	11792.33
695.116	11790.98
695.462	11709.17
695.808	11736.06
696.155	11694.25
696.501	11630.53
696.847	11593.92
697.193	11547.37
697.539	11485.22
697.885	11473.92
698.231	11346.92
698.577	11374.04
698.923	11382.4
699.269	11290.65
699.614	11242.29
699.96	11252.23
700.306	11257.2
700.651	11158.45
700.997	11190.54
701.342	11068.51
701.688	11069.19
702.033	11004.33
702.379	11000.94
702.724	10987.38
703.069	11058.11
703.415	10768.18
703.76	10895.41
704.105	10874.16
704.45	10824.22
704.795	10765.24
705.14	10710.78
705.485	10699.93
705.83	10637.11
706.175	10632.81
706.52	10546.71
706.865	10515.08
707.209	10550.33
707.554	10473.27
707.899	10463.33
708.243	10497.9
708.588	10480.28
708.932	10359.6
709.277	10388.98
709.621	10318.7
709.966	10308.98
710.31	10301.07
710.654	10179.94
710.998	10230.56
711.342	10218.14
711.687	10193.5
712.031	10130.68
712.375	10042.55
712.719	10173.39
713.063	10084.58
713.407	10080.74
713.75	10027.41
714.094	10029.44
714.438	9985.6
714.782	9988.99
715.125	10004.36
715.469	9939.27
715.812	9906.96
716.156	9848.88
716.499	9899.5
716.843	9936.79
717.186	9784.7
717.53	9862.21
717.873	9836.22
718.216	9897.47
718.559	9803.23
718.902	9743.12
719.246	9793.51
719.589	9686.85
719.932	9755.77
720.275	9726.85
720.617	9661.99
720.96	9666.74
721.303	9608.66
721.646	9678.71
721.989	9646.4
722.331	9628.09
722.674	9637.81
723.016	9644.14
723.359	9559.17
723.701	9614.08
724.044	9595.1
724.386	9586.06
724.729	9499.74
725.071	9611.15
725.413	9553.29
725.755	9546.97
726.097	9551.94
726.439	9426.97
726.782	9506.06
727.124	9523.46
727.465	9516.01
727.807	9502.67
728.149	9529.11
728.491	9454.54
728.833	9428.1
729.175	9486.18
729.516	9449.12
729.858	9406.63
730.199	9471.94
730.541	9412.51
730.882	9426.74
731.224	9434.43
731.565	9429.46
731.906	9363.47
732.248	9423.81
732.589	9379.29
732.93	9428.1
733.271	9432.17
733.612	9403.02
733.953	9447.08
734.294	9443.01
734.635	9377.71
734.976	9428.78
735.317	9349.91
735.658	9410.47
735.999	9341.55
736.339	9378.61
736.68	9349.23
737.021	9473.97
737.361	9438.49
737.702	9376.58
738.042	9483.01
738.383	9409.12
738.723	9433.3
739.063	9384.71
739.404	9400.3
739.744	9405.5
740.084	9452.28
740.424	9455.9
740.764	9382.45
741.104	9530.7
741.444	9442.34
741.784	9417.48
742.124	9467.65
742.464	9527.08
742.804	9606.4
743.143	9518.49
743.483	9610.02
743.823	9477.36
744.162	9517.14
744.502	9632.61
744.841	9628.77
745.181	9750.8
745.52	9646.62
745.86	9738.37
746.199	9802.78
746.538	9783.8
746.877	9918.93
747.216	9904.02
747.556	9924.81
747.895	9993.28
748.234	9953.96
748.573	10018.37
748.911	10146.95
749.25	10172.03
749.589	10236.67
749.928	10309.43
750.267	10426.27
750.605	10371.8
750.944	10464.46
751.283	10595.07
751.621	10671.68
751.96	10667.16
752.298	10774.73
752.636	10920.26
752.975	11004.33
753.313	11119.81
753.651	11270.54
753.989	11335.85
754.327	11380.14
754.666	11589.17
755.004	11689.96
755.342	11787.36
755.679	11996.17
756.017	11990.52
756.355	12364.29
756.693	12302.6
757.031	12541.92
757.368	12610.84
757.706	12806.09
758.044	12955.46
758.381	13145.74
758.719	13315
759.056	13423.02
759.394	13567.2
759.731	13688.78
760.068	13865.72
760.405	13995.89
760.743	14136.22
761.08	14266.16
761.417	14467.52
761.754	14724.91
762.091	14859.6
762.428	14990.44
762.765	15097.33
763.102	15362.41
763.438	15505.91
763.775	15666.13
764.112	15849.85
764.449	16082.16
764.785	16146.12
765.122	16255.26
765.458	16364.64
765.795	16684.86
766.131	16756.95
766.467	16957.39
766.804	17080.78
767.14	17154.68
767.476	17365.97
767.812	17477.15
768.148	17647.77
768.485	17664.95
768.821	17849.12
769.157	17945.39
769.492	18156.68
769.828	18372.27
770.164	18265.16
770.5	18373.4
770.836	18588.08
771.171	18533.4
771.507	18651.36
771.842	18727.52
772.178	18948.98
772.513	18973.84
772.849	18989.2
773.184	19004.12
773.519	19235.07
773.855	19246.6
774.19	19353.49
774.525	19378.35
774.86	19550.55
775.195	19543.31
775.53	19605.69
775.865	19612.69
776.2	19567.27
776.535	19624.44
776.87	19700.6
777.205	19653.37
777.539	19687.26
777.874	19829.63
778.209	19828.28
778.543	19817.88
778.878	19802.74
779.212	19943.98
779.547	19814.27
779.881	20009.06
780.215	19911.67
780.55	20070.76
780.884	19868.28
781.218	19970.65
781.552	20029.63
781.886	19970.87
782.22	19997.31
782.554	19932.46
782.888	19820.82
783.222	19832.8
783.556	19850.2
783.889	19728.39
784.223	19758.68
784.557	19648.4
784.89	19835.74
785.224	19619.47
785.557	19679.81
785.891	19676.19
786.224	19734.72
786.558	19726.81
786.891	19545.12
787.224	19547.61
787.557	19580.15
787.891	19616.76
788.224	19512.81
788.557	19549.87
788.89	19559.58
789.223	19520.72
789.556	19455.63
789.888	19401.85
790.221	19405.01
790.554	19338.12
790.887	19253.6
791.219	19315.75
791.552	19213.38
791.884	19106.04
792.217	19156.66
792.549	19197.11
792.882	18955.53
793.214	18998.24
793.546	19068.3
793.879	18993.72
794.211	18847.74
794.543	18983.33
794.875	18974.52
795.207	18890
795.539	18776.33
795.871	18885.25
796.203	18665.37
796.535	18682.09
796.867	18709.66
797.198	18585.6
797.53	18623.56
797.862	18510.12
798.193	18498.82
798.525	18353.51
798.856	18405.72
799.188	18273.52
799.519	18206.85
799.85	18165.72
800.182	18182.9
800.513	18080.53
800.844	18070.36
801.175	18192.16
801.506	18078.95
801.837	18056.8
802.168	17954.43
802.499	17880.31
802.83	17879.18
803.161	17795.79
803.491	17810.93
803.822	17736.58
804.153	17675.57
804.483	17586.53
804.814	17541.33
805.145	17529.13
805.475	17520.77
805.805	17447.78
806.136	17402.81
806.466	17506.98
806.796	17482.13
807.126	17360.77
807.457	17278.29
807.787	17245.3
808.117	17275.8
808.447	17139.08
808.777	17194.22
809.107	17124.39
809.436	17101.34
809.766	17052.31
810.096	16920.11
810.426	17012.76
810.755	16983.16
811.085	16953.33
811.414	16911.97
811.744	16804.18
812.073	16746.55
812.403	16801.69
812.732	16707
813.061	16684.18
813.39	16626.1
813.719	16602.15
814.049	16716.72
814.378	16563.51
814.707	16525.54
815.036	16472.66
815.365	16422.94
815.693	16291.87
816.022	16311.31
816.351	16260.69
816.68	16162.39
817.008	16251.65
817.337	16116.96
817.665	16039.68
817.994	16156.28
818.322	16103.18
818.651	15961.49
818.979	16017.53
819.307	16078.32
819.636	16020.24
819.964	15880.13
820.292	16055.5
820.62	16057.98
820.948	15895.95
821.276	15981.37
821.604	15888.95
821.932	15957.19
822.259	15986.35
822.587	15896.4
822.915	15818.67
823.243	15915.84
823.57	15834.03
823.898	15888.95
824.225	15847.59
824.553	15803.75
824.88	15816.18
825.207	15897.31
825.535	15808.04
825.862	15860.25
826.189	15764.43
826.516	15933.01
826.843	15965.55
827.17	15919
827.497	15992.9
827.824	15912
828.151	15981.83
828.478	15888.27
828.805	15936.18
829.131	15967.14
829.458	15939.34
829.785	15905.22
830.111	15874.48
830.438	15949.28
830.764	15919.91
831.09	15911.54
831.417	15847.14
831.743	15900.47
832.069	15931.66
832.395	15815.95
832.722	15853.69
833.048	15838.78
833.374	15815.95
833.7	15790.42
834.026	15803.75
834.351	15751.78
834.677	15843.3
835.003	15798.55
835.329	15835.39
835.654	15808.5
835.98	15742.51
836.306	15799.91
836.631	15743.64
836.956	15665.68
837.282	15693.02
837.607	15618.45
837.932	15690.99
838.258	15554.27
838.583	15586.81
838.908	15455.74
839.233	15454.16
839.558	15553.81
839.883	15400.82
840.208	15406.7
840.533	15334.61
840.858	15355.4
841.182	15427.94
841.507	15406.47
841.832	15241.05
842.156	15285.12
842.481	15222.07
842.805	15203.54
843.13	15102.75
843.454	15116.99
843.778	15085.8
844.103	15002.87
844.427	14940.27
844.751	15039.03
845.075	15003.32
845.399	14896.2
845.723	14865.47
846.047	14845.81
846.371	14697.11
846.695	14672.03
847.019	14576.89
847.343	14642.2
847.666	14441.08
847.99	14457.57
848.313	14433.39
848.637	14347.52
848.96	14257.58
849.284	14248.09
849.607	14214.64
849.931	14115.21
850.254	14044.93
850.577	13873.18
850.9	13854.65
851.223	13777.59
851.546	13821.88
851.869	13715.44
852.192	13773.07
852.515	13645.84
852.838	13643.36
853.161	13607.88
853.483	13552.28
853.806	13426.41
854.129	13486.07
854.451	13404.04
854.774	13303.93
855.096	13319.3
855.419	13229.81
855.741	13146.65
856.063	13196.14
856.385	13064.84
856.708	13072.52
857.03	13027.33
857.352	12969.25
857.674	13011.73
857.996	12963.83
858.318	12894.68
858.64	12804.28
858.961	12811.74
859.283	12790.05
859.605	12685.87
859.926	12759.09
860.248	12675.47
860.57	12666.66
860.891	12704.62
861.212	12580.11
861.534	12554.57
861.855	12527
862.176	12628.69
862.498	12524.52
862.819	12564.51
863.14	12431.86
863.461	12505.76
863.782	12369.27
864.103	12427.34
864.424	12342.83
864.745	12359.55
865.065	12305.31
865.386	12216.95
865.707	12241.36
866.027	12263.73
866.348	12188.7
866.668	12176.73
866.989	12190.06
867.309	12073.45
867.63	12066.22
867.95	12175.6
868.27	12020.35
868.59	12038.88
868.91	11981.93
869.23	11975.38
869.55	11954.59
869.87	12016.73
870.19	11998.88
870.51	11988.48
870.83	11891.09
871.15	11886.11
871.469	11856.06
871.789	11887.24
872.109	11811.54
872.428	11796.4
872.748	11876.85
873.067	11768.6
873.386	11786.46
873.706	11688.61
874.025	11744.65
874.344	11660.58
874.663	11638.66
874.982	11643.86
875.301	11636.4
875.62	11599.34
875.939	11586.23
876.258	11566.8
876.577	11567.25
876.896	11590.98
877.214	11543.98
877.533	11540.81
877.852	11497.42
878.17	11582.17
878.489	11487.93
878.807	11507.14
879.125	11420.14
879.444	11437.31
879.762	11346.92
880.08	11412.45
880.398	11286.81
880.716	11385.11
881.034	11289.07
881.352	11268.96
881.67	11304.66
881.988	11324.32
882.306	11260.37
882.624	11160.71
882.941	11177.21
883.259	11026.93
883.577	11078.9
883.894	11052.92
884.212	11098.11
884.529	11063.31
884.846	10980.38
885.164	10976.53
885.481	10967.72
885.798	10924.11
886.115	10845.92
886.432	10833.49
886.75	10794.39
887.067	10849.76
887.383	10764.79
887.7	10781.28
888.017	10798.23
888.334	10785.35
888.651	10668.52
888.967	10651.8
889.284	10681.63
889.6	10611.8
889.917	10552.14
890.233	10555.75
890.55	10534.74
890.866	10500.39
891.182	10466.72
891.498	10398.47
891.815	10386.72
892.131	10317.34
892.447	10347.4
892.763	10345.14
893.079	10207.06
893.395	10200.73
893.71	10208.87
894.026	10215.42
894.342	10164.58
894.657	10071.47
894.973	10075.09
895.289	10044.58
895.604	10040.51
895.92	9956.22
896.235	9871.48
896.55	9934.3
896.865	9884.13
897.181	9904.92
897.496	9841.65
897.811	9752.16
898.126	9813.85
898.441	9706.51
898.756	9692.5
899.071	9621.99
899.386	9622.67
899.7	9539.51
900.015	9541.32
900.33	9439.4
900.644	9419.96
900.959	9447.08
901.273	9411.15
901.588	9301.78
901.902	9361.66
902.216	9230.59
902.531	9342.68
902.845	9260.19
903.159	9149.46
903.473	9135
903.787	9090.48
904.101	9032.4
904.415	9031.05
904.729	9005.29
905.042	8953.99
905.356	8943.82
905.67	8920.77
905.984	8891.16
906.297	8829.25
906.611	8767.33
906.924	8803.48
907.237	8770.49
907.551	8762.35
907.864	8666.54
908.177	8634.9
908.491	8646.2
908.804	8557.84
909.117	8507.45
909.43	8457.73
909.743	8415.24
910.056	8370.05
910.368	8370.5
910.681	8380.9
910.994	8381.57
911.307	8294.34
911.619	8262.93
911.932	8202.37
912.244	8173.67
912.557	8048.02
912.869	8099.09
913.181	8078.53
913.494	8074.91
913.806	7990.17
914.118	7987.91
914.43	7973.9
914.742	7907.91
915.054	7919.21
915.366	7835.6
915.678	7891.87
915.99	7844.64
916.302	7714.47
916.613	7726.45
916.925	7705.88
917.236	7693.68
917.548	7622.27
917.859	7585.44
918.171	7556.51
918.482	7555.38
918.794	7519.9
919.105	7519.68
919.416	7467.93
919.727	7413.24
920.038	7371.2
920.349	7372.11
920.66	7321.71
920.971	7305.22
921.282	7285.33
921.593	7180.25
921.903	7181.6
922.214	7140.02
922.525	7112.68
922.835	7148.16
923.146	7057.77
923.456	7064.55
923.767	7034.72
924.077	7021.61
924.387	6972.12
924.697	6936.87
925.008	6925.57
925.318	6924.89
925.628	6909.52
925.938	6868.17
926.248	6791.33
926.558	6739.13
926.867	6812.12
927.177	6692.58
927.487	6660.71
927.796	6627.95
928.106	6640.6
928.416	6566.93
928.725	6540.94
929.034	6544.11
929.344	6498.01
929.653	6513.6
929.962	6432.7
930.271	6399.03
930.581	6437.22
930.89	6349.54
931.199	6371.91
931.508	6356.09
931.817	6354.28
932.125	6247.17
932.434	6232.7
932.743	6219.37
933.051	6229.99
933.36	6161.07
933.669	6164.23
933.977	6075.42
934.286	6142.31
934.594	6098.47
934.902	6026.38
935.21	5981.41
935.519	6008.53
935.827	5977.79
936.135	5972.37
936.443	5923.11
936.751	5912.71
937.059	5822.54
937.367	5852.37
937.674	5816.67
937.982	5782.32
938.29	5756.78
938.597	5759.95
938.905	5715.43
939.213	5666.16
939.52	5646.05
939.827	5713.62
940.135	5632.04
940.442	5636.79
940.749	5585.26
941.056	5603.57
941.363	5525.38
941.67	5477.47
941.977	5510.69
942.284	5460.52
942.591	5397.92
942.898	5436.11
943.205	5390.47
943.511	5405.83
943.818	5378.04
944.125	5342.78
944.431	5298.94
944.738	5307.76
945.044	5228.44
945.35	5156.57
945.657	5179.85
945.963	5180.08
946.269	5139.62
946.575	5136.46
946.881	5106.86
947.187	5112.73
947.493	5096.24
947.799	5012.17
948.105	4987.99
948.41	5015.11
948.716	4954.54
949.022	5026.41
949.327	4979.63
949.633	4909.57
949.938	4917.71
950.244	4918.39
950.549	4828.45
950.854	4809.46
951.16	4824.38
951.465	4819.41
951.77	4792.97
952.075	4767.66
952.38	4713.42
952.685	4711.16
952.99	4694.66
953.294	4663.71
953.599	4640.65
953.904	4658.06
954.209	4585.06
954.513	4643.14
954.818	4609.47
955.122	4539.64
955.426	4525.18
955.731	4500.09
956.035	4493.09
956.339	4493.99
956.643	4447.89
956.948	4425.29
957.252	4411.28
957.556	4400.44
957.86	4342.81
958.163	4387.1
958.467	4358.4
958.771	4282.47
959.075	4314.11
959.378	4307.56
959.682	4247.67
959.985	4285.86
960.289	4295.35
960.592	4202.25
960.896	4158.41
961.199	4161.35
961.502	4209.25
961.805	4168.58
962.108	4145.3
962.411	4109.6
962.714	4069.82
963.017	4052.2
963.32	4079.09
963.623	4049.48
963.926	3986.66
964.228	3974.91
964.531	3987.34
964.833	4004.97
965.136	3918.41
965.438	3898.3
965.741	3891.07
966.043	3894.23
966.345	3854.69
966.648	3858.08
966.95	3837.51
967.252	3820.11
967.554	3803.16
967.856	3770.85
968.158	3759.1
968.46	3722.94
968.761	3756.84
969.063	3707.12
969.365	3704.86
969.666	3692.88
969.968	3675.93
970.269	3642.71
970.571	3637.29
970.872	3645.65
971.174	3581.93
971.475	3643.84
971.776	3625.99
972.077	3555.94
972.378	3556.84
972.679	3535.83
972.98	3537.63
973.281	3511.19
973.582	3487.46
973.883	3514.13
974.183	3464.41
974.484	3442.27
974.785	3409.5
975.085	3454.02
975.386	3426.68
975.686	3428.48
975.986	3365.21
976.287	3360.91
976.587	3337.19
976.887	3347.81
977.187	3301.03
977.487	3306.45
977.787	3282.72
978.087	3261.48
978.387	3279.11
978.687	3232.56
978.987	3242.5
979.286	3223.97
979.586	3195.04
979.885	3179
980.185	3151.88
980.484	3166.34
980.784	3146.23
981.083	3105.33
981.382	3110.53
981.682	3079.11
981.981	3082.96
982.28	3042.5
982.579	3018.32
982.878	3094.71
983.177	3031.21
983.475	3054.03
983.774	3008.83
984.073	2992.34
984.372	2975.61
984.67	2955.5
984.969	2950.53
985.267	2928.16
985.566	2900.14
985.864	2944.43
986.162	2876.63
986.461	2902.62
986.759	2861.04
987.057	2850.19
987.355	2837.99
987.653	2830.98
987.951	2815.84
988.249	2790.99
988.547	2786.92
988.844	2757.99
989.142	2790.53
989.44	2709.86
989.737	2742.85
990.035	2716.64
990.332	2717.54
990.63	2675.96
990.927	2669.86
991.224	2673.25
991.521	2645.45
991.819	2644.32
992.116	2648.16
992.413	2637.32
992.71	2623.98
993.006	2598.45
993.303	2599.8
993.6	2567.71
993.897	2575.17
994.193	2536.08
994.49	2514.16
994.787	2529.07
995.083	2513.03
995.379	2493.37
995.676	2489.75
995.972	2493.59
996.268	2446.14
996.565	2458.79
996.861	2454.95
997.157	2421.05
997.453	2405.91
997.749	2406.59
998.044	2376.99
998.34	2356.2
998.636	2364.78
998.932	2378.12
999.227	2356.42
999.523	2346.93
999.818	2336.53
1000.114	2297.89
1000.409	2280.26
1000.704	2297.67
1001	2289.76
1001.295	2276.42
1001.59	2245.24
1001.885	2216.31
1002.18	2222.19
1002.475	2228.06
1002.77	2181.74
1003.065	2203.43
1003.359	2188.97
1003.654	2174.5
1003.949	2129.08
1004.243	2157.1
1004.538	2100.38
1004.832	2096.54
1005.127	2100.38
1005.421	2106.71
1005.715	2054.73
1006.009	2056.09
1006.304	2044.56
1006.598	2012.25
1006.892	2025.81
1007.186	1977.22
1007.48	2025.58
1007.773	1993.27
1008.067	1982.65
1008.361	1984.23
1008.655	1941.97
1008.948	1949.2
1009.242	1955.75
1009.535	1933.16
1009.829	1927.28
1010.122	1892.7
1010.415	1892.03
1010.708	1926.38
1011.001	1831.24
1011.295	1853.38
1011.588	1837.79
1011.881	1820.39
1012.173	1816.1
1012.466	1835.76
1012.759	1788.07
1013.052	1808.64
1013.344	1776.55
1013.637	1755.31
1013.93	1755.08
1014.222	1741.75
1014.514	1742.2
1014.807	1752.37
1015.099	1693.61
1015.391	1739.94
1015.683	1693.84
1015.976	1681.41
1016.268	1678.7
1016.56	1684.12
1016.851	1668.53
1017.143	1640.06
1017.435	1651.81
1017.727	1633.5
1018.018	1619.72
1018.31	1583.11
1018.602	1612.71
1018.893	1596.89
1019.185	1566.16
1019.476	1590.57
1019.767	1593.5
1020.058	1525.93
1020.35	1522.77
1020.641	1503.56
1020.932	1518.03
1021.223	1496.78
1021.514	1516.44
1021.804	1493.62
1022.095	1475.31
1022.386	1467.4
1022.677	1482.55
1022.967	1442.32
1023.258	1436.45
1023.548	1454.07
1023.839	1430.57
1024.129	1425.15
1024.419	1422.21
1024.709	1408.2
1025	1364.36
1025.29	1398.03
1025.58	1341.08
1025.87	1338.14
1026.16	1353.74
1026.449	1344.92
1026.739	1334.53
1027.029	1309.67
1027.319	1297.69
1027.608	1328.88
1027.898	1297.24
1028.187	1297.01
1028.477	1248.43
1028.766	1273.29
1029.055	1253.4
1029.344	1283.91
1029.634	1243.91
1029.923	1242.33
1030.212	1241.42
1030.501	1250.46
1030.79	1241.65
1031.078	1223.57
1031.367	1190.12
1031.656	1213.17
1031.945	1190.12
1032.233	1166.4
1032.522	1168.2
1032.81	1157.58
1033.099	1140.63
1033.387	1154.42
1033.675	1111.93
1033.963	1117.36
1034.251	1122.78
1034.54	1105.61
1034.828	1082.33
1035.116	1109.45
1035.403	1125.94
1035.691	1088.88
1035.979	1127.07
1036.267	1078.49
1036.554	1065.16
1036.842	1080.3
1037.129	1049.11
1037.417	1011.6
1037.704	1036
1037.992	1023.57
1038.279	1043.46
1038.566	1003.01
1038.853	1003.01
1039.14	1003.01
