Data from hue_170_FLMS001491_00001.txt Node
Date: Tue Feb 07 16:48:09 GMT 2017
User: dcchb
Spectrometer: FLMS00149
Trigger mode: 0
Integration Time (sec): 2.000000E-2
Scans to average: 10
Electric dark correction enabled: true
Nonlinearity correction enabled: false
Boxcar width: 0
XAxis mode: Wavelengths
Number of Pixels in Spectrum: 2048
>>>>>Begin Spectral Data<<<<<
341.393	-25.15
341.776	-25.15
342.16	-25.15
342.543	-58.37
342.927	-79.39
343.31	-51.14
343.693	-87.75
344.077	-55.21
344.46	-76.68
344.843	-57.7
345.226	-36.23
345.61	-31.93
345.993	-22.44
346.376	-7.75
346.759	14.84
347.142	28.63
347.525	27.27
347.908	69.98
348.291	88.06
348.674	83.09
349.057	114.95
349.44	128.06
349.823	150.43
350.206	159.02
350.588	195.86
350.971	214.61
351.354	224.33
351.737	229.08
352.119	240.15
352.502	248.51
352.884	272.92
353.267	293.71
353.65	287.15
354.032	301.62
354.414	299.81
354.797	312.92
355.179	326.7
355.562	314.72
355.944	327.15
356.326	316.98
356.709	323.08
357.091	328.51
357.473	349.3
357.855	331.22
358.238	364.89
358.62	333.03
359.002	327.38
359.384	327.38
359.766	339.36
360.148	342.97
360.53	358.79
360.912	329.86
361.294	312.01
361.676	324.44
362.057	335.29
362.439	325.8
362.821	323.08
363.203	323.31
363.584	326.25
363.966	326.93
364.348	316.31
364.729	299.13
365.111	308.17
365.493	309.75
365.874	339.36
366.256	301.16
366.637	301.84
367.019	316.08
367.4	334.38
367.781	321.95
368.163	309.75
368.544	307.27
368.925	307.27
369.306	308.4
369.688	315.85
370.069	322.41
370.45	309.3
370.831	327.6
371.212	335.51
371.593	301.39
371.974	317.44
372.355	295.97
372.736	328.51
373.117	313.37
373.498	321.73
373.879	321.73
374.26	327.38
374.641	309.07
375.021	314.95
375.402	321.28
375.783	322.18
376.163	328.96
376.544	328.73
376.925	329.64
377.305	328.96
377.686	315.18
378.066	337.77
378.447	334.38
378.827	345.46
379.208	350.88
379.588	334.61
379.968	315.85
380.349	333.93
380.729	321.73
381.109	347.26
381.489	333.25
381.87	340.49
382.25	326.93
382.63	333.71
383.01	350.43
383.39	344.55
383.77	330.77
384.15	332.8
384.53	335.51
384.91	353.37
385.29	359.69
385.67	358.11
386.049	364.44
386.429	360.82
386.809	358.56
387.189	354.5
387.568	378.45
387.948	361.5
388.328	357.89
388.707	383.2
389.087	357.43
389.466	343.42
389.846	388.62
390.225	380.03
390.605	368.06
390.984	374.83
391.363	370.77
391.743	382.97
392.122	369.19
392.501	379.35
392.881	374.38
393.26	375.74
393.639	390.88
394.018	389.75
394.397	389.07
394.776	378.22
395.155	388.85
395.534	390.2
395.913	390.65
396.292	392.24
396.671	409.41
397.05	419.81
397.429	378.45
397.808	406.02
398.186	401.5
398.565	377.55
398.944	397.66
399.323	386.81
399.701	405.79
400.08	412.8
400.458	416.19
400.837	446.25
401.215	414.16
401.594	402.63
401.972	422.97
402.351	420.03
402.729	422.97
403.107	426.81
403.486	426.36
403.864	432.46
404.242	422.07
404.62	432.46
404.999	447.83
405.377	421.61
405.755	452.8
406.133	446.47
406.511	439.69
406.889	446.25
407.267	454.15
407.645	470.88
408.023	468.17
408.401	483.53
408.779	480.14
409.156	481.27
409.534	488.73
409.912	492.8
410.29	476.3
410.667	495.51
411.045	505
411.422	480.82
411.8	494.61
412.178	495.06
412.555	518.33
412.933	522.4
413.31	530.31
413.687	533.93
414.065	543.87
414.442	553.81
414.819	566.92
415.197	568.95
415.574	555.17
415.951	556.07
416.328	580.71
416.705	586.81
417.082	566.69
417.46	588.61
417.837	595.17
418.214	583.19
418.591	578.22
418.967	614.38
419.344	604.89
419.721	607.15
420.098	610.31
420.475	622.06
420.852	641.04
421.228	624.55
421.605	641.49
421.982	651.21
422.358	637.65
422.735	665.9
423.111	666.8
423.488	676.52
423.864	671.78
424.241	702.06
424.617	674.94
424.994	677.2
425.37	712.68
425.746	690.53
426.123	727.59
426.499	709.52
426.875	712.45
427.251	761.94
427.627	755.84
428.003	761.27
428.379	782.06
428.756	769.4
429.132	790.19
429.507	781.83
429.883	801.04
430.259	812.11
430.635	816.41
431.011	817.76
431.387	829.74
431.763	862.51
432.138	855.73
432.514	865.22
432.89	870.87
433.265	896.4
433.641	893.47
434.016	895.27
434.392	929.17
434.767	916.29
435.143	946.8
435.518	953.8
435.894	962.62
436.269	973.69
436.644	972.11
437.02	1008.04
437.395	984.99
437.77	1006
438.145	1018.43
438.52	1039.9
438.895	1057.53
439.271	1074.03
439.646	1081.71
440.021	1082.61
440.395	1111.09
440.77	1086
441.145	1084.19
441.52	1140.46
441.895	1124.87
442.27	1149.5
442.645	1142.95
443.019	1155.61
443.394	1148.15
443.769	1163.29
444.143	1178.66
444.518	1193.12
444.892	1198.09
445.267	1189.95
445.641	1206.9
446.016	1241.7
446.39	1229.95
446.764	1257.75
447.139	1253
447.513	1267.47
447.887	1253.23
448.262	1294.36
448.636	1259.33
449.01	1299.33
449.384	1307.47
449.758	1324.41
450.132	1337.52
450.506	1348.14
450.88	1340.91
451.254	1362.83
451.628	1397.18
452.002	1408.48
452.376	1383.17
452.75	1422.26
453.123	1439.21
453.497	1441.93
453.871	1450.74
454.244	1495.48
454.618	1513.56
454.992	1512.66
455.365	1528.25
455.739	1536.84
456.112	1561.24
456.486	1572.77
456.859	1630.39
457.232	1649.83
457.606	1646.21
457.979	1657.06
458.352	1688.02
458.725	1719.88
459.099	1745.42
459.472	1771.86
459.845	1767.11
460.218	1809.15
460.591	1816.15
460.964	1819.09
461.337	1884.85
461.71	1902.03
462.083	1922.36
462.456	1923.49
462.829	1952.42
463.201	1992.87
463.574	2011.18
463.947	2045.07
464.32	2115.13
464.692	2080.78
465.065	2117.16
465.438	2136.14
465.81	2216.37
466.183	2216.14
466.555	2267.89
466.928	2259.53
467.3	2270.15
467.672	2330.72
468.045	2409.81
468.417	2399.19
468.789	2432.18
469.161	2472.86
469.534	2525.96
469.906	2614.78
470.278	2604.61
470.65	2686.86
471.022	2751.5
471.394	2802.79
471.766	2796.47
472.138	2879.63
472.51	2940.42
472.882	2989.91
473.253	3038.04
473.625	3092.28
473.997	3131.37
474.369	3209.56
474.74	3297.92
475.112	3338.6
475.484	3383.34
475.855	3475.32
476.227	3524.36
476.598	3653.62
476.97	3702.43
477.341	3782.43
477.713	3872.82
478.084	3892.93
478.455	4049.09
478.827	4137
479.198	4277.33
479.569	4309.42
479.94	4416.08
480.311	4538.57
480.682	4593.71
481.053	4779.69
481.424	4880.25
481.795	4910.76
482.166	5058.1
482.537	5209.74
482.908	5294.48
483.279	5423.06
483.65	5518.43
484.021	5645.43
484.391	5778.53
484.762	5809.72
485.133	5974.46
485.503	6083.61
485.874	6298.75
486.244	6337.84
486.615	6492.19
486.985	6610.83
487.356	6744.16
487.726	6921.1
488.097	7112.96
488.467	7063.02
488.837	7307.08
489.207	7460.98
489.578	7557.92
489.948	7728.54
490.318	7903.22
490.688	7973.28
491.058	8178.92
491.428	8293.04
491.798	8414.4
492.168	8606.71
492.538	8680.83
492.908	8796.53
493.278	8994.72
493.648	9037.66
494.017	9126.7
494.387	9322.4
494.757	9404.65
495.126	9563.52
495.496	9635.61
495.866	9716.96
496.235	9900.46
496.605	10012.77
496.974	10050.51
497.344	10177.06
497.713	10271.52
498.082	10295.7
498.452	10483.72
498.821	10552.19
499.19	10626.54
499.559	10805.52
499.928	10796.71
500.298	10909.93
500.667	11071.05
501.036	11085.29
501.405	11152.63
501.774	11220.88
502.143	11407.09
502.512	11362.57
502.88	11482.34
503.249	11534.54
503.618	11559.63
503.987	11629.23
504.356	11766.4
504.724	11836.45
505.093	11843.91
505.462	11956.45
505.83	12028.99
506.199	12097.69
506.567	12207.07
506.936	12227.18
507.304	12335.65
507.672	12390.34
508.041	12414.74
508.409	12506.95
508.777	12589.43
509.145	12613.84
509.514	12632.14
509.882	12749.42
510.25	12783.1
510.618	12803.66
510.986	12844.79
511.354	13015.86
511.722	13068.74
512.09	13106.25
512.458	13086.36
512.826	13172.92
513.193	13185.8
513.561	13169.75
513.929	13231.9
514.297	13394.38
514.664	13407.03
515.032	13452.23
515.4	13529.07
515.767	13526.81
516.135	13458.78
516.502	13394.15
516.869	13603.64
517.237	13606.35
517.604	13536.97
517.972	13710.53
518.339	13696.74
518.706	13774.48
519.073	13717.31
519.44	13795.95
519.808	13862.62
520.175	13811.09
520.542	13959.11
520.909	13918.66
521.276	13914.37
521.643	13993.23
522.009	14017.19
522.376	14017.19
522.743	14090.63
523.11	14154.59
523.477	14218.09
523.843	14354.58
524.21	14307.8
524.577	14355.26
524.943	14350.96
525.31	14338.08
525.676	14489.72
526.043	14512.09
526.409	14426.89
526.776	14509.83
527.142	14540.79
527.508	14584.86
527.874	14661.01
528.241	14612.88
528.607	14571.07
528.973	14606.32
529.339	14534.24
529.705	14585.76
530.071	14638.41
530.437	14583.95
530.803	14612.43
531.169	14700.79
531.535	14563.61
531.901	14520
532.267	14439.55
532.632	14599.77
532.998	14532.65
533.364	14536.72
533.73	14566.33
534.095	14514.35
534.461	14594.35
534.826	14580.79
535.192	14490.85
535.557	14641.8
535.923	14438.87
536.288	14526.1
536.653	14494.92
537.019	14348.7
537.384	14361.36
537.749	14435.71
538.114	14336.95
538.479	14242.94
538.845	14298.08
539.21	14216.28
539.575	14251.53
539.94	14125.66
540.305	14121.82
540.67	14040.01
541.034	14031.42
541.399	14024.19
541.764	13993.46
542.129	13973.8
542.494	13904.65
542.858	13801.37
543.223	13804.99
543.587	13912.56
543.952	13757.53
544.316	13794.14
544.681	13750.75
545.045	13654.71
545.41	13676.41
545.774	13613.36
546.138	13560.02
546.503	13547.37
546.867	13542.62
547.231	13534.26
547.595	13450.2
547.959	13523.19
548.324	13398.22
548.688	13388.73
549.052	13324.32
549.416	13268.51
549.779	13247.72
550.143	13193.25
550.507	13242.97
550.871	13155.97
551.235	13026.93
551.599	13158
551.962	13010.89
552.326	12966.59
552.689	13088.17
553.053	12925.69
553.417	12838.46
553.78	13028.97
554.143	12891.34
554.507	12847.05
554.87	12863.32
555.234	12914.62
555.597	12791.68
555.96	12755.53
556.323	12821.06
556.686	12698.58
557.05	12727.96
557.413	12708.52
557.776	12702.65
558.139	12790.33
558.502	12713.27
558.865	12691.35
559.228	12739.26
559.59	12665.59
559.953	12694.96
560.316	12808.63
560.679	12583.1
561.041	12767.5
561.404	12702.42
561.767	12685.92
562.129	12626.72
562.492	12692.7
562.854	12714.62
563.217	12574.06
563.579	12672.59
563.941	12671.69
564.304	12646.6
564.666	12682.76
565.028	12675.98
565.39	12706.26
565.753	12717.11
566.115	12652.93
566.477	12711.46
566.839	12752.81
567.201	12796.66
567.563	12751.23
567.925	12760.5
568.287	12783.77
568.648	12812.7
569.01	12790.55
569.372	12831.91
569.734	12793.27
570.095	12764.34
570.457	12821.74
570.819	12780.16
571.18	12816.32
571.542	12890.89
571.903	12869.42
572.265	12888.63
572.626	12924.79
572.987	12863.32
573.349	12925.47
573.71	12937.22
574.071	12873.49
574.432	12932.02
574.794	12961.17
575.155	12952.58
575.516	12942.19
575.877	13045.24
576.238	12989.87
576.599	13034.39
576.96	12969.08
577.32	13033.71
577.681	12974.73
578.042	13018.57
578.403	12915.3
578.763	12929.53
579.124	13044.78
579.485	13038.91
579.845	13007.5
580.206	13005.01
580.566	13042.07
580.927	13016.08
581.287	12987.61
581.648	12887.73
582.008	13017.89
582.368	12992.58
582.728	12891.12
583.089	13037.1
583.449	12913.94
583.809	12948.52
584.169	12834.39
584.529	12857.22
584.889	12891.34
585.249	12875.3
585.609	12854.05
585.969	12861.06
586.329	12824.68
586.688	12876.65
587.048	12816.99
587.408	12734.51
587.768	12824.9
588.127	12750.1
588.487	12743.32
588.846	12855.86
589.206	12779.71
589.565	12710.56
589.925	12789.88
590.284	12765.92
590.643	12753.49
591.003	12775.64
591.362	12854.05
591.721	12706.71
592.08	12664
592.44	12770.22
592.799	12722.31
593.158	12658.58
593.517	12701.74
593.876	12668.75
594.235	12646.15
594.593	12705.81
594.952	12645.02
595.311	12518.02
595.67	12645.92
596.029	12657
596.387	12674.85
596.746	12664
597.104	12661.74
597.463	12615.19
597.822	12661.52
598.18	12645.92
598.538	12609.99
598.897	12626.49
599.255	12491.58
599.613	12737.67
599.972	12648.86
600.33	12617.9
600.688	12573.61
601.046	12663.33
601.404	12574.51
601.762	12548.3
602.12	12712.82
602.478	12595.98
602.836	12624.23
603.194	12537.45
603.552	12619.71
603.91	12588.07
604.268	12656.09
604.625	12572.48
604.983	12628.3
605.341	12536.77
605.698	12624.68
606.056	12644.34
606.413	12581.29
606.771	12652.7
607.128	12672.14
607.485	12545.59
607.843	12582.65
608.2	12611.12
608.557	12732.48
608.914	12628.98
609.272	12741.97
609.629	12697.67
609.986	12754.4
610.343	12667.62
610.7	12807.05
611.057	12657
611.414	12696.09
611.771	12715.3
612.127	12759.37
612.484	12733.61
612.841	12786.71
613.198	12785.36
613.554	12760.27
613.911	12715.53
614.267	12808.18
614.624	12776.77
614.98	12808.63
615.337	12824.22
615.693	12841.4
616.05	12824.68
616.406	12819.03
616.762	12827.61
617.118	12791.01
617.475	12854.96
617.831	12848.41
618.187	12835.3
618.543	12927.73
618.899	12963.66
619.255	12920.04
619.611	12882.08
619.967	12939.7
620.323	12890.66
620.678	12955.75
621.034	12911.23
621.39	12906.93
621.746	12879.14
622.101	13018.34
622.457	12855.64
622.812	12934.96
623.168	12960.94
623.523	12978.8
623.879	12992.58
624.234	12869.65
624.589	12885.92
624.945	12940.61
625.3	12911.68
625.655	12901.51
626.01	12968.4
626.365	12924.56
626.72	12907.84
627.075	12849.76
627.43	12910.55
627.785	12845.92
628.14	12921.4
628.495	12846.37
628.85	12911.91
629.205	12840.95
629.559	12946.93
629.914	12818.35
630.269	12831.23
630.623	12779.71
630.978	12752.81
631.332	12834.85
631.687	12819.03
632.041	12760.95
632.396	12776.54
632.75	12704.91
633.104	12715.75
633.459	12684.79
633.813	12695.64
634.167	12734.96
634.521	12720.27
634.875	12694.74
635.229	12664.68
635.583	12585.14
635.937	12617.45
636.291	12664.23
636.645	12618.13
636.999	12626.26
637.352	12644.57
637.706	12504.23
638.06	12512.59
638.413	12566.15
638.767	12460.84
639.121	12564.34
639.474	12433.73
639.828	12412.03
640.181	12461.75
640.534	12537.9
640.888	12490.22
641.241	12427.85
641.594	12464.69
641.947	12442.09
642.301	12438.02
642.654	12398.47
643.007	12384.69
643.36	12463.1
643.713	12358.25
644.066	12353.73
644.419	12315.76
644.771	12225.6
645.124	12131.14
645.477	12123.23
645.83	11993.29
646.182	11961.2
646.535	11967.3
646.888	11958.03
647.24	11937.02
647.593	11927.98
647.945	12017.01
648.298	11904.7
648.65	11891.37
649.002	11884.59
649.355	11956.45
649.707	11918.26
650.059	11977.92
650.411	12038.03
650.763	12187.41
651.115	12139.72
651.467	12258.36
651.819	12192.6
652.171	12112.38
652.523	12139.27
652.875	12217.01
653.227	12169.33
653.578	12227.18
653.93	12191.02
654.282	12137.24
654.633	12133.17
654.985	12189.44
655.337	12270.57
655.688	12200.29
656.039	12226.95
656.391	12151.25
656.742	12155.32
657.094	12207.07
657.445	12252.26
657.796	12112.61
658.147	12235.99
658.498	12189.89
658.849	12154.86
659.2	12207.07
659.551	12159.16
659.902	12263.56
660.253	12263.56
660.604	12283.67
660.955	12168.42
661.306	12194.86
661.656	12245.03
662.007	12236.22
662.358	12283.22
662.708	12250
663.059	12261.53
663.409	12247.29
663.76	12287.29
664.11	12232.15
664.461	12303.79
664.811	12299.49
665.161	12258.59
665.511	12190.8
665.862	12179.72
666.212	12242.09
666.562	12270.79
666.912	12272.38
667.262	12320.74
667.612	12297.01
667.962	12308.53
668.312	12249.55
668.662	12321.41
669.011	12244.81
669.361	12231.47
669.711	12307.18
670.06	12261.75
670.41	12251.58
670.76	12226.27
671.109	12369.77
671.459	12216.56
671.808	12195.99
672.157	12228.08
672.507	12187.41
672.856	12151.02
673.205	12204.13
673.554	12154.41
673.904	12145.6
674.253	12207.29
674.602	12183.34
674.951	11982.67
675.3	11910.8
675.649	12134.53
675.998	12022.66
676.346	12007.07
676.695	12059.95
677.044	11979.5
677.393	12041.65
677.741	12157.8
678.09	12061.08
678.438	11993.96
678.787	11990.35
679.135	11971.59
679.484	11890.46
679.832	11867.19
680.181	11814.31
680.529	11932.27
680.877	11862.89
681.225	11800.98
681.573	11953.74
681.922	11872.39
682.27	11777.02
682.618	11773.63
682.966	11751.26
683.314	11755.78
683.661	11702.22
684.009	11592.62
684.357	11652.73
684.705	11533.19
685.053	11632.62
685.4	11534.54
685.748	11532.28
686.095	11551.72
686.443	11436.46
686.79	11468.33
687.138	11442.57
687.485	11379.52
687.832	11411.38
688.18	11394.43
688.527	11355.56
688.874	11311.72
689.221	11317.6
689.568	11260.88
689.915	11248.22
690.262	11152.63
690.609	11198.96
690.956	11145.63
691.303	11030.83
691.65	11026.31
691.997	11068.79
692.344	11004.16
692.69	10949.7
693.037	10937.49
693.383	10845.52
693.73	10831.51
694.077	10795.8
694.423	10764.84
694.769	10762.58
695.116	10717.61
695.462	10700.89
695.808	10615.24
696.155	10685.52
696.501	10551.97
696.847	10535.92
697.193	10441.24
697.539	10550.61
697.885	10446.43
698.231	10368.7
698.577	10373.22
698.923	10341.35
699.269	10276.04
699.614	10212.77
699.96	10150.4
700.306	10156.05
700.651	10154.24
700.997	10116.95
701.342	10044.86
701.688	10056.16
702.033	9972.1
702.379	10027.24
702.724	9953.34
703.069	9921.02
703.415	9874.7
703.76	9881.93
704.105	9803.97
704.45	9850.97
704.795	9693.23
705.14	9665.44
705.485	9717.87
705.83	9651.2
706.175	9699.11
706.52	9586.12
706.865	9528.04
707.209	9515.39
707.554	9505.67
707.899	9497.53
708.243	9455.5
708.588	9396.07
708.932	9349.97
709.277	9367.59
709.621	9361.04
709.966	9248.27
710.31	9271.55
710.654	9242.4
710.998	9222.29
711.342	9242.4
711.687	9164.21
712.031	9166.24
712.375	9101.16
712.719	9154.04
713.063	9082.18
713.407	9135.73
713.75	9033.82
714.094	8987.72
714.438	8975.96
714.782	9032.91
715.125	8949.52
715.469	9067.71
715.812	8932.12
716.156	8906.81
716.499	8911.79
716.843	8958.34
717.186	8883.31
717.53	8938.23
717.873	8885.57
718.216	8862.52
718.559	8809.64
718.902	8769.87
719.246	8735.29
719.589	8782.3
719.932	8714.28
720.275	8744.11
720.617	8769.19
720.96	8726.93
721.303	8728.06
721.646	8767.38
721.989	8673.15
722.331	8660.27
722.674	8659.59
723.016	8679.7
723.359	8674.28
723.701	8588.63
724.044	8657.1
724.386	8581.17
724.729	8627.27
725.071	8615.75
725.413	8579.82
725.755	8662.98
726.097	8533.04
726.439	8613.26
726.782	8505.92
727.124	8604.45
727.465	8494.85
727.807	8573.26
728.149	8557.67
728.491	8556.31
728.833	8560.61
729.175	8529.65
729.516	8520.16
729.858	8486.71
730.199	8565.13
730.541	8516.32
730.882	8553.6
731.224	8545.02
731.565	8473.15
731.906	8493.04
732.248	8467.5
732.589	8431.8
732.93	8532.81
733.271	8466.37
733.612	8492.14
733.953	8472.25
734.294	8488.29
734.635	8500.27
734.976	8510.67
735.317	8495.75
735.658	8515.86
735.999	8505.24
736.339	8489.88
736.68	8534.17
737.021	8484
737.361	8493.72
737.702	8587.27
738.042	8528.52
738.383	8545.02
738.723	8574.62
739.063	8569.65
739.404	8598.8
739.744	8540.27
740.084	8555.18
740.424	8615.07
740.764	8569.2
741.104	8632.47
741.444	8634.05
741.784	8658.23
742.124	8705.01
742.464	8693.71
742.804	8723.32
743.143	8706.59
743.483	8787.72
743.823	8712.24
744.162	8774.39
744.502	8853.71
744.841	8829.08
745.181	8796.99
745.52	8891
745.86	8956.98
746.199	8961.28
746.538	8974.38
746.877	9063.87
747.216	9177.32
747.556	9095.96
747.895	9199.91
748.234	9244.21
748.573	9227.03
748.911	9330.98
749.25	9433.58
749.589	9461.83
749.928	9556.51
750.267	9679.9
750.605	9731.2
750.944	9705.21
751.283	9892.1
751.621	9957.86
751.96	10058.2
752.298	10113.56
752.636	10221.36
752.975	10316.49
753.313	10383.61
753.651	10471.07
753.989	10594.91
754.327	10704.28
754.666	10807.55
755.004	10995.57
755.342	11080.09
755.679	11279.86
756.017	11412.28
756.355	11571.38
756.693	11601.21
757.031	11868.09
757.368	11983.57
757.706	12109.22
758.044	12181.98
758.381	12425.59
758.719	12512.59
759.056	12760.27
759.394	12887.5
759.731	13044.78
760.068	13264.44
760.405	13316.64
760.743	13507.82
761.08	13701.26
761.417	13909.85
761.754	14084.53
762.091	14215.6
762.428	14404.97
762.765	14508.93
763.102	14770.39
763.438	14867.56
763.775	14985.07
764.112	15232.3
764.449	15382.12
764.785	15563.14
765.122	15687.88
765.458	15782.57
765.795	16049.45
766.131	16188.88
766.467	16289.67
766.804	16458.03
767.14	16543.68
767.476	16867.73
767.812	16830.22
768.148	17143.89
768.485	17107.28
768.821	17277.22
769.157	17389.53
769.492	17648.5
769.828	17652.8
770.164	17703.19
770.5	17801.95
770.836	17971.89
771.171	18092.11
771.507	18099.11
771.842	18203.29
772.178	18293.46
772.513	18426.34
772.849	18523.06
773.184	18585.43
773.519	18657.52
773.855	18634.24
774.19	18727.8
774.525	18875.59
774.86	18946.1
775.195	18980.22
775.53	19011.18
775.865	19026.55
776.2	18968.7
776.535	18983.39
776.87	19008.7
777.205	19080.78
777.539	19129.6
777.874	19304.28
778.209	19237.62
778.543	19226.99
778.878	19319.65
779.212	19318.07
779.547	19182.25
779.881	19479.87
780.215	19281.68
780.55	19480.32
780.884	19317.84
781.218	19464.5
781.552	19427.89
781.886	19443.49
782.22	19389.48
782.554	19354.9
782.888	19343.38
783.222	19346.54
783.556	19325.97
783.889	19374.34
784.223	19279.42
784.557	19237.16
784.89	19313.77
785.224	19244.85
785.557	19213.66
785.891	19135.7
786.224	19237.62
786.558	19201.01
786.891	19069.94
787.224	19024.51
787.557	19038.07
787.891	19135.25
788.224	19148.35
788.557	19109.48
788.89	19112.87
789.223	19060.45
789.556	19116.04
789.888	18879.43
790.221	18932.31
790.554	18819.55
790.887	18878.76
791.219	18761.47
791.552	18808.93
791.884	18676.95
792.217	18776.61
792.549	18654.35
792.882	18540.23
793.214	18598.54
793.546	18579.1
793.879	18555.6
794.211	18465.43
794.543	18554.92
794.875	18499.78
795.207	18459.11
795.539	18498.65
795.871	18474.25
796.203	18276.06
796.535	18223.18
796.867	18120.13
797.198	18161.26
797.53	18101.6
797.862	18080.58
798.193	18097.98
798.525	17948.16
798.856	18026.57
799.188	17885.56
799.519	17824.09
799.85	17690.99
800.182	17704.32
800.513	17717.66
800.844	17709.29
801.175	17811.21
801.506	17702.97
801.837	17536.19
802.168	17562.41
802.499	17458.23
802.83	17470.66
803.161	17379.81
803.491	17427.04
803.822	17427.72
804.153	17378
804.483	17231.79
804.814	17173.49
805.145	17210.32
805.475	17190.21
805.805	17121.29
806.136	17132.59
806.466	17149.53
806.796	17084.23
807.126	16939.15
807.457	16826.38
807.787	16973.95
808.117	16818.47
808.447	16739.83
808.777	16772.82
809.107	16648.76
809.436	16642.2
809.766	16688.3
810.096	16591.81
810.426	16539.38
810.755	16637.46
811.085	16533.51
811.414	16477.91
811.744	16342.32
812.073	16339.39
812.403	16300.29
812.732	16228.43
813.061	16303.23
813.39	16196.34
813.719	16146.17
814.049	16219.39
814.378	16284.92
814.707	16140.75
815.036	16127.19
815.365	16086.96
815.693	15925.84
816.022	15986.18
816.351	15900.53
816.68	15913.41
817.008	15882.68
817.337	15800.87
817.665	15786.63
817.994	15813.3
818.322	15776.46
818.651	15644.94
818.979	15635.9
819.307	15665.96
819.636	15694.21
819.964	15641.33
820.292	15722.68
820.62	15697.82
820.948	15550.93
821.276	15633.42
821.604	15556.81
821.932	15623.25
822.259	15603.81
822.587	15567.66
822.915	15558.84
823.243	15601.1
823.57	15541.22
823.898	15531.27
824.225	15516.13
824.553	15548
824.88	15492.4
825.207	15603.59
825.535	15507.54
825.862	15621.21
826.189	15474.32
826.516	15565.62
826.843	15604.26
827.17	15593.87
827.497	15595.9
827.824	15567.66
828.151	15648.56
828.478	15652.4
828.805	15743.47
829.131	15578.05
829.458	15554.77
829.785	15519.3
830.111	15585.51
830.438	15653.53
830.764	15675.9
831.09	15573.98
831.417	15424.83
831.743	15562.68
832.069	15533.76
832.395	15426.87
832.722	15593.64
833.048	15414.89
833.374	15510.26
833.7	15447.21
834.026	15424.16
834.351	15477.94
834.677	15470.03
835.003	15450.6
835.329	15512.52
835.654	15406.3
835.98	15374.67
836.306	15375.12
836.631	15381.9
836.956	15350.26
837.282	15357.27
837.607	15251.96
837.932	15215.35
838.258	15198.63
838.583	15214.22
838.908	15063.49
839.233	15126.09
839.558	15165.63
839.883	15063.49
840.208	14994.11
840.533	15031.85
840.858	15065.97
841.182	15058.52
841.507	14979.42
841.832	14858.75
842.156	14972.64
842.481	14932.42
842.805	14918.18
843.13	14810.16
843.454	14880.22
843.778	14737.39
844.103	14693.55
844.427	14731.75
844.751	14691.07
845.075	14672.09
845.399	14614.91
845.723	14521.58
846.047	14554.8
846.371	14492.2
846.695	14380.12
847.019	14258.31
847.343	14137.18
847.666	14224.87
847.99	14166.34
848.313	14132.44
848.637	13970.86
848.96	13991.88
849.284	13942.84
849.607	13910.3
849.931	13782.17
850.254	13702.17
850.577	13756.4
850.9	13596.18
851.223	13564.09
851.546	13466.69
851.869	13506.92
852.192	13491.1
852.515	13368.62
852.838	13257.66
853.161	13265.57
853.483	13251.11
853.806	13198.9
854.129	13151.45
854.451	13111.45
854.774	13075.74
855.096	12920.27
855.419	13038.23
855.741	12958.91
856.063	12913.71
856.385	12859.7
856.708	12809.76
857.03	12765.02
857.352	12820.38
857.674	12728.18
857.996	12750.78
858.318	12580.84
858.64	12669.2
858.961	12601.63
859.283	12418.59
859.605	12447.29
859.926	12489.54
860.248	12353.73
860.57	12363.22
860.891	12430.11
861.212	12288.42
861.534	12344.69
861.855	12257.69
862.176	12249.1
862.498	12251.13
862.819	12254.52
863.14	12123
863.461	12197.35
863.782	12104.24
864.103	12197.8
864.424	12026.96
864.745	12176.78
865.065	12061.99
865.386	12024.7
865.707	11956.68
866.027	12021.99
866.348	12011.59
866.668	11885.94
866.989	11933.4
867.309	11844.14
867.63	11918.49
867.95	11823.35
868.27	11739.73
868.59	11843.46
868.91	11841.88
869.23	11843.46
869.55	11680.75
869.87	11739.96
870.19	11701.09
870.51	11739.51
870.83	11780.41
871.15	11699.51
871.469	11697.93
871.789	11632.17
872.109	11670.13
872.428	11538.38
872.748	11644.14
873.067	11491.15
873.386	11621.09
873.706	11594.2
874.025	11442.57
874.344	11457.26
874.663	11462.45
874.982	11444.6
875.301	11337.71
875.62	11360.76
875.939	11410.48
876.258	11346.52
876.577	11287.09
876.896	11363.7
877.214	11250.03
877.533	11294.77
877.852	11263.36
878.17	11255.68
878.489	11226.98
878.807	11269.92
879.125	11198.05
879.444	11174.55
879.762	11152.18
880.08	11125.74
880.398	11162.35
880.716	11133.65
881.034	11072.18
881.352	11106.08
881.67	11046.42
881.988	11046.87
882.306	11004.39
882.624	11004.16
882.941	10852.53
883.259	10840.32
883.577	10873.54
883.894	10831.28
884.212	10810.94
884.529	10927.78
884.846	10816.59
885.164	10737.73
885.481	10667.45
885.798	10712.42
886.115	10626.54
886.432	10622.7
886.75	10590.39
887.067	10644.85
887.383	10579.31
887.7	10538.64
888.017	10502.7
888.334	10539.77
888.651	10601.91
888.967	10424.74
889.284	10368.7
889.6	10341.35
889.917	10313.1
890.233	10333.44
890.55	10281.47
890.866	10307.23
891.182	10270.62
891.498	10252.54
891.815	10199.89
892.131	10178.42
892.447	10043.73
892.763	10030.4
893.079	10044.19
893.395	10093.9
893.71	9954.24
894.026	9931.87
894.342	9928.48
894.657	9909.27
894.973	9864.08
895.289	9826.11
895.604	9798.77
895.92	9751.54
896.235	9722.16
896.55	9713.12
896.865	9681.71
897.181	9547.47
897.496	9566.23
897.811	9585.89
898.126	9528.49
898.441	9528.94
898.756	9516.52
899.071	9382.06
899.386	9420.92
899.7	9335.96
900.015	9292.11
900.33	9247.37
900.644	9235.84
900.959	9248.5
901.273	9220.7
901.588	9180.7
901.902	9111.78
902.216	9106.58
902.531	9053.25
902.845	9071.56
903.159	8978
903.473	8964.67
903.787	8970.99
904.101	8844.89
904.415	8860.49
904.729	8788.62
905.042	8787.27
905.356	8727.84
905.67	8706.14
905.984	8718.12
906.297	8759.7
906.611	8651.45
906.924	8669.76
907.237	8573.94
907.551	8579.59
907.864	8476.99
908.177	8507.5
908.491	8441.97
908.804	8368.07
909.117	8336.43
909.43	8284.23
909.743	8325.36
910.056	8248.75
910.368	8212.37
910.681	8179.15
910.994	8210.79
911.307	8127.17
911.619	8061.19
911.932	8061.19
912.244	8021.87
912.557	7914.75
912.869	8021.64
913.181	7874.07
913.494	7916.78
913.806	7843.11
914.118	7787.52
914.43	7697.13
914.742	7744.36
915.054	7719.27
915.366	7668.88
915.678	7660.52
915.99	7631.82
916.302	7599.5
916.613	7577.58
916.925	7574.19
917.236	7505.95
917.548	7493.07
917.859	7489.68
918.171	7376.91
918.482	7350.47
918.794	7318.83
919.105	7303.47
919.416	7231.6
919.727	7272.96
920.038	7251.49
920.349	7179.85
920.66	7191.83
920.971	7177.59
921.282	7143.02
921.593	7044.72
921.903	7013.3
922.214	7023.47
922.525	7022.12
922.835	6962.01
923.146	6941.22
923.456	6901.89
923.767	6855.79
924.077	6875
924.387	6801.78
924.697	6755.23
925.008	6759.53
925.318	6713.43
925.628	6690.6
925.938	6711.62
926.248	6647.66
926.558	6590.94
926.867	6645.4
927.177	6596.37
927.487	6528.57
927.796	6545.75
928.106	6482.92
928.416	6501
928.725	6443.15
929.034	6388.01
929.344	6445.18
929.653	6388.01
929.962	6268.47
930.271	6329.48
930.581	6255.36
930.89	6222.14
931.199	6262.36
931.508	6188.69
931.817	6174.23
932.125	6186.43
932.434	6132.42
932.743	6091.75
933.051	6027.79
933.36	6020.56
933.669	6033.67
933.977	5980.34
934.286	6010.84
934.594	5967.68
934.902	5854.92
935.21	5901.02
935.519	5900.11
935.827	5839.1
936.135	5875.93
936.443	5765.88
936.751	5776.05
937.059	5713
937.367	5751.19
937.674	5697.41
937.982	5711.87
938.29	5689.27
938.597	5652.89
938.905	5614.47
939.213	5593
939.52	5507.58
939.827	5578.31
940.135	5507.13
940.442	5429.39
940.749	5450.41
941.056	5457.86
941.363	5416.51
941.67	5389.62
941.977	5355.49
942.284	5329.96
942.591	5340.13
942.898	5256.74
943.205	5309.85
943.511	5260.81
943.818	5209.74
944.125	5143.75
944.431	5159.34
944.738	5128.83
945.044	5173.8
945.35	5096.29
945.657	5135.16
945.963	5056.29
946.269	5053.36
946.575	5054.94
946.881	5020.59
947.187	5011.1
947.493	4972.23
947.799	4940.59
948.105	4910.08
948.41	4875.28
948.716	4903.76
949.022	4831.89
949.327	4846.36
949.633	4783.98
949.938	4792.57
950.244	4807.03
950.549	4755.28
950.854	4757.77
951.16	4685.91
951.465	4688.85
951.77	4684.1
952.075	4614.05
952.38	4636.87
952.685	4626.02
952.99	4566.81
953.294	4575.18
953.599	4512.58
953.904	4514.61
954.209	4506.7
954.513	4490.88
954.818	4473.48
955.122	4462.18
955.426	4395.29
955.731	4425.8
956.035	4417.67
956.339	4379.7
956.643	4338.57
956.948	4323.66
957.252	4279.14
957.556	4279.82
957.86	4209.76
958.163	4272.13
958.467	4282.08
958.771	4225.58
959.075	4200.72
959.378	4196.43
959.682	4176.99
959.985	4159.37
960.289	4153.72
960.592	4114.17
960.896	4096.09
961.199	4099.03
961.502	4080.5
961.805	4065.81
962.108	4048.64
962.411	4030.11
962.714	4024.23
963.017	3949.66
963.32	3995.98
963.623	3929.09
963.926	3922.09
964.228	3953.05
964.531	3868.98
964.833	3947.85
965.136	3866.27
965.438	3802.54
965.741	3837.34
966.043	3817.23
966.345	3845.25
966.648	3782.43
966.95	3800.96
967.252	3744.69
967.554	3754.63
967.856	3727.06
968.158	3689.78
968.46	3700.4
968.761	3696.56
969.063	3668.99
969.365	3642.09
969.666	3616.78
969.968	3602.09
970.269	3582.21
970.571	3580.17
970.872	3556.67
971.174	3542.66
971.475	3513.74
971.776	3501.53
972.077	3516.9
972.378	3462.89
972.679	3484.58
972.98	3492.72
973.281	3421.76
973.582	3417.92
973.883	3419.05
974.183	3372.95
974.484	3391.03
974.785	3370.69
975.085	3373.63
975.386	3352.61
975.686	3299.05
975.986	3325.27
976.287	3279.84
976.587	3273.74
976.887	3299.73
977.187	3242.1
977.487	3227.87
977.787	3209.79
978.087	3202.78
978.387	3218.6
978.687	3164.82
978.987	3142.9
979.286	3165.04
979.586	3150.13
979.885	3147.19
980.185	3082.33
980.484	3128.66
980.784	3073.97
981.083	3036.69
981.382	3022.45
981.682	3076.46
981.981	3062.22
982.28	2993.75
982.579	2993.52
982.878	2983.13
983.177	2947.87
983.475	2947.65
983.774	2955.78
984.073	2921.89
984.372	2899.06
984.67	2868.33
984.969	2881.21
985.267	2885.28
985.566	2850.48
985.864	2802.57
986.162	2833.3
986.461	2800.31
986.759	2821.32
987.057	2793.08
987.355	2788.78
987.653	2769.8
987.951	2748.11
988.249	2784.49
988.547	2726.64
988.844	2705.39
989.142	2719.86
989.44	2657.26
989.737	2682.8
990.035	2669.69
990.332	2690.48
990.63	2642.57
990.927	2635.34
991.224	2632.18
991.521	2626.98
991.819	2623.14
992.116	2567.09
992.413	2563.25
992.71	2561.9
993.006	2555.12
993.303	2532.74
993.6	2549.69
993.897	2527.77
994.193	2515.8
994.49	2493.42
994.787	2480.32
995.083	2443.71
995.379	2470.82
995.676	2455.23
995.972	2430.6
996.268	2396.02
996.565	2408.23
996.861	2374.56
997.157	2410.49
997.453	2368.91
997.749	2349.47
998.044	2358.29
998.34	2325.97
998.636	2339.08
998.932	2298.4
999.227	2275.58
999.523	2298.63
999.818	2266.99
1000.114	2269.02
1000.409	2221.79
1000.704	2229.02
1001	2218.63
1001.295	2185.41
1001.59	2211.4
1001.885	2189.02
1002.18	2164.39
1002.475	2142.47
1002.77	2158.97
1003.065	2148.35
1003.359	2125.3
1003.654	2132.53
1003.949	2107.22
1004.243	2076.71
1004.538	2073.1
1004.832	2068.8
1005.127	2056.15
1005.421	2035.13
1005.715	2020.67
1006.009	2018.86
1006.304	1984.06
1006.598	2001.23
1006.892	1982.48
1007.186	1977.5
1007.48	1978.63
1007.773	1944.74
1008.067	1915.13
1008.361	1921.69
1008.655	1923.49
1008.948	1926.21
1009.242	1889.15
1009.535	1898.64
1009.829	1899.77
1010.122	1853.89
1010.415	1864.51
1010.708	1860.67
1011.001	1834.91
1011.295	1823.84
1011.588	1801.46
1011.881	1785.42
1012.173	1789.26
1012.466	1779.32
1012.759	1782.71
1013.052	1780
1013.344	1762.14
1013.637	1740
1013.93	1712.65
1014.222	1705.65
1014.514	1711.3
1014.807	1715.36
1015.099	1672.43
1015.391	1664.52
1015.683	1689.6
1015.976	1671.52
1016.268	1623.39
1016.56	1659.77
1016.851	1635.59
1017.143	1610.73
1017.435	1634.91
1017.727	1596.05
1018.018	1584.29
1018.31	1584.52
1018.602	1584.52
1018.893	1536.84
1019.185	1537.74
1019.476	1534.8
1019.767	1552.66
1020.058	1507.69
1020.35	1506.56
1020.641	1488.03
1020.932	1479.66
1021.223	1457.74
1021.514	1485.99
1021.804	1429.04
1022.095	1442.38
1022.386	1438.31
1022.677	1437.41
1022.967	1420.68
1023.258	1423.17
1023.548	1411.19
1023.839	1397.63
1024.129	1373.9
1024.419	1405.99
1024.709	1360.35
1025	1364.87
1025.29	1373.68
1025.58	1351.76
1025.87	1355.6
1026.16	1333
1026.449	1297.52
1026.739	1335.04
1027.029	1294.13
1027.319	1302.72
1027.608	1299.56
1027.898	1266.34
1028.187	1295.49
1028.477	1245.32
1028.766	1277.18
1029.055	1244.64
1029.344	1227.24
1029.634	1223.4
1029.923	1243.96
1030.212	1215.49
1030.501	1200.12
1030.79	1200.8
1031.078	1191.31
1031.367	1176.17
1031.656	1151.54
1031.945	1184.31
1032.233	1126.23
1032.522	1147.7
1032.81	1134.14
1033.099	1154.7
1033.387	1111.09
1033.675	1103.63
1033.963	1094.14
1034.251	1096.4
1034.54	1092.1
1034.828	1085.32
1035.116	1072.67
1035.403	1076.96
1035.691	1090.75
1035.979	1048.72
1036.267	1065.21
1036.554	1019.34
1036.842	1035.38
1037.129	1019.56
1037.417	1016.4
1037.704	1027.47
1037.992	999.45
1038.279	1007.81
1038.566	983.41
1038.853	983.41
1039.14	983.41
