Data from hue_190_FLMS001491_00044.txt Node
Date: Tue Feb 07 16:45:20 GMT 2017
User: dcchb
Spectrometer: FLMS00149
Trigger mode: 0
Integration Time (sec): 2.000000E-2
Scans to average: 10
Electric dark correction enabled: true
Nonlinearity correction enabled: false
Boxcar width: 0
XAxis mode: Wavelengths
Number of Pixels in Spectrum: 2048
>>>>>Begin Spectral Data<<<<<
341.393	-11.33
341.776	-11.33
342.16	-11.33
342.543	-54.26
342.927	-74.15
343.31	-75.28
343.693	-69.4
344.077	-79.8
344.46	-50.2
344.843	-74.15
345.226	-26.92
345.61	-27.15
345.993	-17.88
346.376	-3.42
346.759	24.83
347.142	26.86
347.525	53.53
347.908	59.86
348.291	53.98
348.674	97.37
349.057	107.77
349.44	123.36
349.823	134.43
350.206	167.65
350.588	196.58
350.971	211.94
351.354	229.57
351.737	228.67
352.119	244.71
352.502	251.49
352.884	257.82
353.267	285.84
353.65	300.98
354.032	307.31
354.414	297.59
354.797	329.45
355.179	332.62
355.562	325.39
355.944	318.61
356.326	334.65
356.709	330.36
357.091	329
357.473	333.97
357.855	326.97
358.238	325.39
358.62	334.2
359.002	339.85
359.384	343.24
359.766	330.81
360.148	337.59
360.53	331.04
360.912	336.01
361.294	334.65
361.676	329
362.057	331.04
362.439	314.77
362.821	317.7
363.203	328.1
363.584	312.73
363.966	334.65
364.348	328.1
364.729	335.56
365.111	315.44
365.493	327.19
365.874	348.66
366.256	309.79
366.637	309.57
367.019	314.77
367.4	336.91
367.781	326.06
368.163	319.74
368.544	325.84
368.925	319.51
369.306	322.9
369.688	309.79
370.069	317.93
370.45	314.09
370.831	312.28
371.212	310.92
371.593	316.57
371.974	290.81
372.355	284.48
372.736	320.42
373.117	301.66
373.498	303.47
373.879	310.47
374.26	305.95
374.641	328.32
375.021	317.25
375.402	310.02
375.783	338.49
376.163	308.44
376.544	354.31
376.925	317.93
377.305	319.29
377.686	332.17
378.066	326.06
378.447	327.87
378.827	315.22
379.208	323.35
379.588	322.45
379.968	303.47
380.349	327.42
380.729	331.04
381.109	332.84
381.489	343.01
381.87	323.13
382.25	330.36
382.63	314.77
383.01	355.67
383.39	319.96
383.77	353.86
384.15	323.81
384.53	365.39
384.91	346.18
385.29	336.91
385.67	347.08
386.049	337.14
386.429	353.41
386.809	358.83
387.189	358.15
387.568	342.11
387.948	346.18
388.328	333.52
388.707	369.68
389.087	357.93
389.466	357.02
389.846	349.57
390.225	364.93
390.605	365.39
390.984	372.62
391.363	353.86
391.743	366.06
392.122	351.83
392.501	369
392.881	379.85
393.26	373.75
393.639	387.31
394.018	357.7
394.397	367.42
394.776	378.94
395.155	380.07
395.534	377.14
395.913	378.72
396.292	386.4
396.671	385.72
397.05	387.76
397.429	403.58
397.808	374.2
398.186	387.08
398.565	379.4
398.944	407.87
399.323	398.61
399.701	404.25
400.08	404.71
400.458	394.99
400.837	433.18
401.215	393.86
401.594	417.36
401.972	407.42
402.351	404.93
402.729	418.04
403.107	416.91
403.486	419.62
403.864	411.03
404.242	444.48
404.62	420.3
404.999	432.5
405.377	438.38
405.755	434.76
406.133	456.68
406.511	439.96
406.889	456.68
407.267	474.31
407.645	483.35
408.023	470.47
408.401	474.08
408.779	484.93
409.156	488.09
409.534	475.44
409.912	498.26
410.29	514.76
410.667	503.69
411.045	505.95
411.422	540.07
411.8	499.17
412.178	519.51
412.555	552.73
412.933	561.54
413.31	566.06
413.687	569.22
414.065	592.05
414.442	573.29
414.819	585.04
415.197	585.04
415.574	611.03
415.951	607.41
416.328	649.22
416.705	635.21
417.082	634.76
417.46	656.68
417.837	654.87
418.214	655.1
418.591	649.45
418.967	667.3
419.344	686.51
419.721	687.41
420.098	673.85
420.475	710.46
420.852	704.59
421.228	744.36
421.605	775.09
421.982	759.95
422.358	755.88
422.735	769.67
423.111	778.26
423.488	807.41
423.864	819.61
424.241	838.59
424.617	838.82
424.994	845.83
425.37	870.23
425.746	863.45
426.123	856.67
426.499	916.56
426.875	904.35
427.251	915.43
427.627	938.03
428.003	950.46
428.379	957.01
428.756	969.44
429.132	988.87
429.507	996.1
429.883	1005.6
430.259	1017.12
430.635	1028.87
431.011	1022.32
431.387	1057.35
431.763	1094.18
432.138	1064.58
432.514	1094.86
432.89	1100.28
433.265	1116.33
433.641	1147.51
434.016	1176.21
434.392	1186.83
434.767	1225.48
435.143	1229.09
435.518	1221.63
435.894	1262.09
436.269	1270.45
436.644	1309.77
437.02	1337.11
437.395	1343.67
437.77	1364.68
438.145	1399.71
438.52	1434.28
438.895	1435.19
439.271	1455.3
439.646	1519.03
440.021	1495.3
440.395	1527.84
440.77	1535.3
441.145	1549.54
441.52	1587.05
441.895	1579.37
442.27	1612.58
442.645	1607.16
443.019	1630.44
443.394	1716.54
443.769	1692.58
444.143	1692.58
444.518	1741.62
444.892	1751.34
445.267	1749.08
445.641	1736.88
446.016	1778.23
446.39	1787.27
446.764	1794.5
447.139	1818.68
447.513	1870.66
447.887	1822.97
448.262	1864.78
448.636	1856.87
449.01	1902.29
449.384	1913.14
449.758	1915.4
450.132	1945.01
450.506	1981.61
450.88	1994.72
451.254	1997.66
451.628	1982.29
452.002	2041.95
452.376	2072.91
452.75	2087.37
453.123	2085.79
453.497	2157.2
453.871	2161.95
454.244	2173.7
454.618	2229.29
454.992	2231.55
455.365	2237.43
455.739	2287.6
456.112	2303.64
456.486	2349.29
456.859	2326.01
457.232	2375.28
457.606	2417.54
457.979	2428.61
458.352	2481.49
458.725	2522.17
459.099	2481.49
459.472	2583.63
459.845	2594.48
460.218	2563.75
460.591	2649.62
460.964	2663.63
461.337	2708.15
461.71	2772.1
462.083	2780.01
462.456	2827.24
462.829	2818.2
463.201	2856.85
463.574	2922.83
463.947	2930.97
464.32	3022.49
464.692	3018.42
465.065	3007.35
465.438	3065.43
465.81	3110.4
466.183	3165.99
466.555	3235.14
466.928	3227.23
467.3	3258.64
467.672	3347.23
468.045	3367.57
468.417	3435.81
468.789	3407.34
469.161	3478.3
469.534	3539.09
469.906	3652.76
470.278	3624.51
470.65	3703.6
471.022	3776.14
471.394	3826.31
471.766	3845.52
472.138	3885.75
472.51	4005.52
472.882	4006.87
473.253	4121.45
473.625	4168.9
473.997	4254.1
474.369	4296.36
474.74	4351.27
475.112	4427.65
475.484	4514.66
475.855	4563.02
476.227	4584.94
476.598	4699.06
476.97	4763.69
477.341	4857.7
477.713	4923.91
478.084	4963.01
478.455	5111.02
478.827	5143.79
479.198	5319.61
479.569	5315.31
479.94	5462.43
480.311	5493.84
480.682	5680.95
481.053	5731.35
481.424	5809.76
481.795	5902.87
482.166	5981.74
482.537	6115.97
482.908	6242.75
483.279	6254.72
483.65	6398.45
484.021	6447.03
484.391	6613.13
484.762	6654.26
485.133	6752.79
485.503	6794.14
485.874	6974.93
486.244	6992.78
486.615	7183.29
486.985	7227.58
487.356	7344.41
487.726	7400
488.097	7583.95
488.467	7606.33
488.837	7737.17
489.207	7862.36
489.578	7925.19
489.948	8014.22
490.318	8143.49
490.688	8188.01
491.058	8281.34
491.428	8368.11
491.798	8444.04
492.168	8590.93
492.538	8728.33
492.908	8712.51
493.278	8836.12
493.648	8868.21
494.017	8923.8
494.387	9023.92
494.757	9081.77
495.126	9134.65
495.496	9159.96
495.866	9290.35
496.235	9299.39
496.605	9375.32
496.974	9417.58
497.344	9484.92
497.713	9556.56
498.082	9620.51
498.452	9707.74
498.821	9728.76
499.19	9735.76
499.559	9807.17
499.928	9837.23
500.298	9874.97
500.667	9945.02
501.036	9944.57
501.405	10008.97
501.774	10003.55
502.143	10116.09
502.512	10104.34
502.88	10169.87
503.249	10197.44
503.618	10245.13
503.987	10257.1
504.356	10276.54
504.724	10314.05
505.093	10324.45
505.462	10390.43
505.83	10441.28
506.199	10422.3
506.567	10472.01
506.936	10450.77
507.304	10575.96
507.672	10600.37
508.041	10594.04
508.409	10739.12
508.777	10703.87
509.145	10746.58
509.514	10773.7
509.882	10787.26
510.25	10814.38
510.618	10834.94
510.986	10751.33
511.354	10905.9
511.722	10931.44
512.09	10967.82
512.458	10855.28
512.826	10941.38
513.193	11034.71
513.561	10976.41
513.929	11032.22
514.297	11081.94
514.664	11095.05
515.032	11057.31
515.4	11133.69
515.767	11154.03
516.135	11164.42
516.502	11053.69
516.869	11135.05
517.237	11183.63
517.604	11082.39
517.972	11144.76
518.339	11203.29
518.706	11166.91
519.073	11144.76
519.44	11222.05
519.808	11227.02
520.175	11166.68
520.542	11258.88
520.909	11292.33
521.276	11165.78
521.643	11265.66
522.009	11293.69
522.376	11285.78
522.743	11312.44
523.11	11315.61
523.477	11459.78
523.843	11332.78
524.21	11465.43
524.577	11444.64
524.943	11361.93
525.31	11406.45
525.676	11450.74
526.043	11492.78
526.409	11531.65
526.776	11551.76
527.142	11396.28
527.508	11420.46
527.874	11481.7
528.241	11444.87
528.607	11458.88
528.973	11465.21
529.339	11410.29
529.705	11430.63
530.071	11436.96
530.437	11366.23
530.803	11402.84
531.169	11326.45
531.535	11273.35
531.901	11301.37
532.267	11293.01
532.632	11263.18
532.998	11235.61
533.364	11210.3
533.73	11166.91
534.095	11156.97
534.461	11110.19
534.826	11152.9
535.192	11092.34
535.557	11042.39
535.923	10904.09
536.288	10948.16
536.653	10923.98
537.019	10891.21
537.384	10840.59
537.749	10803.98
538.114	10735.73
538.479	10785.45
538.845	10664.78
539.21	10637.66
539.575	10546.81
539.94	10577.55
540.305	10556.53
540.67	10479.02
541.034	10441.51
541.399	10451.67
541.764	10314.28
542.129	10345.01
542.494	10264.79
542.858	10230.21
543.223	10250.55
543.587	10199.93
543.952	10095.75
544.316	9941.41
544.681	10011.91
545.045	9925.81
545.41	9937.79
545.774	9859.37
546.138	9860.96
546.503	9810.34
546.867	9711.81
547.231	9750.68
547.595	9702.77
547.959	9612.37
548.324	9613.05
548.688	9536.44
549.052	9509.33
549.416	9408.09
549.779	9486.95
550.143	9376.67
550.507	9346.39
550.871	9418.03
551.235	9214.19
551.599	9273.17
551.962	9180.97
552.326	9186.17
552.689	9161.76
553.053	9079.51
553.417	9037.93
553.78	9070.24
554.143	8946.86
554.507	8932.17
554.87	8954.54
555.234	8964.71
555.597	8798.38
555.96	8853.98
556.323	8828.44
556.686	8730.14
557.05	8765.39
557.413	8743.02
557.776	8672.96
558.139	8674.32
558.502	8630.48
558.865	8631.38
559.228	8577.6
559.59	8639.74
559.953	8593.87
560.316	8590.48
560.679	8543.25
561.041	8587.09
561.404	8580.54
561.767	8578.5
562.129	8535.11
562.492	8536.24
562.854	8458.51
563.217	8449.69
563.579	8447.21
563.941	8457.38
564.304	8418.96
564.666	8484.27
565.028	8383.48
565.39	8410.6
565.753	8449.24
566.115	8407.66
566.477	8392.07
566.839	8419.64
567.201	8418.73
567.563	8424.38
567.925	8437.26
568.287	8438.85
568.648	8454.21
569.01	8384.38
569.372	8436.81
569.734	8411.05
570.095	8440.88
570.457	8413.31
570.819	8415.34
571.18	8388.45
571.542	8499.18
571.903	8373.76
572.265	8462.12
572.626	8413.76
572.987	8417.6
573.349	8412.63
573.71	8436.59
574.071	8394.1
574.432	8416.02
574.794	8482.69
575.155	8385.06
575.516	8348.45
575.877	8471.61
576.238	8399.52
576.599	8440.88
576.96	8363.59
577.32	8391.84
577.681	8425.74
578.042	8338.74
578.403	8399.75
578.763	8410.82
579.124	8311.62
579.485	8381.22
579.845	8352.29
580.206	8365.85
580.566	8300.32
580.927	8316.14
581.287	8362.92
581.648	8377.38
582.008	8333.31
582.368	8318.62
582.728	8328.34
583.089	8294.89
583.449	8234.56
583.809	8262.58
584.169	8344.61
584.529	8272.07
584.889	8336.93
585.249	8211.73
585.609	8198.4
585.969	8263.26
586.329	8197.95
586.688	8267.32
587.048	8220.32
587.408	8185.97
587.768	8163.15
588.127	8159.76
588.487	8200.89
588.846	8174.67
589.206	8093.54
589.565	8134.22
589.925	8165.63
590.284	8151.62
590.643	8096.26
591.003	8133.54
591.362	8111.85
591.721	8057.84
592.08	8092.87
592.44	8057.61
592.799	8104.39
593.158	8073.43
593.517	8055.35
593.876	8030.04
594.235	8032.08
594.593	7998.63
594.952	8023.72
595.311	7943.94
595.67	8009.48
596.029	8001.12
596.387	7985.3
596.746	8002.25
597.104	8001.34
597.463	7966.99
597.822	8054.45
598.18	7967.9
598.538	7931.97
598.897	8012.42
599.255	7975.81
599.613	8084.73
599.972	7949.14
600.33	7991.63
600.688	7979.87
601.046	7978.52
601.404	8008.35
601.762	7897.84
602.12	7977.84
602.478	7978.75
602.836	7988.01
603.194	7967.22
603.552	7958.18
603.91	7917.96
604.268	7962.02
604.625	7862.82
604.983	7922.7
605.341	7845.42
605.698	7877.05
606.056	7996.15
606.413	7949.37
606.771	7954.56
607.128	7955.69
607.485	7971.74
607.843	7875.92
608.2	7981.68
608.557	7928.8
608.914	7960.89
609.272	7975.81
609.629	8019.87
609.986	8021.23
610.343	7953.43
610.7	8010.38
611.057	7960.67
611.414	8009.93
611.771	7969.03
612.127	7983.26
612.484	8017.84
612.841	8059.19
613.198	8001.57
613.554	8048.35
613.911	8021.23
614.267	7984.85
614.624	8014
614.98	8000.44
615.337	8078.63
615.693	8059.87
616.05	8069.59
616.406	8064.39
616.762	8049.48
617.118	8033.66
617.475	8037.5
617.831	8038.4
618.187	8049.7
618.543	8059.87
618.899	8099.65
619.255	8067.56
619.611	8076.82
619.967	8050.83
620.323	8065.07
620.678	8111.17
621.034	8065.52
621.39	8070.49
621.746	8043.6
622.101	8117.27
622.457	8048.12
622.812	8075.24
623.168	8117.5
623.523	8122.92
623.879	8115.46
624.234	8043.83
624.589	8058.97
624.945	8089.93
625.3	8018.07
625.655	8014.9
626.01	8052.42
626.365	8037.05
626.72	8059.19
627.075	8094.45
627.43	8066.88
627.785	8056.26
628.14	8049.25
628.495	8047.67
628.85	8017.16
629.205	7992.98
629.559	8075.01
629.914	7997.73
630.269	8060.1
630.623	7926.54
630.978	7986.43
631.332	8003.6
631.687	8049.93
632.041	7960.89
632.396	7935.36
632.75	7953.89
633.104	7959.08
633.459	7843.16
633.813	7918.41
634.167	7906.66
634.521	7939.65
634.875	7918.41
635.229	7916.6
635.583	7899.2
635.937	7836.6
636.291	7852.19
636.645	7872.08
636.999	7869.82
637.352	7880.67
637.706	7811.29
638.06	7814.23
638.413	7811.52
638.767	7804.96
639.121	7738.98
639.474	7727.23
639.828	7733.78
640.181	7746.21
640.534	7767.23
640.888	7721.8
641.241	7687.45
641.594	7665.08
641.947	7759.77
642.301	7690.84
642.654	7643.16
643.007	7719.09
643.36	7690.39
643.713	7645.42
644.066	7722.93
644.419	7652.65
644.771	7619.88
645.124	7509.83
645.477	7569.26
645.83	7508.47
646.182	7474.58
646.535	7421.7
646.888	7468.93
647.24	7360
647.593	7449.04
647.945	7468.25
648.298	7420.57
648.65	7374.92
649.002	7376.5
649.355	7409.04
649.707	7433.9
650.059	7437.74
650.411	7482.03
650.763	7527.91
651.115	7635.93
651.467	7622.82
651.819	7606.33
652.171	7626.21
652.523	7659.21
652.875	7613.56
653.227	7578.76
653.578	7573.33
653.93	7600.22
654.282	7657.4
654.633	7525.42
654.985	7564.74
655.337	7660.56
655.688	7653.78
656.039	7607.91
656.391	7564.52
656.742	7605.2
657.094	7608.59
657.445	7602.26
657.796	7624.4
658.147	7530.4
658.498	7622.37
658.849	7639.32
659.2	7667.34
659.551	7614.01
659.902	7699.43
660.253	7619.88
660.604	7655.36
660.955	7601.58
661.306	7605.65
661.656	7643.84
662.007	7691.97
662.358	7672.09
662.708	7665.53
663.059	7676.61
663.409	7705.98
663.76	7634.35
664.11	7687.23
664.461	7748.69
664.811	7721.12
665.161	7650.62
665.511	7661.01
665.862	7623.73
666.212	7655.59
666.562	7722.25
666.912	7679.32
667.262	7689.49
667.612	7686.55
667.962	7665.31
668.312	7674.12
668.662	7770.84
669.011	7664.18
669.361	7656.49
669.711	7681.58
670.06	7669.83
670.41	7681.13
670.76	7665.31
671.109	7672.09
671.459	7622.37
671.808	7664.63
672.157	7655.59
672.507	7564.97
672.856	7625.53
673.205	7628.7
673.554	7635.7
673.904	7616.49
674.253	7641.58
674.602	7618.75
674.951	7604.74
675.3	7494.92
675.649	7517.97
675.998	7614.23
676.346	7569.72
676.695	7587.79
677.044	7562.71
677.393	7535.37
677.741	7577.85
678.09	7555.25
678.438	7512.99
678.787	7541.92
679.135	7562.26
679.484	7489.72
679.832	7452.21
680.181	7383.28
680.529	7477.97
680.877	7437.74
681.225	7436.84
681.573	7457.85
681.922	7420.12
682.27	7398.42
682.618	7381.02
682.966	7399.78
683.314	7336.28
683.661	7315.03
684.009	7349.16
684.357	7314.81
684.705	7281.14
685.053	7270.29
685.4	7295.6
685.748	7223.06
686.095	7220.8
686.443	7174.7
686.79	7199.56
687.138	7203.17
687.485	7146.68
687.832	7132.89
688.18	7161.37
688.527	7068.26
688.874	7044.08
689.221	7029.62
689.568	7044.76
689.915	7015.38
690.262	7008.15
690.609	6955.72
690.956	6956.85
691.303	7001.37
691.65	6896.51
691.997	6900.36
692.344	6877.98
692.69	6839.79
693.037	6842.05
693.383	6711.89
693.73	6816.29
694.077	6754.37
694.423	6737.87
694.769	6727.03
695.116	6664.2
695.462	6625.11
695.808	6662.17
696.155	6626.92
696.501	6502.17
696.847	6551.89
697.193	6485.22
697.539	6529.74
697.885	6499.46
698.231	6413.36
698.577	6443.87
698.923	6448.16
699.269	6387.15
699.614	6384.44
699.96	6346.02
700.306	6321.39
700.651	6306.25
700.997	6259.47
701.342	6256.08
701.688	6226.7
702.033	6187.61
702.379	6194.84
702.724	6171.33
703.069	6178.11
703.415	6147.38
703.76	6165.01
704.105	6125.46
704.45	6098.34
704.795	6052.47
705.14	6030.1
705.485	6037.78
705.83	5947.84
706.175	5957.78
706.52	6005.46
706.865	5949.65
707.209	5932.7
707.554	5882.75
707.899	5888.86
708.243	5864.68
708.588	5807.95
708.932	5804.34
709.277	5784.23
709.621	5853.83
709.966	5779.48
710.31	5758.24
710.654	5735.41
710.998	5753.04
711.342	5734.51
711.687	5715.75
712.031	5660.16
712.375	5663.55
712.719	5683.89
713.063	5661.74
713.407	5712.59
713.75	5696.55
714.094	5649.31
714.438	5631.01
714.782	5652.93
715.125	5608.19
715.469	5600.05
715.812	5579.26
716.156	5572.93
716.499	5522.54
716.843	5584.91
717.186	5488.87
717.53	5557.34
717.873	5529.54
718.216	5506.27
718.559	5532.26
718.902	5515.08
719.246	5512.82
719.589	5504.23
719.932	5467.85
720.275	5520.5
720.617	5458.59
720.96	5440.96
721.303	5508.53
721.646	5437.34
721.989	5417.91
722.331	5433.28
722.674	5411.35
723.016	5448.64
723.359	5399.6
723.701	5406.38
724.044	5416.55
724.386	5361.41
724.729	5404.12
725.071	5396.44
725.413	5436.44
725.755	5387.17
726.097	5392.6
726.439	5352.6
726.782	5354.63
727.124	5393.73
727.465	5377.68
727.807	5353.05
728.149	5340.4
728.491	5330.23
728.833	5384.91
729.175	5343.56
729.516	5316.44
729.858	5326.61
730.199	5314.41
730.541	5361.64
730.882	5342.43
731.224	5372.94
731.565	5340.4
731.906	5325.71
732.248	5337.23
732.589	5321.19
732.93	5342.2
733.271	5331.58
733.612	5299.49
733.953	5350.57
734.294	5383.33
734.635	5323
734.976	5370
735.317	5321.19
735.658	5344.92
735.999	5364.35
736.339	5369.55
736.68	5414.52
737.021	5393.5
737.361	5383.33
737.702	5422.88
738.042	5394.63
738.383	5398.7
738.723	5469.43
739.063	5447.51
739.404	5455.2
739.744	5466.04
740.084	5445.48
740.424	5499.26
740.764	5486.61
741.104	5504.91
741.444	5522.31
741.784	5506.49
742.124	5543.78
742.464	5561.41
742.804	5548.98
743.143	5546.72
743.483	5592.37
743.823	5566.83
744.162	5622.87
744.502	5680.05
744.841	5722.53
745.181	5688.18
745.52	5741.06
745.86	5821.74
746.199	5794.17
746.538	5807.73
746.877	5905.35
747.216	5904.68
747.556	5980.15
747.895	5983.77
748.234	6024.45
748.573	6096.76
748.911	6147.61
749.25	6141.28
749.589	6231.22
749.928	6311.44
750.267	6354.15
750.605	6359.8
750.944	6427.6
751.283	6550.08
751.621	6595.28
751.96	6627.59
752.298	6762.96
752.636	6878.66
752.975	6940.35
753.313	7004.31
753.651	7162.04
753.989	7200.01
754.327	7340.34
754.666	7421.02
755.004	7527.68
755.342	7736.49
755.679	7778.3
756.017	7931.97
756.355	8048.35
756.693	8158.63
757.031	8318.17
757.368	8399.07
757.706	8582.34
758.044	8715.9
758.381	8933.07
758.719	8984.37
759.056	9211.93
759.394	9277.24
759.731	9437.46
760.068	9595.2
760.405	9766.49
760.743	9894.85
761.08	10164.68
761.417	10256.65
761.754	10478.57
762.091	10602.18
762.428	10737.32
762.765	10940.93
763.102	11099.57
763.438	11298.88
763.775	11395.83
764.112	11629.27
764.449	11799.21
764.785	11974.35
765.122	12065.87
765.458	12231.51
765.795	12483.03
766.131	12599.19
766.467	12756.02
766.804	12785.4
767.14	12996.92
767.476	13218.61
767.812	13234.65
768.148	13504.25
768.485	13524.14
768.821	13640.07
769.157	13836.67
769.492	13963.45
769.828	14094.74
770.164	14159.6
770.5	14340.16
770.836	14446.82
771.171	14529.08
771.507	14689.75
771.842	14667.16
772.178	14814.05
772.513	15027.37
772.849	15058.33
773.184	15097.65
773.519	15240.7
773.855	15233.24
774.19	15393.01
774.525	15484.76
774.86	15555.04
775.195	15614.93
775.53	15673.01
775.865	15631.2
776.2	15695.83
776.535	15655.38
776.87	15850.85
777.205	15931.3
777.539	15848.37
777.874	15998.42
778.209	15898.31
778.543	16120.9
778.878	16071.19
779.212	16177.4
779.547	16136.72
779.881	16215.14
780.215	16222.14
780.55	16363.16
780.884	16268.47
781.218	16436.15
781.552	16314.8
781.886	16346.66
782.22	16295.59
782.554	16352.54
782.888	16225.76
783.222	16288.58
783.556	16288.36
783.889	16225.08
784.223	16311.86
784.557	16266.21
784.89	16411.74
785.224	16331.52
785.557	16395.02
785.891	16254.91
786.224	16269.37
786.558	16320.67
786.891	16214.69
787.224	16224.4
787.557	16232.77
787.891	16348.02
788.224	16305.98
788.557	16315.7
788.89	16224.63
789.223	16214.69
789.556	16232.77
789.888	16169.72
790.221	16100.11
790.554	16120.45
790.887	16119.77
791.219	16061.7
791.552	16012.88
791.884	15997.29
792.217	15966.11
792.549	15955.94
792.882	15897.86
793.214	15858.54
793.546	15880.01
793.879	15849.27
794.211	15774.92
794.543	15877.29
794.875	15823.06
795.207	15831.42
795.539	15790.97
795.871	15822.15
796.203	15643.85
796.535	15571.54
796.867	15685.66
797.198	15614.25
797.53	15658.54
797.862	15508.49
798.193	15587.58
798.525	15437.76
798.856	15479.34
799.188	15364.54
799.519	15284.32
799.85	15225.79
800.182	15282.73
800.513	15275.05
800.844	15175.17
801.175	15226.92
801.506	15217.65
801.837	15170.19
802.168	15182.4
802.499	15094.72
802.83	15050.42
803.161	15114.6
803.491	15004.32
803.822	15055.17
804.153	14991.67
804.483	14784.89
804.814	14717.55
805.145	14737.66
805.475	14833.48
805.805	14812.01
806.136	14646.14
806.466	14771.33
806.796	14664.22
807.126	14620.6
807.457	14584
807.787	14585.12
808.117	14546.03
808.447	14562.53
808.777	14507.61
809.107	14469.65
809.436	14479.37
809.766	14412.7
810.096	14402.76
810.426	14245.92
810.755	14348.07
811.085	14317.56
811.414	14312.82
811.744	14210.9
812.073	14215.64
812.403	14279.37
812.732	14166.6
813.061	14167.28
813.39	14095.19
813.719	14080.28
814.049	14086.83
814.378	13946.95
814.707	13997.57
815.036	14063.33
815.365	13898.82
815.693	13924.8
816.022	13831.25
816.351	13725.71
816.68	13745.15
817.008	13795.77
817.337	13696.33
817.665	13695.66
817.994	13737.46
818.322	13664.02
818.651	13609.56
818.979	13560.07
819.307	13699.72
819.636	13625.83
819.964	13566.17
820.292	13605.94
820.62	13552.38
820.948	13557.13
821.276	13634.42
821.604	13576.11
821.932	13557.58
822.259	13548.54
822.587	13561.42
822.915	13553.06
823.243	13606.62
823.57	13530.01
823.898	13607.07
824.225	13420.86
824.553	13467.64
824.88	13503.57
825.207	13574.3
825.535	13506.74
825.862	13525.72
826.189	13445.72
826.516	13590.57
826.843	13673.28
827.17	13573.63
827.497	13586.73
827.824	13524.81
828.151	13584.25
828.478	13564.36
828.805	13574.53
829.131	13626.28
829.458	13564.81
829.785	13484.59
830.111	13537.69
830.438	13618.82
830.764	13612.04
831.09	13603
831.417	13501.99
831.743	13541.76
832.069	13480.75
832.395	13545.6
832.722	13657.24
833.048	13513.74
833.374	13533.4
833.7	13466.06
834.026	13438.49
834.351	13515.1
834.677	13516.68
835.003	13432.16
835.329	13491.82
835.654	13468.32
835.98	13391.71
836.306	13503.35
836.631	13351.49
836.956	13352.84
837.282	13416.57
837.607	13382.44
837.932	13269.23
838.258	13231.04
838.583	13303.35
838.908	13251.37
839.233	13236.91
839.558	13130.25
839.883	13192.17
840.208	13138.16
840.533	13170.25
840.858	13115.56
841.182	13076.46
841.507	13094.09
841.832	12978.16
842.156	13011.61
842.481	13085.96
842.805	12952.4
843.13	12853.19
843.454	12925.06
843.778	12900.65
844.103	12734.1
844.427	12856.13
844.751	12845.51
845.075	12848.45
845.399	12755.12
845.723	12710.6
846.047	12671.95
846.371	12584.5
846.695	12648.68
847.019	12524.84
847.343	12510.15
847.666	12456.37
847.99	12355.13
848.313	12336.6
848.637	12239.42
848.96	12190.39
849.284	12150.84
849.607	12050.73
849.931	12125.75
850.254	12026.1
850.577	12000.11
850.9	11923.5
851.223	11883.28
851.546	11792.43
851.869	11781.81
852.192	11843.73
852.515	11671.76
852.838	11687.12
853.161	11688.93
853.483	11620.23
853.806	11573
854.129	11547.92
854.451	11436.73
854.774	11414.59
855.096	11382.5
855.419	11344.76
855.741	11381.82
856.063	11228.83
856.385	11228.6
856.708	11208.94
857.03	11142.73
857.352	11160.36
857.674	11121.94
857.996	11055.73
858.318	11032
858.64	10999.68
858.961	11012.34
859.283	10923.3
859.605	10904.54
859.926	10919.68
860.248	10829.29
860.57	10790.65
860.891	10912.91
861.212	10715.17
861.534	10768.05
861.855	10707.71
862.176	10746.81
862.498	10710.88
862.819	10663.42
863.14	10723.76
863.461	10666.81
863.782	10601.5
864.103	10643.08
864.424	10578.68
864.745	10626.81
865.065	10515.18
865.386	10427.27
865.707	10507.49
866.027	10468.4
866.348	10499.81
866.668	10439.25
866.989	10425.91
867.309	10404.67
867.63	10402.86
867.95	10397.89
868.27	10291.45
868.59	10344.56
868.91	10299.36
869.23	10274.05
869.55	10268.85
869.87	10391.56
870.19	10250.55
870.51	10265.69
870.83	10216.2
871.15	10134.62
871.469	10199.93
871.789	10248.29
872.109	10199.93
872.428	10128.07
872.748	10128.97
873.067	10135.07
873.386	10127.84
873.706	10116.77
874.025	10044.45
874.344	10027.05
874.663	10090.78
874.982	10044.45
875.301	9927.17
875.62	10007.39
875.939	9957.22
876.258	9985.02
876.577	9953.38
876.896	9946.38
877.214	9910.67
877.533	9906.15
877.852	9954.06
878.17	9896.89
878.489	9917.23
878.807	9884.91
879.125	9807.85
879.444	9858.24
879.762	9742.09
880.08	9753.61
880.398	9789.77
880.716	9690.11
881.034	9709.77
881.352	9724.91
881.67	9692.15
881.988	9725.37
882.306	9654.41
882.624	9624.35
882.941	9603.79
883.259	9560.85
883.577	9469.78
883.894	9545.48
884.212	9453.96
884.529	9514.98
884.846	9436.56
885.164	9499.61
885.481	9427.29
885.798	9423
886.115	9327.64
886.432	9383.45
886.75	9356.56
887.067	9308.2
887.383	9307.07
887.7	9333.96
888.017	9265.72
888.334	9254.64
888.651	9171.93
888.967	9150.69
889.284	9133.29
889.6	9169.9
889.917	9070.02
890.233	9077.25
890.55	9059.17
890.866	9015.33
891.182	9019.17
891.498	9036.12
891.815	8936.23
892.131	8953.41
892.447	8910.02
892.763	8856.69
893.079	8834.32
893.395	8771.72
893.71	8808.78
894.026	8784.37
894.342	8732.85
894.657	8706.18
894.973	8672.29
895.289	8620.31
895.604	8687.43
895.92	8590.71
896.235	8500.31
896.55	8506.64
896.865	8463.7
897.181	8430.03
897.496	8403.82
897.811	8476.13
898.126	8408.56
898.441	8318.4
898.756	8315.69
899.071	8247.66
899.386	8242.92
899.7	8186.88
900.015	8226.87
900.33	8122.24
900.644	8124.5
900.959	8105.3
901.273	8055.81
901.588	8042.25
901.902	7964.96
902.216	8014.68
902.531	7981.91
902.845	7926.32
903.159	7946.66
903.473	7854.68
903.787	7799.99
904.101	7811.97
904.415	7738.75
904.729	7769.03
905.042	7702.14
905.356	7682.93
905.67	7613.78
905.984	7627.34
906.297	7578.08
906.611	7509.38
906.924	7536.95
907.237	7482.26
907.551	7388.7
907.864	7421.7
908.177	7475.48
908.491	7438.87
908.804	7348.25
909.117	7295.15
909.43	7235.71
909.743	7233.45
910.056	7233
910.368	7153.46
910.681	7198.2
910.994	7146.45
911.307	7115.49
911.619	7106.45
911.932	7054.25
912.244	7005.66
912.557	7040.46
912.869	6936.51
913.181	6948.94
913.494	6933.57
913.806	6855.84
914.118	6837.76
914.43	6762.73
914.742	6844.09
915.054	6783.52
915.366	6779.91
915.678	6754.82
915.99	6745.11
916.302	6638.67
916.613	6599.12
916.925	6584.43
917.236	6538.56
917.548	6570.19
917.859	6624.66
918.171	6507.37
918.482	6567.03
918.794	6505.11
919.105	6417.88
919.416	6400.26
919.727	6394.61
920.038	6396.87
920.349	6343.99
920.66	6243.65
920.971	6309.86
921.282	6258.34
921.593	6242.07
921.903	6191
922.214	6154.84
922.525	6151
922.835	6146.7
923.146	6102.64
923.456	6077.78
923.767	6060.15
924.077	6074.61
924.387	5990.77
924.697	6007.95
925.008	5950.55
925.318	5922.08
925.628	5931.34
925.938	5888.63
926.248	5852.02
926.558	5822.42
926.867	5847.73
927.177	5779.93
927.487	5795.07
927.796	5750.56
928.106	5762.76
928.416	5728.86
928.725	5693.38
929.034	5656.77
929.344	5613.16
929.653	5680.73
929.962	5587.85
930.271	5589.43
930.581	5548.98
930.89	5471.92
931.199	5476.21
931.508	5468.98
931.817	5486.61
932.125	5441.64
932.434	5451.81
932.743	5396.89
933.051	5381.98
933.36	5377.46
933.669	5271.92
933.977	5290.91
934.286	5303.11
934.594	5290.68
934.902	5174.07
935.21	5204.58
935.519	5212.26
935.827	5172.04
936.135	5166.39
936.443	5125.26
936.751	5144.47
937.059	5103.79
937.367	5022.89
937.674	5086.62
937.982	5025.15
938.29	4999.61
938.597	5030.12
938.905	4979.05
939.213	4960.75
939.52	4920.75
939.827	4879.84
940.135	4852.95
940.442	4901.76
940.749	4903.12
941.056	4846.17
941.363	4772.95
941.67	4757.13
941.977	4739.73
942.284	4721.43
942.591	4704.71
942.898	4679.4
943.205	4694.76
943.511	4638.49
943.818	4664.48
944.125	4644.14
944.431	4585.61
944.738	4621.77
945.044	4560.08
945.35	4530.02
945.657	4491.15
945.963	4499.74
946.269	4459.06
946.575	4358.95
946.881	4472.4
947.187	4422.91
947.493	4379.29
947.799	4425.17
948.105	4359.63
948.41	4304.94
948.716	4344.49
949.022	4304.49
949.327	4291.84
949.633	4253.65
949.938	4247.09
950.244	4259.52
950.549	4239.41
950.854	4222.23
951.16	4182.01
951.465	4169.58
951.77	4113.76
952.075	4154.89
952.38	4091.62
952.685	4117.6
952.99	4070.37
953.294	4036.25
953.599	4023.59
953.904	4038.28
954.209	4018.85
954.513	3984.27
954.818	3998.51
955.122	3959.42
955.426	3957.16
955.731	3913.99
956.035	3917.16
956.339	3925.74
956.643	3916.25
956.948	3881.68
957.252	3822.47
957.556	3851.62
957.86	3820.21
958.163	3819.76
958.467	3795.13
958.771	3767.1
959.075	3733.43
959.378	3736.6
959.682	3716.94
959.985	3706.77
960.289	3717.84
960.592	3693.43
960.896	3669.71
961.199	3636.49
961.502	3643.72
961.805	3620.89
962.108	3601.68
962.411	3548.8
962.714	3574.79
963.017	3555.81
963.32	3553.32
963.623	3542.7
963.926	3496.6
964.228	3456.6
964.531	3495.47
964.833	3484.63
965.136	3449.37
965.438	3399.43
965.741	3428.58
966.043	3367.79
966.345	3390.62
966.648	3386.55
966.95	3394.91
967.252	3309.72
967.554	3319.66
967.856	3321.01
968.158	3314.69
968.46	3273.11
968.761	3294.35
969.063	3311.98
969.365	3250.51
969.666	3231.75
969.968	3184.07
970.269	3205.31
970.571	3206.67
970.872	3187.68
971.174	3165.31
971.475	3152.21
971.776	3128.03
972.077	3133.67
972.378	3091.42
972.679	3059.55
972.98	3102.49
973.281	3077.4
973.582	3049.84
973.883	3046.67
974.183	3033.56
974.484	3050.51
974.785	3017.29
975.085	2986.11
975.386	2996.96
975.686	2992.44
975.986	2954.47
976.287	2956.05
976.587	2939.1
976.887	2909.27
977.187	2887.35
977.487	2924.64
977.787	2881.48
978.087	2873.79
978.387	2792.67
978.687	2830.63
978.987	2842.61
979.286	2778.43
979.586	2783.63
979.885	2769.62
980.185	2798.32
980.484	2794.25
980.784	2769.62
981.083	2740.46
981.382	2716.28
981.682	2697.75
981.981	2728.26
982.28	2662.05
982.579	2633.57
982.878	2653.24
983.177	2624.08
983.475	2624.54
983.774	2624.54
984.073	2598.32
984.372	2575.05
984.67	2630.86
984.969	2592.45
985.267	2613.91
985.566	2548.15
985.864	2581.82
986.162	2546.35
986.461	2520.36
986.759	2499.79
987.057	2454.37
987.355	2506.57
987.653	2474.03
987.951	2466.57
988.249	2469.96
988.547	2432
988.844	2447.82
989.142	2394.49
989.44	2412.11
989.737	2419.34
990.035	2396.74
990.332	2362.62
990.63	2370.53
990.927	2341.38
991.224	2366.92
991.521	2317.2
991.819	2374.15
992.116	2323.07
992.413	2341.83
992.71	2292.57
993.006	2276.3
993.303	2258.67
993.6	2244.21
993.897	2254.6
994.193	2244.43
994.49	2249.86
994.787	2222.29
995.083	2177.99
995.379	2188.61
995.676	2212.34
995.972	2176.64
996.268	2162.17
996.565	2126.47
996.861	2128.05
997.157	2133.25
997.453	2139.8
997.749	2118.11
998.044	2065
998.34	2072.01
998.636	2109.29
998.932	2073.36
999.227	2086.47
999.523	2079.69
999.818	2030.65
1000.114	1988.17
1000.409	2006.25
1000.704	2026.81
1001	1987.94
1001.295	1994.72
1001.59	1955.63
1001.885	1948.62
1002.18	1942.52
1002.475	1940.71
1002.77	1959.92
1003.065	1923.54
1003.359	1921.5
1003.654	1923.99
1003.949	1918.34
1004.243	1891.9
1004.538	1882.86
1004.832	1855.74
1005.127	1851.9
1005.421	1806.25
1005.715	1839.02
1006.009	1834.27
1006.304	1814.39
1006.598	1775.52
1006.892	1783.65
1007.186	1791.79
1007.48	1779.59
1007.773	1801.73
1008.067	1734.84
1008.361	1719.7
1008.655	1725.8
1008.948	1712.47
1009.242	1720.15
1009.535	1697.55
1009.829	1701.4
1010.122	1685.13
1010.415	1666.14
1010.708	1676.54
1011.001	1656.43
1011.295	1639.48
1011.588	1637.67
1011.881	1634.51
1012.173	1610.78
1012.466	1600.38
1012.759	1617.1
1013.052	1615.97
1013.344	1573.26
1013.637	1560.61
1013.93	1569.65
1014.222	1552.93
1014.514	1561.51
1014.807	1538.24
1015.099	1535.3
1015.391	1509.76
1015.683	1524.45
1015.976	1515.19
1016.268	1511.12
1016.56	1483.1
1016.851	1476.32
1017.143	1497.79
1017.435	1444.23
1017.727	1438.13
1018.018	1446.71
1018.31	1418.01
1018.602	1412.59
1018.893	1400.39
1019.185	1402.19
1019.476	1423.89
1019.767	1415.08
1020.058	1395.64
1020.35	1366.94
1020.641	1353.16
1020.932	1349.09
1021.223	1348.86
1021.514	1335.53
1021.804	1313.16
1022.095	1302.31
1022.386	1303.67
1022.677	1306.15
1022.967	1264.35
1023.258	1281.75
1023.548	1259.83
1023.839	1266.83
1024.129	1253.05
1024.419	1259.15
1024.709	1278.13
1025	1241.3
1025.29	1234.06
1025.58	1228.41
1025.87	1213.5
1026.16	1211.47
1026.449	1209.66
1026.739	1194.97
1027.029	1173.27
1027.319	1158.81
1027.608	1163.78
1027.898	1165.59
1028.187	1143.22
1028.477	1133.5
1028.766	1135.08
1029.055	1131.02
1029.344	1138.92
1029.634	1100.73
1029.923	1115.2
1030.212	1112.94
1030.501	1105.71
1030.79	1086.72
1031.078	1083.33
1031.367	1074.75
1031.656	1063.22
1031.945	1075.65
1032.233	1045.14
1032.522	1025.93
1032.81	1024.8
1033.099	1028.65
1033.387	1010.79
1033.675	1041.98
1033.963	1015.09
1034.251	1025.93
1034.54	1001.75
1034.828	1034.52
1035.116	992.71
1035.403	982.54
1035.691	978.03
1035.979	980.74
1036.267	977.57
1036.554	957.91
1036.842	948.2
1037.129	968.08
1037.417	966.5
1037.704	936.22
1037.992	919.72
1038.279	933.73
1038.566	917.24
1038.853	917.24
1039.14	917.24
