Data from hue_240_FLMS001491_00098.txt Node
Date: Tue Feb 07 16:36:12 GMT 2017
User: dcchb
Spectrometer: FLMS00149
Trigger mode: 0
Integration Time (sec): 2.000000E-2
Scans to average: 10
Electric dark correction enabled: true
Nonlinearity correction enabled: false
Boxcar width: 0
XAxis mode: Wavelengths
Number of Pixels in Spectrum: 2048
>>>>>Begin Spectral Data<<<<<
341.393	-22.68
341.776	-22.68
342.16	-22.68
342.543	-38.05
342.927	-75.34
343.31	-87.54
343.693	-71.04
344.077	-56.35
344.46	-51.16
344.843	-64.72
345.226	-41.67
345.61	-14.1
345.993	-17.03
346.376	0.82
346.759	-7.99
347.142	32.46
347.525	47.15
347.908	64.09
348.291	61.38
348.674	85.56
349.057	120.14
349.44	122.17
349.823	143.87
350.206	183.19
350.588	178.89
350.971	199.01
351.354	199.01
351.737	222.06
352.119	251.89
352.502	254.15
352.884	285.56
353.267	255.5
353.65	309.51
354.032	297.08
354.414	304.54
354.797	312.45
355.179	302.28
355.562	309.96
355.944	313.58
356.326	315.84
356.709	333.24
357.091	333.24
357.473	349.06
357.855	326.23
358.238	345.44
358.62	317.2
359.002	343.41
359.384	336.86
359.766	329.17
360.148	329.85
360.53	326.91
360.912	335.95
361.294	336.18
361.676	325.1
362.057	323.97
362.439	326.23
362.821	314.03
363.203	320.36
363.584	314.03
363.966	315.61
364.348	298.66
364.729	306.57
365.111	323.97
365.493	328.49
365.874	315.84
366.256	285.56
366.637	308.38
367.019	319
367.4	311.09
367.781	326.01
368.163	320.81
368.544	330.53
368.925	302.96
369.306	322.39
369.688	308.83
370.069	309.29
370.45	299.12
370.831	294.37
371.212	318.1
371.593	313.35
371.974	304.77
372.355	322.62
372.736	305.22
373.117	295.05
373.498	323.97
373.879	315.61
374.26	300.92
374.641	308.38
375.021	314.03
375.402	334.14
375.783	313.58
376.163	321.94
376.544	333.69
376.925	312.9
377.305	335.95
377.686	307.25
378.066	306.57
378.447	323.3
378.827	318.1
379.208	331.88
379.588	319.91
379.968	339.79
380.349	340.47
380.729	330.53
381.109	331.43
381.489	339.34
381.87	334.14
382.25	339.12
382.63	326.01
383.01	326.23
383.39	345.22
383.77	335.27
384.15	332.11
384.53	339.79
384.91	331.88
385.29	335.73
385.67	332.79
386.049	343.41
386.429	361.26
386.809	330.53
387.189	353.13
387.568	362.17
387.948	341.6
388.328	348.15
388.707	354.48
389.087	374.14
389.466	363.3
389.846	360.58
390.225	366.23
390.605	372.56
390.984	360.58
391.363	379.57
391.743	367.82
392.122	355.16
392.501	348.61
392.881	382.96
393.26	378.21
393.639	385.22
394.018	387.25
394.397	395.84
394.776	380.02
395.155	384.31
395.534	363.75
395.913	377.53
396.292	392.67
396.671	392.9
397.05	379.34
397.429	407.81
397.808	396.29
398.186	389.96
398.565	399.45
398.944	394.93
399.323	400.13
399.701	405.33
400.08	420.7
400.458	409.62
400.837	414.82
401.215	407.14
401.594	424.54
401.972	414.59
402.351	424.76
402.729	396.97
403.107	438.77
403.486	413.92
403.864	415.95
404.242	439.68
404.62	427.47
404.999	436.51
405.377	432.22
405.755	443.29
406.133	447.36
406.511	460.47
406.889	479.9
407.267	467.47
407.645	455.5
408.023	467.02
408.401	481.94
408.779	481.03
409.156	485.55
409.534	488.72
409.912	487.36
410.29	497.53
410.667	519.9
411.045	530.3
411.422	495.72
411.8	531.2
412.178	525.78
412.555	539.79
412.933	560.58
413.31	536.85
413.687	569.84
414.065	560.58
414.442	596.74
414.819	545.89
415.197	561.03
415.574	584.31
415.951	583.63
416.328	621.37
416.705	603.97
417.082	630.86
417.46	610.75
417.837	627.92
418.214	618.88
418.591	625.44
418.967	638.32
419.344	640.58
419.721	652.33
420.098	650.97
420.475	661.82
420.852	668.82
421.228	673.12
421.605	677.86
421.982	698.65
422.358	683.97
422.735	742.95
423.111	712.44
423.488	733.23
423.864	749.73
424.241	760.57
424.617	747.01
424.994	758.31
425.37	759.67
425.746	770.97
426.123	791.98
426.499	802.15
426.875	817.97
427.251	822.27
427.627	865.66
428.003	810.29
428.379	848.03
428.756	833.11
429.132	869.95
429.507	876.05
429.883	859.55
430.259	908.59
430.635	895.48
431.011	916.73
431.387	918.76
431.763	941.59
432.138	937.07
432.514	942.26
432.89	963.05
433.265	976.84
433.641	981.81
434.016	996.27
434.392	1034.46
434.767	1078.08
435.143	1063.16
435.518	1047.8
435.894	1058.42
436.269	1088.47
436.644	1121.92
437.02	1123.73
437.395	1123.28
437.77	1159.88
438.145	1193.1
438.52	1151.07
438.895	1175.7
439.271	1217.96
439.646	1230.62
440.021	1225.42
440.395	1227.68
440.77	1232.2
441.145	1250.05
441.52	1297.28
441.895	1295.25
442.27	1313.33
442.645	1308.36
443.019	1322.59
443.394	1329.37
443.769	1366.21
444.143	1368.92
444.518	1379.09
444.892	1372.31
445.267	1390.16
445.641	1414.34
446.016	1420.67
446.39	1424.51
446.764	1438.52
447.139	1407.11
447.513	1451.85
447.887	1451.85
448.262	1452.76
448.636	1472.42
449.01	1500.89
449.384	1515.36
449.758	1522.81
450.132	1570.5
450.506	1526.88
450.88	1528.46
451.254	1543.83
451.628	1572.3
452.002	1606.88
452.376	1611.17
452.75	1618.18
453.123	1603.49
453.497	1648.01
453.871	1649.82
454.244	1676.48
454.618	1713.54
454.992	1693.43
455.365	1731.17
455.739	1741.79
456.112	1774.78
456.486	1779.08
456.859	1770.26
457.232	1848.91
457.606	1852.97
457.979	1856.14
458.352	1883.93
458.725	1897.27
459.099	1876.93
459.472	1958.06
459.845	1965.51
460.218	1981.78
460.591	1991.05
460.964	2018.85
461.337	2055
461.71	2103.81
462.083	2070.14
462.456	2083.93
462.829	2092.74
463.201	2140.42
463.574	2176.36
463.947	2194.21
464.32	2214.32
464.692	2239.18
465.065	2240.08
465.438	2283.02
465.81	2284.6
466.183	2327.31
466.555	2384.49
466.928	2394.2
467.3	2388.33
467.672	2431.26
468.045	2467.42
468.417	2485.95
468.789	2506.29
469.161	2567.31
469.534	2576.8
469.906	2599.17
470.278	2624.48
470.65	2627.42
471.022	2701.77
471.394	2764.59
471.766	2754.19
472.138	2791.25
472.51	2811.14
472.882	2888.65
473.253	2900.18
473.625	2946.05
473.997	3009.1
474.369	3026.05
474.74	3037.12
475.112	3095.88
475.484	3172.49
475.855	3214.29
476.227	3213.62
476.598	3303.56
476.97	3254.29
477.341	3397.57
477.713	3449.99
478.084	3429.43
478.455	3524.34
478.827	3521.4
479.198	3634.4
479.569	3652.93
479.94	3704.68
480.311	3812.47
480.682	3822.41
481.053	3908.97
481.424	3965.23
481.795	3995.29
482.166	4023.76
482.537	4088.85
482.908	4172.91
483.279	4217.43
483.65	4263.08
484.021	4321.38
484.391	4374.94
484.762	4395.51
485.133	4406.13
485.503	4473.7
485.874	4599.34
486.244	4609.96
486.615	4708.04
486.985	4706.91
487.356	4786.68
487.726	4894.7
488.097	4920.92
488.467	4893.12
488.837	5026
489.207	5020.57
489.578	5138.09
489.948	5134.7
490.318	5269.16
490.688	5239.55
491.058	5347.35
491.428	5368.36
491.798	5468.25
492.168	5509.83
492.538	5521.58
492.908	5573.78
493.278	5635.47
493.648	5686.55
494.017	5711.63
494.387	5749.59
494.757	5806.32
495.126	5863.49
495.496	5866.2
495.866	5841.34
496.235	5999.31
496.605	6026.88
496.974	6014.67
497.344	6091.05
497.713	6087.21
498.082	6162.01
498.452	6264.38
498.821	6214.89
499.19	6152.07
499.559	6296.25
499.928	6311.39
500.298	6289.92
500.667	6422.12
501.036	6349.58
501.405	6435.68
501.774	6403.59
502.143	6412.18
502.512	6493.3
502.88	6475.45
503.249	6547.77
503.618	6554.09
503.987	6611.72
504.356	6585.05
504.724	6652.4
505.093	6695.78
505.462	6723.58
505.83	6731.04
506.199	6795.89
506.567	6820.98
506.936	6842.22
507.304	6934.65
507.672	6859.4
508.041	6926.29
508.409	6980.75
508.777	7054.19
509.145	7050.13
509.514	7068.2
509.882	7101.42
510.25	7078.6
510.618	7086.28
510.986	7077.47
511.354	7180.97
511.722	7233.62
512.09	7225.49
512.458	7211.03
512.826	7300.97
513.193	7308.42
513.561	7300.51
513.929	7332.38
514.297	7351.13
514.664	7436.56
515.032	7350.46
515.4	7405.6
515.767	7455.76
516.135	7498.25
516.502	7476.55
516.869	7536.67
517.237	7542.09
517.604	7528.3
517.972	7616.89
518.339	7590.45
518.706	7582.31
519.073	7610.79
519.44	7653.05
519.808	7707.96
520.175	7708.19
520.542	7792.25
520.909	7829.54
521.276	7718.13
521.643	7859.82
522.009	7834.74
522.376	7819.82
522.743	7931.68
523.11	7922.19
523.477	7942.31
523.843	7941.4
524.21	8021.63
524.577	8040.16
524.943	8045.13
525.31	8123.77
525.676	8153.83
526.043	8140.27
526.409	8159.02
526.776	8187.72
527.142	8169.64
527.508	8219.81
527.874	8263.43
528.241	8275.86
528.607	8264.78
528.973	8325.8
529.339	8319.47
529.705	8374.84
530.071	8419.13
530.437	8321.73
530.803	8392.24
531.169	8453.48
531.535	8392.24
531.901	8421.84
532.267	8399.02
532.632	8513.14
532.998	8467.94
533.364	8499.8
533.73	8469.3
534.095	8486.92
534.461	8466.36
534.826	8490.31
535.192	8500.71
535.557	8504.55
535.923	8537.54
536.288	8500.26
536.653	8577.32
537.019	8492.12
537.384	8497.32
537.749	8534.38
538.114	8535.74
538.479	8545.45
538.845	8522.63
539.21	8498.9
539.575	8467.26
539.94	8494.61
540.305	8539.35
540.67	8506.81
541.034	8438.79
541.399	8505.23
541.764	8511.56
542.129	8474.95
542.494	8529.63
542.858	8517.21
543.223	8509.07
543.587	8491.9
543.952	8503.19
544.316	8489.86
544.681	8473.14
545.045	8509.52
545.41	8516.3
545.774	8483.53
546.138	8528.05
546.503	8456.64
546.867	8491.67
547.231	8506.36
547.595	8501.61
547.959	8491.67
548.324	8502.74
548.688	8472.91
549.052	8512.23
549.416	8422.29
549.779	8433.14
550.143	8489.86
550.507	8519.24
550.871	8457.55
551.235	8454.38
551.599	8468.85
551.962	8464.1
552.326	8476.98
552.689	8541.61
553.053	8407.15
553.417	8428.62
553.78	8561.72
554.143	8502.52
554.507	8493.03
554.87	8468.62
555.234	8576.64
555.597	8527.6
555.96	8517.88
556.323	8541.84
556.686	8513.14
557.05	8548.39
557.413	8559.92
557.776	8557.66
558.139	8563.31
558.502	8582.74
558.865	8563.08
559.228	8593.14
559.59	8636.07
559.953	8657.31
560.316	8720.82
560.679	8654.83
561.041	8700.48
561.404	8757.88
561.767	8792.45
562.129	8714.04
562.492	8781.15
562.854	8769.63
563.217	8729.4
563.579	8809.63
563.941	8827.93
564.304	8871.77
564.666	8903.41
565.028	8857.99
565.39	8909.29
565.753	8952
566.115	8973.01
566.477	8963.75
566.839	9003.29
567.201	8995.61
567.563	9059.34
567.925	9073.12
568.287	9047.36
568.648	9070.86
569.01	9134.14
569.372	9161.03
569.734	9115.61
570.095	9176.85
570.457	9246.23
570.819	9234.47
571.18	9287.58
571.542	9307.92
571.903	9298.43
572.265	9415.94
572.626	9367.8
572.987	9357.86
573.349	9378.43
573.71	9475.82
574.071	9465.43
574.432	9442.38
574.794	9460.01
575.155	9544.75
575.516	9519.21
575.877	9511.08
576.238	9494.81
576.599	9590.62
576.96	9499.1
577.32	9615.03
577.681	9683.05
578.042	9635.82
578.403	9675.14
578.763	9578.65
579.124	9671.3
579.485	9717.17
579.845	9707.23
580.206	9693.9
580.566	9763.27
580.927	9756.04
581.287	9777.96
581.648	9772.09
582.008	9864.74
582.368	9811.63
582.728	9868.81
583.089	9832.88
583.449	9852.09
583.809	9840.33
584.169	9916.49
584.529	9894.57
584.889	9963.95
585.249	9975.47
585.609	9878.98
585.969	9977.51
586.329	9982.25
586.688	9948.81
587.048	9967.11
587.408	9937.51
587.768	9936.83
588.127	9986.32
588.487	9958.3
588.846	10055.47
589.206	9975.47
589.565	10001.01
589.925	10046.2
590.284	10008.24
590.643	10052.76
591.003	9994.23
591.362	10024.06
591.721	10051.85
592.08	10045.53
592.44	10069.03
592.799	10004.17
593.158	10060.22
593.517	10093.21
593.876	10058.63
594.235	10117.84
594.593	10083.72
594.952	10179.31
595.311	10128.69
595.67	10080.1
596.029	10154.22
596.387	10141.34
596.746	10147.45
597.104	10113.77
597.463	10170.5
597.822	10166.88
598.18	10085.53
598.538	10113.55
598.897	10257.5
599.255	10125.98
599.613	10278.74
599.972	10229.7
600.33	10296.14
600.688	10197.16
601.046	10263.15
601.404	10229.7
601.762	10196.26
602.12	10262.24
602.478	10284.62
602.836	10339.76
603.194	10299.53
603.552	10198.74
603.91	10211.62
604.268	10260.66
604.625	10249.82
604.983	10247.33
605.341	10252.75
605.698	10328.91
606.056	10296.59
606.413	10309.02
606.771	10314.67
607.128	10293.43
607.485	10272.64
607.843	10304.73
608.2	10344.5
608.557	10386.08
608.914	10311.28
609.272	10430.15
609.629	10408.91
609.986	10465.85
610.343	10334.11
610.7	10461.11
611.057	10471.96
611.414	10437.83
611.771	10413.2
612.127	10507.89
612.484	10512.86
612.841	10492.52
613.198	10461.56
613.554	10463.14
613.911	10599.18
614.267	10509.92
614.624	10524.38
614.98	10499.3
615.337	10621.56
615.693	10532.75
616.05	10639.41
616.406	10542.69
616.762	10569.13
617.118	10600.77
617.475	10577.72
617.831	10649.8
618.187	10665.4
618.543	10556.47
618.899	10693.87
619.255	10639.64
619.611	10717.6
619.967	10711.95
620.323	10769.58
620.678	10646.41
621.034	10609.35
621.39	10690.48
621.746	10668.79
622.101	10678.28
622.457	10613.87
622.812	10644.83
623.168	10661.56
623.523	10616.59
623.879	10648.9
624.234	10632.4
624.589	10656.81
624.945	10732.29
625.3	10633.76
625.655	10660.88
626.01	10734.32
626.365	10648.45
626.72	10628.34
627.075	10646.64
627.43	10576.81
627.785	10672.4
628.14	10684.38
628.495	10697.94
628.85	10671.95
629.205	10558.06
629.559	10655.91
629.914	10553.31
630.269	10579.52
630.623	10595.12
630.978	10575.23
631.332	10692.74
631.687	10615
632.041	10594.89
632.396	10519.19
632.75	10545.17
633.104	10483.48
633.459	10470.83
633.813	10525.29
634.167	10452.07
634.521	10521.45
634.875	10455.46
635.229	10488.23
635.583	10349.93
635.937	10369.36
636.291	10472.18
636.645	10386.31
636.999	10338.17
637.352	10313.09
637.706	10314.67
638.06	10328.68
638.413	10351.28
638.767	10331.4
639.121	10294.33
639.474	10276.93
639.828	10231.51
640.181	10338.4
640.534	10281.68
640.888	10245.97
641.241	10193.32
641.594	10279.19
641.947	10235.58
642.301	10192.87
642.654	10271.28
643.007	10248.91
643.36	10174.56
643.713	10171.85
644.066	10215.24
644.419	10149.7
644.771	10056.37
645.124	10036.94
645.477	10005.98
645.83	9899.54
646.182	9893.89
646.535	9836.27
646.888	9830.84
647.24	9756.95
647.593	9865.64
647.945	9846.89
648.298	9721.24
648.65	9793.78
649.002	9722.37
649.355	9755.14
649.707	9807.79
650.059	9875.14
650.411	9906.55
650.763	9924.63
651.115	9994.23
651.467	10041.91
651.819	10020.44
652.171	9985.42
652.523	9920.56
652.875	10033.55
653.227	9919.88
653.578	9995.81
653.93	9871.29
654.282	9908.36
654.633	9965.98
654.985	9863.84
655.337	9931.63
655.688	9895.25
656.039	10003.04
656.391	9884.63
656.742	9910.16
657.094	9844.4
657.445	9919.43
657.796	9927.11
658.147	9892.76
658.498	9815.7
658.849	9950.39
659.2	9945.42
659.551	9853.44
659.902	9972.99
660.253	9907
660.604	9962.82
660.955	9883.72
661.306	9885.31
661.656	9930.28
662.007	9943.16
662.358	9786.55
662.708	9963.04
663.059	9845.53
663.409	9811.63
663.76	9919.43
664.11	9955.59
664.461	9873.33
664.811	9994.45
665.161	9944.74
665.511	9920.11
665.862	9840.79
666.212	9901.12
666.562	9936.83
666.912	9892.54
667.262	9803.05
667.612	9878.3
667.962	9854.8
668.312	9897.28
668.662	9885.76
669.011	9865.64
669.361	9870.16
669.711	9820.22
670.06	9883.05
670.41	9866.32
670.76	9858.41
671.109	9871.75
671.459	9781.8
671.808	9859.99
672.157	9836.49
672.507	9680.79
672.856	9782.48
673.205	9797.17
673.554	9801.92
673.904	9791.75
674.253	9792.88
674.602	9751.98
674.951	9584.52
675.3	9627.68
675.649	9774.12
675.998	9807.12
676.346	9676.05
676.695	9776.16
677.044	9708.81
677.393	9727.34
677.741	9755.59
678.09	9704.52
678.438	9607.8
678.787	9667.68
679.135	9698.87
679.484	9583.39
679.832	9641.47
680.181	9554.01
680.529	9629.04
680.877	9574.13
681.225	9561.92
681.573	9621.36
681.922	9543.17
682.27	9461.36
682.618	9490.74
682.966	9487.12
683.314	9453.45
683.661	9447.35
684.009	9388.82
684.357	9379.1
684.705	9359.67
685.053	9361.93
685.4	9348.37
685.748	9250.75
686.095	9351.53
686.443	9257.98
686.79	9309.5
687.138	9262.27
687.485	9206.68
687.832	9245.32
688.18	9175.95
688.527	9200.8
688.874	9160.8
689.221	9126.68
689.568	9112.9
689.915	9098.89
690.262	9033.12
690.609	9006.01
690.956	9090.3
691.303	9028.6
691.65	8903.18
691.997	8993.13
692.344	8878.55
692.69	8834.49
693.037	8839.23
693.383	8837.42
693.73	8855.05
694.077	8745.67
694.423	8789.97
694.769	8773.47
695.116	8649.18
695.462	8689.63
695.808	8638.11
696.155	8668.39
696.501	8592.01
696.847	8613.7
697.193	8496.87
697.539	8599.24
697.885	8454.61
698.231	8441.73
698.577	8469.52
698.923	8404.44
699.269	8378
699.614	8314.5
699.96	8299.13
700.306	8280.15
700.651	8248.74
700.997	8274.73
701.342	8234.73
701.688	8179.36
702.033	8189.76
702.379	8153.37
702.724	8159.7
703.069	8175.75
703.415	8064.34
703.76	8060.27
704.105	8027.95
704.45	8038.8
704.795	7956.77
705.14	8012.59
705.485	7952.47
705.83	7851.23
706.175	7931.68
706.52	7968.29
706.865	7881.97
707.209	7828.18
707.554	7826.83
707.899	7820.27
708.243	7738.47
708.588	7734.63
708.932	7678.36
709.277	7745.7
709.621	7720.62
709.966	7628.87
710.31	7665.25
710.654	7600.39
710.998	7580.05
711.342	7643.33
711.687	7546.16
712.031	7498.02
712.375	7514.52
712.719	7571.92
713.063	7563.78
713.407	7555.87
713.75	7442.66
714.094	7443.11
714.438	7398.82
714.782	7429.55
715.125	7400.62
715.469	7400.4
715.812	7413.96
716.156	7309.33
716.499	7346.39
716.843	7354.98
717.186	7298.48
717.53	7383.22
717.873	7300.29
718.216	7326.95
718.559	7301.19
718.902	7240.4
719.246	7270.46
719.589	7199.73
719.932	7204.02
720.275	7189.1
720.617	7173.51
720.96	7183.46
721.303	7225.71
721.646	7209.9
721.989	7155.43
722.331	7184.59
722.674	7176
723.016	7123.34
723.359	7116.56
723.701	7176.9
724.044	7149.11
724.386	7077.7
724.729	7168.31
725.071	7062.78
725.413	7078.83
725.755	7063.91
726.097	7049.67
726.439	7019.39
726.782	7030.92
727.124	7067.75
727.465	7040.63
727.807	7038.6
728.149	6979.84
728.491	6994.53
728.833	6987.53
729.175	6944.37
729.516	6995.66
729.858	6988.43
730.199	6942.78
730.541	6957.25
730.882	7013.97
731.224	6949.56
731.565	6922.45
731.906	6920.19
732.248	6931.94
732.589	6943.24
732.93	6892.39
733.271	6904.82
733.612	6920.64
733.953	6949.79
734.294	6865.05
734.635	6933.74
734.976	6876.34
735.317	6889
735.658	6910.02
735.999	6959.96
736.339	6960.41
736.68	6941.65
737.021	6923.12
737.361	6870.92
737.702	6958.38
738.042	6915.67
738.383	6883.35
738.723	6935.1
739.063	6878.15
739.404	6901.88
739.744	6924.25
740.084	6898.94
740.424	6956.57
740.764	6897.14
741.104	6949.11
741.444	6894.88
741.784	6896.68
742.124	6912.05
742.464	6963.35
742.804	6890.36
743.143	6940.75
743.483	6956.79
743.823	7003.35
744.162	6973.97
744.502	7009.45
744.841	6995.66
745.181	7019.62
745.52	7020.3
745.86	7022.56
746.199	7069.56
746.538	7062.55
746.877	7123.57
747.216	7152.04
747.556	7132.16
747.895	7201.31
748.234	7196.34
748.573	7188.65
748.911	7252.15
749.25	7312.49
749.589	7288.09
749.928	7366.05
750.267	7392.04
750.605	7459.61
750.944	7439.72
751.283	7558.81
751.621	7521.98
751.96	7621.86
752.298	7626.61
752.636	7728.75
752.975	7765.36
753.313	7791.35
753.651	7900.27
753.989	7897.56
754.327	8077.44
754.666	8049.87
755.004	8092.13
755.342	8161.28
755.679	8292.8
756.017	8364.67
756.355	8397.89
756.693	8469.98
757.031	8558.11
757.368	8610.54
757.706	8672.46
758.044	8746.8
758.381	8892.56
758.719	8859.57
759.056	9014.59
759.394	9154.7
759.731	9185.89
760.068	9307.69
760.405	9316.73
760.743	9398.09
761.08	9461.81
761.417	9556.27
761.754	9643.73
762.091	9778.87
762.428	9874.46
762.765	9897.51
763.102	10069.71
763.438	10069.93
763.775	10170.5
764.112	10269.7
764.449	10376.82
764.785	10468.79
765.122	10568.45
765.458	10563.25
765.795	10636.7
766.131	10642.12
766.467	10756.69
766.804	10821.55
767.14	10875.34
767.476	10968.67
767.812	10910.36
768.148	11100.64
768.485	11102.67
768.821	11092.28
769.157	11316.23
769.492	11235.78
769.828	11349
770.164	11347.41
770.5	11396.23
770.836	11485.26
771.171	11438.03
771.507	11473.06
771.842	11499.95
772.178	11568.65
772.513	11627.41
772.849	11613.62
773.184	11700.4
773.519	11765.26
773.855	11680.74
774.19	11792.83
774.525	11798.25
774.86	11836.21
775.195	11784.92
775.53	11857.68
775.865	11892.48
776.2	11828.76
776.535	11780.62
776.87	11878.47
777.205	11851.13
777.539	11826.27
777.874	11934.74
778.209	11923.22
778.543	11826.04
778.878	11870.11
779.212	11866.27
779.547	11795.99
779.881	11905.59
780.215	11849.1
780.55	11956.66
780.884	11906.72
781.218	11869.43
781.552	11869.43
781.886	11858.36
782.22	11833.05
782.554	11798.93
782.888	11780.85
783.222	11730.68
783.556	11748.53
783.889	11686.39
784.223	11625.6
784.557	11619.04
784.89	11650
785.224	11645.26
785.557	11669.66
785.891	11657.46
786.224	11647.29
786.558	11616.56
786.891	11565.26
787.224	11549.44
787.557	11536.56
787.891	11479.84
788.224	11504.7
788.557	11509.44
788.89	11480.07
789.223	11466.96
789.556	11416.56
789.888	11365.72
790.221	11351.48
790.554	11263.35
790.887	11262.44
791.219	11261.31
791.552	11266.96
791.884	11220.86
792.217	11230.81
792.549	11191.49
792.882	11173.18
793.214	11120.53
793.546	11087.53
793.879	11111.94
794.211	11032.17
794.543	11080.3
794.875	11031.72
795.207	11075.56
795.539	10953.53
795.871	11051.6
796.203	10955.11
796.535	10908.1
796.867	10899.06
797.198	10868.56
797.53	10879.18
797.862	10765.06
798.193	10800.54
798.525	10780.2
798.856	10807.99
799.188	10645.29
799.519	10567.32
799.85	10582.46
800.182	10586.3
800.513	10588.79
800.844	10485.74
801.175	10615.68
801.506	10479.19
801.837	10484.39
802.168	10461.56
802.499	10425.63
802.83	10399.64
803.161	10374.11
803.491	10342.24
803.822	10371.62
804.153	10289.36
804.483	10279.42
804.814	10219.08
805.145	10231.06
805.475	10200.78
805.805	10164.85
806.136	10233.09
806.466	10150.16
806.796	10122.36
807.126	10038.3
807.457	10022.7
807.787	10085.53
808.117	10002.14
808.447	9946.55
808.777	10058.86
809.107	9985.42
809.436	9932.08
809.766	9930.95
810.096	9851.41
810.426	9864.51
810.755	9847.34
811.085	9873.33
811.414	9812.54
811.744	9697.06
812.073	9751.07
812.403	9768.92
812.732	9619.32
813.061	9679.43
813.39	9641.24
813.719	9598.08
814.049	9635.14
814.378	9566.9
814.707	9575.48
815.036	9571.19
815.365	9528.48
815.693	9456.84
816.022	9439.89
816.351	9432.66
816.68	9428.59
817.008	9385.66
817.337	9405.77
817.665	9304.53
817.994	9380.23
818.322	9398.09
818.651	9411.87
818.979	9340.23
819.307	9329.39
819.636	9305.43
819.964	9261.82
820.292	9295.04
820.62	9220.92
820.948	9303.85
821.276	9266.34
821.604	9291.42
821.932	9253.23
822.259	9269.73
822.587	9264.08
822.915	9225.89
823.243	9268.37
823.57	9208.49
823.898	9222.72
824.225	9212.1
824.553	9209.16
824.88	9242.61
825.207	9211.2
825.535	9258.2
825.862	9293.23
826.189	9243.06
826.516	9203.97
826.843	9275.15
827.17	9220.92
827.497	9271.31
827.824	9271.31
828.151	9222.05
828.478	9273.34
828.805	9293.46
829.131	9277.64
829.458	9297.3
829.785	9187.92
830.111	9208.26
830.438	9301.14
830.764	9271.76
831.09	9240.12
831.417	9271.08
831.743	9293.68
832.069	9213.46
832.395	9190.41
832.722	9267.02
833.048	9238.32
833.374	9206.9
833.7	9204.42
834.026	9170.97
834.351	9196.74
834.677	9177.3
835.003	9205.1
835.329	9192.89
835.654	9135.04
835.98	9217.98
836.306	9156.96
836.631	9070.64
836.956	9067.25
837.282	9124.2
837.607	9057.76
837.932	9072.67
838.258	9049.62
838.583	9050.07
838.908	8985.89
839.233	9026.34
839.558	8952.9
839.883	8987.02
840.208	8950.41
840.533	8913.13
840.858	8950.64
841.182	8951.77
841.507	8878.33
841.832	8908.83
842.156	8900.47
842.481	8842.17
842.805	8852.56
843.13	8794.26
843.454	8773.92
843.778	8763.98
844.103	8719.23
844.427	8716.07
844.751	8718.78
845.075	8723.08
845.399	8698.67
845.723	8613.7
846.047	8634.49
846.371	8502.74
846.695	8641.27
847.019	8511.33
847.343	8492.57
847.666	8441.05
847.99	8349.07
848.313	8413.93
848.637	8398.56
848.96	8342.29
849.284	8269.53
849.607	8292.8
849.931	8227.95
850.254	8182.07
850.577	8210.55
850.9	8114.28
851.223	8099.82
851.546	8065.01
851.869	8014.39
852.192	8077.44
852.515	7945.47
852.838	7931.01
853.161	7912.7
853.483	7908.41
853.806	7879.71
854.129	7876.32
854.451	7775.08
854.774	7783.44
855.096	7827.28
855.419	7766.72
855.741	7778.92
856.063	7744.12
856.385	7740.73
856.708	7722.88
857.03	7621.18
857.352	7618.25
857.674	7596.33
857.996	7514.29
858.318	7518.14
858.64	7543.45
858.961	7578.7
859.283	7495.31
859.605	7449.66
859.926	7442.88
860.248	7429.78
860.57	7456.67
860.891	7369.66
861.212	7391.81
861.534	7357.24
861.855	7365.37
862.176	7298.25
862.498	7289.67
862.819	7302.1
863.14	7289.89
863.461	7277.46
863.782	7229.33
864.103	7277.24
864.424	7235.66
864.745	7227.97
865.065	7203.34
865.386	7176.22
865.707	7165.15
866.027	7170.8
866.348	7178.94
866.668	7167.18
866.989	7100.75
867.309	7079.28
867.63	7126.96
867.95	7120.86
868.27	7088.32
868.59	7099.62
868.91	7137.35
869.23	7018.71
869.55	6974.65
869.87	7111.82
870.19	7015.32
870.51	7078.37
870.83	7004.25
871.15	6998.38
871.469	7004.93
871.789	7035.44
872.109	7000.86
872.428	6901.43
872.748	6952.73
873.067	6926.51
873.386	6916.57
873.706	6901.88
874.025	6890.36
874.344	6908.66
874.663	6931.48
874.982	6899.17
875.301	6858.27
875.62	6860.75
875.939	6833.63
876.258	6827.53
876.577	6802.9
876.896	6792.96
877.214	6780.3
877.533	6834.54
877.852	6790.02
878.17	6815.1
878.489	6805.16
878.807	6794.99
879.125	6732.85
879.444	6768.78
879.762	6740.75
880.08	6709.34
880.398	6645.62
880.716	6665.05
881.034	6612.4
881.352	6670.93
881.67	6654.2
881.988	6641.55
882.306	6587.76
882.624	6618.05
882.941	6544.6
883.259	6539.63
883.577	6573.53
883.894	6503.47
884.212	6497.37
884.529	6495.79
884.846	6481.1
885.164	6476.81
885.481	6467.32
885.798	6527.43
886.115	6379.63
886.432	6406.53
886.75	6363.36
887.067	6359.3
887.383	6348.67
887.7	6385.28
888.017	6375.34
888.334	6354.78
888.651	6345.29
888.967	6321.1
889.284	6305.96
889.6	6298.73
889.917	6302.12
890.233	6237.49
890.55	6200.88
890.866	6197.49
891.182	6211.28
891.498	6183.93
891.815	6097.38
892.131	6149.36
892.447	6121.11
892.763	6021
893.079	6043.37
893.395	6002.47
893.71	6015.8
894.026	6043.82
894.342	6047.89
894.657	6005.18
894.973	5933.32
895.289	5967.67
895.604	5912.08
895.92	5934.9
896.235	5919.99
896.55	5906.88
896.865	5846.32
897.181	5870.5
897.496	5837.95
897.811	5814
898.126	5778.97
898.441	5767.45
898.756	5771.06
899.071	5730.61
899.386	5767.67
899.7	5698.52
900.015	5599.32
900.33	5627.34
900.644	5598.86
900.959	5679.09
901.273	5593.89
901.588	5558.64
901.902	5521.58
902.216	5523.39
902.531	5534.46
902.845	5497.17
903.159	5477.29
903.473	5476.83
903.787	5406.1
904.101	5431.18
904.415	5430.73
904.729	5379.21
905.042	5390.96
905.356	5360.45
905.67	5359.55
905.984	5303.5
906.297	5264.86
906.611	5265.77
906.924	5283.84
907.237	5254.92
907.551	5217.86
907.864	5190.74
908.177	5212.21
908.491	5164.75
908.804	5119.78
909.117	5098.31
909.43	5069.16
909.743	5048.14
910.056	5046.34
910.368	5064.64
910.681	5053.34
910.994	4991.65
911.307	4967.24
911.619	4960.24
911.932	4968.6
912.244	4925.44
912.557	4901.93
912.869	4849.51
913.181	4905.1
913.494	4841.37
913.806	4811.09
914.118	4781.48
914.43	4776.96
914.742	4748.04
915.054	4743.75
915.366	4761.37
915.678	4702.39
915.99	4668.95
916.302	4685.89
916.613	4689.06
916.925	4676.63
917.236	4639.12
917.548	4605.9
917.859	4580.36
918.171	4578.78
918.482	4575.39
918.794	4569.51
919.105	4484.77
919.416	4528.84
919.727	4481.15
920.038	4474.6
920.349	4452.91
920.66	4428.05
920.971	4416.07
921.282	4435.5
921.593	4371.33
921.903	4341.04
922.214	4380.37
922.525	4323.19
922.835	4280.48
923.146	4277.09
923.456	4277.77
923.767	4254.04
924.077	4253.81
924.387	4207.94
924.697	4207.04
925.008	4185.12
925.318	4161.16
925.628	4161.84
925.938	4167.72
926.248	4098.11
926.558	4098.34
926.867	4092.91
927.177	4089.07
927.487	4081.62
927.796	4042.29
928.106	4045.91
928.416	4031.45
928.725	4023.09
929.034	3968.4
929.344	3980.38
929.653	3961.62
929.962	3902.19
930.271	3883.2
930.581	3904.45
930.89	3872.36
931.199	3887.72
931.508	3839.14
931.817	3860.38
932.125	3878.68
932.434	3825.58
932.743	3822.19
933.051	3779.25
933.36	3733.15
933.669	3744.9
933.977	3731.12
934.286	3712.59
934.594	3729.76
934.902	3672.14
935.21	3684.56
935.519	3648.18
935.827	3687.5
936.135	3648.41
936.443	3613.15
936.751	3593.95
937.059	3582.42
937.367	3567.28
937.674	3579.71
937.982	3553.04
938.29	3529.31
938.597	3552.36
938.905	3476.66
939.213	3462.65
939.52	3457.45
939.827	3496.55
940.135	3442.08
940.442	3429.66
940.749	3425.81
941.056	3431.69
941.363	3412.25
941.67	3386.49
941.977	3353.73
942.284	3346.27
942.591	3297.68
942.898	3299.94
943.205	3311.92
943.511	3307.17
943.818	3285.48
944.125	3276.67
944.431	3235.54
944.738	3243.45
945.044	3213.62
945.35	3211.58
945.657	3247.06
945.963	3204.35
946.269	3183.33
946.575	3174.75
946.881	3164.58
947.187	3184.01
947.493	3140.62
947.799	3078.03
948.105	3084.13
948.41	3073.05
948.716	3068.31
949.022	3084.81
949.327	3057.01
949.633	3047.29
949.938	3041.42
950.244	3022.43
950.549	2998.93
950.854	2958.71
951.16	3002.32
951.465	2985.83
951.77	2951.7
952.075	2926.62
952.38	2918.93
952.685	2880.29
952.99	2887.07
953.294	2934.75
953.599	2848.43
953.904	2846.39
954.209	2884.81
954.513	2837.35
954.818	2821.31
955.122	2810.69
955.426	2806.17
955.731	2757.36
956.035	2777.7
956.339	2779.5
956.643	2781.99
956.948	2780.86
957.252	2739.05
957.556	2733.18
957.86	2699.05
958.163	2725.04
958.467	2751.93
958.771	2691.82
959.075	2698.83
959.378	2660.41
959.682	2642.56
959.985	2657.25
960.289	2614.99
960.592	2590.36
960.896	2639.39
961.199	2580.19
961.502	2590.58
961.805	2568.21
962.108	2552.39
962.411	2538.15
962.714	2550.13
963.017	2535.67
963.32	2560.75
963.623	2495.89
963.926	2509.68
964.228	2504.93
964.531	2506.29
964.833	2473.3
965.136	2455.44
965.438	2448.89
965.741	2409.12
966.043	2432.85
966.345	2422.68
966.648	2439.85
966.95	2431.04
967.252	2422.9
967.554	2404.37
967.856	2386.97
968.158	2387.65
968.46	2346.07
968.761	2334.77
969.063	2335.9
969.365	2316.46
969.666	2336.35
969.968	2306.07
970.269	2270.82
970.571	2281.44
970.872	2313.98
971.174	2242.79
971.475	2251.61
971.776	2269.69
972.077	2245.96
972.378	2259.97
972.679	2211.61
972.98	2220.2
973.281	2239.63
973.582	2203.93
973.883	2187.88
974.183	2201.89
974.484	2169.8
974.785	2189.91
975.085	2154.21
975.386	2200.08
975.686	2170.71
975.986	2153.08
976.287	2112.85
976.587	2114.44
976.887	2109.46
977.187	2097.49
977.487	2114.66
977.787	2076.47
978.087	2096.81
978.387	2075.11
978.687	2076.47
978.987	2029.24
979.286	2077.15
979.586	2038.51
979.885	2017.26
980.185	2035.34
980.484	2025.17
980.784	1998.05
981.083	1975.91
981.382	1978.62
981.682	1961.9
981.981	1929.13
982.28	1994.44
982.579	1927.55
982.878	1963.93
983.177	1959.19
983.475	1954.67
983.774	1895.68
984.073	1899.53
984.372	1911.5
984.67	1906.76
984.969	1906.76
985.267	1895.23
985.566	1887.32
985.864	1848.45
986.162	1847.32
986.461	1865.63
986.759	1854.33
987.057	1846.19
987.355	1814.56
987.653	1802.35
987.951	1769.13
988.249	1795.35
988.547	1804.61
988.844	1780.43
989.142	1754.22
989.44	1785.41
989.737	1773.65
990.035	1738.85
990.332	1739.76
990.63	1758.29
990.927	1736.82
991.224	1725.52
991.521	1744.73
991.819	1718.06
992.116	1713.54
992.413	1682.81
992.71	1701.34
993.006	1707.67
993.303	1656.59
993.6	1688.91
993.897	1646.65
994.193	1672.41
994.49	1670.38
994.787	1654.11
995.083	1648.91
995.379	1619.53
995.676	1628.57
995.972	1592.19
996.268	1613.66
996.565	1601
996.861	1586.54
997.157	1595.13
997.453	1612.53
997.749	1593.55
998.044	1560.33
998.34	1550.61
998.636	1551.51
998.932	1539.99
999.227	1515.58
999.523	1528.24
999.818	1512.87
1000.114	1499.54
1000.409	1502.47
1000.704	1539.08
1001	1500.67
1001.295	1509.93
1001.59	1470.39
1001.885	1472.42
1002.18	1461.12
1002.475	1469.26
1002.77	1436.49
1003.065	1431.97
1003.359	1452.53
1003.654	1434.23
1003.949	1425.87
1004.243	1405.53
1004.538	1383.61
1004.832	1411.63
1005.127	1398.97
1005.421	1401.23
1005.715	1377.51
1006.009	1346.32
1006.304	1340.22
1006.598	1344.96
1006.892	1346.09
1007.186	1346.09
1007.48	1299.32
1007.773	1299.32
1008.067	1321.24
1008.361	1331.41
1008.655	1319.43
1008.948	1285.76
1009.242	1288.92
1009.535	1301.58
1009.829	1290.05
1010.122	1267.45
1010.415	1271.29
1010.708	1253.44
1011.001	1249.37
1011.295	1249.15
1011.588	1258.64
1011.881	1226.32
1012.173	1239.2
1012.466	1238.75
1012.759	1208.7
1013.052	1203.73
1013.344	1166.44
1013.637	1197.85
1013.93	1165.31
1014.222	1170.05
1014.514	1175.25
1014.807	1167.57
1015.099	1143.39
1015.391	1151.52
1015.683	1172.09
1015.976	1135.25
1016.268	1149.26
1016.56	1137.96
1016.851	1124.63
1017.143	1114.69
1017.435	1135.48
1017.727	1116.95
1018.018	1115.82
1018.31	1102.94
1018.602	1103.84
1018.893	1088.93
1019.185	1093.45
1019.476	1056.16
1019.767	1071.75
1020.058	1081.24
1020.35	1064.07
1020.641	1037.85
1020.932	1050.06
1021.223	1029.27
1021.514	1021.13
1021.804	1033.11
1022.095	995.82
1022.386	995.37
1022.677	1008.48
1022.967	1016.84
1023.258	1006.44
1023.548	995.14
1023.839	987.91
1024.129	977.29
1024.419	972.09
1024.709	963.28
1025	977.29
1025.29	949.04
1025.58	919.89
1025.87	962.15
1026.16	941.13
1026.449	937.07
1026.739	926.44
1027.029	906.78
1027.319	917.63
1027.608	918.54
1027.898	892.32
1028.187	886.22
1028.477	879.21
1028.766	871.53
1029.055	888.48
1029.344	854.13
1029.634	877.18
1029.923	856.84
1030.212	873.34
1030.501	859.55
1030.79	883.73
1031.078	849.61
1031.367	844.41
1031.656	867.92
1031.945	813.23
1032.233	820.68
1032.522	816.62
1032.81	817.75
1033.099	822.27
1033.387	801.93
1033.675	806.45
1033.963	833.34
1034.251	814.58
1034.54	819.78
1034.828	787.47
1035.116	787.01
1035.403	793.34
1035.691	779.56
1035.979	747.92
1036.267	782.49
1036.554	778.2
1036.842	755.38
1037.129	751.08
1037.417	764.19
1037.704	737.52
1037.992	736.39
1038.279	743.85
1038.566	748.37
1038.853	748.37
1039.14	748.37
