Data from hue_50_FLMS001491_13.txt Node
Date: Mon Feb 06 15:09:39 GMT 2017
User: dcchb
Spectrometer: FLMS00149
Trigger mode: 0
Integration Time (sec): 2.000000E-2
Scans to average: 10
Electric dark correction enabled: true
Nonlinearity correction enabled: false
Boxcar width: 0
XAxis mode: Wavelengths
Number of Pixels in Spectrum: 2048
>>>>>Begin Spectral Data<<<<<
341.393	-8.46
341.776	-8.46
342.16	-8.46
342.543	-41.45
342.927	-73.77
343.31	-83.03
343.693	-71.28
344.077	-76.03
344.46	-73.77
344.843	-44.39
345.226	-45.75
345.61	-16.6
345.993	-10.95
346.376	-0.55
346.759	12.1
347.142	33.8
347.525	28.15
347.908	61.59
348.291	67.7
348.674	109.05
349.057	109.95
349.44	135.94
349.823	130.07
350.206	165.55
350.588	204.19
350.971	213.91
351.354	225.88
351.737	240.35
352.119	267.69
352.502	261.36
352.884	301.36
353.267	301.81
353.65	285.32
354.032	299.1
354.414	329.16
354.797	308.82
355.179	314.02
355.562	328.25
355.944	321.25
356.326	344.75
356.709	343.17
357.091	329.61
357.473	345.88
357.855	342.27
358.238	339.78
358.62	344.07
359.002	353.56
359.384	316.73
359.766	337.07
360.148	345.43
360.53	343.17
360.912	343.39
361.294	334.58
361.676	327.58
362.057	332.77
362.439	319.21
362.821	330.74
363.203	329.16
363.584	319.67
363.966	321.02
364.348	322.6
364.729	326.9
365.111	320.57
365.493	308.14
365.874	302.27
366.256	324.64
366.637	326.22
367.019	324.64
367.4	315.6
367.781	310.18
368.163	322.6
368.544	304.75
368.925	309.95
369.306	304.3
369.688	314.7
370.069	315.37
370.45	305.88
370.831	321.47
371.212	292.1
371.593	321.47
371.974	318.31
372.355	312.21
372.736	309.5
373.117	321.02
373.498	297.97
373.879	314.24
374.26	316.73
374.641	321.93
375.021	311.53
375.402	301.36
375.783	307.46
376.163	348.82
376.544	321.7
376.925	332.77
377.305	318.54
377.686	330.29
378.066	319.67
378.447	323.28
378.827	323.06
379.208	320.12
379.588	322.15
379.968	332.1
380.349	325.54
380.729	338.42
381.109	331.64
381.489	335.03
381.87	306.33
382.25	333.45
382.63	342.94
383.01	324.64
383.39	324.64
383.77	346.33
384.15	349.95
384.53	337.97
384.91	337.29
385.29	349.5
385.67	335.94
386.049	349.04
386.429	340.46
386.809	334.81
387.189	335.94
387.568	342.72
387.948	349.27
388.328	358.54
388.707	362.6
389.087	340.01
389.466	356.28
389.846	354.92
390.225	344.07
390.605	335.49
390.984	356.05
391.363	333
391.743	339.78
392.122	353.34
392.501	340.91
392.881	365.54
393.26	362.6
393.639	363.96
394.018	346.56
394.397	389.27
394.776	368.93
395.155	363.28
395.534	372.09
395.913	345.43
396.292	362.15
396.671	349.04
397.05	368.03
397.429	367.8
397.808	364.86
398.186	382.04
398.565	358.99
398.944	362.15
399.323	362.38
399.701	365.09
400.08	380.91
400.458	373
400.837	370.06
401.215	375.26
401.594	393.56
401.972	378.87
402.351	384.3
402.729	374.81
403.107	392.43
403.486	411.42
403.864	381.59
404.242	396.5
404.62	396.73
404.999	385.2
405.377	401.02
405.755	393.56
406.133	404.64
406.511	402.83
406.889	388.14
407.267	416.84
407.645	397.18
408.023	417.07
408.401	398.99
408.779	419.33
409.156	411.87
409.534	432.43
409.912	410.29
410.29	434.69
410.667	416.39
411.045	441.47
411.422	430.4
411.8	420.91
412.178	435.82
412.555	429.04
412.933	429.27
413.31	423.17
413.687	438.99
414.065	415.03
414.442	454.35
414.819	432.66
415.197	471.08
415.574	454.35
415.951	461.81
416.328	449.38
416.705	469.04
417.082	465.2
417.46	466.78
417.837	474.24
418.214	470.17
418.591	457.74
418.967	475.82
419.344	483.28
419.721	474.46
420.098	476.05
420.475	482.6
420.852	507.68
421.228	474.92
421.605	489.15
421.982	491.41
422.358	488.02
422.735	507.23
423.111	490.51
423.488	496.84
423.864	486.44
424.241	521.02
424.617	485.09
424.994	506.55
425.37	506.55
425.746	515.59
426.123	510.62
426.499	519.44
426.875	513.11
427.251	537.29
427.627	537.06
428.003	534.8
428.379	534.58
428.756	544.52
429.132	527.8
429.507	560.79
429.883	551.75
430.259	558.76
430.635	565.08
431.011	575.48
431.387	589.94
431.763	580.68
432.138	562.37
432.514	596.5
432.89	603.05
433.265	577.97
433.641	584.97
434.016	593.33
434.392	584.97
434.767	615.03
435.143	605.99
435.518	612.54
435.894	624.74
436.269	635.59
436.644	626.55
437.02	620.9
437.395	607.79
437.77	623.84
438.145	634.23
438.52	652.09
438.895	656.61
439.271	656.61
439.646	658.19
440.021	655.25
440.395	659.54
440.77	657.06
441.145	684.63
441.52	682.82
441.895	689.15
442.27	671.07
442.645	667.91
443.019	683.72
443.394	675.36
443.769	694.35
444.143	696.38
444.518	707.23
444.892	688.02
445.267	690.96
445.641	709.04
446.016	719.66
446.39	709.04
446.764	734.57
447.139	723.05
447.513	723.95
447.887	728.02
448.262	743.16
448.636	740.22
449.01	734.8
449.384	763.5
449.758	749.26
450.132	757.62
450.506	731.41
450.88	755.81
451.254	764.85
451.628	789.94
452.002	779.99
452.376	768.47
452.75	775.47
453.123	774.34
453.497	803.72
453.871	802.37
454.244	815.47
454.618	815.92
454.992	828.35
455.365	834.68
455.739	836.26
456.112	833.78
456.486	883.49
456.859	861.12
457.232	892.76
457.606	875.58
457.979	893.21
458.352	906.09
458.725	901.35
459.099	887.56
459.472	935.7
459.845	932.76
460.218	939.09
460.591	935.24
460.964	964.62
461.337	961.68
461.71	967.33
462.083	993.32
462.456	999.87
462.829	1017.05
463.201	1016.82
463.574	1016.82
463.947	1030.61
464.32	1039.65
464.692	1078.52
465.065	1090.27
465.438	1101.79
465.81	1094.11
466.183	1116.48
466.555	1141.57
466.928	1168.46
467.3	1157.84
467.672	1178.63
468.045	1226.99
468.417	1200.55
468.789	1211.85
469.161	1217.95
469.534	1272.41
469.906	1302.69
470.278	1330.04
470.65	1349.47
471.022	1376.36
471.394	1379.53
471.766	1440.32
472.138	1406.64
472.51	1455.68
472.882	1530.71
473.253	1507.88
473.625	1550.59
473.997	1601.67
474.369	1615
474.74	1664.26
475.112	1696.13
475.484	1733.64
475.855	1779.06
476.227	1796.46
476.598	1870.59
476.97	1913.98
477.341	1952.17
477.713	1970.24
478.084	2015.89
478.455	2087.76
478.827	2179.73
479.198	2221.09
479.569	2258.82
479.94	2385.15
480.311	2398.26
480.682	2464.47
481.053	2555.99
481.424	2606.16
481.795	2692.94
482.166	2766.61
482.537	2814.52
482.908	2942.2
483.279	3021.52
483.65	3114.4
484.021	3201.4
484.391	3264.67
484.762	3359.13
485.133	3444.33
485.503	3538.79
485.874	3690.2
486.244	3730.42
486.615	3882.96
486.985	3985.33
487.356	4055.16
487.726	4195.05
488.097	4355.04
488.467	4433
488.837	4523.4
489.207	4674.35
489.578	4792.77
489.948	4934.46
490.318	4999.77
490.688	5080.67
491.058	5201.57
491.428	5356.37
491.798	5504.39
492.168	5664.84
492.538	5741.9
492.908	5914.77
493.278	6029.57
493.648	6113.64
494.017	6303.01
494.387	6384.59
494.757	6551.14
495.126	6697.8
495.496	6769.89
495.866	6882.88
496.235	6967.18
496.605	7157.91
496.974	7231.8
497.344	7430.67
497.713	7479.7
498.082	7615.52
498.452	7773.48
498.821	7908.17
499.19	7980.93
499.559	8162.62
499.928	8290.76
500.298	8401.71
500.667	8513.35
501.036	8536.4
501.405	8731.65
501.774	8781.14
502.143	8892.55
502.512	8965.54
502.88	9166.44
503.249	9238.08
503.618	9346.1
503.987	9512.19
504.356	9546.54
504.724	9662.47
505.093	9768.91
505.462	9859.53
505.83	9961.9
506.199	10116.47
506.567	10265.85
506.936	10311.72
507.304	10505.39
507.672	10566.18
508.041	10662.22
508.409	10769.56
508.777	10803.46
509.145	10958.71
509.514	11012.72
509.882	11159.38
510.25	11208.42
510.618	11347.4
510.986	11446.38
511.354	11608.18
511.722	11723.66
512.09	11790.55
512.458	11840.49
512.826	12048.17
513.193	12007.5
513.561	12191.67
513.929	12263.99
514.297	12411.55
514.664	12443.64
515.032	12580.14
515.4	12667.14
515.767	12739.45
516.135	12867.36
516.502	12851.54
516.869	13078.65
517.237	13168.14
517.604	13148.26
517.972	13288.59
518.339	13404.75
518.706	13443.62
519.073	13564.06
519.44	13670.5
519.808	13833.66
520.175	13811.97
520.542	14004.28
520.909	14096.48
521.276	14102.81
521.643	14293.54
522.009	14404.49
522.376	14510.03
522.743	14563.13
523.11	14721.77
523.477	14884.93
523.843	14890.36
524.21	15102.33
524.577	15208.31
524.943	15298.48
525.31	15350.01
525.676	15589.55
526.043	15604.01
526.409	15816.89
526.776	15908.64
527.142	15893.27
527.508	16056.2
527.874	16163.32
528.241	16253.94
528.607	16323.54
528.973	16462.29
529.339	16549.97
529.705	16663.19
530.071	16855.05
530.437	16871.55
530.803	16969.85
531.169	17084.88
531.535	17128.94
531.901	17210.07
532.267	17220.01
532.632	17370.29
532.998	17419.33
533.364	17549.04
533.73	17588.14
534.095	17784.97
534.461	17752.43
534.826	17895.25
535.192	18031.74
535.557	18082.14
535.923	18055.02
536.288	18134.34
536.653	18245.3
537.019	18227.22
537.384	18306.09
537.749	18451.39
538.114	18499.98
538.479	18525.97
538.845	18638.96
539.21	18596.93
539.575	18703.59
539.94	18825.62
540.305	18876.47
540.67	18979.06
541.034	18951.04
541.399	19164.82
541.764	19176.57
542.129	19243.01
542.494	19320.75
542.858	19318.72
543.223	19359.62
543.587	19567.3
543.952	19573.62
544.316	19603.23
544.681	19558.03
545.045	19729.33
545.41	19899.26
545.774	19926.83
546.138	19899.04
546.503	20138.58
546.867	20003.22
547.231	20163.89
547.595	20207.51
547.959	20248.63
548.324	20253.38
548.688	20333.38
549.052	20472.13
549.416	20545.58
549.779	20621.05
550.143	20646.82
550.507	20767.49
550.871	20881.61
551.235	20778.34
551.599	20967.94
551.962	21023.76
552.326	21056.75
552.689	21170.42
553.053	21042.51
553.417	21084.77
553.78	21548.94
554.143	21454.7
554.507	21546
554.87	21631.2
555.234	21820.57
555.597	21563.63
555.96	21763.62
556.323	21931.3
556.686	21933.79
557.05	22103.73
557.413	22224.4
557.776	22252.88
558.139	22342.36
558.502	22409.03
558.865	22433.21
559.228	22564.05
559.59	22652.86
559.953	22654.22
560.316	22969.47
560.679	22930.15
561.041	23079.97
561.404	23202.23
561.767	23300.08
562.129	23368.55
562.492	23559.51
562.854	23555.67
563.217	23377.37
563.579	23635.21
563.941	23804.7
564.304	23843.12
564.666	23937.58
565.028	24026.84
565.39	24272.71
565.753	24247.63
566.115	24285.59
566.477	24502.31
566.839	24566.71
567.201	24756.31
567.563	24660.95
567.925	24860.94
568.287	24794.05
568.648	25047.38
569.01	25138.9
569.372	25227.94
569.734	25253.93
570.095	25413.92
570.457	25405.79
570.819	25599.23
571.18	25603.3
571.542	25781.82
571.903	25788.83
572.265	25933.23
572.626	25971.87
572.987	26118.99
573.349	26157.41
573.71	26264.3
574.071	26409.6
574.432	26482.14
574.794	26649.82
575.155	26604.85
575.516	26531.86
575.877	26788.12
576.238	26912.19
576.599	27043.94
576.96	27066.99
577.32	27181.33
577.681	27245.51
578.042	27297.71
578.403	27452.29
578.763	27457.94
579.124	27551.95
579.485	27716.01
579.845	27761.43
580.206	27799.62
580.566	27905.61
580.927	27982.44
581.287	28247.52
581.648	28114.64
582.008	28229.89
582.368	28313.28
582.728	28514.18
583.089	28513.73
583.449	28600.51
583.809	28745.59
584.169	28920.5
584.529	28892.47
584.889	29167.27
585.249	29005.69
585.609	29131.56
585.969	29268.28
586.329	29363.65
586.688	29389.18
587.048	29612.23
587.408	29602.29
587.768	29763.64
588.127	29748.05
588.487	29728.84
588.846	30105.55
589.206	30040.92
589.565	30060.13
589.925	30373.34
590.284	30314.13
590.643	30550.74
591.003	30575.14
591.362	30700.11
591.721	30705.76
592.08	30830.5
592.44	30999.09
592.799	31069.14
593.158	31112.3
593.517	31117.95
593.876	31266.42
594.235	31368.79
594.593	31511.61
594.952	31549.58
595.311	31552.74
595.67	31818.73
596.029	31965.61
596.387	32063.92
596.746	32161.77
597.104	32119.96
597.463	32202.67
597.822	32390.91
598.18	32310.01
598.538	32328.09
598.897	32609.21
599.255	32462.55
599.613	32942.54
599.972	32800.62
600.33	32880.39
600.688	32906.38
601.046	33074.29
601.404	33030.67
601.762	33122.19
602.12	33337.78
602.478	33360.61
602.836	33458
603.194	33341.62
603.552	33480.6
603.91	33410.55
604.268	33750.2
604.625	33766.92
604.983	33844.43
605.341	33696.87
605.698	34017.31
606.056	34074.94
606.413	34134.14
606.771	34312.45
607.128	34379.56
607.485	34113.35
607.843	34253.92
608.2	34606
608.557	34719.21
608.914	34628.6
609.272	34816.61
609.629	34821.13
609.986	34978.64
610.343	34857.52
610.7	35124.63
611.057	35245.53
611.414	35082.37
611.771	35136.38
612.127	35290.05
612.484	35437.16
612.841	35465.41
613.198	35388.58
613.554	35464.05
613.911	35742.92
614.267	35774.78
614.624	35788.11
614.98	35819.3
615.337	35972.51
615.693	35958.73
616.05	35962.57
616.406	36190.14
616.762	36113.08
617.118	36295.22
617.475	36206.86
617.831	36360.08
618.187	36346.97
618.543	36437.36
618.899	36605.94
619.255	36641.65
619.611	36614.76
619.967	36855.43
620.323	36883.68
620.678	36796
621.034	36709.67
621.39	36794.41
621.746	36716.9
622.101	37189.88
622.457	36948.31
622.812	36965.48
623.168	37142.43
623.523	37194.86
623.879	37230.79
624.234	37037.12
624.589	37228.75
624.945	37324.8
625.3	37262.88
625.655	37203.89
626.01	37379.26
626.365	37413.83
626.72	37426.94
627.075	37373.61
627.43	37372.03
627.785	37302.65
628.14	37430.78
628.495	37492.02
628.85	37416.77
629.205	37258.13
629.559	37682.75
629.914	37339.03
630.269	37476.43
630.623	37347.39
630.978	37308.52
631.332	37610.21
631.687	37506.03
632.041	37398.01
632.396	37467.62
632.75	37359.6
633.104	37376.55
633.459	37233.95
633.813	37294.29
634.167	37203.67
634.521	37170.9
634.875	37306.94
635.229	37164.12
635.583	36979.49
635.937	37166.83
636.291	37197.12
636.645	37123.44
636.999	37059.94
637.352	37205.02
637.706	37023.79
638.06	37196.44
638.413	36983.56
638.767	37066.05
639.121	37124.12
639.474	36890.46
639.828	36835.32
640.181	36901.53
640.534	37022.43
640.888	36693.17
641.241	36765.71
641.594	36786.73
641.947	36948.08
642.301	36784.92
642.654	36819.05
643.007	36779.05
643.36	36831.02
643.713	36745.38
644.066	36785.15
644.419	36600.07
644.771	36294.54
645.124	36109.69
645.477	36073.08
645.83	35780.43
646.182	35685.06
646.535	35608.91
646.888	35492.53
647.24	35394
647.593	35671.28
647.945	35502.7
648.298	35421.12
648.65	35362.59
649.002	35355.81
649.355	35542.47
649.707	35372.3
650.059	35493.66
650.411	35946.53
650.763	35977.94
651.115	36320.08
651.467	36222.9
651.819	36171.15
652.171	36044.83
652.523	36175.67
652.875	36011.16
653.227	35878.05
653.578	36146.75
653.93	36115.11
654.282	35901.56
654.633	35818.39
654.985	35924.61
655.337	35923.7
655.688	36040.99
656.039	36114.43
656.391	35804.38
656.742	35788.56
657.094	35853.42
657.445	35841.67
657.796	35913.31
658.147	35874.44
658.498	35877.15
658.849	35890.03
659.2	35874.21
659.551	35698.85
659.902	35727.55
660.253	35752.18
660.604	35719.41
660.955	35738.4
661.306	35782.24
661.656	35712.18
662.007	35687.78
662.358	35636.48
662.708	35752.63
663.059	35607.78
663.409	35476.93
663.76	35791.28
664.11	35674.22
664.461	35786.98
664.811	35727.78
665.161	35788.34
665.511	35588.8
665.862	35679.41
666.212	35652.3
666.562	35669.92
666.912	35527.55
667.262	35698.85
667.612	35660.43
667.962	35779.98
668.312	35528.46
668.662	35754.22
669.011	35552.86
669.361	35416.6
669.711	35487.56
670.06	35504.05
670.41	35479.65
670.76	35346.99
671.109	35508.35
671.459	35489.14
671.808	35347.9
672.157	35547.22
672.507	35310.61
672.856	35290.27
673.205	35226.09
673.554	35379.54
673.904	35299.09
674.253	35464.73
674.602	35331.18
674.951	34792.43
675.3	34692.1
675.649	35254.12
675.998	35216.83
676.346	35263.61
676.695	35307.9
677.044	35003.73
677.393	35140.9
677.741	35172.08
678.09	35078.3
678.438	35003.95
678.787	35157.85
679.135	35098.41
679.484	34898.64
679.832	35049.6
680.181	34735.48
680.529	34874.01
680.877	34769.61
681.225	34729.84
681.573	35026.78
681.922	34797.86
682.27	34652.32
682.618	34676.73
682.966	34587.92
683.314	34679.22
683.661	34542.5
684.009	34353.8
684.357	34134.82
684.705	34263.41
685.053	34266.12
685.4	34260.7
685.748	34051.66
686.095	34073.36
686.443	34063.64
686.79	33808.28
687.138	33944.55
687.485	33836.3
687.832	33781.39
688.18	33758.56
688.527	33550.66
688.874	33724.21
689.221	33501.62
689.568	33483.77
689.915	33354.5
690.262	33387.5
690.609	33367.16
690.956	33239.71
691.303	33150.89
691.65	32964.23
691.997	33073.38
692.344	32771.02
692.69	32820.96
693.037	32796.78
693.383	32557.69
693.73	32714.97
694.077	32586.39
694.423	32474.53
694.769	32409.22
695.116	32365.38
695.462	32302.78
695.808	32196.57
696.155	32191.82
696.501	31994.09
696.847	32075.44
697.193	31766.52
697.539	31856.92
697.885	31696.24
698.231	31621.89
698.577	31596.13
698.923	31583.25
699.269	31225.29
699.614	31232.3
699.96	31209.48
700.306	31103.94
700.651	30995.92
700.997	30984.62
701.342	30974.91
701.688	30964.96
702.033	30778.53
702.379	30738.98
702.724	30668.7
703.069	30727.45
703.415	30318.65
703.76	30335.15
704.105	30354.13
704.45	30284.08
704.795	30149.84
705.14	30085.44
705.485	30016.96
705.83	29956.85
706.175	29977.19
706.52	29924.76
706.865	29795.73
707.209	29729.51
707.554	29606.13
707.899	29536.75
708.243	29571.78
708.588	29521.84
708.932	29355.51
709.277	29372.24
709.621	29309.19
709.966	29128.85
710.31	29134.05
710.654	28928.63
710.998	29005.92
711.342	28923.21
711.687	28837.79
712.031	28836.21
712.375	28672.82
712.719	28669.43
713.063	28615.87
713.407	28725.7
713.75	28569.09
714.094	28415.65
714.438	28323.22
714.782	28399.83
715.125	28232.15
715.469	28302.21
715.812	28212.27
716.156	28069.67
716.499	28019.28
716.843	28032.61
717.186	27901.09
717.53	28025.83
717.873	28008.43
718.216	27890.47
718.559	27827.19
718.902	27645.73
719.246	27668.1
719.589	27474.43
719.932	27579.51
720.275	27511.49
720.617	27469.91
720.96	27472.4
721.303	27374.77
721.646	27373.87
721.989	27160.77
722.331	27295.91
722.674	27229.69
723.016	27251.61
723.359	27140.2
723.701	27283.7
724.044	26943.6
724.386	26906.76
724.729	27069.7
725.071	26970.04
725.413	27038.74
725.755	26859.31
726.097	26802.81
726.439	26756.26
726.782	26632.2
727.124	26866.54
727.465	26594
727.807	26635.13
728.149	26480.33
728.491	26504.74
728.833	26439.43
729.175	26354.91
729.516	26342.26
729.858	26292.09
730.199	26343.39
730.541	26212.77
730.882	26222.04
731.224	26222.49
731.565	26012.78
731.906	26039.44
732.248	25995.6
732.589	25975.26
732.93	25905.89
733.271	25937.75
733.612	25877.41
733.953	25825.89
734.294	25728.04
734.635	25824.53
734.976	25819.56
735.317	25723.52
735.658	25676.06
735.999	25755.61
736.339	25618.44
736.68	25599.68
737.021	25656.63
737.361	25497.76
737.702	25619.57
738.042	25469.51
738.383	25282.63
738.723	25480.81
739.063	25366.92
739.404	25443.98
739.744	25225.23
740.084	25277.2
740.424	25224.1
740.764	25197.66
741.104	25275.62
741.444	25027.72
741.784	24922.86
742.124	25129.86
742.464	25042.18
742.804	24976.65
743.143	25016.64
743.483	24945.69
743.823	24923.54
744.162	24776.42
744.502	24799.02
744.841	24785.46
745.181	24875.41
745.52	24650.33
745.86	24678.8
746.199	24635.41
746.538	24699.59
746.877	24682.87
747.216	24651.46
747.556	24429.09
747.895	24442.65
748.234	24389.99
748.573	24336.44
748.911	24378.02
749.25	24234.07
749.589	24162.43
749.928	24186.61
750.267	24148.64
750.605	24181.41
750.944	24086.05
751.283	24082.43
751.621	23986.16
751.96	23887.18
752.298	23885.83
752.636	23872.95
752.975	23756.79
753.313	23642.44
753.651	23723.35
753.989	23642.44
754.327	23620.3
754.666	23526.06
755.004	23527.42
755.342	23589.34
755.679	23475.44
756.017	23440.87
756.355	23502.79
756.693	23244.71
757.031	23323.36
757.368	23104.38
757.706	23059.86
758.044	22979.86
758.381	23112.51
758.719	23005.4
759.056	22959.07
759.394	22821.67
759.731	22762.01
760.068	22716.14
760.405	22585.07
760.743	22499.2
761.08	22718.63
761.417	22358.41
761.754	22501.23
762.091	22438.18
762.428	22374
762.765	22158.41
763.102	22357.05
763.438	22147.12
763.775	22069.38
764.112	22096.95
764.449	21952.54
764.785	21864.64
765.122	21731.99
765.458	21653.8
765.795	21658.31
766.131	21617.86
766.467	21502.39
766.804	21580.8
767.14	21270.3
767.476	21411.77
767.812	21345.78
768.148	21377.42
768.485	21170.42
768.821	21067.37
769.157	20957.54
769.492	20901.05
769.828	20933.59
770.164	20715.74
770.5	20760.49
770.836	20741.28
771.171	20628.74
771.507	20527.72
771.842	20381.29
772.178	20324.56
772.513	20370.89
772.849	20249.09
773.184	20172.93
773.519	20188.75
773.855	20053.39
774.19	19946.95
774.525	19973.39
774.86	19850.23
775.195	19884.35
775.53	19685.49
775.865	19683.68
776.2	19567.52
776.535	19376.34
776.87	19390.35
777.205	19356.45
777.539	19224.93
777.874	19313.52
778.209	19143.35
778.543	19045.73
778.878	19048.21
779.212	19016.35
779.547	18869.24
779.881	18825.85
780.215	18689.58
780.55	18765.06
780.884	18697.49
781.218	18579.98
781.552	18615.68
781.886	18467.21
782.22	18373.2
782.554	18274.22
782.888	18178.63
783.222	18066.32
783.556	18046.21
783.889	17927.79
784.223	17849.6
784.557	17893.89
784.89	17811.64
785.224	17750.62
785.557	17547.91
785.891	17584.07
786.224	17475.83
786.558	17413
786.891	17386.56
787.224	17277.86
787.557	17311.76
787.891	17164.2
788.224	17108.38
788.557	17158.77
788.89	17052.56
789.223	17114.93
789.556	16822.51
789.888	16832
790.221	16791.78
790.554	16665.9
790.887	16726.69
791.219	16639.69
791.552	16512.46
791.884	16424.1
792.217	16434.95
792.549	16383.43
792.882	16240.38
793.214	16201.51
793.546	16179.59
793.879	16091.68
794.211	16098.69
794.543	16068.41
794.875	15993.83
795.207	16034.96
795.539	15993.83
795.871	15885.59
796.203	15757.45
796.535	15658.25
796.867	15625.93
797.198	15669.32
797.53	15595.65
797.862	15545.26
798.193	15460.51
798.525	15364.47
798.856	15492.83
799.188	15328.76
799.519	15272.04
799.85	15154.76
800.182	15143.91
800.513	15193.63
800.844	15079.05
801.175	15072.73
801.506	15080.63
801.837	15020.3
802.168	14954.99
802.499	14937.59
802.83	14813.3
803.161	14687.42
803.491	14741.89
803.822	14745.28
804.153	14599.74
804.483	14566.52
804.814	14555.9
805.145	14549.58
805.475	14437.26
805.805	14419.86
806.136	14372.18
806.466	14435.68
806.796	14397.71
807.126	14264.61
807.457	14219.41
807.787	14233.65
808.117	14155.01
808.447	14068.23
808.777	14112.3
809.107	14023.71
809.436	13982.36
809.766	14056.93
810.096	13867.33
810.426	13854.23
810.755	13844.28
811.085	13755.92
811.414	13840.22
811.744	13737.62
812.073	13667.11
812.403	13649.03
812.732	13595.7
813.061	13616.94
813.39	13496.04
813.719	13461.69
814.049	13458.3
814.378	13451.07
814.707	13401.58
815.036	13385.99
815.365	13326.56
815.693	13230.29
816.022	13205.43
816.351	13151.65
816.68	13151.42
817.008	13156.17
817.337	13074.59
817.665	13035.94
817.994	13052.21
818.322	12998.88
818.651	12957.07
818.979	12927.7
819.307	12939.22
819.636	12901.03
819.964	12857.64
820.292	12896.51
820.62	12849.28
820.948	12837.53
821.276	12843.63
821.604	12773.35
821.932	12796.17
822.259	12794.37
822.587	12776.97
822.915	12764.54
823.243	12818.1
823.57	12812.45
823.898	12831.2
824.225	12757.76
824.553	12718.21
824.88	12759.34
825.207	12766.35
825.535	12680.7
825.862	12753.92
826.189	12640.92
826.516	12741.04
826.843	12695.39
827.17	12723.86
827.497	12689.28
827.824	12764.31
828.151	12792.33
828.478	12719.34
828.805	12792.56
829.131	12772.45
829.458	12675.5
829.785	12622.17
830.111	12718.89
830.438	12689.28
830.764	12663.97
831.09	12711.43
831.417	12588.95
831.743	12683.41
832.069	12692.22
832.395	12590.53
832.722	12693.58
833.048	12599.57
833.374	12692
833.7	12591.66
834.026	12616.97
834.351	12566.8
834.677	12654.03
835.003	12588.5
835.329	12569.97
835.654	12526.13
835.98	12464.66
836.306	12520.48
836.631	12456.3
836.956	12417.43
837.282	12426.24
837.607	12421.72
837.932	12420.82
838.258	12396.86
838.583	12348.28
838.908	12322.06
839.233	12306.92
839.558	12268.96
839.883	12225.57
840.208	12125.91
840.533	12231.9
840.858	12198.9
841.182	12141.05
841.507	12138.57
841.832	12062.63
842.156	12073.48
842.481	12039.58
842.805	11961.39
843.13	11973.6
843.454	12040.26
843.778	11940.83
844.103	11944.9
844.427	11846.82
844.751	11983.77
845.075	11853.6
845.399	11779.7
845.723	11800.72
846.047	11714.85
846.371	11672.59
846.695	11630.33
847.019	11605.92
847.343	11570.22
847.666	11418.13
847.99	11485.02
848.313	11444.57
848.637	11336.55
848.96	11355.99
849.284	11244.35
849.607	11218.36
849.931	11233.73
850.254	11088.65
850.577	11060.4
850.9	10958.71
851.223	10950.57
851.546	10840.97
851.869	10873.06
852.192	10931.37
852.515	10721.88
852.838	10719.85
853.161	10722.56
853.483	10660.19
853.806	10613.63
854.129	10635.78
854.451	10584.93
854.774	10552.84
855.096	10499.51
855.419	10454.09
855.741	10491.38
856.063	10350.82
856.385	10382.23
856.708	10316.47
857.03	10270.82
857.352	10288.9
857.674	10199.41
857.996	10254.09
858.318	10198.05
858.64	10199.41
858.961	10119.41
859.283	10094.1
859.605	10120.31
859.926	10023.82
860.248	10024.27
860.57	9959.87
860.891	9979.98
861.212	9980.88
861.534	9905.63
861.855	9881.22
862.176	9935.01
862.498	9847.78
862.819	9884.16
863.14	9814.11
863.461	9819.53
863.782	9762.58
864.103	9800.1
864.424	9714.45
864.745	9734.11
865.065	9674.9
865.386	9632.42
865.707	9674.45
866.027	9646.88
866.348	9667.22
866.668	9622.92
866.989	9600.1
867.309	9585.19
867.63	9492.76
867.95	9519.42
868.27	9490.95
868.59	9548.8
868.91	9543.15
869.23	9525.07
869.55	9497.28
869.87	9469.93
870.19	9440.56
870.51	9434.23
870.83	9461.12
871.15	9363.04
871.469	9300
871.789	9401.91
872.109	9338.19
872.428	9330.28
872.748	9341.8
873.067	9344.97
873.386	9290.28
873.706	9293.44
874.025	9227.68
874.344	9225.87
874.663	9249.15
874.982	9212.31
875.301	9259.77
875.62	9140.68
875.939	9152.2
876.258	9167.12
876.577	9059.78
876.896	9092.77
877.214	9147.46
877.533	9052.77
877.852	9121.02
878.17	9091.19
878.489	9066.1
878.807	9054.35
879.125	9016.84
879.444	9104.97
879.762	8995.6
880.08	8981.13
880.398	8953.79
880.716	8933.23
881.034	8890.97
881.352	8907.24
881.67	8949.95
881.988	8930.51
882.306	8866.33
882.624	8825.21
882.941	8830.63
883.259	8791.31
883.577	8770.52
883.894	8745.89
884.212	8734.59
884.529	8789.27
884.846	8682.16
885.164	8635.61
885.481	8642.39
885.798	8615.27
886.115	8618.43
886.432	8638.09
886.75	8534.59
887.067	8567.13
887.383	8538.43
887.7	8618.21
888.017	8425.44
888.334	8468.61
888.651	8460.47
888.967	8373.01
889.284	8462.5
889.6	8353.35
889.917	8301.83
890.233	8367.82
890.55	8325.33
890.866	8260.47
891.182	8270.42
891.498	8219.8
891.815	8196.52
892.131	8171.21
892.447	8189.29
892.763	8150.87
893.079	8103.87
893.395	8074.72
893.71	8062.06
894.026	8009.18
894.342	8003.31
894.657	7906.81
894.973	7971.22
895.289	7993.82
895.604	7966.47
895.92	7856.64
896.235	7835.18
896.55	7839.02
896.865	7832.46
897.181	7790.43
897.496	7788.4
897.811	7746.14
898.126	7697.78
898.441	7650.32
898.756	7657.55
899.071	7596.54
899.386	7661.62
899.7	7577.78
900.015	7546.14
900.33	7469.08
900.644	7422.98
900.959	7511.57
901.273	7431.34
901.588	7412.59
901.902	7351.8
902.216	7343.21
902.531	7352.7
902.845	7336.21
903.159	7274.06
903.473	7269.09
903.787	7207.4
904.101	7254.63
904.415	7139.37
904.729	7148.87
905.042	7103.67
905.356	7095.31
905.67	7092.82
905.984	7051.69
906.297	7005.14
906.611	7007.63
906.924	7013.95
907.237	6931.47
907.551	6888.31
907.864	6858.03
908.177	6856.67
908.491	6857.35
908.804	6836.78
909.117	6742.55
909.43	6749.55
909.743	6770.8
910.056	6680.63
910.368	6713.62
910.681	6669.78
910.994	6634.98
911.307	6610.57
911.619	6543.46
911.932	6585.26
912.244	6467.08
912.557	6507.07
912.869	6462.33
913.181	6438.6
913.494	6439.51
913.806	6337.81
914.118	6329.9
914.43	6303.24
914.742	6333.52
915.054	6280.87
915.366	6262.79
915.678	6222.79
915.99	6248.78
916.302	6170.13
916.613	6175.78
916.925	6104.37
917.236	6095.56
917.548	6049.46
917.859	6067.31
918.171	5957.03
918.482	6003.36
918.794	5961.55
919.105	5953.64
919.416	5892.63
919.727	5911.84
920.038	5892.4
920.349	5810.37
920.66	5833.87
920.971	5814.44
921.282	5800.88
921.593	5759.3
921.903	5754.78
922.214	5698.73
922.525	5734.67
922.835	5642.92
923.146	5617.61
923.456	5629.81
923.767	5606.99
924.077	5587.32
924.387	5576.7
924.697	5521.34
925.008	5477.72
925.318	5494.22
925.628	5491.96
925.938	5473.66
926.248	5392.08
926.558	5387.56
926.867	5322.7
927.177	5297.16
927.487	5317.73
927.796	5249.03
928.106	5267.79
928.416	5257.39
928.725	5212.19
929.034	5222.14
929.344	5216.49
929.653	5202.48
929.962	5118.41
930.271	5142.14
930.581	5099.88
930.89	5056.72
931.199	5033.89
931.508	5025.31
931.817	5068.24
932.125	5032.54
932.434	5005.19
932.743	4986.21
933.051	4927
933.36	4927.91
933.669	4853.33
933.977	4814.46
934.286	4856.27
934.594	4811.75
934.902	4785.54
935.21	4760.91
935.519	4785.76
935.827	4708.25
936.135	4698.53
936.443	4684.98
936.751	4679.1
937.059	4692.66
937.367	4649.5
937.674	4635.26
937.982	4645.2
938.29	4575.83
938.597	4580.12
938.905	4523.4
939.213	4547.13
939.52	4471.65
939.827	4510.52
940.135	4477.3
940.442	4461.48
940.749	4467.35
941.056	4405.21
941.363	4362.5
941.67	4406.79
941.977	4315.04
942.284	4302.16
942.591	4334.02
942.898	4288.83
943.205	4308.71
943.511	4248.38
943.818	4272.56
944.125	4182.39
944.431	4194.37
944.738	4201.15
945.044	4207.47
945.35	4149.17
945.657	4157.53
945.963	4102.84
946.269	4093.13
946.575	4088.38
946.881	4051.32
947.187	4047.25
947.493	4008.38
947.799	4021.94
948.105	4017.2
948.41	4006.8
948.716	4004.32
949.022	3936.07
949.327	3977.42
949.633	3927.71
949.938	3927.48
950.244	3887.71
950.549	3828.28
950.854	3838.9
951.16	3833.92
951.465	3812.46
951.77	3823.98
952.075	3809.29
952.38	3780.14
952.685	3764.77
952.99	3758.67
953.294	3727.49
953.599	3710.76
953.904	3695.62
954.209	3643.87
954.513	3658.34
954.818	3663.08
955.122	3656.75
955.426	3652.46
955.731	3566.36
956.035	3569.3
956.339	3562.75
956.643	3557.1
956.948	3537.44
957.252	3534.95
957.556	3517.77
957.86	3492.46
958.163	3487.04
958.467	3430.55
958.771	3478.23
959.075	3387.83
959.378	3409.75
959.682	3425.57
959.985	3402.3
960.289	3371.56
960.592	3356.65
960.896	3345.12
961.199	3366.82
961.502	3343.32
961.805	3282.07
962.108	3257.89
962.411	3280.04
962.714	3236.88
963.017	3235.52
963.32	3269.42
963.623	3211.12
963.926	3202.98
964.228	3207.27
964.531	3158.24
964.833	3138.58
965.136	3163.89
965.438	3088.63
965.741	3103.55
966.043	3129.54
966.345	3080.05
966.648	3069.42
966.95	3075.98
967.252	3033.04
967.554	3033.95
967.856	3039.37
968.158	2996.43
968.46	3015.87
968.761	2996.66
969.063	2933.38
969.365	2947.39
969.666	2985.13
969.968	2932.25
970.269	2886.38
970.571	2960.95
970.872	2914.63
971.174	2910.33
971.475	2881.18
971.776	2870.56
972.077	2847.06
972.378	2828.3
972.679	2844.35
972.98	2812.26
973.281	2798.92
973.582	2771.81
973.883	2766.61
974.183	2782.2
974.484	2745.37
974.785	2737.68
975.085	2722.32
975.386	2736.55
975.686	2737
975.986	2725.71
976.287	2686.38
976.587	2686.38
976.887	2690.23
977.187	2705.82
977.487	2634.18
977.787	2605.26
978.087	2582.88
978.387	2569.33
978.687	2599.83
978.987	2600.28
979.286	2567.29
979.586	2532.49
979.885	2545.14
980.185	2554.41
980.484	2529.33
980.784	2480.97
981.083	2488.88
981.382	2477.35
981.682	2483.45
981.981	2456.79
982.28	2431.48
982.579	2455.43
982.878	2460.63
983.177	2437.58
983.475	2424.7
983.774	2439.84
984.073	2381.76
984.372	2380.63
984.67	2375.66
984.969	2388.09
985.267	2349.9
985.566	2323.46
985.864	2328.88
986.162	2336.79
986.461	2326.39
986.759	2323
987.057	2267.19
987.355	2310.12
987.653	2254.98
987.951	2251.82
988.249	2236.23
988.547	2229.22
988.844	2242.1
989.142	2231.48
989.44	2209.56
989.737	2186.96
990.035	2187.19
990.332	2196.23
990.63	2170.24
990.927	2162.56
991.224	2148.77
991.521	2186.28
991.819	2159.17
992.116	2167.98
992.413	2113.97
992.71	2110.35
993.006	2096.57
993.303	2074.2
993.6	2079.62
993.897	2055.21
994.193	2089.79
994.49	2058.83
994.787	2052.28
995.083	2025.38
995.379	2038.72
995.676	1989
995.972	1994.42
996.268	1975.22
996.565	1955.33
996.861	1977.7
997.157	1965.73
997.453	1946.52
997.749	1940.42
998.044	1907.65
998.34	1924.82
998.636	1941.09
998.932	1888.44
999.227	1874.88
999.523	1887.54
999.818	1863.13
1000.114	1872.62
1000.409	1847.99
1000.704	1844.37
1001	1822
1001.295	1828.55
1001.59	1813.64
1001.885	1830.81
1002.18	1805.28
1002.475	1791.49
1002.77	1796.01
1003.065	1804.15
1003.359	1784.04
1003.654	1780.87
1003.949	1742.68
1004.243	1748.56
1004.538	1725.05
1004.832	1737.48
1005.127	1730.93
1005.421	1711.04
1005.715	1689.35
1006.009	1688.9
1006.304	1676.47
1006.598	1671.95
1006.892	1650.48
1007.186	1638.28
1007.48	1633.08
1007.773	1615.9
1008.067	1631.27
1008.361	1593.53
1008.655	1612.97
1008.948	1600.54
1009.242	1596.92
1009.535	1564.61
1009.829	1573.19
1010.122	1567.77
1010.415	1531.84
1010.708	1541.1
1011.001	1570.93
1011.295	1521.22
1011.588	1518.28
1011.881	1507.88
1012.173	1501.78
1012.466	1498.84
1012.759	1444.38
1013.052	1482.35
1013.344	1485.29
1013.637	1471.5
1013.93	1444.16
1014.222	1447.09
1014.514	1433.54
1014.807	1437.6
1015.099	1456.13
1015.391	1430.15
1015.683	1396.93
1015.976	1392.63
1016.268	1390.6
1016.56	1407.77
1016.851	1385.63
1017.143	1372.75
1017.435	1328.91
1017.727	1369.36
1018.018	1353.09
1018.31	1322.8
1018.602	1343.37
1018.893	1301.79
1019.185	1303.37
1019.476	1290.49
1019.767	1286.87
1020.058	1269.25
1020.35	1255.91
1020.641	1247.33
1020.932	1236.25
1021.223	1244.16
1021.514	1234.44
1021.804	1207.1
1022.095	1221.34
1022.386	1219.3
1022.677	1217.04
1022.967	1189.7
1023.258	1184.5
1023.548	1200.77
1023.839	1189.93
1024.129	1173.88
1024.419	1159.19
1024.709	1154.22
1025	1140.21
1025.29	1133.88
1025.58	1149.02
1025.87	1118.29
1026.16	1108.35
1026.449	1109.93
1026.739	1094.11
1027.029	1114.45
1027.319	1105.18
1027.608	1096.14
1027.898	1082.81
1028.187	1103.6
1028.477	1056.14
1028.766	1087.33
1029.055	1061.79
1029.344	1037.84
1029.634	1025.64
1029.923	1026.09
1030.212	1025.41
1030.501	1055.24
1030.79	1003.94
1031.078	991.74
1031.367	1027.22
1031.656	986.77
1031.945	1007.78
1032.233	974.34
1032.522	959.88
1032.81	999.65
1033.099	1003.72
1033.387	975.69
1033.675	968.01
1033.963	954.9
1034.251	940.22
1034.54	941.8
1034.828	942.25
1035.116	930.72
1035.403	933.21
1035.691	907
1035.979	929.59
1036.267	903.15
1036.554	887.11
1036.842	893.44
1037.129	882.36
1037.417	879.43
1037.704	889.14
1037.992	854.34
1038.279	885.3
1038.566	862.03
1038.853	862.03
1039.14	862.03
