Data from hue_00_FLMS001491_67.txt Node
Date: Mon Feb 06 15:30:04 GMT 2017
User: dcchb
Spectrometer: FLMS00149
Trigger mode: 0
Integration Time (sec): 2.000000E-2
Scans to average: 10
Electric dark correction enabled: true
Nonlinearity correction enabled: false
Boxcar width: 0
XAxis mode: Wavelengths
Number of Pixels in Spectrum: 2048
>>>>>Begin Spectral Data<<<<<
341.393	-13.54
341.776	-13.54
342.16	-13.54
342.543	-67.33
342.927	-60.1
343.31	-68.23
343.693	-62.13
344.077	-61
344.46	-45.18
344.843	-53.09
345.226	-42.47
345.61	-50.15
345.993	-20.78
346.376	-15.35
346.759	11.09
347.142	21.26
347.525	63.74
347.908	60.58
348.291	68.26
348.674	95.15
349.057	98.32
349.44	123.4
349.823	160.24
350.206	167.24
350.588	200.23
350.971	208.37
351.354	243.62
351.737	240.91
352.119	263.74
352.502	277.07
352.884	259.44
353.267	290.18
353.65	313.23
354.032	306.45
354.414	295.37
354.797	325.43
355.179	323.85
355.562	334.92
355.944	325.88
356.326	341.93
356.709	340.8
357.091	348.25
357.473	354.13
357.855	348.03
358.238	372.43
358.62	348.71
359.002	358.42
359.384	343.73
359.766	343.06
360.148	328.59
360.53	343.28
360.912	332.66
361.294	339.89
361.676	327.92
362.057	324.07
362.439	357.97
362.821	336.95
363.203	320.46
363.584	341.47
363.966	329.27
364.348	332.21
364.729	333.56
365.111	320.01
365.493	326.11
365.874	328.59
366.256	315.49
366.637	327.92
367.019	336.28
367.4	332.66
367.781	326.56
368.163	318.88
368.544	327.24
368.925	308.25
369.306	330.4
369.688	306.45
370.069	302.83
370.45	327.24
370.831	299.22
371.212	329.95
371.593	328.14
371.974	300.8
372.355	293.34
372.736	324.98
373.117	316.62
373.498	313.9
373.879	320.23
374.26	308.25
374.641	311.42
375.021	301.02
375.402	328.59
375.783	336.73
376.163	315.03
376.544	325.66
376.925	316.84
377.305	313
377.686	317.97
378.066	341.25
378.447	308.71
378.827	333.56
379.208	334.02
379.588	340.8
379.968	347.12
380.349	336.5
380.729	351.19
381.109	317.29
381.489	347.12
381.87	335.6
382.25	323.85
382.63	323.85
383.01	348.71
383.39	349.16
383.77	329.5
384.15	352.1
384.53	345.77
384.91	310.29
385.29	344.86
385.67	365.88
386.049	325.43
386.429	330.85
386.809	345.54
387.189	331.53
387.568	344.86
387.948	355.26
388.328	349.84
388.707	351.87
389.087	342.15
389.466	356.61
389.846	372.66
390.225	342.38
390.605	376.73
390.984	356.39
391.363	377.41
391.743	361.13
392.122	349.16
392.501	383.96
392.881	347.8
393.26	373.11
393.639	358.42
394.018	372.21
394.397	386.22
394.776	352.55
395.155	362.04
395.534	353.23
395.913	385.54
396.292	383.96
396.671	339.67
397.05	382.15
397.429	372.89
397.808	379.21
398.186	386.44
398.565	374.92
398.944	384.41
399.323	390.96
399.701	392.09
400.08	400.68
400.458	395.03
400.837	397.07
401.215	391.19
401.594	377.86
401.972	390.29
402.351	397.29
402.729	413.56
403.107	400
403.486	402.94
403.864	407.24
404.242	395.94
404.62	422.38
404.999	406.78
405.377	402.94
405.755	397.07
406.133	414.69
406.511	430.96
406.889	431.42
407.267	444.07
407.645	424.86
408.023	409.04
408.401	428.48
408.779	437.52
409.156	424.41
409.534	438.87
409.912	431.64
410.29	423.51
410.667	449.95
411.045	418.08
411.422	428.7
411.8	456.27
412.178	464.18
412.555	440.68
412.933	448.36
413.31	471.41
413.687	454.47
414.065	460.57
414.442	460.79
414.819	467.35
415.197	466.44
415.574	475.48
415.951	458.99
416.328	477.52
416.705	473.9
417.082	476.39
417.46	466.44
417.837	504.86
418.214	506.67
418.591	500.79
418.967	515.03
419.344	484.07
419.721	489.72
420.098	502.6
420.475	515.71
420.852	491.98
421.228	505.09
421.605	508.93
421.982	512.77
422.358	525.2
422.735	561.58
423.111	515.93
423.488	528.81
423.864	531.75
424.241	534.46
424.617	537.18
424.994	544.86
425.37	551.64
425.746	520.45
426.123	568.36
426.499	546.89
426.875	535.59
427.251	557.06
427.627	563.62
428.003	580.11
428.379	573.78
428.756	577.17
429.132	576.72
429.507	584.63
429.883	591.64
430.259	586.21
430.635	591.86
431.011	607.68
431.387	631.86
431.763	608.36
432.138	601.58
432.514	612.88
432.89	609.04
433.265	618.75
433.641	608.81
434.016	622.37
434.392	617.85
434.767	669.15
435.143	655.59
435.518	668.47
435.894	667.12
436.269	640.22
436.644	672.54
437.02	693.78
437.395	655.59
437.77	674.8
438.145	674.8
438.52	691.52
438.895	683.84
439.271	711.18
439.646	702.82
440.021	703.5
440.395	691.75
440.77	721.35
441.145	725.64
441.52	721.8
441.895	727.68
442.27	735.14
442.645	733.55
443.019	731.52
443.394	749.6
443.769	745.31
444.143	756.83
444.518	737.62
444.892	763.84
445.267	751.63
445.641	769.71
446.016	764.74
446.39	774.68
446.764	783.04
447.139	791.86
447.513	792.54
447.887	779.65
448.262	799.32
448.636	800.9
449.01	793.21
449.384	790.05
449.758	806.55
450.132	808.13
450.506	824.85
450.88	834.34
451.254	821.01
451.628	828.92
452.002	837.96
452.376	825.3
452.75	863.04
453.123	849.26
453.497	851.29
453.871	856.94
454.244	864.62
454.618	895.36
454.992	879.77
455.365	889.03
455.739	867.11
456.112	919.54
456.486	919.09
456.859	922.7
457.232	931.97
457.606	934.45
457.979	939.88
458.352	922.93
458.725	959.99
459.099	943.04
459.472	991.4
459.845	1000.21
460.218	1018.29
460.591	996.82
460.964	997.73
461.337	1037.73
461.71	1040.66
462.083	1056.03
462.456	1060.33
462.829	1050.16
463.201	1087.67
463.574	1066.2
463.947	1089.03
464.32	1118.63
464.692	1104.84
465.065	1109.14
465.438	1124.28
465.81	1130.83
466.183	1140.32
466.555	1154.33
466.928	1197.5
467.3	1189.14
467.672	1201.11
468.045	1228
468.417	1222.35
468.789	1237.95
469.161	1261.22
469.534	1266.42
469.906	1306.19
470.278	1325.18
470.65	1282.24
471.022	1318.85
471.394	1361.33
471.766	1388
472.138	1376.25
472.51	1412.18
472.882	1428.45
473.253	1451.5
473.625	1478.62
473.997	1483.59
474.369	1504.61
474.74	1545.96
475.112	1532.86
475.484	1592.29
475.855	1598.39
476.227	1621.89
476.598	1682
476.97	1668.44
477.341	1731.72
477.713	1752.96
478.084	1756.35
478.455	1816.69
478.827	1840.87
479.198	1877.03
479.569	1876.57
479.94	1877.03
480.311	1938.49
480.682	1973.07
481.053	2036.8
481.424	2054.88
481.795	2094.42
482.166	2112.95
482.537	2131.26
482.908	2187.08
483.279	2221.88
483.65	2251.25
484.021	2295.55
484.391	2359.73
484.762	2342.78
485.133	2354.3
485.503	2435.2
485.874	2476.33
486.244	2477.92
486.615	2550.46
486.985	2561.98
487.356	2630.45
487.726	2611.24
488.097	2729.89
488.467	2709.1
488.837	2821.86
489.207	2789.77
489.578	2858.92
489.948	2850.79
490.318	2931.24
490.688	2924.23
491.058	2980.73
491.428	3023.66
491.798	3074.51
492.168	3076.54
492.538	3153.38
492.908	3164.45
493.278	3222.53
493.648	3194.05
494.017	3272.47
494.387	3317.22
494.757	3335.07
495.126	3322.64
495.496	3366.93
495.866	3355.63
496.235	3428.4
496.605	3469.3
496.974	3492.8
497.344	3537.32
497.713	3541.84
498.082	3593.14
498.452	3577.32
498.821	3599.24
499.19	3648.51
499.559	3679.69
499.928	3675.62
500.298	3708.84
500.667	3753.59
501.036	3727.37
501.405	3814.15
501.774	3784.32
502.143	3834.04
502.512	3819.35
502.88	3857.54
503.249	3850.76
503.618	3930.31
503.987	3963.07
504.356	3936.63
504.724	3991.1
505.093	4006.91
505.462	4015.28
505.83	3992
506.199	4055.05
506.567	4080.13
506.936	4084.88
507.304	4135.27
507.672	4123.07
508.041	4151.77
508.409	4174.59
508.777	4213.91
509.145	4192.22
509.514	4234.93
509.882	4228.15
510.25	4255.72
510.618	4310.18
510.986	4288.71
511.354	4329.84
511.722	4314.25
512.09	4401.03
512.458	4382.72
512.826	4410.52
513.193	4414.81
513.561	4469.95
513.929	4427.02
514.297	4501.36
514.664	4508.6
515.032	4512.21
515.4	4504.08
515.767	4552.66
516.135	4565.32
516.502	4521.03
516.869	4648.03
517.237	4615.71
517.604	4634.69
517.972	4622.49
518.339	4631.53
518.706	4665.88
519.073	4661.59
519.44	4657.07
519.808	4762.83
520.175	4761.24
520.542	4752.43
520.909	4772.32
521.276	4766.67
521.643	4794.92
522.009	4805.99
522.376	4853.9
522.743	4884.63
523.11	4896.83
523.477	4908.81
523.843	4954.23
524.21	4979.09
524.577	5048.69
524.943	5088.24
525.31	5099.77
525.676	5096.6
526.043	5092.99
526.409	5193.1
526.776	5179.54
527.142	5209.59
527.508	5191.97
527.874	5272.87
528.241	5258.86
528.607	5298.86
528.973	5304.28
529.339	5313.32
529.705	5331.85
530.071	5371.4
530.437	5435.8
530.803	5384.05
531.169	5448.91
531.535	5469.47
531.901	5494.56
532.267	5538.4
532.632	5563.48
532.998	5554.44
533.364	5631.05
533.73	5639.19
534.095	5629.47
534.461	5653.42
534.826	5705.85
535.192	5712.41
535.557	5756.47
535.923	5818.84
536.288	5799.18
536.653	5824.27
537.019	5789.47
537.384	5849.58
537.749	5917.15
538.114	5910.14
538.479	5930.71
538.845	5891.61
539.21	5963.02
539.575	5972.06
539.94	6016.35
540.305	6008.9
540.67	6024.26
541.034	6041.21
541.399	6061.78
541.764	6086.41
542.129	6094.32
542.494	6188.55
542.858	6201.66
543.223	6185.39
543.587	6269.23
543.952	6247.08
544.316	6285.05
544.681	6260.19
545.045	6281.88
545.41	6398.26
545.774	6363.01
546.138	6436.91
546.503	6413.63
546.867	6426.74
547.231	6446.4
547.595	6518.03
547.959	6530.92
548.324	6519.84
548.688	6541.09
549.052	6620.41
549.416	6657.01
549.779	6653.62
550.143	6656.79
550.507	6734.53
550.871	6738.82
551.235	6720.97
551.599	6805.94
551.962	6795.09
552.326	6827.18
552.689	6799.38
553.053	6774.53
553.417	6803.68
553.78	6907.63
554.143	6924.13
554.507	6965.71
554.87	6887.52
555.234	6996.44
555.597	6977.01
555.96	6979.49
556.323	6995.31
556.686	7033.95
557.05	7097.68
557.413	7053.16
557.776	7099.04
558.139	7141.3
558.502	7072.14
558.865	7122.76
559.228	7239.6
559.59	7204.8
559.953	7257.9
560.316	7339.48
560.679	7303.55
561.041	7367.28
561.404	7333.15
561.767	7415.64
562.129	7329.99
562.492	7443.21
562.854	7387.16
563.217	7399.59
563.579	7435.75
563.941	7522.3
564.304	7530.89
564.666	7532.47
565.028	7593.26
565.39	7574.5
565.753	7651.34
566.115	7688.63
566.477	7710.09
566.839	7685.46
567.201	7748.28
567.563	7794.39
567.925	7796.42
568.287	7845.68
568.648	7855.4
569.01	7940.14
569.372	8019.69
569.734	7941.05
570.095	8009.52
570.457	8056.53
570.819	8067.6
571.18	8057.2
571.542	8163.64
571.903	8181.49
572.265	8229.18
572.626	8315.73
572.987	8304.88
573.349	8337.65
573.71	8371.77
574.071	8402.96
574.432	8451.32
574.794	8577.19
575.155	8535.38
575.516	8669.84
575.877	8747.58
576.238	8742.61
576.599	8838.2
576.96	8868.03
577.32	8897.41
577.681	9056.73
578.042	9164.29
578.403	9158.87
578.763	9324.97
579.124	9396.15
579.485	9545.98
579.845	9605.64
580.206	9636.14
580.566	9759.53
580.927	9825.74
581.287	9993.88
581.648	10088.79
582.008	10180.99
582.368	10302.79
582.728	10508.89
583.089	10638.83
583.449	10756.12
583.809	10871.14
584.169	11031.36
584.529	11123.56
584.889	11413.27
585.249	11552.48
585.609	11790.21
585.969	11942.52
586.329	12049.64
586.688	12230.43
587.048	12477.88
587.408	12771.43
587.768	12919.45
588.127	13090.74
588.487	13312.88
588.846	13671.97
589.206	13729.6
589.565	13988.57
589.925	14298.85
590.284	14551.27
590.643	14787.2
591.003	15103.8
591.362	15405.26
591.721	15607.51
592.08	15861.07
592.44	16133.83
592.799	16448.62
593.158	16618.79
593.517	16850.19
593.876	17190.07
594.235	17441.36
594.593	17761.81
594.952	18033.21
595.311	18290.61
595.67	18592.75
596.029	18971.72
596.387	19241.99
596.746	19440.86
597.104	19540.07
597.463	20035.65
597.822	20357.9
598.18	20514.73
598.538	20800.82
598.897	21196.29
599.255	21231.77
599.613	21966.89
599.972	21934.13
600.33	22351.52
600.688	22571.17
601.046	22885.97
601.404	23116.69
601.762	23381.32
602.12	23878.26
602.478	23973.17
602.836	24220.62
603.194	24322.54
603.552	24677.11
603.91	24890.43
604.268	25141.05
604.625	25379.46
604.983	25693.12
605.341	25820.8
605.698	26229.38
606.056	26338.98
606.413	26606.32
606.771	26959.31
607.128	27206.76
607.485	27198.85
607.843	27464.38
608.2	27926.74
608.557	28015.55
608.914	28252.38
609.272	28668.19
609.629	28775.98
609.986	29034.05
610.343	29098.91
610.7	29438.34
611.057	29482.18
611.414	29721.04
611.771	29789.97
612.127	30162.38
612.484	30297.97
612.841	30578.19
613.198	30594.46
613.554	30855.02
613.911	31226.76
614.267	31239.42
614.624	31399.41
614.98	31549.47
615.337	31896.12
615.693	31837.14
616.05	32059.74
616.406	32268.54
616.762	32261.54
617.118	32518.26
617.475	32632.15
617.831	32771.36
618.187	33009.32
618.543	33060.16
618.899	33381.51
619.255	33445.24
619.611	33554.39
619.967	33677.32
620.323	33831.67
620.678	33749.18
621.034	33872.12
621.39	33956.41
621.746	34001.38
622.101	34536.96
622.457	34308.49
622.812	34462.84
623.168	34653.11
623.523	34713.45
623.879	34841.13
624.234	34710.51
624.589	34922.49
624.945	35085.42
625.3	35121.58
625.655	35275.92
626.01	35192.99
626.365	35411.96
626.72	35362.25
627.075	35382.81
627.43	35527.89
627.785	35465.97
628.14	35730.6
628.495	35674.56
628.85	35635.69
629.205	35566.08
629.559	35858.51
629.914	35751.39
630.269	35814.21
630.623	35676.36
630.978	35742.8
631.332	35945.74
631.687	35991.38
632.041	36189.8
632.396	35973.53
632.75	36009.24
633.104	35950.93
633.459	35943.48
633.813	35957.49
634.167	36057.15
634.521	35995.9
634.875	36081.33
635.229	36102.79
635.583	35901.67
635.937	35936.02
636.291	35921.56
636.645	36064.83
636.999	35891.05
637.352	36083.13
637.706	35949.8
638.06	36046.07
638.413	36057.37
638.767	35977.37
639.121	36143.24
639.474	35903.25
639.828	35945.74
640.181	36005.62
640.534	36046.3
640.888	35965.4
641.241	35732.63
641.594	35894.89
641.947	35988.22
642.301	35863.03
642.654	35939.41
643.007	35971.05
643.36	35851.5
643.713	35864.16
644.066	36012.63
644.419	35767.66
644.771	35411.29
645.124	35092.2
645.477	35119.77
645.83	34983.05
646.182	34915.71
646.535	34870.06
646.888	34932.88
647.24	34684.75
647.593	34941.47
647.945	34793.9
648.298	34719.78
648.65	34636.62
649.002	34507.13
649.355	34834.35
649.707	34820.57
650.059	34830.51
650.411	35171.74
650.763	35268.69
651.115	35585.75
651.467	35337.16
651.819	35426.88
652.171	35267.56
652.523	35457.61
652.875	35424.85
653.227	35078.19
653.578	35498.06
653.93	35389.59
654.282	35277.96
654.633	35165.19
654.985	35248.8
655.337	35263.27
655.688	35238.18
656.039	35308.24
656.391	35178.07
656.742	35215.13
657.094	35071.86
657.445	35182.37
657.796	35141.46
658.147	35108.92
658.498	35131.07
658.849	35133.1
659.2	35129.03
659.551	35020.56
659.902	35139.43
660.253	35085.42
660.604	35217.39
660.955	34959.09
661.306	35201.12
661.656	34978.08
662.007	35085.65
662.358	34855.82
662.708	35108.47
663.059	35083.61
663.409	34755.94
663.76	35183.04
664.11	34985.53
664.461	35015.14
664.811	35180.56
665.161	35018.98
665.511	34876.84
665.862	35127.23
666.212	35215.59
666.562	35060.56
666.912	35120.22
667.262	34967.46
667.612	35009.72
667.962	35046.1
668.312	34932.2
668.662	35088.36
669.011	34957.29
669.361	34999.09
669.711	34739.89
670.06	34805.43
670.41	34851.75
670.76	34888.81
671.109	34904.41
671.459	34761.59
671.808	34737.63
672.157	34925.42
672.507	34573.34
672.856	34761.59
673.205	34750.74
673.554	34806.33
673.904	34617.41
674.253	34903.28
674.602	34728.82
674.951	34213.35
675.3	34116.86
675.649	34448.83
675.998	34569.95
676.346	34610.18
676.695	34698.54
677.044	34483.18
677.393	34577.18
677.741	34660.8
678.09	34541.03
678.438	34370.86
678.787	34603.85
679.135	34497.86
679.484	34313.91
679.832	34387.58
680.181	34224.42
680.529	34419.45
680.877	34262.39
681.225	34319.79
681.573	34310.07
681.922	34152.11
682.27	34003.87
682.618	33979.23
682.966	33939.01
683.314	34020.14
683.661	33884.77
684.009	33724.55
684.357	33641.84
684.705	33692.69
685.053	33733.82
685.4	33594.84
685.748	33366.82
686.095	33437.1
686.443	33342.87
686.79	33332.25
687.138	33339.25
687.485	33348.52
687.832	33182.42
688.18	33254.51
688.527	33197.79
688.874	33148.07
689.221	33100.61
689.568	33024.23
689.915	32812.26
690.262	32917.57
690.609	32759.15
690.956	32666.27
691.303	32634.64
691.65	32489.78
691.997	32490.91
692.344	32283.91
692.69	32291.82
693.037	32322.33
693.383	31953.98
693.73	32231.26
694.077	31992.62
694.423	31943.81
694.769	31880.98
695.116	31739.97
695.462	31597.6
695.808	31683.93
696.155	31819.97
696.501	31586.53
696.847	31375.69
697.193	31356.03
697.539	31307.21
697.885	31188.8
698.231	31019.54
698.577	31059.08
698.923	30975.47
699.269	30832.65
699.614	30704.29
699.96	30583.62
700.306	30691.18
700.651	30504.97
700.997	30378.88
701.342	30414.58
701.688	30222.72
702.033	30275.6
702.379	30189.5
702.724	30151.54
703.069	30253.68
703.415	29821.6
703.76	29842.85
704.105	29868.38
704.45	29898.89
704.795	29747.71
705.14	29553.59
705.485	29551.55
705.83	29395.63
706.175	29463.19
706.52	29393.59
706.865	29226.59
707.209	29196.08
707.554	29156.76
707.899	29184.33
708.243	29074.96
708.588	29038.8
708.932	28815.98
709.277	28707.28
709.621	28734.85
709.966	28590.9
710.31	28781.86
710.654	28422.54
710.998	28483.33
711.342	28425.93
711.687	28358.36
712.031	28290.34
712.375	28141.42
712.719	28192.04
713.063	28144.58
713.407	28211.25
713.75	28084.7
714.094	28011.26
714.438	27889.45
714.782	28018.71
715.125	27786.85
715.469	27883.8
715.812	27659.85
716.156	27691.49
716.499	27728.1
716.843	27589.57
717.186	27469.8
717.53	27594.77
717.873	27587.09
718.216	27436.13
718.559	27382.8
718.902	27072.07
719.246	27275.68
719.589	27139.64
719.932	27114.56
720.275	27026.65
720.617	27000.66
720.96	27067.55
721.303	26985.29
721.646	27041.56
721.989	26820.1
722.331	26958.85
722.674	26846.99
723.016	26771.97
723.359	26839.99
723.701	26794.79
724.044	26653.1
724.386	26411.75
724.729	26597.51
725.071	26407.46
725.413	26436.16
725.755	26499.88
726.097	26319.32
726.439	26130.17
726.782	26289.49
727.124	26298.08
727.465	26148.03
727.807	26122.72
728.149	25960.24
728.491	25999.78
728.833	26132.89
729.175	26045.21
729.516	25886.11
729.858	25818.32
730.199	25906.9
730.541	25850.86
730.882	25812.67
731.224	25826.91
731.565	25705.55
731.906	25795.27
732.248	25660.58
732.589	25550.75
732.93	25576.29
733.271	25560.47
733.612	25604.76
733.953	25490.42
734.294	25369.52
734.635	25349.4
734.976	25444.99
735.317	25251.33
735.658	25319.35
735.999	25249.07
736.339	25130.88
736.68	25160.93
737.021	25087.94
737.361	24996.42
737.702	25162.74
738.042	25051.11
738.383	25065.34
738.723	25058.79
739.063	24900.83
739.404	24896.31
739.744	24871.22
740.084	24813.15
740.424	24884.56
740.764	24728.63
741.104	24870.09
741.444	24804.79
741.784	24710.55
742.124	24634.85
742.464	24569.54
742.804	24570.89
743.143	24470.56
743.483	24592.14
743.823	24419.49
744.162	24370.67
744.502	24487.28
744.841	24336.32
745.181	24468.98
745.52	24191.69
745.86	24352.14
746.199	24275.99
746.538	24159.6
746.877	24258.36
747.216	24326.61
747.556	24080.28
747.895	24153.05
748.234	24037.57
748.573	24013.85
748.911	23885.71
749.25	23943.79
749.589	23788.54
749.928	23831.93
750.267	23905.37
750.605	23836
750.944	23669.45
751.283	23616.57
751.621	23682.1
751.96	23557.36
752.298	23561.88
752.636	23565.27
752.975	23460.19
753.313	23440.3
753.651	23448.44
753.989	23373.86
754.327	23371.38
754.666	23238.27
755.004	23230.36
755.342	23272.62
755.679	23046.41
756.017	23123.47
756.355	23093.87
756.693	23001.67
757.031	22991.27
757.368	22968.45
757.706	22796.7
758.044	22788.57
758.381	22801.9
758.719	22723.94
759.056	22669.02
759.394	22523.72
759.731	22508.8
760.068	22530.72
760.405	22329.37
760.743	22274.23
761.08	22371.63
761.417	22243.95
761.754	22087.34
762.091	22062.71
762.428	22100.9
762.765	21952.21
763.102	21936.84
763.438	21822.49
763.775	21742.95
764.112	21795.6
764.449	21782.27
764.785	21689.16
765.122	21467.25
765.458	21437.87
765.795	21313.13
766.131	21351.32
766.467	21287.82
766.804	21128.72
767.14	21157.42
767.476	21171.43
767.812	20979.35
768.148	21038.56
768.485	20846.47
768.821	20754.27
769.157	20735.06
769.492	20737.32
769.828	20752.69
770.164	20451.45
770.5	20411.45
770.836	20384.11
771.171	20314.06
771.507	20217.56
771.842	20139.6
772.178	20222.76
772.513	20086.94
772.849	20037.45
773.184	19962.88
773.519	19997.91
773.855	19812.37
774.19	19790.68
774.525	19676.78
774.86	19680.63
775.195	19678.37
775.53	19491.48
775.865	19434.53
776.2	19254.2
776.535	19188.44
776.87	19178.49
777.205	19107.53
777.539	19043.36
777.874	19012.85
778.209	18910.93
778.543	18886.75
778.878	18743.02
779.212	18756.13
779.547	18633.65
779.881	18764.72
780.215	18463.71
780.55	18526.08
780.884	18495.35
781.218	18413.99
781.552	18402.24
781.886	18347.33
782.22	18208.57
782.554	18122.25
782.888	17919.99
783.222	17863.73
783.556	17770.17
783.889	17791.41
784.223	17594.81
784.557	17589.38
784.89	17630.74
785.224	17484.98
785.557	17476.62
785.891	17394.59
786.224	17322.95
786.558	17263.06
786.891	17140.81
787.224	17186.91
787.557	17004.76
787.891	17021.49
788.224	16963.64
788.557	17008.83
788.89	16949.17
789.223	16864.43
789.556	16780.82
789.888	16692.68
790.221	16602.29
790.554	16557.32
790.887	16598.9
791.219	16474.84
791.552	16495.85
791.884	16300.6
792.217	16350.54
792.549	16219.25
792.882	16201.85
793.214	16089.76
793.546	16103.77
793.879	16048.18
794.211	15852.03
794.543	15988.29
794.875	15792.82
795.207	15967.96
795.539	15802.54
795.871	15702.2
796.203	15641.64
796.535	15525.26
796.867	15570
797.198	15459.27
797.53	15467.18
797.862	15413.17
798.193	15334.53
798.525	15308.09
798.856	15418.82
799.188	15142.67
799.519	15098.37
799.85	15015.66
800.182	15042.56
800.513	14992.61
800.844	14987.42
801.175	14911.71
801.506	14925.72
801.837	14841.88
802.168	14857.02
802.499	14838.72
802.83	14687.09
803.161	14658.84
803.491	14659.97
803.822	14643.47
804.153	14596.47
804.483	14429.69
804.814	14408.9
805.145	14302.46
805.475	14339.98
805.805	14283.93
806.136	14299.98
806.466	14171.17
806.796	14250.03
807.126	14076.03
807.457	14079.42
807.787	14048.91
808.117	14035.13
808.447	13950.61
808.777	13939.53
809.107	13851.4
809.436	13774.57
809.766	13851.18
810.096	13763.95
810.426	13775.7
810.755	13718.3
811.085	13766.21
811.414	13690.95
811.744	13570.96
812.073	13572.09
812.403	13495.48
812.732	13513.11
813.061	13522.14
813.39	13420.45
813.719	13362.6
814.049	13490.28
814.378	13391.07
814.707	13293.68
815.036	13225.43
815.365	13286.22
815.693	13098.43
816.022	13109.27
816.351	13130.74
816.68	13020.91
817.008	13038.09
817.337	12961.71
817.665	12843.29
817.994	12929.84
818.322	12918.09
818.651	12815.72
818.979	12761.71
819.307	12961.26
819.636	12855.04
819.964	12798.77
820.292	12738.89
820.62	12767.14
820.948	12717.42
821.276	12742.5
821.604	12720.13
821.932	12687.82
822.259	12651.43
822.587	12695.73
822.915	12647.82
823.243	12656.4
823.57	12677.19
823.898	12676.52
824.225	12616.86
824.553	12683.52
824.88	12622.96
825.207	12670.19
825.535	12637.2
825.862	12685.33
826.189	12593.13
826.516	12649.4
826.843	12698.89
827.17	12648.72
827.497	12660.47
827.824	12680.58
828.151	12658.66
828.478	12656.86
828.805	12676.29
829.131	12604.2
829.458	12585.22
829.785	12671.32
830.111	12498.44
830.438	12675.84
830.764	12593.13
831.09	12593.81
831.417	12577.54
831.743	12577.76
832.069	12551.77
832.395	12550.19
832.722	12530.98
833.048	12497.31
833.374	12449.63
833.7	12470.65
834.026	12485.11
834.351	12504.09
834.677	12511.1
835.003	12435.17
835.329	12474.26
835.654	12453.92
835.98	12270.2
836.306	12424.77
836.631	12317.66
836.956	12354.04
837.282	12282.63
837.607	12262.06
837.932	12220.26
838.258	12258.22
838.583	12253.48
838.908	12210.77
839.233	12263.19
839.558	12183.87
839.883	12132.35
840.208	12111.11
840.533	12140.03
840.858	12108.4
841.182	12109.98
841.507	12063.65
841.832	11957.44
842.156	12006.25
842.481	11895.29
842.805	11895.07
843.13	11927.84
843.454	11880.61
843.778	11906.37
844.103	11827.73
844.427	11790.66
844.751	11757.9
845.075	11804.9
845.399	11719.03
845.723	11622.76
846.047	11691.01
846.371	11602.42
846.695	11582.53
847.019	11476.55
847.343	11510.45
847.666	11333.5
847.99	11325.82
848.313	11278.14
848.637	11285.59
848.96	11259.83
849.284	11216.67
849.607	11164.24
849.931	11157.23
850.254	11009.22
850.577	10975.77
850.9	10915.43
851.223	10865.94
851.546	10891.93
851.869	10762.89
852.192	10821.65
852.515	10714.99
852.838	10693.07
853.161	10701.2
853.483	10539.4
853.806	10547.08
854.129	10561.32
854.451	10504.82
854.774	10484.26
855.096	10376.46
855.419	10371.72
855.741	10389.8
856.063	10296.24
856.385	10323.81
856.708	10252.17
857.03	10278.16
857.352	10169.24
857.674	10216.69
857.996	10131.73
858.318	10129.01
858.64	10101.22
858.961	10061.44
859.283	10066.19
859.605	10057.38
859.926	9994.55
860.248	9977.38
860.57	9896.48
860.891	9916.59
861.212	9917.27
861.534	9864.39
861.855	9804.5
862.176	9823.48
862.498	9829.13
862.819	9809.47
863.14	9742.81
863.461	9765.63
863.782	9747.78
864.103	9685.64
864.424	9678.86
864.745	9704.39
865.065	9653.55
865.386	9600.21
865.707	9591.4
866.027	9584.62
866.348	9684.28
866.668	9657.16
866.989	9562.7
867.309	9450.84
867.63	9531.06
867.95	9471.63
868.27	9462.82
868.59	9420.33
868.91	9418.07
869.23	9460.78
869.55	9394.57
869.87	9428.47
870.19	9358.19
870.51	9385.3
870.83	9403.38
871.15	9315.7
871.469	9309.15
871.789	9362.48
872.109	9330.84
872.428	9287.91
872.748	9294.23
873.067	9273.22
873.386	9300.11
873.706	9223.05
874.025	9165.65
874.344	9178.3
874.663	9198.42
874.982	9180.56
875.301	9109.15
875.62	9130.62
875.939	9083.84
876.258	9096.5
876.577	9030.74
876.896	9063.28
877.214	9037.06
877.533	9075.26
877.852	9006.56
878.17	9004.98
878.489	8986.67
878.807	9094.24
879.125	9001.13
879.444	8934.02
879.762	8920.91
880.08	8922.04
880.398	8913.23
880.716	8948.25
881.034	8856.28
881.352	8856.96
881.67	8823.06
881.988	8888.37
882.306	8775.83
882.624	8811.99
882.941	8688.15
883.259	8695.83
883.577	8672.78
883.894	8633.23
884.212	8628.26
884.529	8710.07
884.846	8669.39
885.164	8585.55
885.481	8579.22
885.798	8539
886.115	8490.86
886.432	8511.65
886.75	8504.88
887.067	8438.21
887.383	8462.16
887.7	8470.07
888.017	8435.72
888.334	8422.17
888.651	8390.3
888.967	8377.65
889.284	8336.29
889.6	8256.75
889.917	8174.71
890.233	8265.11
890.55	8165.68
890.866	8250.42
891.182	8179.91
891.498	8153.7
891.815	8166.58
892.131	8082.29
892.447	8146.01
892.763	8089.52
893.079	8038.45
893.395	8025.79
893.71	7968.84
894.026	8011.33
894.342	8020.82
894.657	7967.71
894.973	7874.38
895.289	7863.54
895.604	7879.35
895.92	7860.37
896.235	7756.19
896.55	7799.36
896.865	7794.16
897.181	7721.17
897.496	7755.06
897.811	7707.61
898.126	7646.14
898.441	7657.44
898.756	7600.04
899.071	7554.17
899.386	7580.83
899.7	7525.47
900.015	7544.22
900.33	7494.05
900.644	7392.81
900.959	7445.69
901.273	7374.74
901.588	7368.63
901.902	7311.01
902.216	7299.26
902.531	7242.08
902.845	7258.58
903.159	7194.63
903.473	7198.02
903.787	7160.73
904.101	7105.59
904.415	7132.03
904.729	7093.39
905.042	7094.06
905.356	7089.09
905.67	7017.23
905.984	6979.04
906.297	7016.55
906.611	6912.83
906.924	6952.15
907.237	6915.54
907.551	6843.9
907.864	6853.62
908.177	6822.89
908.491	6836.22
908.804	6755.54
909.117	6734.75
909.43	6679.16
909.743	6642.1
910.056	6637.35
910.368	6636.9
910.681	6566.85
910.994	6538.6
911.307	6546.73
911.619	6493.85
911.932	6490.92
912.244	6473.97
912.557	6472.39
912.869	6446.17
913.181	6418.15
913.494	6397.13
913.806	6348.55
914.118	6331.83
914.43	6298.83
914.742	6244.82
915.054	6286.85
915.366	6219.06
915.678	6195.11
915.99	6138.61
916.302	6144.71
916.613	6077.14
916.925	6101.32
917.236	6138.38
917.548	6055.67
917.859	6005.96
918.171	5999.18
918.482	6012.74
918.794	5930.93
919.105	5925.73
919.416	5898.39
919.727	5893.19
920.038	5885.74
920.349	5803.93
920.66	5791.5
920.971	5784.27
921.282	5756.02
921.593	5690.03
921.903	5671.96
922.214	5643.48
922.525	5673.99
922.835	5631.96
923.146	5564.39
923.456	5571.39
923.767	5577.04
924.077	5549.25
924.387	5518.74
924.697	5510.83
925.008	5448.01
925.318	5467.44
925.628	5470.15
925.938	5423.83
926.248	5349.03
926.558	5316.71
926.867	5312.19
927.177	5335.02
927.487	5318.74
927.796	5228.13
928.106	5242.36
928.416	5224.06
928.725	5233.55
929.034	5188.13
929.344	5148.13
929.653	5128.24
929.962	5072.88
930.271	5081.91
930.581	5014.8
930.89	5030.62
931.199	4978.64
931.508	5054.12
931.817	5012.76
932.125	4937.96
932.434	4933.67
932.743	4919.88
933.051	4937.74
933.36	4813.67
933.669	4876.72
933.977	4846.89
934.286	4834.46
934.594	4817.97
934.902	4733.45
935.21	4802.83
935.519	4772.77
935.827	4708.59
936.135	4717.63
936.443	4639.89
936.751	4630.4
937.059	4660.46
937.367	4600.57
937.674	4607.58
937.982	4598.09
938.29	4524.19
938.597	4558.76
938.905	4497.52
939.213	4433.12
939.52	4438.09
939.827	4491.87
940.135	4439.45
940.442	4429.95
940.749	4394.02
941.056	4415.72
941.363	4361.93
941.67	4337.08
941.977	4353.35
942.284	4321.71
942.591	4277.42
942.898	4314.7
943.205	4311.77
943.511	4268.83
943.818	4234.71
944.125	4199.23
944.431	4180.92
944.738	4179.34
945.044	4151.32
945.35	4135.05
945.657	4116.74
945.963	4099.57
946.269	4079
946.575	4110.41
946.881	4055.05
947.187	4046.01
947.493	4036.29
947.799	4008.72
948.105	3990.64
948.41	3882.4
948.716	3965.11
949.022	3942.06
949.327	3945.67
949.633	3906.13
949.938	3872
950.244	3879.69
950.549	3841.27
950.854	3848.95
951.16	3825.22
951.465	3825.22
951.77	3806.02
952.075	3776.86
952.38	3742.97
952.685	3733.02
952.99	3725.57
953.294	3693.93
953.599	3664.32
953.904	3658.67
954.209	3698.45
954.513	3655.29
954.818	3603.76
955.122	3574.84
955.426	3604.21
955.731	3604.21
956.035	3559.24
956.339	3537.32
956.643	3545.23
956.948	3533.48
957.252	3530.54
957.556	3504.1
957.86	3491.22
958.163	3459.58
958.467	3462.07
958.771	3441.28
959.075	3403.31
959.378	3392.69
959.682	3405.8
959.985	3377.78
960.289	3359.93
960.592	3371.68
960.896	3356.76
961.199	3349.98
961.502	3303.2
961.805	3309.53
962.108	3277.67
962.411	3276.76
962.714	3255.75
963.017	3236.09
963.32	3226.82
963.623	3226.14
963.926	3217.56
964.228	3182.76
964.531	3168.07
964.833	3148.86
965.136	3138.01
965.438	3107.96
965.741	3124.68
966.043	3102.53
966.345	3046.04
966.648	3061.85
966.95	3056.43
967.252	3040.61
967.554	3021.63
967.856	3020.05
968.158	2971.01
968.46	3039.71
968.761	2980.73
969.063	3018.47
969.365	2964
969.666	2914.29
969.968	2914.51
970.269	2918.58
970.571	2911.58
970.872	2893.27
971.174	2884.68
971.475	2863.67
971.776	2849.66
972.077	2838.81
972.378	2824.12
972.679	2837.68
972.98	2796.78
973.281	2794.52
973.582	2801.75
973.883	2785.03
974.183	2774.18
974.484	2774.86
974.785	2750.22
975.085	2726.72
975.386	2725.82
975.686	2691.47
975.986	2676.33
976.287	2684.24
976.587	2638.59
976.887	2608.99
977.187	2662.99
977.487	2637.68
977.787	2585.26
978.087	2587.52
978.387	2585.03
978.687	2553.39
978.987	2548.87
979.286	2573.73
979.586	2536.44
979.885	2528.54
980.185	2547.97
980.484	2518.82
980.784	2530.12
981.083	2500.97
981.382	2491.7
981.682	2490.8
981.981	2467.52
982.28	2467.75
982.579	2426.84
982.878	2446.96
983.177	2441.08
983.475	2441.08
983.774	2394.08
984.073	2388.65
984.372	2373.96
984.67	2385.04
984.969	2366.73
985.267	2384.81
985.566	2340.52
985.864	2331.25
986.162	2334.64
986.461	2319.5
986.759	2316.79
987.057	2263.46
987.355	2274.08
987.653	2304.59
987.951	2275.21
988.249	2256.23
988.547	2242.22
988.844	2193.85
989.142	2216.68
989.44	2199.96
989.737	2217.81
990.035	2227.98
990.332	2192.5
990.63	2143.69
990.927	2152.5
991.224	2145.95
991.521	2148.88
991.819	2121.09
992.116	2159.73
992.413	2079.28
992.71	2117.92
993.006	2084.71
993.303	2056.91
993.6	2059.85
993.897	2058.04
994.193	2051.94
994.49	2051.03
994.787	2029.11
995.083	2022.56
995.379	2011.26
995.676	1984.37
995.972	2037.7
996.268	2011.71
996.565	1977.82
996.861	2001.54
997.157	1969.23
997.453	1961.54
997.749	1985.5
998.044	1903.92
998.34	1936.46
998.636	1898.5
998.932	1924.94
999.227	1890.13
999.523	1892.39
999.818	1902.11
1000.114	1865.5
1000.409	1854.88
1000.704	1838.16
1001	1846.07
1001.295	1825.5
1001.59	1860.3
1001.885	1820.53
1002.18	1822.79
1002.475	1802.23
1002.77	1780.76
1003.065	1766.97
1003.359	1787.09
1003.654	1757.71
1003.949	1724.26
1004.243	1747.54
1004.538	1727.65
1004.832	1682
1005.127	1705.51
1005.421	1688.33
1005.715	1692.4
1006.009	1694.66
1006.304	1686.52
1006.598	1647.2
1006.892	1643.36
1007.186	1633.19
1007.48	1645.17
1007.773	1624.38
1008.067	1628.45
1008.361	1602.46
1008.655	1592.74
1008.948	1616.47
1009.242	1587.32
1009.535	1589.8
1009.829	1541.44
1010.122	1579.18
1010.415	1548.67
1010.708	1543.7
1011.001	1536.47
1011.295	1518.84
1011.588	1543.93
1011.881	1498.28
1012.173	1517.26
1012.466	1517.71
1012.759	1492.86
1013.052	1505.06
1013.344	1467.77
1013.637	1463.03
1013.93	1456.92
1014.222	1445.4
1014.514	1423.48
1014.807	1410.37
1015.099	1433.65
1015.391	1422.58
1015.683	1438.39
1015.976	1420.32
1016.268	1363.59
1016.56	1401.11
1016.851	1377.15
1017.143	1361.33
1017.435	1351.62
1017.727	1355.91
1018.018	1319.08
1018.31	1313.2
1018.602	1321.34
1018.893	1308.45
1019.185	1308.45
1019.476	1322.92
1019.767	1312.75
1020.058	1293.99
1020.35	1285.18
1020.641	1286.08
1020.932	1271.17
1021.223	1240.21
1021.514	1236.14
1021.804	1219.42
1022.095	1243.37
1022.386	1236.82
1022.677	1223.26
1022.967	1225.52
1023.258	1195.24
1023.548	1180.55
1023.839	1170.38
1024.129	1166.54
1024.419	1169.02
1024.709	1171.06
1025	1178.51
1025.29	1144.16
1025.58	1117.95
1025.87	1126.54
1026.16	1126.54
1026.449	1151.62
1026.739	1103.94
1027.029	1122.24
1027.319	1103.49
1027.608	1108.01
1027.898	1099.87
1028.187	1063.71
1028.477	1077.95
1028.766	1098.52
1029.055	1031.17
1029.344	1041.12
1029.634	1063.04
1029.923	1048.35
1030.212	1048.57
1030.501	1027.56
1030.79	1015.81
1031.078	1017.61
1031.367	1007.67
1031.656	994.79
1031.945	981.91
1032.233	995.24
1032.522	971.74
1032.81	977.84
1033.099	960.89
1033.387	956.15
1033.675	970.16
1033.963	975.81
1034.251	971.51
1034.54	965.86
1034.828	938.07
1035.116	937.84
1035.403	933.77
1035.691	921.8
1035.979	908.69
1036.267	908.46
1036.554	902.82
1036.842	894.23
1037.129	908.46
1037.417	887.9
1037.704	894.45
1037.992	876.6
1038.279	903.04
1038.566	869.37
1038.853	869.37
1039.14	869.37
