Data from hue_70_FLMS001491_84.txt Node
Date: Mon Feb 06 15:21:33 GMT 2017
User: dcchb
Spectrometer: FLMS00149
Trigger mode: 0
Integration Time (sec): 2.000000E-2
Scans to average: 10
Electric dark correction enabled: true
Nonlinearity correction enabled: false
Boxcar width: 0
XAxis mode: Wavelengths
Number of Pixels in Spectrum: 2048
>>>>>Begin Spectral Data<<<<<
341.393	0.72
341.776	0.72
342.16	0.72
342.543	-51.03
342.927	-44.25
343.31	-63.91
343.693	-62.78
344.077	-74.53
344.46	-63.46
344.843	-37.24
345.226	-45.83
345.61	-35.66
345.993	-23.01
346.376	-17.58
346.759	-5.61
347.142	50.44
347.525	41.85
347.908	59.25
348.291	79.81
348.674	105.8
349.057	92.47
349.44	133.37
349.823	146.48
350.206	174.28
350.588	199.81
350.971	201.39
351.354	231.67
351.737	244.1
352.119	243.2
352.502	250.43
352.884	271.67
353.267	303.99
353.65	292.24
354.032	297.66
354.414	305.8
354.797	318
355.179	337.89
355.562	334.27
355.944	314.38
356.326	343.31
356.709	336.3
357.091	338.34
357.473	345.57
357.855	345.57
358.238	340.37
358.62	349.86
359.002	341.73
359.384	341.05
359.766	347.15
360.148	345.34
360.53	351.9
360.912	340.6
361.294	313.25
361.676	336.08
362.057	338.34
362.439	343.31
362.821	328.17
363.203	330.88
363.584	321.84
363.966	331.79
364.348	326.36
364.729	335.85
365.111	327.94
365.493	335.85
365.874	334.95
366.256	326.59
366.637	325.23
367.019	301.73
367.4	346.02
367.781	316.19
368.163	303.31
368.544	304.67
368.925	303.76
369.306	308.96
369.688	327.72
370.069	318.68
370.45	308.28
370.831	276.87
371.212	316.19
371.593	324.33
371.974	294.5
372.355	312.35
372.736	321.84
373.117	311.45
373.498	302.63
373.879	340.37
374.26	329.98
374.641	303.76
375.021	313.48
375.402	324.33
375.783	337.66
376.163	336.76
376.544	339.69
376.925	332.91
377.305	340.15
377.686	320.26
378.066	334.95
378.447	340.82
378.827	343.31
379.208	318.45
379.588	318.9
379.968	344.67
380.349	339.92
380.729	331.11
381.109	340.6
381.489	354.61
381.87	327.49
382.25	340.37
382.63	344.44
383.01	340.15
383.39	341.95
383.77	350.54
384.15	357.1
384.53	363.65
384.91	346.25
385.29	335.63
385.67	342.86
386.049	341.73
386.429	325.23
386.809	358.68
387.189	360.26
387.568	346.02
387.948	366.36
388.328	354.84
388.707	336.08
389.087	360.71
389.466	338.11
389.846	365.46
390.225	348.06
390.605	345.57
390.984	346.47
391.363	364.78
391.743	376.76
392.122	373.14
392.501	376.76
392.881	376.53
393.26	380.37
393.639	374.04
394.018	356.64
394.397	370.2
394.776	350.32
395.155	385.57
395.534	356.19
395.913	393.7
396.292	367.04
396.671	392.35
397.05	381.5
397.429	393.48
397.808	387.83
398.186	381.5
398.565	349.86
398.944	380.37
399.323	381.05
399.701	419.01
400.08	390.09
400.458	384.21
400.837	378.11
401.215	392.57
401.594	385.12
401.972	390.54
402.351	388.28
402.729	375.4
403.107	401.61
403.486	406.36
403.864	386.92
404.242	403.2
404.62	405.91
404.999	437.09
405.377	403.65
405.755	411.11
406.133	433.48
406.511	405.46
406.889	409.3
407.267	432.35
407.645	425.34
408.023	430.77
408.401	434.61
408.779	420.82
409.156	438.22
409.534	403.87
409.912	449.3
410.29	449.07
410.667	458.11
411.045	446.81
411.422	441.84
411.8	463.76
412.178	462.63
412.555	460.82
412.933	479.13
413.31	450.2
413.687	445.68
414.065	471.67
414.442	448.39
414.819	471.44
415.197	485.45
415.574	490.65
415.951	450.2
416.328	492.46
416.705	497.2
417.082	478.67
417.46	497.88
417.837	518.45
418.214	481.84
418.591	482.74
418.967	489.97
419.344	521.84
419.721	497.66
420.098	503.76
420.475	506.24
420.852	531.55
421.228	527.94
421.605	506.02
421.982	524.55
422.358	509.63
422.735	516.64
423.111	530.65
423.488	525.45
423.864	550.31
424.241	525.68
424.617	523.64
424.994	531.78
425.37	558.67
425.746	541.05
426.123	546.47
426.499	550.99
426.875	544.43
427.251	578.11
427.627	572.91
428.003	563.64
428.379	558.45
428.756	547.15
429.132	565.45
429.507	576.07
429.883	589.18
430.259	610.42
430.635	603.64
431.011	584.66
431.387	595.96
431.763	619.24
432.138	613.59
432.514	618.78
432.89	610.65
433.265	629.18
433.641	630.99
434.016	631.66
434.392	634.38
434.767	643.64
435.143	652
435.518	664.88
435.894	668.73
436.269	658.33
436.644	675.5
437.02	661.72
437.395	685.22
437.77	691.55
438.145	685.22
438.52	678.67
438.895	695.62
439.271	701.94
439.646	711.89
440.021	725.22
440.395	710.53
440.77	746.01
441.145	718.67
441.52	738.33
441.895	725.45
442.27	757.31
442.645	734.71
443.019	759.8
443.394	748.05
443.769	745.56
444.143	732.45
444.518	764.77
444.892	784.88
445.267	797.08
445.641	773.58
446.016	788.95
446.39	798.21
446.764	788.04
447.139	800.02
447.513	792.79
447.887	789.4
448.262	809.74
448.636	805.9
449.01	816.97
449.384	816.52
449.758	825.11
450.132	818.78
450.506	834.6
450.88	834.37
451.254	841.15
451.628	840.02
452.002	820.36
452.376	843.18
452.75	862.39
453.123	887.25
453.497	906.69
453.871	882.96
454.244	913.01
454.618	917.31
454.992	926.12
455.365	893.8
455.739	954.59
456.112	949.17
456.486	944.88
456.859	956.4
457.232	994.82
457.606	981.26
457.979	986.91
458.352	1019.68
458.725	1002.5
459.099	1030.3
459.472	1032.56
459.845	1042.27
460.218	1057.64
460.591	1073.69
460.964	1084.08
461.337	1102.84
461.71	1094.48
462.083	1115.72
462.456	1114.59
462.829	1125.66
463.201	1167.7
463.574	1179.45
463.947	1179.45
464.32	1203.63
464.692	1208.15
465.065	1230.74
465.438	1223.51
465.81	1271.65
466.183	1286.11
466.555	1304.87
466.928	1314.36
467.3	1322.95
467.672	1347.13
468.045	1378.54
468.417	1385.09
468.789	1393.9
469.161	1407.69
469.534	1470.74
469.906	1475.26
470.278	1522.71
470.65	1529.04
471.022	1514.58
471.394	1595.93
471.766	1613.79
472.138	1651.98
472.51	1640.9
472.882	1702.37
473.253	1767
473.625	1760.45
473.997	1821.24
474.369	1842.48
474.74	1890.16
475.112	1972.19
475.484	1996.15
475.855	2009.71
476.227	2084.06
476.598	2129.93
476.97	2191.85
477.341	2229.36
477.713	2345.97
478.084	2368.34
478.455	2451.28
478.827	2420.77
479.198	2557.72
479.569	2610.6
479.94	2697.6
480.311	2768.33
480.682	2872.96
481.053	2953.19
481.424	3054.65
481.795	3112.05
482.166	3224.36
482.537	3301.65
482.908	3413.29
483.279	3492.38
483.65	3573.28
484.021	3703.67
484.391	3780.96
484.762	3884.23
485.133	3954.29
485.503	4062.08
485.874	4181.63
486.244	4349.98
486.615	4451.45
486.985	4585.91
487.356	4742.97
487.726	4846.69
488.097	4977.76
488.467	5077.87
488.837	5228.61
489.207	5376.85
489.578	5537.3
489.948	5598.99
490.318	5787.91
490.688	5881.7
491.058	6094.12
491.428	6178.41
491.798	6369.14
492.168	6530.72
492.538	6663.14
492.908	6860.43
493.278	6993.53
493.648	7117.6
494.017	7211.6
494.387	7432.39
494.757	7542.22
495.126	7783.57
495.496	7826.5
495.866	7999.15
496.235	8149.43
496.605	8327.51
496.974	8401.18
497.344	8632.13
497.713	8724.56
498.082	8870.09
498.452	9090.65
498.821	9161.84
499.19	9335.62
499.559	9387.37
499.928	9600.92
500.298	9729.5
500.667	9866.68
501.036	9960.46
501.405	10054.47
501.774	10171.3
502.143	10379.43
502.512	10449.03
502.88	10634.57
503.249	10764.28
503.618	10806.99
503.987	10982.8
504.356	10985.74
504.724	11198.62
505.093	11223.02
505.462	11409.46
505.83	11563.35
506.199	11676.8
506.567	11880.18
506.936	11982.33
507.304	12179.61
507.672	12264.35
508.041	12358.36
508.409	12448.75
508.777	12649.88
509.145	12826.15
509.514	12781.18
509.882	12953.83
510.25	13079.92
510.618	13120.6
510.986	13254.84
511.354	13384.78
511.722	13514.72
512.09	13627.93
512.458	13702.28
512.826	13899.56
513.193	13992.67
513.561	13980.47
513.929	14177.75
514.297	14264.53
514.664	14395.37
515.032	14536.16
515.4	14572.09
515.767	14631.52
516.135	14721.46
516.502	14695.02
516.869	14979.54
517.237	15057.27
517.604	15068.35
517.972	15259.98
518.339	15407.32
518.706	15371.84
519.073	15427.89
519.44	15644.15
519.808	15733.87
520.175	15684.83
520.542	16038.72
520.909	16031.49
521.276	16026.29
521.643	16209.56
522.009	16294.08
522.376	16365.94
522.743	16533.39
523.11	16689.77
523.477	16780.39
523.843	16840.05
524.21	17026.04
524.577	17110.1
524.943	17200.04
525.31	17250.66
525.676	17482.07
526.043	17529.75
526.409	17644.1
526.776	17802.29
527.142	17759.35
527.508	17972
527.874	18023.07
528.241	18096.52
528.607	18092.67
528.973	18208.15
529.339	18206.8
529.705	18393.68
530.071	18503.96
530.437	18547.58
530.803	18644.3
531.169	18689.49
531.535	18695.14
531.901	18737.85
532.267	18785.09
532.632	18892.88
532.998	18961.13
533.364	19103.27
533.73	19058.98
534.095	19212.42
534.461	19256.26
534.826	19280.67
535.192	19407.89
535.557	19518.4
535.923	19382.81
536.288	19488.8
536.653	19458.06
537.019	19450.6
537.384	19632.97
537.749	19569.25
538.114	19533.77
538.479	19637.49
538.845	19673.88
539.21	19591.17
539.575	19596.59
539.94	19815.57
540.305	19813.53
540.67	19802.23
541.034	19861.67
541.399	19912.74
541.764	19909.35
542.129	19929.91
542.494	19817.6
542.858	19934.21
543.223	19971.72
543.587	20096.69
543.952	19969.69
544.316	20056.92
544.681	19983.02
545.045	20115.67
545.41	20142.79
545.774	20169.91
546.138	20216.01
546.503	20168.55
546.867	20177.82
547.231	20323.12
547.595	20340.98
547.959	20317.02
548.324	20326.74
548.688	20347.08
549.052	20391.37
549.416	20356.8
549.779	20410.81
550.143	20371.94
550.507	20413.74
550.871	20507.53
551.235	20425.04
551.599	20464.82
551.962	20508.66
552.326	20669.56
552.689	20708.42
553.053	20578.03
553.417	20616
553.78	20889.21
554.143	20700.97
554.507	20841.53
554.87	20764.02
555.234	20868.19
555.597	20849.44
555.96	20879.95
556.323	21019.15
556.686	20962.88
557.05	21164.01
557.413	21096.21
557.776	21235.19
558.139	21354.51
558.502	21241.07
558.865	21246.94
559.228	21366.49
559.59	21439.03
559.953	21451.91
560.316	21621.17
560.679	21553.37
561.041	21712.69
561.404	21785.46
561.767	21842.18
562.129	21707.04
562.492	21956.98
562.854	21865.68
563.217	21858.9
563.579	22072.91
563.941	22071.55
564.304	22199.23
564.666	22342.51
565.028	22287.59
565.39	22337.31
565.753	22393.8
566.115	22474.71
566.477	22555.61
566.839	22542.73
567.201	22767.13
567.563	22615.94
567.925	22881.02
568.287	22881.47
568.648	22902.04
569.01	22916.95
569.372	22972.32
569.734	23017.29
570.095	23064.52
570.457	23129.15
570.819	23179.55
571.18	23215.7
571.542	23285.98
571.903	23356.94
572.265	23398.75
572.626	23351.97
572.987	23449.82
573.349	23458.63
573.71	23611.4
574.071	23632.87
574.432	23786.99
574.794	23928.68
575.155	23812.3
575.516	23765.07
575.877	23863.6
576.238	23913.09
576.599	24123.25
576.96	23991.95
577.32	23912.63
577.681	24045.96
578.042	24062.01
578.403	24121.89
578.763	23967.32
579.124	24136.13
579.485	24115.57
579.845	24148.33
580.206	24223.13
580.566	24163.02
580.927	24220.2
581.287	24334.54
581.648	24178.84
582.008	24302.23
582.368	24326.41
582.728	24380.87
583.089	24253.87
583.449	24282.12
583.809	24362.34
584.169	24345.62
584.529	24358.05
584.889	24469.46
585.249	24280.08
585.609	24215.45
585.969	24451.38
586.329	24304.04
586.688	24300.87
587.048	24418.84
587.408	24278.73
587.768	24301.1
588.127	24245.96
588.487	24276.01
588.846	24407.54
589.206	24322.34
589.565	24269.23
589.925	24359.4
590.284	24298.61
590.643	24287.31
591.003	24399.85
591.362	24478.49
591.721	24342.45
592.08	24409.34
592.44	24416.58
592.799	24359.63
593.158	24396.24
593.517	24304.71
593.876	24423.35
594.235	24280.53
594.593	24483.47
594.952	24356.01
595.311	24309.91
595.67	24423.58
596.029	24491.83
596.387	24544.48
596.746	24533.86
597.104	24457.7
597.463	24389.01
597.822	24495.44
598.18	24313.75
598.538	24359.63
598.897	24471.94
599.255	24325.73
599.613	24673.74
599.972	24578.83
600.33	24697.7
600.688	24537.25
601.046	24592.39
601.404	24575.89
601.762	24572.5
602.12	24678.72
602.478	24753.97
602.836	24738.37
603.194	24636.68
603.552	24584.93
603.91	24621.99
604.268	24702.67
604.625	24594.65
604.983	24710.13
605.341	24737.02
605.698	24746.51
606.056	24852.04
606.413	24807.53
606.771	24882.55
607.128	24853.4
607.485	24792.61
607.843	24888.65
608.2	24884.36
608.557	25060.17
608.914	24944.92
609.272	25016.56
609.629	25014.07
609.986	25132.94
610.343	25078.7
610.7	25198.02
611.057	25244.58
611.414	25150.57
611.771	25110.12
612.127	25324.12
612.484	25245.71
612.841	25320.51
613.198	25287.51
613.554	25230.57
613.911	25545.59
614.267	25303.33
614.624	25395.53
614.98	25561.4
615.337	25616.09
615.693	25533.61
616.05	25656.09
616.406	25687.05
616.762	25667.84
617.118	25648.86
617.475	25753.49
617.831	25745.81
618.187	25777.67
618.543	25760.72
618.899	26015.18
619.255	25850.21
619.611	25916.88
619.967	25935.63
620.323	26115.74
620.678	25985.57
621.034	25958.23
621.39	25857.67
621.746	25919.81
622.101	26153.93
622.457	26012.01
622.812	25939.25
623.168	26189.18
623.523	26073.26
623.879	26057.89
624.234	25961.39
624.589	26132.69
624.945	26082.52
625.3	26018.79
625.655	26124.78
626.01	26166.59
626.365	26205.46
626.72	26089.75
627.075	26150.99
627.43	26103.08
627.785	26199.58
628.14	26202.07
628.495	26158
628.85	26162.97
629.205	25988.96
629.559	26235.06
629.914	26053.14
630.269	26039.36
630.623	25993.03
630.978	25938.8
631.332	26118.45
631.687	26190.77
632.041	25950.55
632.396	26102.18
632.75	25914.62
633.104	26040.49
633.459	25993.26
633.813	25910.77
634.167	25897.21
634.521	25907.38
634.875	25893.82
635.229	25909.64
635.583	25852.02
635.937	25825.8
636.291	25748.29
636.645	25827.16
636.999	25617.67
637.352	25804.34
637.706	25591.23
638.06	25658.35
638.413	25619.03
638.767	25499.48
639.121	25648.18
639.474	25419.26
639.828	25430.79
640.181	25448.41
640.534	25489.09
640.888	25300.62
641.241	25368.87
641.594	25480.73
641.947	25489.99
642.301	25387.85
642.654	25451.35
643.007	25481.63
643.36	25324.35
643.713	25375.42
644.066	25398.7
644.419	25310.11
644.771	25067.63
645.124	24817.92
645.477	24814.76
645.83	24805.27
646.182	24530.47
646.535	24581.99
646.888	24562.79
647.24	24379.06
647.593	24589.68
647.945	24608.66
648.298	24490.47
648.65	24383.58
649.002	24411.6
649.355	24382.45
649.707	24396.24
650.059	24447.31
650.411	24847.3
650.763	24909.44
651.115	25143.11
651.467	24982.89
651.819	25064.47
652.171	24948.31
652.523	24911.93
652.875	24884.36
653.227	24813.4
653.578	24897.69
653.93	24893.4
654.282	24734.31
654.633	24819.5
654.985	24787.19
655.337	24849.11
655.688	24921.2
656.039	24970.91
656.391	24735.21
656.742	24784.93
657.094	24833.29
657.445	25019.05
657.796	24800.29
658.147	24885.04
658.498	24779.73
658.849	24895.43
659.2	24869.44
659.551	24842.78
659.902	24810.24
660.253	24807.98
660.604	24911.25
660.955	24743.12
661.306	24844.81
661.656	24763.23
662.007	24845.94
662.358	24888.43
662.708	24847.3
663.059	24808.88
663.409	24760.97
663.76	24874.64
664.11	24890.24
664.461	24921.2
664.811	24798.26
665.161	24844.13
665.511	24843.68
665.862	24852.04
666.212	24914.42
666.562	24988.09
666.912	24895.43
667.262	24821.31
667.612	24842.55
667.962	24815.21
668.312	24834.87
668.662	24960.97
669.011	24852.5
669.361	24866.96
669.711	24842.55
670.06	24715.55
670.41	24593.75
670.76	24614.54
671.109	24780.86
671.459	24732.73
671.808	24640.3
672.157	24781.99
672.507	24581.54
672.856	24648.43
673.205	24681.65
673.554	24688.66
673.904	24597.14
674.253	24648.21
674.602	24630.36
674.951	24269.23
675.3	24132.29
675.649	24529.79
675.998	24521.43
676.346	24621.77
676.695	24625.16
677.044	24365.05
677.393	24566.18
677.741	24593.29
678.09	24400.98
678.438	24264.49
678.787	24446.63
679.135	24380.19
679.484	24164.83
679.832	24320.08
680.181	24118.05
680.529	24235.79
680.877	24214.55
681.225	24161.21
681.573	24133.87
681.922	24039.18
682.27	23950.15
682.618	23972.52
682.966	23885.29
683.314	23993.76
683.661	23932.52
684.009	23836.25
684.357	23748.12
684.705	23758.51
685.053	23721.45
685.4	23770.04
685.748	23618.18
686.095	23582.47
686.443	23542.25
686.79	23570.04
687.138	23515.13
687.485	23448.01
687.832	23361.69
688.18	23435.36
688.527	23225.42
688.874	23321.24
689.221	23274.23
689.568	23177.74
689.915	23157.4
690.262	23030.4
690.609	22933.45
690.956	22862.94
691.303	22873.79
691.65	22827.69
691.997	22702.5
692.344	22631.76
692.69	22564.87
693.037	22610.75
693.383	22401.49
693.73	22573.23
694.077	22256.63
694.423	22258.21
694.769	22138.67
695.116	22169.18
695.462	22125.56
695.808	21938.67
696.155	22121.27
696.501	21842.41
696.847	21941.84
697.193	21751.11
697.539	21800.37
697.885	21606.48
698.231	21567.61
698.577	21640.83
698.923	21529.19
699.269	21302.53
699.614	21312.02
699.96	21163.1
700.306	21201.52
700.651	21149.77
700.997	21117
701.342	21018.92
701.688	21020.28
702.033	20902.54
702.379	20936.22
702.724	20809.66
703.069	20730.57
703.415	20585.94
703.76	20514.76
704.105	20622.55
704.45	20491.25
704.795	20390.01
705.14	20308.66
705.485	20262.11
705.83	20173.52
706.175	20219.62
706.52	20168.55
706.865	20016.47
707.209	20136.69
707.554	19919.97
707.899	20011.95
708.243	19864.83
708.588	19855.34
708.932	19627.55
709.277	19655.34
709.621	19681.56
709.966	19623.48
710.31	19662.35
710.654	19399.53
710.998	19436.37
711.342	19493.54
711.687	19455.35
712.031	19306.88
712.375	19278.18
712.719	19336.26
713.063	19310.27
713.407	19297.61
713.75	19171.06
714.094	19069.82
714.438	19127
714.782	19080.44
715.125	18939.66
715.469	19042.25
715.812	18838.64
716.156	18852.88
716.499	18768.59
716.843	18760.91
717.186	18630.29
717.53	18799.1
717.873	18782.15
718.216	18778.31
718.559	18525.2
718.902	18474.36
719.246	18587.35
719.589	18434.59
719.932	18397.52
720.275	18417.86
720.617	18416.51
720.96	18403.17
721.303	18448.14
721.646	18398.2
721.989	18189.17
722.331	18427.35
722.674	18252.22
723.016	18243.4
723.359	18260.81
723.701	18305.1
724.044	18235.72
724.386	18071.43
724.729	18159.79
725.071	18177.87
725.413	18196.63
725.755	18081.15
726.097	17927.25
726.439	17967.93
726.782	17969.51
727.124	18055.84
727.465	17915.96
727.807	17859.46
728.149	17971.1
728.491	17879.57
728.833	17988.72
729.175	17772.46
729.516	17823.53
729.858	17722.06
730.199	17812
730.541	17676.41
730.882	17775.17
731.224	17817.88
731.565	17658.79
731.906	17710.76
732.248	17718.67
732.589	17557.09
732.93	17510.99
733.271	17641.16
733.612	17622.4
733.953	17731.1
734.294	17648.84
734.635	17507.6
734.976	17535.4
735.317	17542.41
735.658	17418.57
735.999	17523.88
736.339	17465.35
736.68	17606.59
737.021	17424.22
737.361	17419.25
737.702	17495.85
738.042	17480.03
738.383	17477.32
738.723	17473.03
739.063	17499.7
739.404	17457.89
739.744	17545.12
740.084	17365.91
740.424	17400.71
740.764	17461.5
741.104	17470.09
741.444	17409.3
741.784	17393.03
742.124	17536.76
742.464	17462.18
742.804	17425.35
743.143	17377.21
743.483	17535.17
743.823	17399.58
744.162	17499.24
744.502	17395.52
744.841	17445.01
745.181	17560.71
745.52	17466.93
745.86	17597.09
746.199	17494.5
746.538	17614.72
746.877	17601.84
747.216	17681.16
747.556	17717.09
747.895	17724.1
748.234	17627.15
748.573	17725.45
748.911	17755.96
749.25	17760.71
749.589	17879.12
749.928	17893.81
750.267	17958.67
750.605	17940.36
750.944	17948.27
751.283	18032.11
751.621	18124.76
751.96	18085.44
752.298	18127.25
752.636	18232.78
752.975	18239.11
753.313	18292.22
753.651	18426.9
753.989	18418.09
754.327	18509.16
754.666	18453.79
755.004	18607.69
755.342	18709.83
755.679	18724.75
756.017	18765.42
756.355	18852.2
756.693	18829.6
757.031	19035.93
757.368	18963.16
757.706	19054.46
758.044	19014.91
758.381	19318.63
758.719	19190.27
759.056	19383.94
759.394	19407.67
759.731	19363.83
760.068	19456.71
760.405	19466.65
760.743	19482.47
761.08	19601.11
761.417	19595.46
761.754	19673.2
762.091	19693.31
762.428	19845.62
762.765	19773.08
763.102	19955.9
763.438	19907.77
763.775	19860.31
764.112	20071.38
764.449	20105.05
764.785	20020.53
765.122	20022.79
765.458	20031.38
765.795	20100.53
766.131	20047.65
766.467	20144.37
766.804	20147.76
767.14	20079.51
767.476	20266.63
767.812	20154.31
768.148	20252.39
768.485	20176.01
768.821	20104.82
769.157	20150.02
769.492	20199.29
769.828	20207.65
770.164	20053.3
770.5	20062.79
770.836	20057.59
771.171	20039.74
771.507	20064.83
771.842	20042.68
772.178	19975.34
772.513	20095.56
772.849	19935.34
773.184	19939.86
773.519	19962.91
773.855	19835.45
774.19	19852.85
774.525	19876.36
774.86	19875.45
775.195	19721.78
775.53	19742.57
775.865	19615.57
776.2	19567.21
776.535	19391.85
776.87	19502.58
777.205	19457.38
777.539	19382.13
777.874	19513.2
778.209	19320.66
778.543	19396.59
778.878	19301.46
779.212	19215.36
779.547	19083.16
779.881	19258.75
780.215	19055.59
780.55	19077.28
780.884	19004.97
781.218	18940.11
781.552	18957.96
781.886	18937.62
782.22	18793.45
782.554	18677.97
782.888	18493.57
783.222	18536.05
783.556	18493.12
783.889	18491.31
784.223	18322.72
784.557	18339.45
784.89	18367.24
785.224	18236.17
785.557	18187.81
785.891	18130.64
786.224	18070.75
786.558	18061.04
786.891	17981.26
787.224	17845.67
787.557	17864.66
787.891	17805.68
788.224	17846.58
788.557	17842.06
788.89	17710.76
789.223	17662.4
789.556	17650.88
789.888	17541.05
790.221	17529.75
790.554	17304.22
790.887	17439.13
791.219	17296.76
791.552	17336.99
791.884	17260.15
792.217	17149.65
792.549	17149.65
792.882	17058.35
793.214	16919.6
793.546	17053.15
793.879	16898.36
794.211	16779.94
794.543	16909.43
794.875	16746.49
795.207	16812.93
795.539	16652.71
795.871	16625.59
796.203	16589.89
796.535	16498.82
796.867	16551.47
797.198	16415.2
797.53	16352.38
797.862	16275.32
798.193	16290.91
798.525	16117.81
798.856	16169.79
799.188	15967.98
799.519	16001.2
799.85	15904.48
800.182	15923.01
800.513	15937.25
800.844	15814.54
801.175	15879.4
801.506	15827.87
801.837	15811.15
802.168	15739.74
802.499	15604.15
802.83	15611.84
803.161	15541.1
803.491	15541.1
803.822	15464.27
804.153	15363.71
804.483	15306.98
804.814	15320.77
805.145	15296.36
805.475	15275.57
805.805	15118.74
806.136	15152.41
806.466	15198.06
806.796	15207.78
807.126	15011.17
807.457	14952.19
807.787	14930.95
808.117	14920.33
808.447	14799.88
808.777	14839.43
809.107	14874
809.436	14736.38
809.766	14738.19
810.096	14699.32
810.426	14676.94
810.755	14624.52
811.085	14632.2
811.414	14559.89
811.744	14444.86
812.073	14396.27
812.403	14438.08
812.732	14303.17
813.061	14335.48
813.39	14242.61
813.719	14246.67
814.049	14325.54
814.378	14194.25
814.707	14096.39
815.036	14180.23
815.365	14025.44
815.693	13958.55
816.022	13929.39
816.351	13972.78
816.68	13870.19
817.008	13926
817.337	13820.47
817.665	13778.89
817.994	13828.15
818.322	13763.97
818.651	13724.88
818.979	13696.18
819.307	13724.88
819.636	13655.5
819.964	13620.7
820.292	13653.69
820.62	13606.69
820.948	13558.1
821.276	13600.59
821.604	13526.01
821.932	13644.66
822.259	13589.06
822.587	13545.22
822.915	13536.41
823.243	13507.48
823.57	13575.96
823.898	13549.74
824.225	13453.93
824.553	13452.34
824.88	13511.55
825.207	13526.24
825.535	13446.02
825.862	13536.64
826.189	13465
826.516	13472.91
826.843	13552.45
827.17	13490.76
827.497	13546.13
827.824	13536.86
828.151	13492.79
828.478	13461.61
828.805	13573.7
829.131	13500.93
829.458	13459.35
829.785	13358.11
830.111	13430.42
830.438	13454.83
830.764	13372.35
831.09	13461.16
831.417	13396.98
831.743	13476.98
832.069	13395.17
832.395	13367.37
832.722	13336.64
833.048	13362.18
833.374	13344.55
833.7	13310.65
834.026	13270.65
834.351	13291.44
834.677	13343.42
835.003	13352.69
835.329	13403.76
835.654	13308.17
835.98	13218.45
836.306	13255.74
836.631	13242.63
836.956	13248.06
837.282	13155.85
837.607	13098.91
837.932	13239.24
838.258	13173.03
838.583	13129.19
838.908	13076.08
839.233	13061.39
839.558	13003.32
839.883	13057.1
840.208	12941.17
840.533	12969.87
840.858	12902.98
841.182	13024.56
841.507	12910.21
841.832	12877.67
842.156	12802.64
842.481	12849.2
842.805	12809.2
843.13	12810.1
843.454	12805.81
843.778	12715.64
844.103	12701.4
844.427	12598.58
844.751	12679.03
845.075	12597.9
845.399	12534.85
845.723	12520.39
846.047	12458.47
846.371	12341.41
846.695	12385.48
847.019	12266.39
847.343	12227.97
847.666	12156.11
847.99	12114.07
848.313	12181.19
848.637	12108.2
848.96	11994.76
849.284	11905.27
849.607	11953.63
849.931	11973.29
850.254	11859.84
850.577	11766.96
850.9	11637.25
851.223	11712.5
851.546	11567.42
851.869	11535.56
852.192	11539.17
852.515	11503.47
852.838	11392.74
853.161	11486.07
853.483	11390.48
853.806	11301.67
854.129	11255.79
854.451	11258.96
854.774	11210.82
855.096	11262.12
855.419	11072.52
855.741	11148.22
856.063	11023.03
856.385	11025.52
856.708	11000.43
857.03	10973.09
857.352	11032.75
857.674	10866.65
857.996	10892.19
858.318	10828.68
858.64	10858.74
858.961	10783.94
859.283	10799.08
859.605	10719.53
859.926	10741
860.248	10668.01
860.57	10628.92
860.891	10693.77
861.212	10582.14
861.534	10501.46
861.855	10543.95
862.176	10533.55
862.498	10542.36
862.819	10552.31
863.14	10465.3
863.461	10339.66
863.782	10440.9
864.103	10391.41
864.424	10394.35
864.745	10429.15
865.065	10329.71
865.386	10272.99
865.707	10268.02
866.027	10320
866.348	10198.42
866.668	10292.65
866.989	10171.07
867.309	10100.57
867.63	10156.39
867.95	10189.83
868.27	10094.69
868.59	10131.75
868.91	10020.34
869.23	10093.56
869.55	10065.99
869.87	10153.22
870.19	10066.22
870.51	10083.17
870.83	10052.89
871.15	9968.82
871.469	9984.86
871.789	9947.35
872.109	9904.19
872.428	9912.32
872.748	9935.83
873.067	9927.24
873.386	9938.76
873.706	9863.96
874.025	9793.01
874.344	9858.54
874.663	9803.4
874.982	9823.29
875.301	9772.44
875.62	9704.42
875.939	9711.88
876.258	9793.01
876.577	9661.94
876.896	9707.81
877.214	9680.47
877.533	9663.52
877.852	9698.32
878.17	9654.25
878.489	9675.95
878.807	9657.42
879.125	9573.12
879.444	9584.2
879.762	9490.64
880.08	9481.37
880.398	9471.21
880.716	9505.33
881.034	9423.98
881.352	9439.12
881.67	9458.78
881.988	9433.92
882.306	9363.19
882.624	9415.39
882.941	9361.38
883.259	9256.52
883.577	9394.15
883.894	9274.37
884.212	9283.41
884.529	9311.21
884.846	9240.03
885.164	9233.7
885.481	9133.14
885.798	9209.97
886.115	9138.56
886.432	9143.3
886.75	9093.14
887.067	9099.46
887.383	9087.26
887.7	9047.71
888.017	9009.97
888.334	9032.57
888.651	8991.9
888.967	8993.7
889.284	8915.97
889.6	8816.53
889.917	8798.68
890.233	8776.31
890.55	8811.11
890.866	8778.34
891.182	8729.53
891.498	8746.25
891.815	8709.42
892.131	8691.79
892.447	8702.19
892.763	8595.75
893.079	8556.43
893.395	8518.01
893.71	8535.19
894.026	8533.38
894.342	8519.59
894.657	8444.34
894.973	8518.24
895.289	8445.47
895.604	8475.98
895.92	8381.29
896.235	8323.44
896.55	8358.69
896.865	8374.29
897.181	8278.24
897.496	8251.58
897.811	8292.25
898.126	8248.19
898.441	8177.23
898.756	8210.22
899.071	8074.18
899.386	8098.13
899.7	8064.69
900.015	7992.83
900.33	7915.09
900.644	7901.3
900.959	7920.74
901.273	7931.36
901.588	7881.87
901.902	7767.75
902.216	7740.4
902.531	7766.17
902.845	7742.66
903.159	7685.72
903.473	7657.47
903.787	7712.61
904.101	7627.41
904.415	7534.31
904.729	7530.01
905.042	7476.23
905.356	7522.33
905.67	7483.46
905.984	7491.82
906.297	7473.29
906.611	7352.62
906.924	7383.8
907.237	7350.36
907.551	7352.39
907.864	7321.21
908.177	7289.79
908.491	7242.34
908.804	7216.35
909.117	7180.19
909.43	7144.26
909.743	7098.39
910.056	7073.75
910.368	7055
910.681	7019.29
910.994	7001.44
911.307	6974.55
911.619	6929.58
911.932	6946.07
912.244	6928.9
912.557	6882.12
912.869	6785.17
913.181	6823.14
913.494	6791.05
913.806	6795.34
914.118	6692.75
914.43	6661.34
914.742	6720.54
915.054	6661.56
915.366	6630.6
915.678	6575.24
915.99	6556.03
916.302	6525.52
916.613	6508.8
916.925	6492.75
917.236	6515.35
917.548	6422.47
917.859	6394
918.171	6389.93
918.482	6322.36
918.794	6321.46
919.105	6324.85
919.416	6267.45
919.727	6266.54
920.038	6253.89
920.349	6182.7
920.66	6208.47
920.971	6135.25
921.282	6151.29
921.593	6040.34
921.903	6061.8
922.214	6032.43
922.525	5994.24
922.835	5980.68
923.146	5948.59
923.456	6000.79
923.767	5912.2
924.077	5952.2
924.387	5895.93
924.697	5826.1
925.008	5816.61
925.318	5821.58
925.628	5806.22
925.938	5720.12
926.248	5700.01
926.558	5757.86
926.867	5668.14
927.177	5680.57
927.487	5613.68
927.796	5611.42
928.106	5587.92
928.416	5576.39
928.725	5595.15
929.034	5514.02
929.344	5506.34
929.653	5474.93
929.962	5472.21
930.271	5435.61
930.581	5381.37
930.89	5376.17
931.199	5357.19
931.508	5348.83
931.817	5351.31
932.125	5285.1
932.434	5293.46
932.743	5227.25
933.051	5178.66
933.36	5184.09
933.669	5199
933.977	5168.27
934.286	5139.34
934.594	5105.67
934.902	5097.31
935.21	5083.98
935.519	5057.08
935.827	5004.43
936.135	5018.67
936.443	4936.86
936.751	4932.12
937.059	4933.47
937.367	4891.21
937.674	4924.43
937.982	4944.32
938.29	4842.85
938.597	4844.66
938.905	4813.7
939.213	4825
939.52	4760.82
939.827	4785.23
940.135	4738.45
940.442	4704.78
940.749	4726.7
941.056	4662.52
941.363	4629.75
941.67	4648.96
941.977	4618.45
942.284	4621.16
942.591	4618.45
942.898	4591.33
943.205	4523.77
943.511	4502.07
943.818	4519.92
944.125	4499.81
944.431	4458.68
944.738	4466.82
945.044	4429.3
945.35	4395.18
945.657	4408.51
945.963	4345.46
946.269	4355.86
946.575	4345.69
946.881	4273.15
947.187	4320.83
947.493	4270.89
947.799	4243.55
948.105	4235.86
948.41	4236.32
948.716	4217.56
949.022	4182.98
949.327	4180.95
949.633	4093.95
949.938	4165.13
950.244	4157
950.549	4060.05
950.854	4051.01
951.16	4063.66
951.465	4041.74
951.77	4033.38
952.075	3978.92
952.38	3963.33
952.685	4011.46
952.99	3970.11
953.294	3965.14
953.599	3918.58
953.904	3902.09
954.209	3893.5
954.513	3883.1
954.818	3871.58
955.122	3860.96
955.426	3822.54
955.731	3818.7
956.035	3778.7
956.339	3811.69
956.643	3758.81
956.948	3757.68
957.252	3721.53
957.556	3708.19
957.86	3670.23
958.163	3698.7
958.467	3675.43
958.771	3665.71
959.075	3663
959.378	3616.9
959.682	3612.83
959.985	3607.18
960.289	3569.89
960.592	3563.11
960.896	3500.74
961.199	3506.16
961.502	3529.67
961.805	3500.52
962.108	3477.47
962.411	3454.41
962.714	3419.61
963.017	3429.56
963.32	3453.28
963.623	3419.39
963.926	3407.18
964.228	3373.51
964.531	3330.8
964.833	3371.48
965.136	3348.43
965.438	3315.66
965.741	3285.83
966.043	3277.02
966.345	3257.36
966.648	3232.27
966.95	3227.08
967.252	3239.28
967.554	3227.3
967.856	3179.62
968.158	3186.85
968.46	3190.69
968.761	3141.88
969.063	3135.1
969.365	3172.39
969.666	3123.12
969.968	3118.83
970.269	3110.24
970.571	3081.32
970.872	3077.25
971.174	3033.18
971.475	3034.99
971.776	3079.96
972.077	3071.83
972.378	3050.58
972.679	2980.3
972.98	2979.4
973.281	2964.26
973.582	2971.04
973.883	2936.91
974.183	2916.58
974.484	2912.96
974.785	2882.23
975.085	2911.15
975.386	2908.67
975.686	2862.11
975.986	2862.57
976.287	2806.97
976.587	2815.34
976.887	2792.06
977.187	2829.57
977.487	2794.09
977.787	2771.72
978.087	2779.4
978.387	2753.42
978.687	2694.43
978.987	2736.47
979.286	2689.01
979.586	2721.55
979.885	2688.33
980.185	2677.71
980.484	2716.36
980.784	2635.68
981.083	2608.11
981.382	2653.98
981.682	2653.53
981.981	2619.86
982.28	2619.86
982.579	2600.88
982.878	2582.12
983.177	2599.52
983.475	2549.58
983.774	2543.7
984.073	2531.5
984.372	2486.76
984.67	2479.53
984.969	2468.68
985.267	2483.14
985.566	2489.92
985.864	2480.2
986.162	2467.32
986.461	2416.02
986.759	2427.55
987.057	2381.22
987.355	2406.08
987.653	2429.81
987.951	2370.6
988.249	2385.29
988.547	2410.83
988.844	2347.33
989.142	2367.21
989.44	2343.71
989.737	2294.67
990.035	2294.9
990.332	2312.3
990.63	2268.68
990.927	2263.49
991.224	2239.53
991.521	2291.06
991.819	2263.03
992.116	2217.39
992.413	2218.97
992.71	2209.7
993.006	2199.53
993.303	2197.72
993.6	2190.04
993.897	2161.34
994.193	2180.32
994.49	2159.31
994.787	2148.23
995.083	2159.99
995.379	2159.76
995.676	2117.95
995.972	2134
996.268	2114.11
996.565	2089.48
996.861	2099.65
997.157	2091.96
997.453	2057.62
997.749	2047.45
998.044	2043.15
998.34	1998.63
998.636	2042.93
998.932	2021.01
999.227	2009.93
999.523	1987.56
999.818	1983.72
1000.114	1969.93
1000.409	1949.14
1000.704	1933.78
1001	1948.92
1001.295	1927.68
1001.59	1908.69
1001.885	1923.16
1002.18	1880.22
1002.475	1874.12
1002.77	1882.93
1003.065	1868.47
1003.359	1898.3
1003.654	1841.8
1003.949	1854.23
1004.243	1842.03
1004.538	1815.14
1004.832	1819.88
1005.127	1799.77
1005.421	1796.61
1005.715	1768.13
1006.009	1773.78
1006.304	1768.36
1006.598	1733.56
1006.892	1748.7
1007.186	1738.98
1007.48	1691.98
1007.773	1760.67
1008.067	1704.18
1008.361	1685.87
1008.655	1639.32
1008.948	1653.11
1009.242	1654.24
1009.535	1643.39
1009.829	1660.34
1010.122	1647.46
1010.415	1629.6
1010.708	1631.41
1011.001	1623.95
1011.295	1606.33
1011.588	1588.48
1011.881	1581.47
1012.173	1558.65
1012.466	1566.78
1012.759	1556.84
1013.052	1537.4
1013.344	1537.86
1013.637	1528.59
1013.93	1529.04
1014.222	1519.32
1014.514	1559.32
1014.807	1517.97
1015.099	1480.91
1015.391	1465.31
1015.683	1487.91
1015.976	1466.22
1016.268	1472.09
1016.56	1449.5
1016.851	1437.52
1017.143	1440
1017.435	1438.65
1017.727	1447.46
1018.018	1427.35
1018.31	1408.37
1018.602	1386.9
1018.893	1381.7
1019.185	1370.63
1019.476	1367.69
1019.767	1327.92
1020.058	1343.51
1020.35	1331.76
1020.641	1332.89
1020.932	1317.07
1021.223	1320.46
1021.514	1323.4
1021.804	1268.71
1022.095	1281.14
1022.386	1313.23
1022.677	1272.78
1022.967	1246.56
1023.258	1258.99
1023.548	1256.96
1023.839	1218.54
1024.129	1226.68
1024.419	1227.13
1024.709	1199.11
1025	1213.57
1025.29	1208.6
1025.58	1169.05
1025.87	1192.55
1026.16	1168.37
1026.449	1150.75
1026.739	1147.81
1027.029	1144.42
1027.319	1164.08
1027.608	1143.52
1027.898	1135.83
1028.187	1145.32
1028.477	1125.89
1028.766	1115.27
1029.055	1117.3
1029.344	1114.36
1029.634	1094.25
1029.923	1096.06
1030.212	1063.97
1030.501	1094.48
1030.79	1080.24
1031.078	1052.67
1031.367	1054.93
1031.656	1043.18
1031.945	1049.28
1032.233	1028.94
1032.522	1044.53
1032.81	1019.45
1033.099	1031.43
1033.387	993.46
1033.675	997.3
1033.963	998.21
1034.251	977.64
1034.54	958.89
1034.828	964.08
1035.116	967.93
1035.403	959.57
1035.691	963.41
1035.979	953.46
1036.267	942.39
1036.554	949.4
1036.842	913.24
1037.129	936.51
1037.417	930.19
1037.704	911.88
1037.992	930.19
1038.279	914.14
1038.566	920.02
1038.853	920.02
1039.14	920.02
