Data from hue_190_FLMS001491_00079.txt Node
Date: Tue Feb 07 16:45:46 GMT 2017
User: dcchb
Spectrometer: FLMS00149
Trigger mode: 0
Integration Time (sec): 2.000000E-2
Scans to average: 10
Electric dark correction enabled: true
Nonlinearity correction enabled: false
Boxcar width: 0
XAxis mode: Wavelengths
Number of Pixels in Spectrum: 2048
>>>>>Begin Spectral Data<<<<<
341.393	-2.08
341.776	-2.08
342.16	-2.08
342.543	-53.37
342.927	-56.31
343.31	-74.62
343.693	-90.21
344.077	-49.76
344.46	-65.35
344.843	-59.48
345.226	-31.23
345.61	-4.79
345.993	-25.8
346.376	4.93
346.759	11.93
347.142	23.46
347.525	50.13
347.908	51.26
348.291	72.5
348.674	95.32
349.057	91.71
349.44	134.87
349.823	159.95
350.206	180.29
350.588	197.47
350.971	215.77
351.354	220.97
351.737	243.12
352.119	241.08
352.502	258.71
352.884	287.63
353.267	257.58
353.65	295.54
354.032	283.79
354.414	311.14
354.797	314.98
355.179	328.54
355.562	312.72
355.944	323.56
356.326	325.37
356.709	321.98
357.091	339.38
357.473	335.99
357.855	338.93
358.238	323.56
358.62	349.33
359.002	338.25
359.384	340.51
359.766	340.74
360.148	348.42
360.53	322.21
360.912	348.2
361.294	330.12
361.676	306.62
362.057	328.31
362.439	327.86
362.821	335.99
363.203	326.28
363.584	311.36
363.966	308.88
364.348	332.15
364.729	334.41
365.111	319.72
365.493	315.43
365.874	320.63
366.256	321.08
366.637	320.4
367.019	326.05
367.4	307.52
367.781	310.23
368.163	306.84
368.544	301.19
368.925	293.06
369.306	325.15
369.688	307.97
370.069	294.87
370.45	310.46
370.831	284.24
371.212	328.54
371.593	304.81
371.974	301.19
372.355	316.33
372.736	304.13
373.117	310.01
373.498	298.71
373.879	307.29
374.26	310.23
374.641	307.29
375.021	319.05
375.402	322.66
375.783	297.35
376.163	340.97
376.544	313.4
376.925	335.77
377.305	310.46
377.686	303.9
378.066	332.6
378.447	342.1
378.827	318.37
379.208	339.16
379.588	323.79
379.968	316.11
380.349	324.69
380.729	341.64
381.109	319.72
381.489	317.01
381.87	314.53
382.25	343.45
382.63	331.93
383.01	352.94
383.39	328.08
383.77	338.71
384.15	334.86
384.53	360.4
384.91	326.5
385.29	344.36
385.67	350.46
386.049	357.01
386.429	345.26
386.809	340.74
387.189	349.78
387.568	351.81
387.948	352.72
388.328	361.98
388.707	345.71
389.087	343.68
389.466	332.15
389.846	358.82
390.225	368.31
390.605	366.28
390.984	345.71
391.363	352.49
391.743	367.41
392.122	367.86
392.501	349.78
392.881	377.12
393.26	371.47
393.639	379.61
394.018	380.96
394.397	349.1
394.776	365.6
395.155	389.33
395.534	360.63
395.913	375.77
396.292	378.93
396.671	369.21
397.05	372.15
397.429	386.39
397.808	385.94
398.186	383.68
398.565	397.01
398.944	392.49
399.323	396.33
399.701	400.4
400.08	401.08
400.458	404.01
400.837	406.73
401.215	408.31
401.594	404.01
401.972	424.35
402.351	409.66
402.729	409.21
403.107	423.45
403.486	432.71
403.864	406.5
404.242	406.5
404.62	431.13
404.999	444.69
405.377	429.78
405.755	442.66
406.133	432.49
406.511	457.12
406.889	439.04
407.267	451.25
407.645	457.35
408.023	450.34
408.401	488.98
408.779	484.46
409.156	483.11
409.534	472.71
409.912	498.02
410.29	498.02
410.667	510.68
411.045	517.23
411.422	523.79
411.8	510.23
412.178	535.54
412.555	545.71
412.933	549.32
413.31	530.79
413.687	563.33
414.065	565.14
414.442	577.12
414.819	593.16
415.197	587.96
415.574	600.85
415.951	618.02
416.328	615.99
416.705	639.71
417.082	632.26
417.46	634.74
417.837	638.58
418.214	658.47
418.591	658.02
418.967	672.93
419.344	679.04
419.721	681.97
420.098	704.57
420.475	725.14
420.852	705.7
421.228	724.68
421.605	737.79
421.982	742.54
422.358	745.25
422.735	793.38
423.111	783.21
423.488	789.77
423.864	801.07
424.241	809.43
424.617	806.72
424.994	861.4
425.37	827.73
425.746	874.28
426.123	884.23
426.499	907.05
426.875	889.2
427.251	917
427.627	944.34
428.003	954.96
428.379	931.91
428.756	924.23
429.132	961.97
429.507	962.42
429.883	983.43
430.259	1037.9
430.635	1025.24
431.011	1020.5
431.387	1064.34
431.763	1078.12
432.138	1067.5
432.514	1078.35
432.89	1084
433.265	1112.02
433.641	1132.36
434.016	1136.88
434.392	1196.99
434.767	1208.74
435.143	1236.54
435.518	1258.91
435.894	1237.21
436.269	1293.71
436.644	1312.92
437.02	1335.74
437.395	1337.1
437.77	1397.21
438.145	1399.69
438.52	1406.93
438.895	1420.94
439.271	1428.62
439.646	1499.35
440.021	1505.45
440.395	1491.44
440.77	1514.95
441.145	1550.2
441.52	1579.35
441.895	1581.61
442.27	1607.6
442.645	1632.01
443.019	1660.93
443.394	1645.34
443.769	1672.68
444.143	1673.59
444.518	1707.26
444.892	1714.04
445.267	1737.77
445.641	1731.89
446.016	1761.04
446.39	1780.93
446.764	1765.56
447.139	1816.63
447.513	1789.74
447.887	1810.76
448.262	1837.2
448.636	1853.47
449.01	1890.3
449.384	1904.54
449.758	1921.49
450.132	1971.21
450.506	1932.56
450.88	1945.44
451.254	1984.76
451.628	2024.99
452.002	2032.45
452.376	2088.49
452.75	2035.16
453.123	2062.05
453.497	2115.16
453.871	2112.22
454.244	2172.1
454.618	2185.89
454.992	2206.23
455.365	2218.2
455.739	2286.23
456.112	2282.38
456.486	2297.98
456.859	2346.11
457.232	2405.77
457.606	2400.8
457.979	2425.88
458.352	2443.74
458.725	2474.02
459.099	2490.29
459.472	2540.46
459.845	2555.6
460.218	2612.09
460.591	2628.82
460.964	2613.45
461.337	2704.29
461.71	2728.93
462.083	2786.55
462.456	2762.6
462.829	2808.25
463.201	2825.65
463.574	2860
463.947	2900.67
464.32	2991.29
464.692	2985.42
465.065	3020.22
465.438	3027.67
465.81	3114.23
466.183	3081.68
466.555	3247.33
466.928	3241.91
467.3	3212.3
467.672	3311.06
468.045	3377.72
468.417	3381.34
468.789	3400.77
469.161	3439.42
469.534	3509.02
469.906	3556.7
470.278	3603.48
470.65	3650.94
471.022	3705.4
471.394	3854.09
471.766	3834.21
472.138	3846.41
472.51	3954.88
472.882	4042.56
473.253	4082.79
473.625	4080.08
473.997	4241.65
474.369	4216.34
474.74	4286.85
475.112	4364.81
475.484	4421.99
475.855	4555.77
476.227	4610.23
476.598	4714.86
476.97	4711.02
477.341	4821.75
477.713	4928.42
478.084	4954.4
478.455	5069.65
478.827	5107.17
479.198	5301.97
479.569	5299.03
479.94	5442.3
480.311	5491.79
480.682	5630.09
481.053	5709.64
481.424	5869.18
481.795	5902.18
482.166	5956.64
482.537	6081.38
482.908	6227.36
483.279	6270.3
483.65	6341.03
484.021	6503.74
484.391	6577.86
484.762	6656.51
485.133	6702.38
485.503	6748.25
485.874	6956.38
486.244	7035.93
486.615	7151.63
486.985	7241.58
487.356	7357.96
487.726	7361.8
488.097	7485.18
488.467	7530.61
488.837	7744.16
489.207	7822.35
489.578	7938.28
489.948	7998.84
490.318	8131.04
490.688	8120.65
491.058	8284.71
491.428	8402
491.798	8378.72
492.168	8573.97
492.538	8571.71
492.908	8758.6
493.278	8752.5
493.648	8821.42
494.017	8913.85
494.387	9000.4
494.757	9080.17
495.126	9121.07
495.496	9080.17
495.866	9275.19
496.235	9289.66
496.605	9401.29
496.974	9449.2
497.344	9525.58
497.713	9572.14
498.082	9602.64
498.452	9683.32
498.821	9759.93
499.19	9647.84
499.559	9742.75
499.928	9763.77
500.298	9902.52
500.667	10020.26
501.036	9978.23
501.405	10000.15
501.774	10014.38
502.143	10095.74
502.512	10089.41
502.88	10189.75
503.249	10092.57
503.618	10284.21
503.987	10221.84
504.356	10272.68
504.724	10311.32
505.093	10416.41
505.462	10305.68
505.83	10401.94
506.199	10440.59
506.567	10509.06
506.936	10490.3
507.304	10555.16
507.672	10576.63
508.041	10557.65
508.409	10687.36
508.777	10642.39
509.145	10720.35
509.514	10676.74
509.882	10738.21
510.25	10758.54
510.618	10766
510.986	10810.52
511.354	10780.24
511.722	10872.44
512.09	10894.13
512.458	10947.69
512.826	10928.48
513.193	10906.56
513.561	10929.39
513.929	10952.66
514.297	11031.76
514.664	11088.03
515.032	11008.71
515.4	11112.21
515.767	11093.68
516.135	11144.52
516.502	11044.41
516.869	11122.6
517.237	11183.84
517.604	10997.41
517.972	11149.49
518.339	11128.03
518.706	11045.32
519.073	11104.75
519.44	11203.28
519.808	11127.57
520.175	11081.7
520.542	11205.31
520.909	11169.38
521.276	11161.47
521.643	11242.37
522.009	11177.74
522.376	11212.77
522.743	11190.62
523.11	11228.14
523.477	11274.69
523.843	11373.9
524.21	11342.71
524.577	11247.57
524.943	11254.8
525.31	11312.2
525.676	11344.29
526.043	11363.5
526.409	11286.67
526.776	11379.09
527.142	11375.03
527.508	11274.92
527.874	11346.55
528.241	11303.62
528.607	11333.67
528.973	11266.78
529.339	11176.84
529.705	11320.34
530.071	11229.27
530.437	11275.82
530.803	11228.36
531.169	11179.55
531.535	11142.72
531.901	11121.25
532.267	11136.16
532.632	11090.29
532.998	10996.5
533.364	11097.29
533.73	11084.86
534.095	11027.69
534.461	10972.1
534.826	10953.34
535.192	10903.85
535.557	10937.07
535.923	10827.7
536.288	10791.09
536.653	10781.6
537.019	10683.29
537.384	10618.21
537.749	10634.93
538.114	10616.18
538.479	10547.48
538.845	10475.84
539.21	10426.8
539.575	10429.74
539.94	10390.64
540.305	10359.91
540.67	10279.91
541.034	10230.2
541.399	10211.67
541.764	10202.63
542.129	10110.43
542.494	10061.61
542.858	9942.3
543.223	9984.33
543.587	9975.97
543.952	9859.13
544.316	9819.13
544.681	9791.34
545.045	9726.48
545.41	9759.02
545.774	9702.53
546.138	9608.07
546.503	9551.12
546.867	9526.03
547.231	9558.58
547.595	9387.96
547.959	9403.33
548.324	9384.12
548.688	9277.23
549.052	9270.22
549.416	9235.42
549.779	9151.81
550.143	9108.87
550.507	9139.15
550.871	9024.35
551.235	8978.7
551.599	9047.18
551.962	8994.52
552.326	8903.45
552.689	8922.89
553.053	8806.73
553.417	8733.29
553.78	8829.78
554.143	8717.47
554.507	8670.46
554.87	8683.35
555.234	8672.95
555.597	8637.47
555.96	8594.31
556.323	8536.23
556.686	8497.36
557.05	8525.16
557.413	8434.54
557.776	8435.67
558.139	8435.44
558.502	8355.44
558.865	8412.84
559.228	8388.44
559.59	8344.82
559.953	8317.93
560.316	8341.66
560.679	8271.38
561.041	8264.83
561.404	8289.68
561.767	8309.34
562.129	8145.05
562.492	8195.9
562.854	8297.14
563.217	8194.32
563.579	8202.68
563.941	8241.1
564.304	8205.17
564.666	8232.96
565.028	8087.43
565.39	8137.14
565.753	8092.63
566.115	8154.55
566.477	8197.71
566.839	8171.27
567.201	8167.43
567.563	8165.39
567.925	8193.19
568.287	8126.07
568.648	8100.76
569.01	8154.55
569.372	8180.53
569.734	8166.97
570.095	8099.63
570.457	8182.57
570.819	8158.84
571.18	8123.59
571.542	8150.25
571.903	8127.65
572.265	8175.11
572.626	8150.7
572.987	8131.72
573.349	8180.76
573.71	8010.37
574.071	8176.24
574.432	8164.71
574.794	8177.82
575.155	8148.22
575.516	8133.3
575.877	8165.84
576.238	8115.22
576.599	8136.69
576.96	8098.5
577.32	8084.49
577.681	8097.6
578.042	8117.94
578.403	8112.06
578.763	8139.4
579.124	8078.84
579.485	8118.84
579.845	8109.12
580.206	8074.32
580.566	8049.46
580.927	8053.53
581.287	8117.03
581.648	8033.42
582.008	8112.96
582.368	8028
582.728	8018.5
583.089	8040.88
583.449	8030.71
583.809	8028.45
584.169	8014.21
584.529	8008.56
584.889	8015.57
585.249	7906.19
585.609	7981.89
585.969	8006.07
586.329	7985.28
586.688	7991.84
587.048	7924.5
587.408	7962.23
587.768	7907.09
588.127	7965.85
588.487	7853.99
588.846	7958.62
589.206	7862.12
589.565	7920.88
589.925	7892.86
590.284	7845.18
590.643	7854.67
591.003	7872.52
591.362	7897.15
591.721	7854.21
592.08	7813.99
592.44	7800.88
592.799	7859.41
593.158	7846.98
593.517	7797.27
593.876	7826.19
594.235	7817.15
594.593	7789.13
594.952	7845.4
595.311	7761.11
595.67	7747.32
596.029	7813.76
596.387	7769.92
596.746	7766.53
597.104	7718.4
597.463	7757.49
597.822	7794.33
598.18	7703.03
598.538	7730.15
598.897	7756.14
599.255	7626.42
599.613	7793.65
599.972	7741.9
600.33	7773.31
600.688	7729.7
601.046	7783.71
601.404	7743.93
601.762	7734.67
602.12	7723.14
602.478	7707.33
602.836	7770.37
603.194	7715.91
603.552	7727.89
603.91	7650.83
604.268	7695.8
604.625	7648.8
604.983	7733.99
605.341	7688.12
605.698	7684.05
606.056	7766.99
606.413	7682.69
606.771	7681.34
607.128	7673.2
607.485	7605.86
607.843	7602.7
608.2	7608.8
608.557	7701.68
608.914	7677.72
609.272	7744.84
609.629	7731.73
609.986	7761.11
610.343	7689.7
610.7	7724.5
611.057	7680.66
611.414	7767.66
611.771	7682.24
612.127	7710.72
612.484	7735.8
612.841	7773.31
613.198	7723.14
613.554	7638.17
613.911	7777.83
614.267	7756.59
614.624	7791.84
614.98	7736.03
615.337	7785.06
615.693	7817.15
616.05	7775.8
616.406	7815.8
616.762	7818.51
617.118	7811.28
617.475	7750.04
617.831	7775.8
618.187	7777.83
618.543	7724.05
618.899	7809.02
619.255	7800.66
619.611	7763.6
619.967	7830.03
620.323	7830.49
620.678	7756.82
621.034	7801.11
621.39	7824.38
621.746	7798.62
622.101	7847.43
622.457	7802.69
622.812	7802.01
623.168	7824.38
623.523	7846.98
623.879	7865.97
624.234	7774.22
624.589	7821.22
624.945	7832.29
625.3	7806.53
625.655	7786.65
626.01	7826.19
626.365	7770.37
626.72	7759.53
627.075	7759.08
627.43	7754.56
627.785	7780.77
628.14	7834.33
628.495	7819.87
628.85	7757.04
629.205	7712.98
629.559	7823.25
629.914	7761.79
630.269	7797.72
630.623	7724.27
630.978	7729.47
631.332	7736.25
631.687	7740.09
632.041	7709.13
632.396	7696.93
632.75	7725.18
633.104	7687.21
633.459	7703.48
633.813	7710.72
634.167	7637.72
634.521	7644.95
634.875	7680.89
635.229	7620.55
635.583	7571.74
635.937	7589.14
636.291	7549.36
636.645	7607.22
636.999	7560.21
637.352	7568.35
637.706	7479.31
638.06	7561.57
638.413	7591.62
638.767	7535.35
639.121	7494.45
639.474	7508.46
639.828	7516.14
640.181	7465.98
640.534	7522.92
640.888	7452.19
641.241	7435.92
641.594	7479.08
641.947	7435.92
642.301	7409.25
642.654	7452.87
643.007	7422.14
643.36	7437.05
643.713	7321.35
644.066	7441.34
644.419	7371.29
644.771	7373.78
645.124	7388.69
645.477	7291.52
645.83	7264.4
646.182	7180.56
646.535	7187.11
646.888	7203.61
647.24	7150.5
647.593	7178.75
647.945	7159.54
648.298	7199.77
648.65	7139.43
649.002	7137.62
649.355	7128.81
649.707	7110.28
650.059	7164.97
650.411	7301.46
650.763	7282.7
651.115	7313.89
651.467	7312.76
651.819	7353.66
652.171	7330.61
652.523	7345.3
652.875	7337.84
653.227	7257.85
653.578	7298.75
653.93	7383.04
654.282	7303.72
654.633	7303.49
654.985	7256.49
655.337	7309.82
655.688	7305.3
656.039	7380.55
656.391	7295.13
656.742	7345.53
657.094	7273.89
657.445	7312.08
657.796	7329.26
658.147	7341.23
658.498	7330.61
658.849	7355.47
659.2	7303.27
659.551	7283.83
659.902	7372.42
660.253	7332.65
660.604	7396.37
660.955	7297.84
661.306	7375.13
661.656	7352.08
662.007	7389.37
662.358	7309.37
662.708	7414.45
663.059	7369.93
663.409	7352.08
663.76	7415.13
664.11	7387.56
664.461	7379.2
664.811	7432.98
665.161	7408.35
665.511	7408.12
665.862	7391.4
666.212	7448.8
666.562	7439.76
666.912	7409.48
667.262	7417.39
667.612	7391.63
667.962	7376.49
668.312	7361.12
668.662	7373.32
669.011	7451.97
669.361	7404.06
669.711	7352.31
670.06	7289.94
670.41	7370.16
670.76	7345.75
671.109	7369.48
671.459	7306.66
671.808	7329.03
672.157	7437.95
672.507	7322.93
672.856	7329.48
673.205	7347.56
673.554	7386.43
673.904	7284.51
674.253	7338.97
674.602	7334
674.951	7227.56
675.3	7128.58
675.649	7338.07
675.998	7250.16
676.346	7305.75
676.695	7290.16
677.044	7276.15
677.393	7277.28
677.741	7293.1
678.09	7245.42
678.438	7247.45
678.787	7278.41
679.135	7227.56
679.484	7185.31
679.832	7220.33
680.181	7140.56
680.529	7199.77
680.877	7136.04
681.225	7129.04
681.573	7174.23
681.922	7118.41
682.27	7077.74
682.618	7086.32
682.966	7071.64
683.314	7105.76
683.661	7062.82
684.009	7079.55
684.357	7019.89
684.705	6983.5
685.053	6949.83
685.4	6960.45
685.748	6943.05
686.095	6919.1
686.443	6911.64
686.79	6891.3
687.138	6966.33
687.485	6912.09
687.832	6891.75
688.18	6857.18
688.527	6795.03
688.874	6833.9
689.221	6748.48
689.568	6783.51
689.915	6759.78
690.262	6784.64
690.609	6713.68
690.956	6760.91
691.303	6673.23
691.65	6601.14
691.997	6593.23
692.344	6608.82
692.69	6590.97
693.037	6578.99
693.383	6507.58
693.73	6521.82
694.077	6443.63
694.423	6460.58
694.769	6422.16
695.116	6430.97
695.462	6371.77
695.808	6389.17
696.155	6423.29
696.501	6336.06
696.847	6337.64
697.193	6246.8
697.539	6292.67
697.885	6233.92
698.231	6217.87
698.577	6179.46
698.923	6204.31
699.269	6193.69
699.614	6179.23
699.96	6165.45
700.306	6122.96
700.651	6087.71
700.997	5992.12
701.342	6007.03
701.688	6064.66
702.033	6038.67
702.379	6007.26
702.724	5950.99
703.069	5956.19
703.415	5894.04
703.76	5900.37
704.105	5887.26
704.45	5920.25
704.795	5847.26
705.14	5818.56
705.485	5794.83
705.83	5797.32
706.175	5787.15
706.52	5757.32
706.865	5707.15
707.209	5760.03
707.554	5704.21
707.899	5702.63
708.243	5675.97
708.588	5664.22
708.932	5648.85
709.277	5596.65
709.621	5633.71
709.966	5581.96
710.31	5558
710.654	5553.48
710.998	5541.28
711.342	5569.98
711.687	5562.52
712.031	5464.22
712.375	5478.46
712.719	5499.47
713.063	5473.49
713.407	5488.4
713.75	5482.53
714.094	5462.41
714.438	5433.71
714.782	5455.63
715.125	5388.52
715.469	5379.7
715.812	5385.58
716.156	5353.72
716.499	5413.15
716.843	5374.05
717.186	5343.77
717.53	5370.66
717.873	5349.2
718.216	5379.93
718.559	5299.25
718.902	5316.2
719.246	5342.19
719.589	5323.89
719.932	5317.11
720.275	5294.96
720.617	5231.68
720.96	5268.07
721.303	5278.24
721.646	5277.33
721.989	5251.8
722.331	5296.77
722.674	5217.22
723.016	5211.8
723.359	5263.55
723.701	5245.92
724.044	5241.4
724.386	5168.41
724.729	5260.84
725.071	5176.32
725.413	5164.12
725.755	5206.6
726.097	5198.01
726.439	5177.67
726.782	5182.87
727.124	5206.83
727.465	5196.21
727.807	5186.94
728.149	5162.31
728.491	5232.59
728.833	5168.64
729.175	5205.7
729.516	5164.12
729.858	5151.91
730.199	5206.6
730.541	5157.56
730.882	5250.22
731.224	5156.21
731.565	5208.63
731.906	5209.09
732.248	5171.35
732.589	5127.51
732.93	5137.68
733.271	5167.28
733.612	5170.44
733.953	5150.1
734.294	5159.37
734.635	5191.91
734.976	5184.45
735.317	5160.05
735.658	5148.97
735.999	5204.11
736.339	5191.91
736.68	5196.66
737.021	5174.28
737.361	5185.81
737.702	5200.72
738.042	5228.97
738.383	5223.55
738.723	5240.27
739.063	5211.57
739.404	5234.17
739.744	5312.13
740.084	5252.47
740.424	5225.58
740.764	5277.11
741.104	5320.95
741.444	5296.77
741.784	5299.93
742.124	5313.49
742.464	5323.66
742.804	5341.51
743.143	5344.45
743.483	5370.44
743.823	5374.51
744.162	5462.64
744.502	5479.14
744.841	5465.35
745.181	5508.06
745.52	5527.5
745.86	5604.1
746.199	5557.55
746.538	5622.18
746.877	5654.72
747.216	5733.59
747.556	5750.09
747.895	5786.02
748.234	5800.26
748.573	5814.72
748.911	5907.82
749.25	5976.98
749.589	5946.69
749.928	6060.14
750.267	6140.36
750.605	6189.85
750.944	6295.16
751.283	6317.08
751.621	6377.87
751.96	6475.95
752.298	6594.59
752.636	6683.85
752.975	6708.03
753.313	6797.97
753.651	6878.65
753.989	6974.92
754.327	7112.09
754.666	7184.63
755.004	7348.46
755.342	7491.96
755.679	7548.46
756.017	7668
756.355	7804.72
756.693	7922.46
757.031	8118.16
757.368	8221.21
757.706	8340.3
758.044	8464.82
758.381	8619.39
758.719	8793.4
759.056	8924.92
759.394	9158.59
759.731	9241.3
760.068	9414.4
760.405	9564.23
760.743	9708.63
761.08	9841.96
761.417	10033.82
761.754	10204.44
762.091	10363.98
762.428	10573.01
762.765	10695.95
763.102	10914.47
763.438	11040.57
763.775	11192.43
764.112	11392.88
764.449	11652.53
764.785	11673.55
765.122	11844.84
765.458	11991.05
765.795	12148.34
766.131	12369.12
766.467	12495
766.804	12604.82
767.14	12838.94
767.476	12927.08
767.812	13014.08
768.148	13269.67
768.485	13393.5
768.821	13438.25
769.157	13651.58
769.492	13821.97
769.828	13952.59
770.164	13917.56
770.5	14097.67
770.836	14245.23
771.171	14354.16
771.507	14438.67
771.842	14496.75
772.178	14690.42
772.513	14757.99
772.849	14794.6
773.184	14923.18
773.519	15118.66
773.855	15143.06
774.19	15153.91
774.525	15320.01
774.86	15376.28
775.195	15466.9
775.53	15548.02
775.865	15532.2
776.2	15636.38
776.535	15596.38
776.87	15691.3
777.205	15770.39
777.539	15738.53
777.874	15924.51
778.209	15873.66
778.543	15944.85
778.878	15977.62
779.212	15997.5
779.547	15976.49
779.881	16138.06
780.215	16079.99
780.55	16195.69
780.884	16128.35
781.218	16191.62
781.552	16264.61
781.886	16212.64
782.22	16221
782.554	16164.73
782.888	16185.52
783.222	16204.73
783.556	16279.3
783.889	16185.75
784.223	16109.82
784.557	16112.3
784.89	16289.02
785.224	16211.06
785.557	16174.22
785.891	16132.64
786.224	16176.03
786.558	16211.96
786.891	16009.03
787.224	16125.64
787.557	16082.47
787.891	16096.71
788.224	16124.96
788.557	16165.86
788.89	16134.45
789.223	16142.13
789.556	16113.88
789.888	16113.88
790.221	16071.4
790.554	15951.63
790.887	15923.83
791.219	15958.18
791.552	15886.09
791.884	15969.93
792.217	15842.03
792.549	15905.53
792.882	15802.93
793.214	15752.31
793.546	15803.16
793.879	15791.86
794.211	15660.34
794.543	15759.32
794.875	15700.56
795.207	15711.63
795.539	15710.05
795.871	15681.13
796.203	15529.72
796.535	15625.31
796.867	15550.28
797.198	15462.38
797.53	15489.04
797.862	15430.96
798.193	15505.76
798.525	15310.97
798.856	15370.4
799.188	15253.34
799.519	15237.07
799.85	15127.7
800.182	15188.94
800.513	15211.54
800.844	15127.92
801.175	15163.63
801.506	15152.78
801.837	15030.07
802.168	15022.39
802.499	15016.29
802.83	14974.48
803.161	14866.01
803.491	14990.52
803.822	14902.84
804.153	14914.14
804.483	14752.11
804.814	14735.16
805.145	14668.5
805.475	14701.49
805.805	14582.17
806.136	14674.83
806.466	14723.86
806.796	14610.42
807.126	14557.31
807.457	14553.93
807.787	14558.44
808.117	14475.28
808.447	14360.26
808.777	14402.29
809.107	14375.85
809.436	14313.03
809.766	14389.64
810.096	14237.32
810.426	14279.81
810.755	14247.72
811.085	14239.81
811.414	14211.79
811.744	14095.18
812.073	14125.69
812.403	14141.73
812.732	14007.27
813.061	14018.8
813.39	13993.71
813.719	13946.03
814.049	14026.93
814.378	13952.59
814.707	13863.55
815.036	13902.87
815.365	13845.24
815.693	13620.62
816.022	13824.45
816.351	13672.37
816.68	13708.3
817.008	13784
817.337	13636.44
817.665	13631.01
817.994	13595.53
818.322	13642.31
818.651	13595.76
818.979	13487.29
819.307	13573.61
819.636	13532.71
819.964	13487.74
820.292	13509.88
820.62	13534.74
820.948	13442.09
821.276	13439.6
821.604	13448.19
821.932	13540.17
822.259	13459.26
822.587	13468.76
822.915	13426.72
823.243	13400.51
823.57	13455.2
823.898	13398.02
824.225	13360.74
824.553	13299.72
824.88	13405.25
825.207	13505.59
825.535	13427.4
825.862	13410.68
826.189	13425.82
826.516	13483.9
826.843	13418.14
827.17	13430.11
827.497	13488.87
827.824	13480.96
828.151	13457.23
828.478	13468.3
828.805	13492.26
829.131	13468.53
829.458	13388.31
829.785	13448.87
830.111	13403
830.438	13572.48
830.764	13513.73
831.09	13469.66
831.417	13483.44
831.743	13499.26
832.069	13528.64
832.395	13428.53
832.722	13539.26
833.048	13428.76
833.374	13433.5
833.7	13299.04
834.026	13386.5
834.351	13429.44
834.677	13364.58
835.003	13360.06
835.329	13375.43
835.654	13342.21
835.98	13388.08
836.306	13297.24
836.631	13279.61
836.956	13323.45
837.282	13347.86
837.607	13305.6
837.932	13187.63
838.258	13200.29
838.583	13221.76
838.908	13141.31
839.233	13167.75
839.558	13106.28
839.883	13066.05
840.208	13009.33
840.533	13022.89
840.858	13072.83
841.182	13050.24
841.507	13118.71
841.832	12988.09
842.156	12916.91
842.481	12987.86
842.805	12845.5
843.13	12818.15
843.454	12882.78
843.778	12817.47
844.103	12815.89
844.427	12753.97
844.751	12789.45
845.075	12688.21
845.399	12668.78
845.723	12526.41
846.047	12684.14
846.371	12481.44
846.695	12534.54
847.019	12444.15
847.343	12377.26
847.666	12302.68
847.99	12233.31
848.313	12239.41
848.637	12133.88
848.96	12232.18
849.284	12116.7
849.607	12035.12
849.931	12023.37
850.254	12003.03
850.577	11876.48
850.9	11794.45
851.223	11783.15
851.546	11676.03
851.869	11619.99
852.192	11663.15
852.515	11565.53
852.838	11553.55
853.161	11565.76
853.483	11601.69
853.806	11475.81
854.129	11481.69
854.451	11325.08
854.774	11355.14
855.096	11290.28
855.419	11265.65
855.741	11231.07
856.063	11238.76
856.385	11217.52
856.708	11168.25
857.03	11068.14
857.352	11105.43
857.674	11060.01
857.996	11043.06
858.318	10968.03
858.64	10968.93
858.961	10936.62
859.283	10862.72
859.605	10908.37
859.926	10845.32
860.248	10794.02
860.57	10754.48
860.891	10816.85
861.212	10713.35
861.534	10710.18
861.855	10633.35
862.176	10699.56
862.498	10639
862.819	10610.07
863.14	10653.24
863.461	10588.38
863.782	10556.97
864.103	10582.5
864.424	10527.59
864.745	10540.92
865.065	10391.77
865.386	10417.76
865.707	10469.51
866.027	10399.91
866.348	10429.51
866.668	10404.66
866.989	10317.43
867.309	10290.76
867.63	10364.2
867.95	10293.92
868.27	10264.32
868.59	10367.59
868.91	10248.73
869.23	10163.98
869.55	10221.38
869.87	10201.5
870.19	10192.91
870.51	10199.92
870.83	10181.16
871.15	10191.1
871.469	10144.55
871.789	10112.01
872.109	10157.88
872.428	10099.58
872.748	10028.62
873.067	10076.08
873.386	10056.64
873.706	9985.46
874.025	10010.32
874.344	9912.92
874.663	9896.42
874.982	9915.63
875.301	9945.68
875.62	9945.68
875.939	9940.94
876.258	9938.23
876.577	9898.23
876.896	9854.39
877.214	9789.08
877.533	9831.34
877.852	9745.69
878.17	9794.05
878.489	9735.97
878.807	9802.19
879.125	9732.81
879.444	9765.8
879.762	9614.39
880.08	9634.51
880.398	9682.87
880.716	9655.97
881.034	9620.72
881.352	9626.82
881.67	9618.24
881.988	9586.82
882.306	9496.43
882.624	9543.66
882.941	9484
883.259	9467.96
883.577	9440.16
883.894	9451.23
884.212	9447.84
884.529	9377.79
884.846	9387.06
885.164	9321.29
885.481	9333.05
885.798	9308.64
886.115	9254.18
886.432	9241.75
886.75	9275.87
887.067	9259.6
887.383	9237
887.7	9256.66
888.017	9164.24
888.334	9219.15
888.651	9098.7
888.967	9103.9
889.284	9033.62
889.6	9027.52
889.917	8990.23
890.233	8945.71
890.55	8952.94
890.866	8909.78
891.182	8965.37
891.498	8883.79
891.815	8901.42
892.131	8862.55
892.447	8830.46
892.763	8732.61
893.079	8774.19
893.395	8710.69
893.71	8667.98
894.026	8695.77
894.342	8668.88
894.657	8658.04
894.973	8556.57
895.289	8585.27
895.604	8585.72
895.92	8423.01
896.235	8473.18
896.55	8449.23
896.865	8440.19
897.181	8438.38
897.496	8387.53
897.811	8369
898.126	8369.68
898.441	8289.46
898.756	8280.64
899.071	8194.32
899.386	8208.56
899.7	8138.27
900.015	8090.37
900.33	8047.2
900.644	8060.76
900.959	8119.74
901.273	8012.63
901.588	7989.8
901.902	7917.04
902.216	7946.42
902.531	7928.34
902.845	7915.91
903.159	7804.5
903.473	7812.18
903.787	7714.56
904.101	7686.54
904.415	7665.97
904.729	7754.1
905.042	7635.46
905.356	7660.32
905.67	7581
905.984	7592.98
906.297	7571.74
906.611	7499.87
906.924	7497.61
907.237	7437.05
907.551	7453.55
907.864	7401.34
908.177	7418.75
908.491	7374.68
908.804	7338.3
909.117	7232.99
909.43	7217.39
909.743	7196.38
910.056	7181.24
910.368	7163.61
910.681	7109.15
910.994	7095.82
911.307	7041.35
911.619	7006.55
911.932	7041.13
912.244	6988.93
912.557	6962.94
912.869	6943.05
913.181	6863.05
913.494	6820.8
913.806	6779.44
914.118	6779.44
914.43	6746.67
914.742	6748.25
915.054	6661.25
915.366	6692.89
915.678	6729.95
915.99	6642.95
916.302	6600.91
916.613	6561.59
916.925	6531.99
917.236	6533.57
917.548	6469.84
917.859	6503.74
918.171	6425.33
918.482	6448.6
918.794	6429.17
919.105	6344.65
919.416	6321.37
919.727	6358.66
920.038	6362.05
920.349	6270.3
920.66	6326.57
920.971	6297.19
921.282	6260.13
921.593	6204.99
921.903	6153.69
922.214	6110.08
922.525	6079.12
922.835	6091.32
923.146	5991.44
923.456	6112.57
923.767	6015.84
924.077	6054.49
924.387	5977.2
924.697	5899.24
925.008	5905.57
925.318	5871.44
925.628	5869.18
925.938	5844.55
926.248	5770.88
926.558	5793.25
926.867	5775.4
927.177	5772.01
927.487	5716.42
927.796	5642.52
928.106	5656.08
928.416	5602.07
928.725	5665.57
929.034	5627.83
929.344	5576.08
929.653	5610.66
929.962	5508.74
930.271	5543.31
930.581	5536.08
930.89	5510.55
931.199	5484.79
931.508	5404.11
931.817	5425.13
932.125	5408.63
932.434	5383.54
932.743	5353.49
933.051	5356.88
933.36	5268.52
933.669	5288.41
933.977	5262.42
934.286	5258.12
934.594	5261.74
934.902	5181.52
935.21	5144.68
935.519	5188.97
935.827	5108.75
936.135	5093.38
936.443	5086.6
936.751	5077.56
937.059	5014.74
937.367	5034.85
937.674	5031.69
937.982	5002.99
938.29	4963.89
938.597	4967.51
938.905	4900.39
939.213	4934.74
939.52	4866.95
939.827	4890.45
940.135	4854.29
940.442	4812.49
940.749	4811.13
941.056	4804.8
941.363	4758.7
941.67	4774.52
941.977	4701.3
942.284	4666.05
942.591	4692.26
942.898	4646.84
943.205	4627.41
943.511	4619.05
943.818	4631.25
944.125	4565.49
944.431	4559.61
944.738	4555.32
945.044	4557.58
945.35	4504.25
945.657	4544.02
945.963	4468.31
946.269	4480.52
946.575	4426.06
946.881	4427.86
947.187	4410.46
947.493	4338.6
947.799	4365.72
948.105	4362.78
948.41	4321.2
948.716	4317.58
949.022	4291.37
949.327	4284.59
949.633	4226.06
949.938	4239.62
950.244	4248.89
950.549	4220.64
950.854	4211.82
951.16	4134.76
951.465	4119.62
951.77	4136.57
952.075	4159.17
952.38	4120.08
952.685	4100.41
952.99	4025.84
953.294	4031.49
953.599	4026.29
953.904	3962.79
954.209	3972.06
954.513	3950.36
954.818	3935
955.122	3916.01
955.426	3957.14
955.731	3869.23
956.035	3860.65
956.339	3876.69
956.643	3860.42
956.948	3842.57
957.252	3812.74
957.556	3779.52
957.86	3801.67
958.163	3741.1
958.467	3733.87
958.771	3762.57
959.075	3749.92
959.378	3703.36
959.682	3688.45
959.985	3690.71
960.289	3639.64
960.592	3642.12
960.896	3646.64
961.199	3640.99
961.502	3615
961.805	3592.63
962.108	3596.25
962.411	3545.85
962.714	3539.53
963.017	3471.96
963.32	3528.23
963.623	3537.04
963.926	3471.73
964.228	3513.09
964.531	3470.37
964.833	3470.37
965.136	3414.11
965.438	3418.85
965.741	3374.11
966.043	3364.16
966.345	3371.62
966.648	3365.29
966.95	3379.3
967.252	3298.18
967.554	3304.05
967.856	3296.14
968.158	3275.35
968.46	3257.95
968.761	3255.47
969.063	3267.22
969.365	3252.53
969.666	3172.76
969.968	3197.61
970.269	3166.2
970.571	3166.2
970.872	3096.15
971.174	3097.96
971.475	3105.86
971.776	3107.67
972.077	3079.65
972.378	3096.37
972.679	3060.89
972.98	3063.15
973.281	3043.27
973.582	3040.1
973.883	2991.74
974.183	3002.59
974.484	3001.91
974.785	2990.84
975.085	2992.42
975.386	2959.88
975.686	2940.45
975.986	2939.54
976.287	2949.03
976.587	2881.69
976.887	2874.91
977.187	2908.13
977.487	2837.62
977.787	2873.1
978.087	2865.64
978.387	2793.78
978.687	2802.82
978.987	2764.18
979.286	2777.51
979.586	2786.55
979.885	2777.06
980.185	2747.91
980.484	2747
980.784	2777.74
981.083	2694.35
981.382	2696.84
981.682	2664.97
981.981	2667.46
982.28	2650.06
982.579	2630.4
982.878	2654.35
983.177	2641.7
983.475	2657.06
983.774	2622.94
984.073	2574.13
984.372	2605.99
984.67	2570.74
984.969	2530.06
985.267	2589.95
985.566	2509.5
985.864	2519.67
986.162	2506.11
986.461	2529.38
986.759	2495.94
987.057	2460.23
987.355	2514.02
987.653	2449.38
987.951	2454.58
988.249	2467.46
988.547	2447.12
988.844	2376.62
989.142	2427.24
989.44	2383.17
989.737	2398.76
990.035	2370.52
990.332	2397.86
990.63	2344.53
990.927	2309.05
991.224	2345.88
991.521	2290.74
991.819	2321.93
992.116	2307.02
992.413	2283.29
992.71	2269.95
993.006	2265.66
993.303	2254.59
993.6	2210.29
993.897	2248.49
994.193	2234.93
994.49	2211.65
994.787	2180.69
995.083	2179.34
995.379	2183.18
995.676	2160.35
995.972	2126.23
996.268	2143.63
996.565	2154.7
996.861	2116.74
997.157	2110.18
997.453	2131.88
997.749	2084.42
998.044	2097.53
998.34	2059.79
998.636	2053.69
998.932	2044.42
999.227	2074.48
999.523	2029.96
999.818	2029.96
1000.114	2051.88
1000.409	2043.29
1000.704	1991.09
1001	2011.66
1001.295	1956.06
1001.59	1969.62
1001.885	1958.78
1002.18	1955.16
1002.475	1955.84
1002.77	1955.84
1003.065	1894.82
1003.359	1882.85
1003.654	1880.59
1003.949	1880.81
1004.243	1878.1
1004.538	1869.74
1004.832	1864.54
1005.127	1831.32
1005.421	1856.86
1005.715	1802.62
1006.009	1809.4
1006.304	1796.07
1006.598	1783.87
1006.892	1783.19
1007.186	1764.43
1007.48	1771.21
1007.773	1746.35
1008.067	1731.66
1008.361	1717.88
1008.655	1722.4
1008.948	1705
1009.242	1695.05
1009.535	1694.6
1009.829	1699.12
1010.122	1673.81
1010.415	1668.61
1010.708	1652.57
1011.001	1648.73
1011.295	1636.98
1011.588	1620.48
1011.881	1623.19
1012.173	1591.78
1012.466	1616.41
1012.759	1595.62
1013.052	1561.27
1013.344	1579.58
1013.637	1560.59
1013.93	1539.35
1014.222	1517.43
1014.514	1573.93
1014.807	1547.49
1015.099	1510.88
1015.391	1525.34
1015.683	1495.74
1015.976	1500.26
1016.268	1482.4
1016.56	1482.4
1016.851	1476.3
1017.143	1448.51
1017.435	1431.11
1017.727	1461.16
1018.018	1429.98
1018.31	1446.02
1018.602	1416.42
1018.893	1410.54
1019.185	1407.83
1019.476	1389.98
1019.767	1397.21
1020.058	1371.45
1020.35	1367.38
1020.641	1362.86
1020.932	1358.34
1021.223	1366.25
1021.514	1310.43
1021.804	1314.05
1022.095	1309.98
1022.386	1303.2
1022.677	1297.55
1022.967	1281.96
1023.258	1249.64
1023.548	1277.21
1023.839	1259.36
1024.129	1265.69
1024.419	1237.44
1024.709	1251.9
1025	1222.07
1025.29	1207.61
1025.58	1202.41
1025.87	1218.23
1026.16	1154.96
1026.449	1186.59
1026.739	1185.92
1027.029	1201.28
1027.319	1183.66
1027.608	1159.02
1027.898	1141.17
1028.187	1141.17
1028.477	1155.86
1028.766	1134.84
1029.055	1112.02
1029.344	1117.67
1029.634	1137.33
1029.923	1081.06
1030.212	1100.04
1030.501	1084.45
1030.79	1095.97
1031.078	1084.45
1031.367	1048.29
1031.656	1058.46
1031.945	1036.54
1032.233	1051
1032.522	1034.73
1032.81	1046.71
1033.099	1045.13
1033.387	1013.49
1033.675	988.63
1033.963	1022.08
1034.251	990.67
1034.54	1010.1
1034.828	1015.52
1035.116	990.21
1035.403	972.36
1035.691	964.68
1035.979	963.32
1036.267	961.97
1036.554	942.31
1036.842	962.64
1037.129	949.54
1037.417	947.05
1037.704	938.24
1037.992	917.9
1038.279	936.88
1038.566	916.09
1038.853	916.09
1039.14	916.09
