Data from hue_280_FLMS001491_00086.txt Node
Date: Tue Feb 07 15:55:55 GMT 2017
User: dcchb
Spectrometer: FLMS00149
Trigger mode: 0
Integration Time (sec): 2.000000E-2
Scans to average: 10
Electric dark correction enabled: true
Nonlinearity correction enabled: false
Boxcar width: 0
XAxis mode: Wavelengths
Number of Pixels in Spectrum: 2048
>>>>>Begin Spectral Data<<<<<
341.393	-26.67
341.776	-26.67
342.16	-26.67
342.543	-64.63
342.927	-78.42
343.31	-76.38
343.693	-80.22
344.077	-64.86
344.46	-50.39
344.843	-47.68
345.226	-52.43
345.61	-27.57
345.993	-26.21
346.376	8.36
346.759	4.07
347.142	32.77
347.525	42.71
347.908	60.34
348.291	73.22
348.674	83.39
349.057	120.9
349.44	132.88
349.823	124.52
350.206	160
350.588	171.29
350.971	203.38
351.354	225.98
351.737	206.77
352.119	250.61
352.502	251.74
352.884	253.78
353.267	239.09
353.65	272.31
354.032	302.59
354.414	308.01
354.797	290.84
355.179	310.05
355.562	289.94
355.944	300.11
356.326	314.34
356.709	309.82
357.091	316.83
357.473	332.65
357.855	340.78
358.238	353.44
358.62	313.44
359.002	336.71
359.384	334.68
359.766	325.42
360.148	314.34
360.53	334.23
360.912	332.65
361.294	324.06
361.676	317.51
362.057	335.58
362.439	322.25
362.821	316.15
363.203	315.02
363.584	300.78
363.966	312.31
364.348	315.25
364.729	319.77
365.111	320.44
365.493	303.27
365.874	315.7
366.256	307.56
366.637	307.34
367.019	308.01
367.4	313.66
367.781	294.46
368.163	288.13
368.544	306.66
368.925	301.01
369.306	311.86
369.688	292.2
370.069	301.46
370.45	317.05
370.831	303.27
371.212	320.9
371.593	311.18
371.974	297.62
372.355	308.47
372.736	278.18
373.117	292.87
373.498	303.72
373.879	310.27
374.26	323.61
374.641	303.95
375.021	321.35
375.402	309.14
375.783	321.12
376.163	317.05
376.544	330.84
376.925	311.63
377.305	327
377.686	294.46
378.066	301.91
378.447	317.28
378.827	307.11
379.208	335.58
379.588	313.21
379.968	331.74
380.349	321.12
380.729	328.35
381.109	324.06
381.489	316.6
381.87	347.34
382.25	327.68
382.63	334.45
383.01	326.55
383.39	322.48
383.77	315.92
384.15	330.84
384.53	336.94
384.91	356.6
385.29	325.42
385.67	348.47
386.049	345.98
386.429	353.66
386.809	341.46
387.189	345.3
387.568	355.92
387.948	338.07
388.328	350.95
388.707	352.53
389.087	360.89
389.466	360.22
389.846	349.82
390.225	346.66
390.605	343.95
390.984	347.34
391.363	362.93
391.743	359.99
392.122	346.66
392.501	373.1
392.881	360.67
393.26	344.4
393.639	360.22
394.018	363.15
394.397	363.61
394.776	360.89
395.155	382.14
395.534	380.78
395.913	370.16
396.292	381.68
396.671	369.48
397.05	401.12
397.429	396.6
397.808	399.31
398.186	390.5
398.565	388.92
398.944	387.79
399.323	369.03
399.701	378.75
400.08	386.2
400.458	388.46
400.837	401.57
401.215	414.68
401.594	389.59
401.972	414.68
402.351	400.22
402.729	423.27
403.107	410.16
403.486	418.97
403.864	418.07
404.242	428.24
404.62	419.42
404.999	419.42
405.377	417.84
405.755	439.76
406.133	433.43
406.511	442.7
406.889	433.43
407.267	460.78
407.645	465.75
408.023	468.46
408.401	471.17
408.779	464.17
409.156	477.95
409.534	471.4
409.912	505.07
410.29	502.59
410.667	514.34
411.045	487.9
411.422	516.6
411.8	523.15
412.178	510.04
412.555	530.61
412.933	522.47
413.31	529.25
413.687	559.53
414.065	535.58
414.442	580.32
414.819	536.03
415.197	584.39
415.574	568.35
415.951	567.67
416.328	599.98
416.705	593.43
417.082	589.14
417.46	585.75
417.837	585.52
418.214	617.61
418.591	618.51
418.967	601.11
419.344	662.13
419.721	653.99
420.098	638.4
420.475	666.65
420.852	659.87
421.228	650.6
421.605	676.37
421.982	697.38
422.358	702.35
422.735	719.08
423.111	707.78
423.488	724.5
423.864	729.7
424.241	721.34
424.617	741.45
424.994	727.44
425.37	771.28
425.746	773.54
426.123	786.19
426.499	766.99
426.875	794.33
427.251	793.43
427.627	830.03
428.003	837.27
428.379	849.47
428.756	890.82
429.132	854.67
429.507	866.42
429.883	877.94
430.259	902.58
430.635	896.93
431.011	915
431.387	927.43
431.763	908.9
432.138	947.09
432.514	942.35
432.89	978.73
433.265	1004.72
433.641	1006.3
434.016	1011.95
434.392	1032.74
434.767	1046.07
435.143	1052.63
435.518	1081.1
435.894	1069.12
436.269	1084.27
436.644	1088.33
437.02	1084.49
437.395	1112.97
437.77	1135.11
438.145	1156.35
438.52	1167.88
438.895	1182.57
439.271	1189.12
439.646	1251.94
440.021	1190.25
440.395	1249.68
440.77	1232.96
441.145	1204.71
441.52	1248.55
441.895	1237.26
442.27	1274.32
442.645	1256.46
443.019	1290.36
443.394	1270.02
443.769	1314.32
444.143	1301.66
444.518	1297.14
444.892	1307.99
445.267	1336.01
445.641	1347.99
446.016	1346.63
446.39	1350.47
446.764	1381.88
447.139	1345.05
447.513	1366.52
447.887	1378.49
448.262	1372.17
448.636	1407.87
449.01	1393.86
449.384	1407.87
449.758	1408.55
450.132	1450.58
450.506	1447.65
450.88	1438.38
451.254	1454.65
451.628	1471.83
452.002	1456.23
452.376	1507.76
452.75	1500.53
453.123	1501.88
453.497	1519.51
453.871	1531.94
454.244	1540.07
454.618	1553.41
454.992	1558.38
455.365	1577.59
455.739	1586.17
456.112	1624.59
456.486	1636.57
456.859	1619.62
457.232	1666.4
457.606	1656.91
457.979	1662.1
458.352	1690.58
458.725	1702.55
459.099	1728.32
459.472	1741.42
459.845	1762.44
460.218	1757.92
460.591	1762.89
460.964	1775.55
461.337	1799.27
461.71	1818.71
462.083	1839.73
462.456	1870.01
462.829	1863.91
463.201	1880.4
463.574	1871.59
463.947	1883.11
464.32	1934.64
464.692	1933.28
465.065	1977.35
465.438	1984.81
465.81	1999.95
466.183	2035.2
466.555	2018.7
466.928	2061.87
467.3	2048.08
467.672	2077.46
468.045	2138.93
468.417	2120.85
468.789	2134.41
469.161	2127.4
469.534	2174.18
469.906	2232.94
470.278	2203.78
470.65	2241.97
471.022	2276.1
471.394	2278.81
471.766	2301.18
472.138	2353.61
472.51	2369.2
472.882	2372.59
473.253	2397
473.625	2422.99
473.997	2478.35
474.369	2465.92
474.74	2488.52
475.112	2527.84
475.484	2535.75
475.855	2621.85
476.227	2605.36
476.598	2693.26
476.97	2680.16
477.341	2737.33
477.713	2750.21
478.084	2788.63
478.455	2859.59
478.827	2844.22
479.198	2902.75
479.569	2873.14
479.94	2959.47
480.311	2959.7
480.682	3047.6
481.053	3085.12
481.424	3147.04
481.795	3132.57
482.166	3204.89
482.537	3183.87
482.908	3229.29
483.279	3288.73
483.65	3350.65
484.021	3376.63
484.391	3403.53
484.762	3395.39
485.133	3398.33
485.503	3435.84
485.874	3535.73
486.244	3530.3
486.615	3609.62
486.985	3622.05
487.356	3666.57
487.726	3697.08
488.097	3758.09
488.467	3731.43
488.837	3800.58
489.207	3844.42
489.578	3875.83
489.948	3885.1
490.318	3941.14
490.688	3925.55
491.058	4000.35
491.428	4045.77
491.798	4033.79
492.168	4153.56
492.538	4155.37
492.908	4169.38
493.278	4182.49
493.648	4205.77
494.017	4227.46
494.387	4271.53
494.757	4300.68
495.126	4304.97
495.496	4330.96
495.866	4345.87
496.235	4402.14
496.605	4437.17
496.974	4394.46
497.344	4490.73
497.713	4511.75
498.082	4518.3
498.452	4535.93
498.821	4549.94
499.19	4557.62
499.559	4613.89
499.928	4601.23
500.298	4623.16
500.667	4655.47
501.036	4649.37
501.405	4649.37
501.774	4684.4
502.143	4749.48
502.512	4768.69
502.88	4771.4
503.249	4744.96
503.618	4825.41
503.987	4801.68
504.356	4813.88
504.724	4843.26
505.093	4813.66
505.462	4866.31
505.83	4873.54
506.199	4949.02
506.567	4930.04
506.936	4947.89
507.304	4978.4
507.672	4967.78
508.041	4964.16
508.409	5000.55
508.777	5034.9
509.145	5119.64
509.514	4994.67
509.882	5077.38
510.25	5095.23
510.618	5095.01
510.986	5088
511.354	5131.16
511.722	5160.77
512.09	5222.01
512.458	5158.96
512.826	5210.48
513.193	5264.72
513.561	5259.07
513.929	5278.05
514.297	5282.35
514.664	5266.3
515.032	5302.69
515.4	5296.58
515.767	5346.07
516.135	5397.82
516.502	5333.65
516.869	5346.53
517.237	5349.46
517.604	5380.65
517.972	5367.99
518.339	5428.11
518.706	5392.4
519.073	5423.81
519.44	5413.42
519.808	5478.95
520.175	5494.77
520.542	5500.65
520.909	5537.03
521.276	5478.5
521.643	5516.92
522.009	5573.86
522.376	5614.32
522.743	5608.44
523.11	5671.04
523.477	5679.17
523.843	5675.11
524.21	5721.21
524.577	5723.24
524.943	5798.72
525.31	5777.02
525.676	5847.53
526.043	5824.25
526.409	5839.85
526.776	5865.61
527.142	5850.92
527.508	5930.92
527.874	5922.78
528.241	5954.65
528.607	5951.03
528.973	6037.13
529.339	5970.92
529.705	6022.89
530.071	6034.87
530.437	6064.25
530.803	6068.32
531.169	6097.47
531.535	6110.35
531.901	6080.07
532.267	6109.67
532.632	6173.62
532.998	6125.26
533.364	6165.49
533.73	6205.03
534.095	6206.62
534.461	6303.56
534.826	6264.69
535.192	6254.3
535.557	6260.85
535.923	6280.74
536.288	6344.47
536.653	6330.46
537.019	6342.43
537.384	6341.98
537.749	6364.58
538.114	6391.7
538.479	6454.29
538.845	6351.7
539.21	6365.26
539.575	6417.46
539.94	6458.59
540.305	6459.04
540.67	6399.38
541.034	6472.6
541.399	6480.06
541.764	6488.19
542.129	6512.82
542.494	6479.15
542.858	6568.87
543.223	6539.26
543.587	6611.13
543.952	6579.04
544.316	6630.56
544.681	6605.93
545.045	6569.54
545.41	6668.07
545.774	6621.52
546.138	6633.95
546.503	6615.65
546.867	6618.81
547.231	6720.5
547.595	6739.03
547.959	6725.92
548.324	6694.74
548.688	6711.24
549.052	6725.7
549.416	6696.1
549.779	6744.91
550.143	6764.12
550.507	6792.59
550.871	6787.84
551.235	6813.61
551.599	6792.14
551.962	6824.91
552.326	6833.72
552.689	6839.37
553.053	6847.28
553.417	6840.05
553.78	6936.09
554.143	6924.34
554.507	6906.49
554.87	6948.97
555.234	7002.08
555.597	6996.43
555.96	6911.91
556.323	7016.31
556.686	6984.9
557.05	6974.96
557.413	7014.96
557.776	7105.12
558.139	7093.6
558.502	7082.98
558.865	7057.44
559.228	7177.89
559.59	7172.24
559.953	7151.45
560.316	7208.62
560.679	7181.05
561.041	7261.96
561.404	7268.51
561.767	7280.71
562.129	7282.75
562.492	7303.76
562.854	7299.02
563.217	7401.84
563.579	7437.54
563.941	7410.88
564.304	7447.71
564.666	7513.25
565.028	7502.4
565.39	7527.49
565.753	7563.64
566.115	7619.46
566.477	7559.35
566.839	7614.94
567.201	7692.23
567.563	7689.06
567.925	7720.93
568.287	7710.53
568.648	7732.9
569.01	7755.05
569.372	7801.6
569.734	7834.6
570.095	7883.18
570.457	7901.71
570.819	7967.02
571.18	7911.43
571.542	7988.04
571.903	8014.03
572.265	8036.17
572.626	8050.18
572.987	8066.91
573.349	8101.71
573.71	8112.1
574.071	8139.45
574.432	8240.91
574.794	8332.21
575.155	8280.91
575.516	8305.77
575.877	8376.05
576.238	8314.58
576.599	8439.55
576.96	8367.92
577.32	8488.14
577.681	8537.63
578.042	8511.64
578.403	8630.96
578.763	8645.2
579.124	8607.46
579.485	8640.68
579.845	8768.58
580.206	8704.86
580.566	8788.7
580.927	8798.41
581.287	8896.49
581.648	8847.22
582.008	8996.6
582.368	8969.26
582.728	9013.55
583.089	9142.36
583.449	9137.16
583.809	9167.22
584.169	9261.45
584.529	9253.09
584.889	9375.57
585.249	9334.9
585.609	9381.9
585.969	9535.12
586.329	9536.02
586.688	9639.52
587.048	9674.32
587.408	9699.41
587.768	9770.59
588.127	9807.88
588.487	9837.71
588.846	9983.92
589.206	9956.8
589.565	10023.01
589.925	10178.94
590.284	10235.66
590.643	10242.89
591.003	10345.26
591.362	10433.4
591.721	10514.07
592.08	10486.73
592.44	10615.99
592.799	10679.04
593.158	10702.77
593.517	10719.72
593.876	10860.28
594.235	10890.56
594.593	10922.2
594.952	10996.77
595.311	11060.73
595.67	11062.31
596.029	11242.42
596.387	11282.87
596.746	11381.85
597.104	11373.94
597.463	11468.17
597.822	11497.78
598.18	11474.5
598.538	11499.58
598.897	11668.39
599.255	11567.38
599.613	11800.82
599.972	11829.75
600.33	11870.42
600.688	11894.38
601.046	11959.01
601.404	12011.66
601.762	12194.93
602.12	12107.48
602.478	12206.68
602.836	12234.25
603.194	12200.13
603.552	12238.32
603.91	12267.02
604.268	12375.95
604.625	12304.31
604.983	12430.41
605.341	12430.86
605.698	12521.93
606.056	12630.4
606.413	12598.31
606.771	12669.72
607.128	12713.11
607.485	12660.68
607.843	12735.48
608.2	12799.44
608.557	12872.88
608.914	12851.64
609.272	12893.9
609.629	12961.92
609.986	13029.49
610.343	13020.9
610.7	13034.23
611.057	13053.67
611.414	13130.95
611.771	13151.07
612.127	13188.35
612.484	13249.82
612.841	13239.65
613.198	13268.13
613.554	13266.32
613.911	13368.91
614.267	13372.08
614.624	13361.91
614.98	13447.78
615.337	13478.97
615.693	13434
616.05	13496.59
616.406	13549.25
616.762	13494.79
617.118	13550.38
617.475	13581.56
617.831	13669.02
618.187	13631.28
618.543	13733.42
618.899	13739.07
619.255	13683.93
619.611	13735.01
619.967	13749.24
620.323	13838.73
620.678	13865.4
621.034	13774.78
621.39	13787.43
621.746	13783.59
622.101	14044.38
622.457	13812.74
622.812	13931.16
623.168	14000.31
623.523	13867.43
623.879	14029.46
624.234	13872.4
624.589	13947.43
624.945	13898.39
625.3	14056.35
625.655	13975.45
626.01	13899.75
626.365	13931.39
626.72	14000.08
627.075	13954.21
627.43	13970.03
627.785	13967.77
628.14	14011.61
628.495	13998.5
628.85	13937.03
629.205	13942.46
629.559	14055.68
629.914	13936.58
630.269	13916.92
630.623	13931.16
630.978	13974.55
631.332	13984.72
631.687	13969.58
632.041	13864.04
632.396	13988.33
632.75	13867.21
633.104	13902.46
633.459	13868.56
633.813	13873.99
634.167	13815
634.521	13876.47
634.875	13917.15
635.229	13815.91
635.583	13929.8
635.937	13796.25
636.291	13849.13
636.645	13822.46
636.999	13852.29
637.352	13780.65
637.706	13788.11
638.06	13839.86
638.413	13688
638.767	13678.28
639.121	13684.16
639.474	13625.4
639.828	13613.88
640.181	13687.78
640.534	13701.56
640.888	13654.78
641.241	13579.3
641.594	13651.17
641.947	13584.5
642.301	13624.73
642.654	13669.92
643.007	13673.76
643.36	13628.12
643.713	13605.74
644.066	13702.01
644.419	13546.54
644.771	13458.18
645.124	13375.69
645.477	13320.78
645.83	13263.15
646.182	13217.73
646.535	13167.56
646.888	13163.72
647.24	13114.46
647.593	13148.35
647.945	13125.08
648.298	13181.8
648.65	13084.63
649.002	13075.81
649.355	13162.82
649.707	13179.54
650.059	13155.13
650.411	13339.08
650.763	13382.47
651.115	13558.29
651.467	13482.58
651.819	13459.31
652.171	13501.34
652.523	13457.05
652.875	13470.38
653.227	13433.55
653.578	13522.13
653.93	13586.76
654.282	13418.4
654.633	13441.91
654.985	13445.75
655.337	13405.52
655.688	13458.4
656.039	13513.77
656.391	13453.66
656.742	13412.98
657.094	13436.93
657.445	13514.22
657.796	13411.85
658.147	13411.62
658.498	13460.89
658.849	13591.51
659.2	13405.52
659.551	13396.26
659.902	13504.28
660.253	13410.04
660.604	13526.65
660.955	13592.86
661.306	13500.21
661.656	13490.94
662.007	13530.27
662.358	13465.63
662.708	13479.87
663.059	13542.92
663.409	13454.34
663.76	13547.44
664.11	13561
664.461	13545.63
664.811	13522.36
665.161	13522.81
665.511	13526.65
665.862	13535.01
666.212	13582.92
666.562	13578.17
666.912	13579.53
667.262	13581.11
667.612	13632.18
667.962	13512.41
668.312	13585.86
668.662	13614.11
669.011	13551.06
669.361	13623.6
669.711	13573.65
670.06	13566.42
670.41	13537.95
670.76	13555.35
671.109	13571.62
671.459	13612.07
671.808	13487.1
672.157	13567.55
672.507	13459.31
672.856	13504.5
673.205	13578.4
673.554	13500.21
673.904	13395.81
674.253	13556.71
674.602	13531.62
674.951	13280.1
675.3	13158.75
675.649	13503.6
675.998	13383.83
676.346	13371.85
676.695	13383.83
677.044	13371.17
677.393	13420.89
677.741	13354.23
678.09	13336.37
678.438	13280.33
678.787	13380.21
679.135	13335.69
679.484	13237.62
679.832	13251.63
680.181	13235.81
680.529	13259.54
680.877	13185.64
681.225	13227
681.573	13259.09
681.922	13156.26
682.27	13076.94
682.618	13122.37
682.966	13057.96
683.314	13110.62
683.661	13069.71
684.009	12959.89
684.357	12940.68
684.705	12904.07
685.053	12914.69
685.4	12917.4
685.748	12754.01
686.095	12856.16
686.443	12824.75
686.79	12827.91
687.138	12883.5
687.485	12809.83
687.832	12765.77
688.18	12727.57
688.527	12596.28
688.874	12638.99
689.221	12615.71
689.568	12542.95
689.915	12563.29
690.262	12509.28
690.609	12376.85
690.956	12420.69
691.303	12406.23
691.65	12293.01
691.997	12348.15
692.344	12173.01
692.69	12253.24
693.037	12245.78
693.383	12070.19
693.73	12151.32
694.077	12040.36
694.423	12051.43
694.769	11953.81
695.116	11855.06
695.462	11978.67
695.808	11834.27
696.155	11870.2
696.501	11790.2
696.847	11791.1
697.193	11687.83
697.539	11680.82
697.885	11641.95
698.231	11582.29
698.577	11558.79
698.923	11511.11
699.269	11500.49
699.614	11428.17
699.96	11397.67
700.306	11434.73
700.651	11362.64
700.997	11286.71
701.342	11278.12
701.688	11204.9
702.033	11168.29
702.379	11218.69
702.724	11045.59
703.069	11045.59
703.415	11000.16
703.76	10980.28
704.105	11010.78
704.45	10949.09
704.795	10849.66
705.14	10891.01
705.485	10852.6
705.83	10762.43
706.175	10833.16
706.52	10765.59
706.865	10772.15
707.209	10679.95
707.554	10622.09
707.899	10667.06
708.243	10619.83
708.588	10582.09
708.932	10526.5
709.277	10481.53
709.621	10504.13
709.966	10427.07
710.31	10471.36
710.654	10343.46
710.998	10411.7
711.342	10333.51
711.687	10356.34
712.031	10268.2
712.375	10280.41
712.719	10290.35
713.063	10288.77
713.407	10236.12
713.75	10170.58
714.094	10154.99
714.438	10157.25
714.782	10178.72
715.125	10097.14
715.469	10134.65
715.812	10055.33
716.156	10023.01
716.499	10034.54
716.843	10002.9
717.186	9996.35
717.53	9999.29
717.873	10081.32
718.216	9916.35
718.559	9912.96
718.902	9866.41
719.246	9893.75
719.589	9877.48
719.932	9767.65
720.275	9866.86
720.617	9807.88
720.96	9788.22
721.303	9834.32
721.646	9748.9
721.989	9821.44
722.331	9767.43
722.674	9773.3
723.016	9798.61
723.359	9729.91
723.701	9720.87
724.044	9674.55
724.386	9696.02
724.729	9672.97
725.071	9691.5
725.413	9669.58
725.755	9657.6
726.097	9600.65
726.439	9636.13
726.782	9616.92
727.124	9629.8
727.465	9625.74
727.807	9618.05
728.149	9564.04
728.491	9547.09
728.833	9624.15
729.175	9578.28
729.516	9568.79
729.858	9550.03
730.199	9541.44
730.541	9566.98
730.882	9604.27
731.224	9596.13
731.565	9557.49
731.906	9588
732.248	9566.3
732.589	9486.98
732.93	9471.62
733.271	9516.13
733.612	9574.89
733.953	9453.76
734.294	9463.71
734.635	9507.77
734.976	9506.19
735.317	9524.04
735.658	9505.96
735.999	9498.06
736.339	9524.5
736.68	9543.03
737.021	9475.46
737.361	9524.27
737.702	9576.47
738.042	9513.42
738.383	9573.99
738.723	9625.51
739.063	9579.86
739.404	9583.02
739.744	9643.14
740.084	9617.37
740.424	9592.74
740.764	9578.51
741.104	9656.92
741.444	9605.4
741.784	9609.69
742.124	9669.58
742.464	9703.7
742.804	9686.75
743.143	9730.37
743.483	9673.42
743.823	9705.51
744.162	9774.21
744.502	9816.24
744.841	9759.07
745.181	9911.6
745.52	9939.63
745.86	9946.41
746.199	9869.8
746.538	9955.9
746.877	10059.4
747.216	10102.33
747.556	10130.81
747.895	10141.88
748.234	10188.66
748.573	10265.72
748.911	10307.98
749.25	10403.79
749.589	10456.67
749.928	10441.99
750.267	10524.24
750.605	10625.94
750.944	10729.66
751.283	10779.15
751.621	10831.35
751.96	10956.55
752.298	11047.62
752.636	11111.57
752.975	11105.24
753.313	11230.67
753.651	11395.63
753.989	11518.79
754.327	11624.1
754.666	11689.86
755.004	11903.42
755.342	11980.02
755.679	12126.69
756.017	12153.13
756.355	12337.53
756.693	12344.08
757.031	12550.86
757.368	12673.34
757.706	12856.39
758.044	12935.48
758.381	13073.33
758.719	13139.99
759.056	13302.93
759.394	13503.83
759.731	13571.62
760.068	13772.75
760.405	13768.68
760.743	13967.54
761.08	14143.13
761.417	14193.98
761.754	14313.07
762.091	14604.81
762.428	14565.94
762.765	14766.84
763.102	14963.9
763.438	15107.17
763.775	15243.44
764.112	15379.93
764.449	15494.73
764.785	15609.53
765.122	15671.23
765.458	15756.42
765.795	15963.42
766.131	16059.92
766.467	16240.48
766.804	16245.67
767.14	16358.89
767.476	16482.96
767.812	16534.25
768.148	16759.33
768.485	16870.74
768.821	16799.11
769.157	16892.44
769.492	17049.27
769.828	17245.2
770.164	17198.64
770.5	17247.68
770.836	17373.33
771.171	17347.57
771.507	17366.1
771.842	17436.6
772.178	17534.91
772.513	17595.7
772.849	17714.34
773.184	17675.92
773.519	17820.55
773.855	17881.56
774.19	17858.29
774.525	17967.66
774.86	17894.9
775.195	17901.22
775.53	17950.26
775.865	18014.89
776.2	17951.62
776.535	17854.67
776.87	18113.87
777.205	18082.24
777.539	18082.46
777.874	18102.12
778.209	17986.65
778.543	18167.43
778.878	18096.25
779.212	18039.3
779.547	17996.14
779.881	18098.51
780.215	18092.41
780.55	18167.66
780.884	18029.13
781.218	18122.46
781.552	18071.62
781.886	17986.65
782.22	17974.89
782.554	17964.27
782.888	17959.08
783.222	17892.18
783.556	17836.14
783.889	17861.45
784.223	17739.19
784.557	17764.96
784.89	17929.47
785.224	17799.76
785.557	17679.76
785.891	17710.27
786.224	17755.47
786.558	17682.92
786.891	17604.96
787.224	17520.9
787.557	17507.56
787.891	17622.36
788.224	17487.68
788.557	17578.52
788.89	17507.11
789.223	17470.73
789.556	17405.87
789.888	17349.83
790.221	17336.49
790.554	17213.11
790.887	17279.77
791.219	17241.13
791.552	17155.03
791.884	17113.45
792.217	17056.95
792.549	17080.68
792.882	16961.14
793.214	16886.34
793.546	16935.6
793.879	16837.98
794.211	16680.69
794.543	16876.84
794.875	16757.53
795.207	16799.33
795.539	16742.84
795.871	16720.46
796.203	16697.41
796.535	16515.05
796.867	16589.85
797.198	16447.93
797.53	16493.13
797.862	16298.1
798.193	16402.28
798.525	16324.99
798.856	16317.54
799.188	16184.89
799.519	16118.22
799.85	16171.1
800.182	16053.82
800.513	16209.97
800.844	15916.87
801.175	15979.01
801.506	16027.15
801.837	15980.14
802.168	15947.15
802.499	15881.84
802.83	15824.89
803.161	15836.87
803.491	15758.46
803.822	15820.15
804.153	15609.99
804.483	15512.81
804.814	15577.67
805.145	15504.45
805.475	15548.97
805.805	15487.5
806.136	15399.82
806.466	15417.9
806.796	15529.76
807.126	15298.58
807.457	15360.95
807.787	15274.17
808.117	15236.44
808.447	15109.43
808.777	15217.9
809.107	15142.65
809.436	15118.92
809.766	15133.84
810.096	15026.27
810.426	14974.97
810.755	15047.29
811.085	14882.55
811.414	14933.39
811.744	14808.42
812.073	14768.65
812.403	14812.04
812.732	14763.91
813.061	14726.17
813.39	14527.3
813.719	14537.47
814.049	14698.14
814.378	14527.08
814.707	14542.89
815.036	14526.85
815.365	14498.38
815.693	14359.62
816.022	14409.34
816.351	14337.48
816.68	14306.97
817.008	14371.6
817.337	14215.9
817.665	14122.79
817.994	14215.45
818.322	14230.13
818.651	14129.35
818.979	14014.32
819.307	14159.63
819.636	14203.24
819.964	13966.41
820.292	14014.55
820.62	14111.72
820.948	14070.59
821.276	14015
821.604	14012.96
821.932	13998.28
822.259	13999.18
822.587	14005.28
822.915	13965.51
823.243	13974.77
823.57	13944.04
823.898	13979.07
824.225	13853.42
824.553	13953.08
824.88	13982.68
825.207	14020.2
825.535	13930.26
825.862	14031.95
826.189	13965.28
826.516	14055.68
826.843	13976.36
827.17	14033.98
827.497	14012.29
827.824	14039.18
828.151	14057.71
828.478	13972.97
828.805	14058.16
829.131	13994.66
829.458	13917.83
829.785	13897.49
830.111	13863.82
830.438	14031.72
830.764	13999.41
831.09	13992.4
831.417	13870.6
831.743	13928.67
832.069	13951.27
832.395	13942.68
832.722	13927.54
833.048	13874.89
833.374	13887.32
833.7	13858.39
834.026	13822.91
834.351	13901.56
834.677	13873.53
835.003	13762.8
835.329	13882.35
835.654	13796.25
835.98	13816.13
836.306	13804.16
836.631	13735.23
836.956	13824.5
837.282	13746.76
837.607	13771.39
837.932	13700.66
838.258	13749.47
838.583	13720.09
838.908	13620.66
839.233	13582.47
839.558	13586.76
839.883	13589.93
840.208	13513.77
840.533	13575.91
840.858	13576.14
841.182	13485.3
841.507	13532.98
841.832	13386.99
842.156	13384.05
842.481	13350.84
842.805	13336.15
843.13	13350.61
843.454	13323.04
843.778	13200.1
844.103	13188.58
844.427	13150.84
844.751	13196.04
845.075	13173.44
845.399	13165.76
845.723	12990.17
846.047	13074.46
846.371	12973.9
846.695	12910.4
847.019	12790.17
847.343	12798.76
847.666	12652.32
847.99	12659.78
848.313	12707.46
848.637	12517.64
848.96	12525.55
849.284	12550.63
849.607	12396.06
849.931	12403.97
850.254	12329.17
850.577	12337.98
850.9	12253.69
851.223	12178.89
851.546	12124.88
851.869	12081.49
852.192	12088.95
852.515	12010.98
852.838	11934.83
853.161	11975.28
853.483	11830.42
853.806	11845.79
854.129	11786.81
854.451	11740.03
854.774	11676.98
855.096	11686.7
855.419	11672.91
855.741	11650.32
856.063	11619.13
856.385	11559.47
856.708	11469.98
857.03	11454.61
857.352	11474.5
857.674	11427.27
857.996	11341.4
858.318	11316.99
858.64	11299.82
858.961	11309.53
859.283	11159.48
859.605	11155.41
859.926	11251.91
860.248	11159.71
860.57	11141.63
860.891	11189.76
861.212	11037.9
861.534	11079.93
861.855	11050.78
862.176	11049.88
862.498	10989.77
862.819	10981.41
863.14	10971.69
863.461	10952.93
863.782	10867.51
864.103	10851.24
864.424	10822.77
864.745	10900.28
865.065	10788.19
865.386	10766.5
865.707	10739.15
866.027	10758.36
866.348	10700.06
866.668	10711.36
866.989	10718.59
867.309	10686.05
867.63	10623.68
867.95	10601.98
868.27	10538.25
868.59	10578.48
868.91	10634.97
869.23	10583.45
869.55	10493.06
869.87	10546.39
870.19	10524.02
870.51	10487.18
870.83	10519.5
871.15	10420.74
871.469	10414.64
871.789	10456
872.109	10379.61
872.428	10352.04
872.748	10415.77
873.067	10381.65
873.386	10421.87
873.706	10412.61
874.025	10265.04
874.344	10256
874.663	10316.11
874.982	10216.23
875.301	10251.93
875.62	10166.51
875.939	10224.36
876.258	10257.36
876.577	10221.2
876.896	10161.99
877.214	10084.03
877.533	10136.68
877.852	10173.97
878.17	10108.89
878.489	10104.37
878.807	10080.86
879.125	10040.41
879.444	10068.21
879.762	9936.01
880.08	9990.92
880.398	9958.38
880.716	10005.61
881.034	9897.59
881.352	9879.97
881.67	9869.8
881.988	9846.97
882.306	9837.03
882.624	9798.16
882.941	9811.27
883.259	9691.04
883.577	9730.82
883.894	9760.65
884.212	9740.53
884.529	9716.81
884.846	9709.8
885.164	9602.91
885.481	9645.62
885.798	9614.66
886.115	9505.51
886.432	9564.95
886.75	9520.43
887.067	9548.45
887.383	9490.37
887.7	9472.29
888.017	9392.97
888.334	9408.34
888.651	9405.63
888.967	9398.62
889.284	9320.43
889.6	9321.56
889.917	9246.31
890.233	9305.07
890.55	9251.73
890.866	9248.12
891.182	9187.78
891.498	9154.56
891.815	9100.55
892.131	9113.66
892.447	9077.5
892.763	8992.08
893.079	9026.88
893.395	9044.96
893.71	8941.46
894.026	8929.93
894.342	8989.59
894.657	8852.87
894.973	8841.35
895.289	8771.52
895.604	8785.08
895.92	8750.73
896.235	8717.74
896.55	8713.44
896.865	8729.71
897.181	8654.24
897.496	8627.34
897.811	8557.52
898.126	8610.17
898.441	8489.72
898.756	8499.44
899.071	8458.08
899.386	8461.92
899.7	8372.21
900.015	8314.81
900.33	8305.32
900.644	8325.66
900.959	8319.1
901.273	8347.58
901.588	8188.71
901.902	8189.16
902.216	8164.08
902.531	8089.73
902.845	8090.41
903.159	8062.16
903.473	8056.51
903.787	7926.8
904.101	7923.63
904.415	7964.31
904.729	7937.87
905.042	7907.36
905.356	7836.4
905.67	7822.39
905.984	7800.25
906.297	7790.76
906.611	7781.72
906.924	7718.22
907.237	7637.99
907.551	7740.36
907.864	7609.07
908.177	7579.24
908.491	7564.09
908.804	7532.23
909.117	7511.67
909.43	7411.33
909.743	7428.73
910.056	7423.31
910.368	7348.28
910.681	7371.11
910.994	7309.86
911.307	7224.22
911.619	7217.21
911.932	7215.18
912.244	7135.63
912.557	7156.2
912.869	7160.04
913.181	7108.06
913.494	7052.02
913.806	7040.49
914.118	7061.96
914.43	6979.93
914.742	6955.52
915.054	6971.12
915.366	6825.13
915.678	6862.19
915.99	6904.45
916.302	6795.3
916.613	6777.67
916.925	6762.08
917.236	6775.19
917.548	6700.16
917.859	6703.1
918.171	6647.73
918.482	6593.05
918.794	6592.14
919.105	6577.45
919.416	6527.74
919.727	6499.26
920.038	6538.59
920.349	6475.54
920.66	6411.36
920.971	6398.48
921.282	6406.39
921.593	6375.88
921.903	6302.66
922.214	6303.34
922.525	6262.66
922.835	6280.29
923.146	6227.18
923.456	6226.73
923.767	6194.19
924.077	6198.03
924.387	6126.62
924.697	6088.65
925.008	6106.96
925.318	6070.35
925.628	6050.69
925.938	6026.28
926.248	5902.44
926.558	5980.63
926.867	5956.45
927.177	5897.92
927.487	5891.14
927.796	5822.67
928.106	5812.73
928.416	5763.24
928.725	5794.2
929.034	5774.31
929.344	5801.66
929.653	5719.85
929.962	5697.25
930.271	5677.82
930.581	5636.24
930.89	5614.99
931.199	5583.81
931.508	5523.7
931.817	5594.66
932.125	5487.09
932.434	5507.65
932.743	5471.72
933.051	5439.63
933.36	5466.07
933.669	5391.72
933.977	5341.78
934.286	5377.94
934.594	5320.09
934.902	5261.56
935.21	5293.87
935.519	5279.41
935.827	5235.12
936.135	5220.2
936.443	5244.38
936.751	5124.61
937.059	5154.67
937.367	5144.27
937.674	5125.74
937.982	5096.82
938.29	5055.23
938.597	5020.43
938.905	5059.75
939.213	5041
939.52	4967.1
939.827	4974.78
940.135	4950.38
940.442	4916.03
940.749	4908.57
941.056	4909.25
941.363	4796.94
941.67	4818.63
941.977	4814.79
942.284	4797.16
942.591	4795.58
942.898	4743.83
943.205	4772.53
943.511	4760.78
943.818	4696.83
944.125	4680.78
944.431	4714.68
944.738	4668.35
945.044	4597.39
945.35	4624.96
945.657	4566.21
945.963	4598.52
946.269	4531.41
946.575	4552.2
946.881	4466.1
947.187	4497.51
947.493	4430.84
947.799	4459.54
948.105	4439.43
948.41	4381.81
948.716	4413.9
949.022	4401.01
949.327	4375.93
949.633	4351.07
949.938	4307.91
950.244	4318.53
950.549	4254.35
950.854	4271.53
951.16	4258.87
951.465	4194.69
951.77	4234.24
952.075	4172.77
952.38	4169.83
952.685	4187.69
952.99	4076.28
953.294	4112.43
953.599	4078.08
953.904	4083.06
954.209	4015.04
954.513	4042.61
954.818	4026.33
955.122	3983.85
955.426	3986.79
955.731	3935.26
956.035	3991.31
956.339	3926.22
956.643	3889.62
956.948	3880.58
957.252	3912.21
957.556	3874.47
957.86	3838.09
958.163	3849.84
958.467	3814.36
958.771	3789.5
959.075	3796.06
959.378	3804.19
959.682	3770.07
959.985	3758.09
960.289	3697.3
960.592	3699.34
960.896	3701.37
961.199	3624.54
961.502	3632.22
961.805	3626.57
962.108	3587.93
962.411	3618.21
962.714	3599.23
963.017	3569.62
963.32	3597.19
963.623	3555.61
963.926	3528.04
964.228	3483.52
964.531	3526.69
964.833	3535.73
965.136	3519.91
965.438	3445.11
965.741	3433.13
966.043	3407.14
966.345	3429.97
966.648	3408.72
966.95	3385.9
967.252	3388.61
967.554	3331.66
967.856	3354.49
968.158	3293.7
968.46	3311.78
968.761	3278.56
969.063	3277.65
969.365	3285.56
969.666	3253.93
969.968	3268.84
970.269	3212.34
970.571	3189.97
970.872	3226.36
971.174	3160.14
971.475	3165.11
971.776	3155.85
972.077	3159.01
972.378	3157.43
972.679	3096.19
972.98	3140.48
973.281	3092.35
973.582	3066.13
973.883	3091.22
974.183	3044.21
974.484	3057.77
974.785	3021.84
975.085	3001.95
975.386	2988.85
975.686	2980.49
975.986	2968.06
976.287	2945.23
976.587	2951.11
976.887	2950.43
977.187	2940.71
977.487	2898.91
977.787	2863.88
978.087	2912.47
978.387	2874.95
978.687	2902.3
978.987	2843.77
979.286	2826.59
979.586	2816.2
979.885	2819.36
980.185	2795.18
980.484	2785.01
980.784	2768.06
981.083	2730.1
981.382	2741.4
981.682	2757.22
981.981	2717.89
982.28	2667.73
982.579	2708.18
982.878	2665.92
983.177	2673.83
983.475	2711.79
983.774	2657.11
984.073	2601.74
984.372	2607.16
984.67	2605.36
984.969	2588.41
985.267	2588.41
985.566	2546.83
985.864	2554.06
986.162	2538.01
986.461	2527.84
986.759	2530.33
987.057	2484
987.355	2537.11
987.653	2498.01
987.951	2485.58
988.249	2448.75
988.547	2468.18
988.844	2434.74
989.142	2424.12
989.44	2402.65
989.737	2404.68
990.035	2390.45
990.332	2444.91
990.63	2382.99
990.927	2377.56
991.224	2360.84
991.521	2317.91
991.819	2361.75
992.116	2333.72
992.413	2310.9
992.71	2290.34
993.006	2290.11
993.303	2283.56
993.6	2267.74
993.897	2274.97
994.193	2224.35
994.49	2255.53
994.787	2222.09
995.083	2201.07
995.379	2218.92
995.676	2196.33
995.972	2211.02
996.268	2192.26
996.565	2150.68
996.861	2140.28
997.157	2148.64
997.453	2122.2
997.749	2086.27
998.044	2098.02
998.34	2085.37
998.636	2085.82
998.932	2097.35
999.227	2063.22
999.523	2079.72
999.818	2067.97
1000.114	2037.91
1000.409	2033.17
1000.704	2018.48
1001	2018.93
1001.295	2004.47
1001.59	1978.93
1001.885	1975.99
1002.18	1946.62
1002.475	1940.74
1002.77	1921.76
1003.065	1952.94
1003.359	1921.08
1003.654	1899.84
1003.949	1912.27
1004.243	1897.58
1004.538	1850.35
1004.832	1859.16
1005.127	1850.8
1005.421	1865.94
1005.715	1865.26
1006.009	1858.71
1006.304	1812.83
1006.598	1814.64
1006.892	1803.79
1007.186	1760.63
1007.48	1754.98
1007.773	1751.59
1008.067	1771.03
1008.361	1736.9
1008.655	1760.86
1008.948	1733.51
1009.242	1701.2
1009.535	1677.24
1009.829	1695.55
1010.122	1687.87
1010.415	1676.34
1010.708	1674.98
1011.001	1651.26
1011.295	1657.13
1011.588	1672.05
1011.881	1625.49
1012.173	1639.5
1012.466	1616.45
1012.759	1623.23
1013.052	1604.48
1013.344	1601.09
1013.637	1599.28
1013.93	1548.89
1014.222	1547.76
1014.514	1532.62
1014.807	1538.04
1015.099	1533.74
1015.391	1553.41
1015.683	1515.44
1015.976	1518.15
1016.268	1478.38
1016.56	1476.35
1016.851	1486.06
1017.143	1473.63
1017.435	1426.4
1017.727	1439.28
1018.018	1435.67
1018.31	1423.69
1018.602	1424.14
1018.893	1402
1019.185	1396.57
1019.476	1387.31
1019.767	1401.09
1020.058	1362.68
1020.35	1366.74
1020.641	1365.39
1020.932	1341.66
1021.223	1338.72
1021.514	1339.17
1021.804	1312.96
1022.095	1319.74
1022.386	1309.57
1022.677	1297.14
1022.967	1310.47
1023.258	1306.18
1023.548	1291.04
1023.839	1250.36
1024.129	1239.97
1024.419	1263.7
1024.709	1229.8
1025	1225.5
1025.29	1232.28
1025.58	1205.39
1025.87	1197.93
1026.16	1206.3
1026.449	1219.4
1026.739	1184.38
1027.029	1189.12
1027.319	1160.87
1027.608	1171.95
1027.898	1168.78
1028.187	1138.73
1028.477	1143.92
1028.766	1128.78
1029.055	1132.63
1029.344	1113.42
1029.634	1122.91
1029.923	1088.56
1030.212	1100.99
1030.501	1094.89
1030.79	1078.62
1031.078	1058.28
1031.367	1091.95
1031.656	1058.73
1031.945	1071.16
1032.233	1050.82
1032.522	1035.68
1032.81	1031.39
1033.099	1049.01
1033.387	1012.85
1033.675	1035.68
1033.963	999.07
1034.251	993.42
1034.54	995.68
1034.828	1018.28
1035.116	971.5
1035.403	954.33
1035.691	960.2
1035.979	959.97
1036.267	974.66
1036.554	946.19
1036.842	959.07
1037.129	939.64
1037.417	941.22
1037.704	955.23
1037.992	922.91
1038.279	902.35
1038.566	908.9
1038.853	908.9
1039.14	908.9
