Data from hue_34_FLMS001491_00075.txt Node
Date: Tue Feb 07 17:26:07 GMT 2017
User: dcchb
Spectrometer: FLMS00149
Trigger mode: 0
Integration Time (sec): 2.000000E-2
Scans to average: 10
Electric dark correction enabled: true
Nonlinearity correction enabled: false
Boxcar width: 0
XAxis mode: Wavelengths
Number of Pixels in Spectrum: 2048
>>>>>Begin Spectral Data<<<<<
341.393	1.43
341.776	1.43
342.16	1.43
342.543	-50.32
342.927	-90.1
343.31	-88.29
343.693	-62.75
344.077	-67.5
344.46	-65.01
344.843	-57.1
345.226	-29.31
345.61	-30.21
345.993	-6.03
346.376	-12.58
346.759	12.27
347.142	35.78
347.525	35.1
347.908	49.56
348.291	67.19
348.674	84.59
349.057	134.3
349.44	139.73
349.823	159.61
350.206	158.26
350.588	203.46
350.971	205.04
351.354	250.23
351.737	254.53
352.119	263.34
352.502	287.07
352.884	293.17
353.267	271.48
353.65	290.01
354.032	304.7
354.414	298.37
354.797	322.77
355.179	326.84
355.562	323.45
355.944	338.37
356.326	329.78
356.709	343.79
357.091	356.9
357.473	356.45
357.855	348.31
358.238	334.53
358.62	340.4
359.002	350.8
359.384	354.19
359.766	359.16
360.148	353.96
360.53	354.86
360.912	374.52
361.294	356.9
361.676	334.07
362.057	362.32
362.439	341.98
362.821	314.41
363.203	352.38
363.584	337.69
363.966	341.98
364.348	318.48
364.729	318.03
365.111	324.13
365.493	338.14
365.874	327.29
366.256	314.64
366.637	337.01
367.019	327.07
367.4	327.97
367.781	300.85
368.163	330.68
368.544	315.54
368.925	329.78
369.306	326.84
369.688	334.3
370.069	332.72
370.45	318.25
370.831	310.57
371.212	334.75
371.593	331.36
371.974	311.7
372.355	317.35
372.736	334.53
373.117	322.1
373.498	319.84
373.879	325.71
374.26	327.07
374.641	327.75
375.021	324.36
375.402	334.3
375.783	355.54
376.163	332.27
376.544	338.14
376.925	340.63
377.305	339.5
377.686	337.91
378.066	343.34
378.447	319.38
378.827	339.5
379.208	351.93
379.588	346.95
379.968	350.34
380.349	343.79
380.729	344.24
381.109	362.55
381.489	341.3
381.87	358.25
382.25	349.67
382.63	370.68
383.01	347.86
383.39	346.73
383.77	343.56
384.15	352.83
384.53	365.03
384.91	377.69
385.29	376.56
385.67	353.51
386.049	360.97
386.429	351.25
386.809	354.64
387.189	366.84
387.568	335.88
387.948	357.58
388.328	387.41
388.707	355.32
389.087	360.29
389.466	353.96
389.846	369.1
390.225	379.27
390.605	384.02
390.984	373.39
391.363	382.43
391.743	378.59
392.122	389.66
392.501	390.57
392.881	387.63
393.26	384.47
393.639	384.92
394.018	388.08
394.397	381.53
394.776	405.03
395.155	408.87
395.534	392.38
395.913	394.18
396.292	398.03
396.671	386.28
397.05	415.43
397.429	397.35
397.808	399.16
398.186	389.44
398.565	418.14
398.944	402.55
399.323	387.63
399.701	408.2
400.08	414.07
400.458	408.65
400.837	415.43
401.215	423.56
401.594	431.02
401.972	422.43
402.351	425.37
402.729	433.28
403.107	418.82
403.486	408.65
403.864	428.99
404.242	426.73
404.62	430.79
404.999	435.54
405.377	455.2
405.755	456.78
406.133	422.88
406.511	421.53
406.889	430.34
407.267	441.87
407.645	462.43
408.023	433.96
408.401	443.67
408.779	422.43
409.156	479.61
409.534	448.87
409.912	457.23
410.29	442.32
410.667	473.28
411.045	480.51
411.422	472.83
411.8	482.32
412.178	464.92
412.555	477.12
412.933	483.67
413.31	494.75
413.687	503.11
414.065	513.73
414.442	488.65
414.819	503.33
415.197	502.88
415.574	516.67
415.951	515.99
416.328	513.05
416.705	502.66
417.082	538.59
417.46	530.68
417.837	510.11
418.214	523.9
418.591	526.38
418.967	526.16
419.344	556.67
419.721	526.38
420.098	538.81
420.475	504.24
420.852	538.14
421.228	541.53
421.605	548.76
421.982	562.09
422.358	569.77
422.735	574.29
423.111	559.83
423.488	575.87
423.864	558.25
424.241	581.3
424.617	572.48
424.994	569.1
425.37	562.77
425.746	606.16
426.123	600.51
426.499	595.54
426.875	610.45
427.251	597.34
427.627	592.37
428.003	605.25
428.379	630.56
428.756	610.68
429.132	634.63
429.507	635.53
429.883	648.87
430.259	648.64
430.635	630.34
431.011	633.5
431.387	637.34
431.763	648.87
432.138	661.52
432.514	685.02
432.89	686.38
433.265	697.45
433.641	711.92
434.016	671.01
434.392	689.54
434.767	692.26
435.143	712.14
435.518	706.04
435.894	716.89
436.269	737
436.644	756.89
437.02	740.62
437.395	738.58
437.77	756.21
438.145	757.79
438.52	767.06
438.895	760.5
439.271	750.79
439.646	761.63
440.021	784.23
440.395	784.68
440.77	780.39
441.145	807.73
441.52	775.42
441.895	788.98
442.27	798.69
442.645	797.11
443.019	831.46
443.394	814.51
443.769	844.12
444.143	824.23
444.518	828.07
444.892	838.69
445.267	821.97
445.641	837.79
446.016	827.39
446.39	845.25
446.764	857.45
447.139	838.24
447.513	857.22
447.887	847.96
448.262	865.36
448.636	869.2
449.01	884.34
449.384	880.05
449.758	883.89
450.132	886.37
450.506	897.67
450.88	901.74
451.254	935.19
451.628	930.22
452.002	956.88
452.376	938.35
452.75	958.24
453.123	952.36
453.497	974.06
453.871	949.88
454.244	975.86
454.618	986.49
454.992	994.62
455.365	1009.76
455.739	1031.23
456.112	1008.41
456.486	1035.98
456.859	1048.4
457.232	1039.37
457.606	1058.8
457.979	1052.47
458.352	1080.49
458.725	1118.69
459.099	1120.27
459.472	1133.6
459.845	1139.48
460.218	1126.37
460.591	1160.72
460.964	1174.73
461.337	1161.62
461.71	1184.22
462.083	1202.07
462.456	1197.33
462.829	1196.2
463.201	1240.72
463.574	1246.59
463.947	1257.44
464.32	1270.77
464.692	1287.27
465.065	1298.12
465.438	1326.82
465.81	1339.02
466.183	1376.31
466.555	1402.97
466.928	1384.67
467.3	1422.86
467.672	1432.58
468.045	1451.78
468.417	1464.21
468.789	1482.97
469.161	1498.34
469.534	1530.88
469.906	1537.66
470.278	1571.78
470.65	1590.99
471.022	1640.48
471.394	1679.8
471.766	1667.37
472.138	1693.36
472.51	1723.64
472.882	1796.18
473.253	1791.66
473.625	1854.94
473.997	1884.54
474.369	1900.59
474.74	1917.99
475.112	1992.33
475.484	1992.79
475.855	2054.03
476.227	2090.19
476.598	2156.62
476.97	2201.37
477.341	2251.31
477.713	2318.88
478.084	2315.94
478.455	2396.17
478.827	2427.58
479.198	2527.69
479.569	2500.8
479.94	2624.63
480.311	2653.11
480.682	2745.76
481.053	2817.62
481.424	2843.61
481.795	2945.3
482.166	3000.44
482.537	3060.78
482.908	3130.61
483.279	3193.88
483.65	3334.22
484.021	3430.49
484.391	3477.72
484.762	3548.23
485.133	3585.97
485.503	3687.43
485.874	3775.79
486.244	3864.6
486.615	3970.36
486.985	4046.74
487.356	4176.46
487.726	4203.12
488.097	4325.83
488.467	4412.84
488.837	4504.36
489.207	4625.94
489.578	4667.74
489.948	4820.51
490.318	4897.34
490.688	4931.24
491.058	5017.79
491.428	5169.65
491.798	5280.84
492.168	5411.68
492.538	5424.11
492.908	5546.82
493.278	5634.72
493.648	5705.68
494.017	5820.71
494.387	5872.23
494.757	6021.61
495.126	6057.54
495.496	6123.75
495.866	6191.55
496.235	6287.14
496.605	6354.25
496.974	6454.36
497.344	6539.56
497.713	6660.69
498.082	6673.57
498.452	6815.03
498.821	6885.77
499.19	6916.72
499.559	7024.74
499.928	7085.31
500.298	7160.33
500.667	7271.74
501.036	7305.42
501.405	7415.69
501.774	7434
502.143	7546.99
502.512	7617.72
502.88	7650.04
503.249	7711.96
503.618	7815.23
503.987	7827.21
504.356	7880.99
504.724	7983.14
505.093	8046.19
505.462	8134.77
505.83	8110.14
506.199	8289.57
506.567	8303.36
506.936	8332.05
507.304	8470.36
507.672	8500.64
508.041	8529.34
508.409	8670.58
508.777	8733.63
509.145	8823.79
509.514	8812.04
509.882	8893.85
510.25	8942.89
510.618	8958.03
510.986	9011.81
511.354	9110.34
511.722	9182.2
512.09	9206.61
512.458	9280.28
512.826	9355.98
513.193	9390.78
513.561	9381.74
513.929	9559.14
514.297	9581.06
514.664	9638.24
515.032	9644.11
515.4	9711.91
515.767	9851.79
516.135	9835.07
516.502	9785.58
516.869	9943.54
517.237	10009.07
517.604	10022.41
517.972	10086.81
518.339	10194.38
518.706	10167.49
519.073	10207.71
519.44	10275.73
519.808	10373.13
520.175	10377.2
520.542	10473.92
520.909	10521.6
521.276	10571.77
521.643	10681.6
522.009	10739
522.376	10847.69
522.743	10842.95
523.11	10878.43
523.477	11049.95
523.843	11098.31
524.21	11127.69
524.577	11208.36
524.943	11292.43
525.31	11373.33
525.676	11443.39
526.043	11550.05
526.409	11577.62
526.776	11628.69
527.142	11718.86
527.508	11770.16
527.874	11888.12
528.241	11906.65
528.607	11980.55
528.973	11996.82
529.339	12000.89
529.705	12176.7
530.071	12326.07
530.437	12310.48
530.803	12383.93
531.169	12418.5
531.535	12432.96
531.901	12477.93
532.267	12520.65
532.632	12641.77
532.998	12663.47
533.364	12811.71
533.73	12799.73
534.095	12933.06
534.461	12980.97
534.826	12998.6
535.192	13132.61
535.557	13175.32
535.923	13148.2
536.288	13283.56
536.653	13293.05
537.019	13194.53
537.384	13327.86
537.749	13447.85
538.114	13419.15
538.479	13428.42
538.845	13593.61
539.21	13557.91
539.575	13596.55
539.94	13686.94
540.305	13771.46
540.67	13746.6
541.034	13801.52
541.399	13878.58
541.764	13966.03
542.129	13956.54
542.494	14076.76
542.858	14148.4
543.223	14186.59
543.587	14153.82
543.952	14291.67
544.316	14324.21
544.681	14320.82
545.045	14493.47
545.41	14506.81
545.774	14480.37
546.138	14597.2
546.503	14630.42
546.867	14599.69
547.231	14806.91
547.595	14884.2
547.959	14809.85
548.324	14909.74
548.688	14995.83
549.052	15017.75
549.416	15052.78
549.779	15017.3
550.143	15068.6
550.507	15213.91
550.871	15236.96
551.235	15267.92
551.599	15338.2
551.962	15422.04
552.326	15435.37
552.689	15542.94
553.053	15434.92
553.417	15568.47
553.78	15749.71
554.143	15673.1
554.507	15805.08
554.87	15825.64
555.234	15933.21
555.597	15856.15
555.96	15965.75
556.323	16045.52
556.686	16014.56
557.05	16173.2
557.413	16214.56
557.776	16191.06
558.139	16316.25
558.502	16342.92
558.865	16393.76
559.228	16485.96
559.59	16588.11
559.953	16588.79
560.316	16700.42
560.679	16768.44
561.041	16864.03
561.404	16921.43
561.767	16961.21
562.129	16947.87
562.492	17101.32
562.854	17195.55
563.217	17096.34
563.579	17060.86
563.941	17235.78
564.304	17350.35
564.666	17438.48
565.028	17501.98
565.39	17537.24
565.753	17609.33
566.115	17751.24
566.477	17760.96
566.839	17741.3
567.201	17919.83
567.563	17977.68
567.925	18122.31
568.287	18082.08
568.648	18122.08
569.01	18132.48
569.372	18277.56
569.734	18269.65
570.095	18445.91
570.457	18484.56
570.819	18573.37
571.18	18554.39
571.542	18703.08
571.903	18767.94
572.265	18860.14
572.626	18953.47
572.987	19013.36
573.349	19099.46
573.71	19237.08
574.071	19237.76
574.432	19369.5
574.794	19484.76
575.155	19599.1
575.516	19544.64
575.877	19784.86
576.238	19829.15
576.599	19899.89
576.96	19977.62
577.32	20135.36
577.681	20254.68
578.042	20396.14
578.403	20461
578.763	20676.59
579.124	20792.74
579.485	21023.47
579.845	21180.76
580.206	21297.82
580.566	21429.11
580.927	21614.87
581.287	21811.25
581.648	21740.29
582.008	22205.36
582.368	22265.02
582.728	22394.06
583.089	22614.39
583.449	22721.96
583.809	22978.45
584.169	23199.46
584.529	23340.02
584.889	23714.02
585.249	23798.54
585.609	24052.77
585.969	24254.8
586.329	24509.03
586.688	24623.83
587.048	24883.26
587.408	25012.07
587.768	25312.63
588.127	25566.18
588.487	25745.16
588.846	26229.66
589.206	26165.26
589.565	26435.76
589.925	26822.19
590.284	27039.36
590.643	27349.63
591.003	27584.88
591.362	27854.71
591.721	28099.67
592.08	28290.63
592.44	28686.55
592.799	28930.61
593.158	29161.56
593.517	29376.93
593.876	29605.85
594.235	29856.01
594.593	30050.58
594.952	30345.26
595.311	30474.3
595.67	30778.92
596.029	31314.95
596.387	31528.73
596.746	31667.49
597.104	31989.51
597.463	32020.92
597.822	32462.04
598.18	32548.37
598.538	32869.26
598.897	33288.91
599.255	33212.3
599.613	33838.5
599.972	33875.11
600.33	33947.43
600.688	34176.12
601.046	34452.95
601.404	34798.03
601.762	35029.66
602.12	35238.69
602.478	35420.83
602.836	35730.2
603.194	35598.68
603.552	35920.26
603.91	36057.2
604.268	36377.42
604.625	36630.97
604.983	36897.41
605.341	36829.38
605.698	37108.25
606.056	37336.72
606.413	37468.46
606.771	37636.37
607.128	37959.75
607.485	37930.6
607.843	38229.12
608.2	38527.65
608.557	38702.33
608.914	38755.44
609.272	39003.79
609.629	39164.92
609.986	39437
610.343	39304.35
610.7	39782.98
611.057	39832.47
611.414	39922.64
611.771	40075.18
612.127	40118.79
612.484	40347.71
612.841	40723.07
613.198	40607.36
613.554	40804.42
613.911	41222.94
614.267	41075.6
614.624	41162.15
614.98	41456.83
615.337	41582.03
615.693	41631.74
616.05	41590.62
616.406	41975.24
616.762	41961.68
617.118	41961.23
617.475	42100.43
617.831	42375.91
618.187	42229.47
618.543	42563.25
618.899	42850.92
619.255	42879.4
619.611	42695.22
619.967	42986.74
620.323	43218.6
620.678	43036.45
621.034	42990.58
621.39	43068.54
621.746	43130.24
622.101	43706.49
622.457	43474.86
622.812	43524.58
623.168	43745.59
623.523	43743.55
623.879	43936.54
624.234	43642.76
624.589	43952.36
624.945	44110.1
625.3	44183.77
625.655	44118.01
626.01	44171.34
626.365	44229.87
626.72	44226.25
627.075	44327.94
627.43	44275.52
627.785	44146.48
628.14	44396.87
628.495	44420.15
628.85	44440.26
629.205	44224.9
629.559	44571.33
629.914	44440.94
630.269	44454.49
630.623	44420.82
630.978	44334.95
631.332	44466.47
631.687	44614.26
632.041	44454.72
632.396	44609.97
632.75	44508.73
633.104	44562.06
633.459	44442.07
633.813	44434.38
634.167	44479.35
634.521	44515.74
634.875	44593.93
635.229	44591.89
635.583	44301.5
635.937	44535.17
636.291	44403.87
636.645	44576.53
636.999	44485
637.352	44423.08
637.706	44353.03
638.06	44474.38
638.413	44370.88
638.767	44368.4
639.121	44471.44
639.474	44235.74
639.828	44243.43
640.181	44430.77
640.534	44387.83
640.888	44186.71
641.241	44116.65
641.594	44154.16
641.947	44403.87
642.301	44224.44
642.654	44153.49
643.007	44176.08
643.36	44165.69
643.713	44093.37
644.066	44284.1
644.419	43934.06
644.771	43801.4
645.124	43421.08
645.477	43283.23
645.83	42966.4
646.182	42937.92
646.535	42843.24
646.888	42916.68
647.24	42726.63
647.593	42960.97
647.945	42807.98
648.298	42677.59
648.65	42673.07
649.002	42597.37
649.355	42672.85
649.707	42690.7
650.059	42904.93
650.411	43359.16
650.763	43322.77
651.115	43766.15
651.467	43647.28
651.819	43600.28
652.171	43414.75
652.523	43509.44
652.875	43363.68
653.227	43460.17
653.578	43644.8
653.93	43442.54
654.282	43286.84
654.633	43350.34
654.985	43421.98
655.337	43384.92
655.688	43327.97
656.039	43653.84
656.391	43276.22
656.742	43340.4
657.094	43331.13
657.445	43474.18
657.796	43241.65
658.147	43290.46
658.498	43221.31
658.849	43365.03
659.2	43261.08
659.551	43109.45
659.902	43342.43
660.253	43139.28
660.604	43292.27
660.955	43086.17
661.306	43221.31
661.656	43174.3
662.007	43235.32
662.358	43136.34
662.708	43180.18
663.059	43282.55
663.409	42951.48
663.76	43179.05
664.11	43288.2
664.461	43196.45
664.811	43112.61
665.161	43182.21
665.511	42985.38
665.862	43103.12
666.212	43067.64
666.562	43112.16
666.912	43012.72
667.262	43002.1
667.612	42991.93
667.962	43025.61
668.312	42920.75
668.662	43165.04
669.011	43072.16
669.361	42992.39
669.711	42863.12
670.06	42972.05
670.41	42901.99
670.76	42794.2
671.109	43023.12
671.459	42943.35
671.808	42870.13
672.157	42880.3
672.507	42567.54
672.856	42631.94
673.205	42815.67
673.554	42806.18
673.904	42677.59
674.253	42880.53
674.602	42874.42
674.951	42252.97
675.3	41944.73
675.649	42618.39
675.998	42647.54
676.346	42666.52
676.695	42695.45
677.044	42478.28
677.393	42511.5
677.741	42698.83
678.09	42478.95
678.438	42525.28
678.787	42587.88
679.135	42499.97
679.484	42323.03
679.832	42493.42
680.181	42184.5
680.529	42347.43
680.877	42196.02
681.225	42156.25
681.573	42372.29
681.922	42051.62
682.27	42047.33
682.618	41995.12
682.966	41874
683.314	41949.48
683.661	41920.32
684.009	41527.57
684.357	41627.68
684.705	41584.29
685.053	41678.07
685.4	41435.59
685.748	41300.91
686.095	41327.12
686.443	41197.86
686.79	41202.83
687.138	41315.82
687.485	41221.13
687.832	41096.39
688.18	41165.99
688.527	41065.66
688.874	40881.48
689.221	40810.75
689.568	40670.87
689.915	40724.42
690.262	40624.31
690.609	40508.38
690.956	40241.5
691.303	40322.85
691.65	40099.13
691.997	40131.44
692.344	39942.3
692.69	40008.51
693.037	39974.16
693.383	39671.8
693.73	39729.42
694.077	39587.73
694.423	39570.56
694.769	39484.23
695.116	39278.36
695.462	39272.94
695.808	39190.23
696.155	39217.57
696.501	38960.18
696.847	38948.2
697.193	38692.61
697.539	38878.37
697.885	38553.41
698.231	38513.18
698.577	38555.67
698.923	38514.76
699.269	38250.59
699.614	38225.28
699.96	37945.29
700.306	37972.63
700.651	37797.95
700.997	37803.14
701.342	37719.98
701.688	37719.3
702.033	37525.41
702.379	37470.05
702.724	37482.25
703.069	37399.09
703.415	37020.34
703.76	37033.45
704.105	37315.25
704.45	37155.03
704.795	36762.27
705.14	36687.92
705.485	36704.87
705.83	36456.51
706.175	36601.59
706.52	36403.86
706.865	36286.57
707.209	36349.85
707.554	36074.15
707.899	36188.05
708.243	36080.7
708.588	35896.75
708.932	35769.98
709.277	35802.97
709.621	35799.13
709.966	35523.2
710.31	35757.55
710.654	35388.74
710.998	35433.72
711.342	35496.09
711.687	35395.52
712.031	35141.29
712.375	34945.14
712.719	35033.73
713.063	34976.33
713.407	35089.54
713.75	34802.77
714.094	35017.91
714.438	34753.51
714.782	34757.12
715.125	34537.24
715.469	34818.14
715.812	34563.91
716.156	34315.78
716.499	34377.92
716.843	34271.49
717.186	34264.48
717.53	34376.57
717.873	34290.47
718.216	34255.44
718.559	34019.06
718.902	33688
719.246	33863.59
719.589	33769.13
719.932	33588.79
720.275	33659.52
720.617	33651.16
720.96	33509.02
721.303	33557.15
721.646	33470.38
721.989	33282.59
722.331	33537.72
722.674	33241.91
723.016	33411.17
723.359	33177.73
723.701	33342.02
724.044	33093.89
724.386	32961.01
724.729	33148.35
725.071	33041.46
725.413	33008.02
725.755	32966.44
726.097	32792.88
726.439	32624.3
726.782	32675.82
727.124	32808.25
727.465	32653.45
727.807	32504.3
728.149	32480.12
728.491	32358.32
728.833	32478.99
729.175	32275.38
729.516	32313.8
729.858	32305.66
730.199	32283.74
730.541	32054.14
730.882	32184.31
731.224	32231.77
731.565	31897.99
731.906	32024.77
732.248	32051.43
732.589	31764.21
732.93	31704.1
733.271	31715.62
733.612	31879.01
733.953	31789.52
734.294	31675.17
734.635	31536.42
734.976	31690.31
735.317	31435.85
735.658	31374.16
735.999	31505.23
736.339	31366.03
736.68	31529.64
737.021	31252.36
737.361	31207.16
737.702	31236.54
738.042	31169.65
738.383	31158.8
738.723	31152.7
739.063	31096.88
739.404	31154.51
739.744	31008.97
740.084	30911.35
740.424	30832.03
740.764	30951.12
741.104	31025.24
741.444	30727.85
741.784	30706.83
742.124	30801.07
742.464	30730.79
742.804	30580.74
743.143	30570.57
743.483	30475.88
743.823	30323.12
744.162	30425.03
744.502	30415.32
744.841	30275.66
745.181	30360.63
745.52	30332.83
745.86	30357.24
746.199	30231.82
746.538	30261.42
746.877	30230.46
747.216	30294.42
747.556	30120.63
747.895	30133.74
748.234	29945.5
748.573	29824.82
748.911	29839.51
749.25	29917.7
749.589	29724.03
749.928	29728.33
750.267	29743.47
750.605	29540.99
750.944	29450.14
751.283	29521.55
751.621	29456.92
751.96	29442.46
752.298	29260.32
752.636	29315.68
752.975	29091.06
753.313	28996.6
753.651	29154.11
753.989	28946.2
754.327	29083.83
754.666	28933.77
755.004	28963.15
755.342	29003.6
755.679	28857.62
756.017	28607.91
756.355	28788.47
756.693	28590.73
757.031	28682.25
757.368	28415.59
757.706	28359.78
758.044	28294.47
758.381	28368.82
758.719	28145.77
759.056	28191.42
759.394	28006.11
759.731	27936.51
760.068	27951.65
760.405	27873.01
760.743	27705.33
761.08	27688.61
761.417	27625.78
761.754	27544.21
762.091	27459.91
762.428	27343.76
762.765	27293.59
763.102	27409.75
763.438	27249.98
763.775	27070.55
764.112	27010.21
764.449	27025.12
764.785	26968.85
765.122	26683.66
765.458	26690.44
765.795	26605.25
766.131	26593.95
766.467	26542.2
766.804	26415.87
767.14	26377.23
767.476	26376.1
767.812	26202.09
768.148	26218.36
768.485	26018.37
768.821	25861.09
769.157	25762.78
769.492	25772.5
769.828	25764.36
770.164	25399.4
770.5	25404.6
770.836	25437.82
771.171	25295.45
771.507	25206.19
771.842	25014.33
772.178	25034.89
772.513	24929.81
772.849	24880.09
773.184	24821.34
773.519	24730.49
773.855	24721.68
774.19	24610.04
774.525	24450.28
774.86	24393.78
775.195	24410.73
775.53	24358.53
775.865	24144.29
776.2	24031.76
776.535	23867.92
776.87	23852.55
777.205	23808.71
777.539	23702.5
777.874	23662.73
778.209	23438.32
778.543	23503.18
778.878	23330.53
779.212	23233.36
779.547	23163.53
779.881	23190.65
780.215	23022.74
780.55	23073.14
780.884	22850.54
781.218	22749.53
781.552	22748.17
781.886	22594.73
782.22	22491
782.554	22479.48
782.888	22265.25
783.222	22251.69
783.556	22084.69
783.889	22152.93
784.223	21855.99
784.557	21914.3
784.89	22037.46
785.224	21798.37
785.557	21667.07
785.891	21602.21
786.224	21575.55
786.558	21596.11
786.891	21335.33
787.224	21230.47
787.557	21256.91
787.891	21235.67
788.224	21168.1
788.557	21122.45
788.89	21003.36
789.223	20976.69
789.556	20775.12
789.888	20776.25
790.221	20650.83
790.554	20545.75
790.887	20482.92
791.219	20454.45
791.552	20459.42
791.884	20307.79
792.217	20294
792.549	20220.78
792.882	20069.15
793.214	19882.94
793.546	19976.95
793.879	19801.58
794.211	19813.11
794.543	19731.76
794.875	19659.89
795.207	19771.98
795.539	19722.04
795.871	19626.9
796.203	19444.08
796.535	19343.52
796.867	19315.95
797.198	19327.7
797.53	19312.56
797.862	19028.04
798.193	19169.74
798.525	19042.51
798.856	19110.53
799.188	18874.83
799.519	18854.72
799.85	18699.24
800.182	18696.98
800.513	18729.75
800.844	18532.24
801.175	18639.58
801.506	18554.39
801.837	18547.15
802.168	18398
802.499	18268.06
802.83	18215.86
803.161	18207.5
803.491	18197.33
803.822	18182.42
804.153	18059.26
804.483	17875.53
804.814	17888.19
805.145	17935.87
805.475	17886.83
805.805	17772.48
806.136	17788.76
806.466	17772.94
806.796	17711.92
807.126	17609.1
807.457	17502.21
807.787	17508.54
808.117	17431.7
808.447	17341.08
808.777	17508.76
809.107	17366.85
809.436	17269.9
809.766	17252.27
810.096	17200.97
810.426	17099.06
810.755	17119.85
811.085	17090.24
811.414	17047.76
811.744	16854.32
812.073	16873.3
812.403	16886.86
812.732	16806.86
813.061	16864.71
813.39	16704.49
813.719	16620.65
814.049	16675.34
814.378	16599.18
814.707	16646.86
815.036	16531.16
815.365	16507.89
815.693	16372.3
816.022	16400.77
816.351	16275.12
816.68	16174.79
817.008	16177.95
817.337	16163.71
817.665	16006.88
817.994	16070.16
818.322	16000.55
818.651	16140.44
818.979	15957.39
819.307	15983.38
819.636	15876.72
819.964	15779.99
820.292	15872.2
820.62	15904.06
820.948	15827
821.276	15865.42
821.604	15826.55
821.932	15863.16
822.259	15820.67
822.587	15769.15
822.915	15709.26
823.243	15811.86
823.57	15709.94
823.898	15810.73
824.225	15677.85
824.553	15692.09
824.88	15674.46
825.207	15719.21
825.535	15746.1
825.862	15767.11
826.189	15657.29
826.516	15693.67
826.843	15848.92
827.17	15731.86
827.497	15794.01
827.824	15768.47
828.151	15720.34
828.478	15698.64
828.805	15824.06
829.131	15665.65
829.458	15643.95
829.785	15618.64
830.111	15681.69
830.438	15735.93
830.764	15662.03
831.09	15637.4
831.417	15551.53
831.743	15621.13
832.069	15683.05
832.395	15561.47
832.722	15635.14
833.048	15578.42
833.374	15500.68
833.7	15474.01
834.026	15527.35
834.351	15558.98
834.677	15441.02
835.003	15497.06
835.329	15408.71
835.654	15406.67
835.98	15394.92
836.306	15365.54
836.631	15349.72
836.956	15536.61
837.282	15415.94
837.607	15302.95
837.932	15281.48
838.258	15288.26
838.583	15263.4
838.908	15184.98
839.233	15177.52
839.558	15172.1
839.883	15107.47
840.208	15063.86
840.533	14990.64
840.858	15037.64
841.182	15037.42
841.507	14933.46
841.832	14894.14
842.156	14908.15
842.481	14882.17
842.805	14831.77
843.13	14818.66
843.454	14797.65
843.778	14772.56
844.103	14714.49
844.427	14634.04
844.751	14689.63
845.075	14584.77
845.399	14588.39
845.723	14488.05
846.047	14474.94
846.371	14338.22
846.695	14399.69
847.019	14149.53
847.343	14281.5
847.666	14121.96
847.99	14117.44
848.313	14083.54
848.637	14014.84
848.96	13959.25
849.284	13947.73
849.607	13805.58
849.931	13865.02
850.254	13688.3
850.577	13606.94
850.9	13558.58
851.223	13560.17
851.546	13488.98
851.869	13351.36
852.192	13440.17
852.515	13339.38
852.838	13226.84
853.161	13195.66
853.483	13155.66
853.806	13120.4
854.129	13066.39
854.451	13120.4
854.774	13057.13
855.096	12990.46
855.419	12870.24
855.741	12858.49
856.063	12844.93
856.385	12813.52
856.708	12788.43
857.03	12748.44
857.352	12798.83
857.674	12729.91
857.996	12691.26
858.318	12549.57
858.64	12527.2
858.961	12544.15
859.283	12471.38
859.605	12323.81
859.926	12476.35
860.248	12407.43
860.57	12338.05
860.891	12391.38
861.212	12293.53
861.534	12285.85
861.855	12233.87
862.176	12223.03
862.498	12172.63
862.819	12119.75
863.14	12133.08
863.461	12125.18
863.782	12093.76
864.103	12073.2
864.424	12108.45
864.745	12014.9
865.065	12012.18
865.386	11908.68
865.707	11957.04
866.027	11942.58
866.348	11803.6
866.668	11856.03
866.989	11919.76
867.309	11812.42
867.63	11819.19
867.95	11763.83
868.27	11701.91
868.59	11710.72
868.91	11698.07
869.23	11680.22
869.55	11613.1
869.87	11632.99
870.19	11726.32
870.51	11653.1
870.83	11661.46
871.15	11516.38
871.469	11559.54
871.789	11595.47
872.109	11517.06
872.428	11445.19
872.748	11491.75
873.067	11422.6
873.386	11455.81
873.706	11384.86
874.025	11360.45
874.344	11298.98
874.663	11421.01
874.982	11416.27
875.301	11383.05
875.62	11281.13
875.939	11242.49
876.258	11311.86
876.577	11172.21
876.896	11257.18
877.214	11208.82
877.533	11255.59
877.852	11226.44
878.17	11129.5
878.489	11119.78
878.807	11145.99
879.125	11190.06
879.444	11117.07
879.762	11030.52
880.08	11043.85
880.398	11002.49
880.716	11062.6
881.034	10978.54
881.352	10950.74
881.67	10940.35
881.988	10899.45
882.306	10885.66
882.624	10888.6
882.941	10789.62
883.259	10801.82
883.577	10750.97
883.894	10743.06
884.212	10739.22
884.529	10703.29
884.846	10663.75
885.164	10649.96
885.481	10637.31
885.798	10674.59
886.115	10513.24
886.432	10566.57
886.75	10478.67
887.067	10521.6
887.383	10489.06
887.7	10503.75
888.017	10449.74
888.334	10420.36
888.651	10433.92
888.967	10383.98
889.284	10345.11
889.6	10268.95
889.917	10247.03
890.233	10240.93
890.55	10193.47
890.866	10210.42
891.182	10132.46
891.498	10090.43
891.815	10098.11
892.131	10097.21
892.447	10018.34
892.763	10030.99
893.079	10047.94
893.395	10000.49
893.71	9858.57
894.026	9903.77
894.342	9876.2
894.657	9819.25
894.973	9788.74
895.289	9824.45
895.604	9820.6
895.92	9678.23
896.235	9631.68
896.55	9682.08
896.865	9558.24
897.181	9643.43
897.496	9579.48
897.811	9505.81
898.126	9478.69
898.441	9470.1
898.756	9459.48
899.071	9351.69
899.386	9423.33
899.7	9298.13
900.015	9229.66
900.33	9255.65
900.644	9217.23
900.959	9171.35
901.273	9151.02
901.588	9153.28
901.902	9107.85
902.216	9118.25
902.531	9078.25
902.845	8992.15
903.159	8957.35
903.473	8876
903.787	8888.65
904.101	8898.37
904.415	8863.57
904.729	8795.32
905.042	8805.94
905.356	8720.29
905.67	8695.21
905.984	8640.3
906.297	8703.8
906.611	8619.96
906.924	8598.26
907.237	8502.9
907.551	8442.33
907.864	8464.48
908.177	8455.22
908.491	8519.39
908.804	8372.96
909.117	8326.41
909.43	8308.55
909.743	8272.4
910.056	8301.32
910.368	8181.32
910.681	8230.36
910.994	8163.7
911.307	8113.08
911.619	8019.97
911.932	8098.61
912.244	8001.67
912.557	8036.7
912.869	7952.63
913.181	7909.69
913.494	7895.23
913.806	7866.08
914.118	7873.54
914.43	7764.39
914.742	7804.61
915.054	7734.33
915.366	7692.3
915.678	7660.21
915.99	7619.76
916.302	7569.36
916.613	7539.53
916.925	7580.66
917.236	7454.56
917.548	7434
917.859	7453.21
918.171	7393.32
918.482	7401.68
918.794	7322.82
919.105	7300.9
919.416	7188.13
919.727	7268.13
920.038	7214.12
920.349	7199.88
920.66	7127.79
920.971	7185.42
921.282	7073.56
921.593	7021.35
921.903	7007.8
922.214	6987.23
922.525	6902.71
922.835	6915.82
923.146	6852.32
923.456	6854.58
923.767	6849.38
924.077	6787.69
924.387	6797.86
924.697	6722.15
925.008	6695.71
925.318	6740.01
925.628	6709.72
925.938	6655.49
926.248	6561.48
926.558	6604.64
926.867	6577.52
927.177	6563.97
927.487	6441.71
927.796	6484.65
928.106	6433.57
928.416	6437.64
928.725	6369.62
929.034	6328.94
929.344	6371.65
929.653	6316.97
929.962	6297.98
930.271	6256.86
930.581	6208.72
930.89	6165.78
931.199	6153.36
931.508	6137.99
931.817	6121.72
932.125	6121.94
932.434	6059.8
932.743	6056.86
933.051	6053.24
933.36	5991.1
933.669	6004.66
933.977	5925.11
934.286	5963.08
934.594	5896.64
934.902	5839.69
935.21	5863.87
935.519	5799.47
935.827	5775.51
936.135	5699.81
936.443	5722.18
936.751	5750.2
937.059	5690.32
937.367	5662.07
937.674	5696.87
937.982	5632.01
938.29	5609.19
938.597	5623.2
938.905	5525.58
939.213	5505.46
939.52	5500.72
939.827	5542.52
940.135	5458.46
940.442	5446.48
940.749	5415.75
941.056	5404.67
941.363	5381.62
941.67	5357.67
941.977	5300.04
942.284	5266.37
942.591	5302.08
942.898	5223.89
943.205	5216.66
943.511	5206.26
943.818	5243.77
944.125	5102.76
944.431	5139.37
944.738	5114.96
945.044	5089.65
945.35	5064.34
945.657	5058.24
945.963	5048.3
946.269	5008.3
946.575	5021.18
946.881	4978.47
947.187	4932.37
947.493	4891.47
947.799	4891.24
948.105	4903.67
948.41	4813.28
948.716	4823.22
949.022	4861.86
949.327	4826.16
949.633	4740.51
949.938	4699.61
950.244	4746.16
950.549	4705.48
950.854	4704.13
951.16	4669.78
951.465	4590.23
951.77	4624.58
952.075	4610.12
952.38	4561.98
952.685	4597.69
952.99	4534.19
953.294	4542.32
953.599	4528.99
953.904	4432.04
954.209	4435.21
954.513	4456
954.818	4439.95
955.122	4415.32
955.426	4387.53
955.731	4331.93
956.035	4333.74
956.339	4313.18
956.643	4314.99
956.948	4277.47
957.252	4245.61
957.556	4265.27
957.86	4261.65
958.163	4246.74
958.467	4245.83
958.771	4193.41
959.075	4206.29
959.378	4171.03
959.682	4127.87
959.985	4125.84
960.289	4114.76
960.592	4059.62
960.896	4071.38
961.199	4021.43
961.502	3997.93
961.805	4012.17
962.108	3994.77
962.411	3978.27
962.714	3934.66
963.017	3904.37
963.32	3924.71
963.623	3925.62
963.926	3931.04
964.228	3852.17
964.531	3897.82
964.833	3853.3
965.136	3801.1
965.438	3819.18
965.741	3788.22
966.043	3765.17
966.345	3790.25
966.648	3760.88
966.95	3686.98
967.252	3689.01
967.554	3693.76
967.856	3675.23
968.158	3644.04
968.46	3677.71
968.761	3629.81
969.063	3569.02
969.365	3607.89
969.666	3591.39
969.968	3523.82
970.269	3545.29
970.571	3536.7
970.872	3540.54
971.174	3513.88
971.475	3482.46
971.776	3503.26
972.077	3445.86
972.378	3471.17
972.679	3441.11
972.98	3425.52
973.281	3398.17
973.582	3429.13
973.883	3368.57
974.183	3342.13
974.484	3350.94
974.785	3313.2
975.085	3358.85
975.386	3306.88
975.686	3335.58
975.986	3248.12
976.287	3229.82
976.587	3199.53
976.887	3230.49
977.187	3196.82
977.487	3191.4
977.787	3146.43
978.087	3183.72
978.387	3168.12
978.687	3164.06
978.987	3122.7
979.286	3122.47
979.586	3081.12
979.885	3083.61
980.185	3090.84
980.484	3092.42
980.784	3038.63
981.083	2974
981.382	2994.57
981.682	2971.29
981.981	2981.46
982.28	2943.04
982.579	2933.78
982.878	2930.84
983.177	2924.74
983.475	2935.13
983.774	2913.44
984.073	2886.32
984.372	2898.98
984.67	2872.31
984.969	2861.69
985.267	2848.36
985.566	2787.34
985.864	2823.5
986.162	2823.73
986.461	2748.25
986.759	2779.66
987.057	2798.64
987.355	2739.66
987.653	2712.09
987.951	2740.56
988.249	2696.95
988.547	2711.19
988.844	2682.49
989.142	2705.54
989.44	2684.29
989.737	2656.05
990.035	2689.27
990.332	2612.21
990.63	2591.64
990.927	2602.49
991.224	2575.82
991.521	2551.64
991.819	2564.52
992.116	2539.66
992.413	2576.5
992.71	2545.77
993.006	2529.5
993.303	2535.6
993.6	2497.41
993.897	2505.32
994.193	2490.17
994.49	2460.8
994.787	2467.12
995.083	2433.45
995.379	2404.75
995.676	2425.77
995.972	2429.16
996.268	2392.55
996.565	2374.7
996.861	2397.07
997.157	2374.92
997.453	2358.88
997.749	2324.76
998.044	2328.82
998.34	2305.55
998.636	2258.99
998.932	2279.78
999.227	2263.74
999.523	2287.69
999.818	2255.6
1000.114	2238.2
1000.409	2223.51
1000.704	2214.02
1001	2227.36
1001.295	2179.67
1001.59	2200.92
1001.885	2173.12
1002.18	2149.84
1002.475	2157.08
1002.77	2117.08
1003.065	2124.76
1003.359	2106.68
1003.654	2109.39
1003.949	2063.29
1004.243	2065.1
1004.538	2047.47
1004.832	2057.87
1005.127	2033.69
1005.421	2009.74
1005.715	2005.67
1006.009	2026.01
1006.304	1979
1006.598	1974.93
1006.892	1962.5
1007.186	1950.3
1007.48	1967.02
1007.773	1931.32
1008.067	1929.51
1008.361	1907.82
1008.655	1923.64
1008.948	1891.55
1009.242	1900.13
1009.535	1880.02
1009.829	1886.8
1010.122	1869.4
1010.415	1807.48
1010.708	1843.64
1011.001	1836.86
1011.295	1817.88
1011.588	1789.63
1011.881	1815.84
1012.173	1776.07
1012.466	1796.63
1012.759	1779.91
1013.052	1765.9
1013.344	1747.14
1013.637	1724.55
1013.93	1735.84
1014.222	1694.49
1014.514	1681.83
1014.807	1699.46
1015.099	1682.29
1015.391	1690.87
1015.683	1675.96
1015.976	1665.79
1016.268	1650.87
1016.56	1612.23
1016.851	1638.22
1017.143	1628.73
1017.435	1621.72
1017.727	1600.93
1018.018	1608.84
1018.31	1572.68
1018.602	1578.11
1018.893	1554.15
1019.185	1540.14
1019.476	1541.95
1019.767	1516.64
1020.058	1527.04
1020.35	1487.26
1020.641	1491.78
1020.932	1484.1
1021.223	1477.77
1021.514	1473.03
1021.804	1461.28
1022.095	1433.25
1022.386	1455.63
1022.677	1464.21
1022.967	1397.55
1023.258	1398
1023.548	1390.32
1023.839	1393.03
1024.129	1365.23
1024.419	1371.33
1024.709	1376.08
1025	1340.83
1025.29	1325.69
1025.58	1343.76
1025.87	1320.26
1026.16	1327.95
1026.449	1325.23
1026.739	1291.79
1027.029	1323.43
1027.319	1292.24
1027.608	1282.3
1027.898	1303.77
1028.187	1245.01
1028.477	1261.28
1028.766	1221.51
1029.055	1239.13
1029.344	1263.77
1029.634	1204.33
1029.923	1202.07
1030.212	1204.11
1030.501	1204.33
1030.79	1193.71
1031.078	1143.77
1031.367	1175.18
1031.656	1186.93
1031.945	1175.41
1032.233	1146.48
1032.522	1155.29
1032.81	1134.5
1033.099	1146.71
1033.387	1115.97
1033.675	1112.81
1033.963	1093.38
1034.251	1135.18
1034.54	1074.17
1034.828	1076.43
1035.116	1067.16
1035.403	1065.35
1035.691	1089.08
1035.979	1066.26
1036.267	1036.88
1036.554	1047.73
1036.842	1028.74
1037.129	1029.42
1037.417	1009.99
1037.704	1003.66
1037.992	998.01
1038.279	1011.12
1038.566	1004.56
1038.853	1004.56
1039.14	1004.56
