Data from hue_70_FLMS001491_62.txt Node
Date: Mon Feb 06 15:21:15 GMT 2017
User: dcchb
Spectrometer: FLMS00149
Trigger mode: 0
Integration Time (sec): 2.000000E-2
Scans to average: 10
Electric dark correction enabled: true
Nonlinearity correction enabled: false
Boxcar width: 0
XAxis mode: Wavelengths
Number of Pixels in Spectrum: 2048
>>>>>Begin Spectral Data<<<<<
341.393	-8.63
341.776	-8.63
342.16	-8.63
342.543	-65.13
342.927	-45.69
343.31	-75.29
343.693	-73.03
344.077	-56.76
344.46	-71.23
344.843	-64
345.226	-39.82
345.61	-21.74
345.993	-25.35
346.376	-30.78
346.759	14.65
347.142	18.26
347.525	48.77
347.908	60.75
348.291	92.84
348.674	99.16
349.057	123.57
349.44	124.25
349.823	138.71
350.206	137.13
350.588	185.72
350.971	193.85
351.354	221.87
351.737	222.32
352.119	265.49
352.502	269.1
352.884	279.27
353.267	271.59
353.65	274.98
354.032	278.14
354.414	323.34
354.797	324.02
355.179	300.74
355.562	328.76
355.944	316.79
356.326	309.55
356.709	344.36
357.091	319.27
357.473	326.28
357.855	342.77
358.238	337.8
358.62	347.07
359.002	346.16
359.384	339.38
359.766	329.21
360.148	341.64
360.53	337.35
360.912	333.28
361.294	335.77
361.676	340.51
362.057	339.84
362.439	340.97
362.821	320.18
363.203	315.66
363.584	325.82
363.966	316.79
364.348	323.11
364.729	328.76
365.111	306.62
365.493	324.69
365.874	317.69
366.256	311.59
366.637	313.62
367.019	323.11
367.4	309.33
367.781	310.23
368.163	322.44
368.544	324.47
368.925	295.32
369.306	333.51
369.688	329.89
370.069	307.75
370.45	293.06
370.831	321.08
371.212	308.65
371.593	312.94
371.974	303
372.355	317.92
372.736	304.36
373.117	309.33
373.498	311.59
373.879	302.1
374.26	319.72
374.641	321.76
375.021	321.53
375.402	319.95
375.783	313.17
376.163	340.97
376.544	305.71
376.925	309.33
377.305	324.92
377.686	312.04
378.066	305.94
378.447	330.57
378.827	325.6
379.208	320.63
379.588	330.34
379.968	312.27
380.349	322.66
380.729	341.42
381.109	315.43
381.489	314.98
381.87	333.51
382.25	327.18
382.63	352.04
383.01	329.21
383.39	339.84
383.77	341.87
384.15	330.8
384.53	340.74
384.91	337.8
385.29	334.64
385.67	352.26
386.049	347.07
386.429	346.39
386.809	337.8
387.189	358.82
387.568	353.17
387.948	350.91
388.328	369.89
388.707	354.98
389.087	350.46
389.466	335.77
389.846	354.3
390.225	373.96
390.605	365.6
390.984	370.12
391.363	372.15
391.743	363.34
392.122	381.64
392.501	358.14
392.881	374.19
393.26	360.63
393.639	351.36
394.018	387.52
394.397	367.63
394.776	345.26
395.155	360.63
395.534	379.16
395.913	375.09
396.292	360.63
396.671	391.13
397.05	377.35
397.429	367.86
397.808	383.9
398.186	373.06
398.565	390.46
398.944	389.55
399.323	388.2
399.701	391.36
400.08	383.68
400.458	379.38
400.837	429.78
401.215	379.16
401.594	389.78
401.972	385.03
402.351	398.82
402.729	397.91
403.107	385.71
403.486	403.79
403.864	398.37
404.242	398.59
404.62	416.67
404.999	411.47
405.377	403.11
405.755	397.69
406.133	413.05
406.511	421.42
406.889	434.75
407.267	438.14
407.645	419.61
408.023	431.58
408.401	414.86
408.779	432.26
409.156	414.86
409.534	454.18
409.912	425.26
410.29	416.22
410.667	425.48
411.045	421.64
411.422	436.78
411.8	452.83
412.178	448.31
412.555	454.86
412.933	457.57
413.31	446.95
413.687	448.31
414.065	464.13
414.442	445.37
414.819	469.78
415.197	476.33
415.574	463.9
415.951	476.33
416.328	482.2
416.705	462.09
417.082	483.11
417.46	482.2
417.837	489.89
418.214	496.89
418.591	493.96
418.967	473.84
419.344	497.12
419.721	512.26
420.098	521.75
420.475	502.54
420.852	494.41
421.228	520.4
421.605	505.71
421.982	514.07
422.358	519.04
422.735	533.95
423.111	514.97
423.488	530.57
423.864	534.63
424.241	537.12
424.617	533.28
424.994	535.08
425.37	552.71
425.746	553.62
426.123	539.83
426.499	538.47
426.875	549.1
427.251	571.47
427.627	598.59
428.003	558.81
428.379	576.21
428.756	555.42
429.132	569.21
429.507	578.47
429.883	599.72
430.259	589.09
430.635	585.25
431.011	618.92
431.387	629.09
431.763	612.6
432.138	591.81
432.514	608.76
432.89	633.61
433.265	622.77
433.641	618.02
434.016	647.62
434.392	631.13
434.767	648.3
435.143	646.72
435.518	657.57
435.894	689.21
436.269	653.27
436.644	660.05
437.02	667.74
437.395	678.81
437.77	685.14
438.145	679.71
438.52	672.93
438.895	690.11
439.271	700.28
439.646	710.67
440.021	698.02
440.395	709.09
440.77	707.28
441.145	726.49
441.52	742.31
441.895	745.93
442.27	738.47
442.645	730.11
443.019	741.18
443.394	742.54
443.769	764.91
444.143	766.27
444.518	750.45
444.892	766.72
445.267	782.08
445.641	772.14
446.016	765.81
446.39	773.04
446.764	804.91
447.139	788.64
447.513	801.07
447.887	779.82
448.262	802.42
448.636	789.77
449.01	800.16
449.384	820.28
449.758	831.35
450.132	834.96
450.506	844.91
450.88	827.96
451.254	836.32
451.628	829.77
452.002	857.34
452.376	880.16
452.75	859.82
453.123	849.2
453.497	873.61
453.871	892.14
454.244	905.7
454.618	898.47
454.992	923.55
455.365	914.96
455.739	944.11
456.112	945.7
456.486	946.15
456.859	935.98
457.232	967.16
457.606	961.51
457.979	976.2
458.352	1003.32
458.725	1034.28
459.099	1025.69
459.472	1026.82
459.845	1053.26
460.218	1029.99
460.591	1045.35
460.964	1055.07
461.337	1057.56
461.71	1095.75
462.083	1105.24
462.456	1107.27
462.829	1123.09
463.201	1156.76
463.574	1129.19
463.947	1156.54
464.32	1222.98
464.692	1207.16
465.065	1219.81
465.438	1220.49
465.81	1259.59
466.183	1263.65
466.555	1282.18
466.928	1279.02
467.3	1309.53
467.672	1323.31
468.045	1348.17
468.417	1385.46
468.789	1382.97
469.161	1375.74
469.534	1448.51
469.906	1476.75
470.278	1470.2
470.65	1518.11
471.022	1528.73
471.394	1595.4
471.766	1581.16
472.138	1622.06
472.51	1652.12
472.882	1670.2
473.253	1717.43
473.625	1769.18
473.997	1806.46
474.369	1858.89
474.74	1884.88
475.112	1892.79
475.484	1971.66
475.855	1989.96
476.227	2028.38
476.598	2088.49
476.97	2139.11
477.341	2178.88
477.713	2249.16
478.084	2280.35
478.455	2372.78
478.827	2410.29
479.198	2470.85
479.569	2567.57
479.94	2639.21
480.311	2692.54
480.682	2789.26
481.053	2881.24
481.424	2930.5
481.795	3016.38
482.166	3103.38
482.537	3142.93
482.908	3263.6
483.279	3314.67
483.65	3463.14
484.021	3638.51
484.391	3648.22
484.762	3759.63
485.133	3829.91
485.503	3881.89
485.874	4071.04
486.244	4150.13
486.615	4321.2
486.985	4409.56
487.356	4554.64
487.726	4564.81
488.097	4771.58
488.467	4887.29
488.837	5003.44
489.207	5121.86
489.578	5263.77
489.948	5415.18
490.318	5535.86
490.688	5627.38
491.058	5811.78
491.428	5919.58
491.798	6097.65
492.168	6228.27
492.538	6307.59
492.908	6484.31
493.278	6616.96
493.648	6723.85
494.017	6840
494.387	6992.99
494.757	7168.13
495.126	7323.15
495.496	7395.02
495.866	7541.91
496.235	7647.67
496.605	7825.74
496.974	7948.9
497.344	8103.7
497.713	8240.64
498.082	8419.17
498.452	8575.55
498.821	8659.39
499.19	8763.79
499.559	8880.63
499.928	9060.74
500.298	9171.02
500.667	9306.61
501.036	9339.15
501.405	9544.11
501.774	9608.74
502.143	9723.54
502.512	9824.78
502.88	9986.14
503.249	10080.6
503.618	10246.24
503.987	10299.8
504.356	10451.21
504.724	10559.23
505.093	10659.34
505.462	10718.77
505.83	10886.9
506.199	11086.45
506.567	11178.87
506.936	11243.73
507.304	11339.55
507.672	11530.95
508.041	11517.85
508.409	11662.48
508.777	11864.73
509.145	11984.73
509.514	11975.01
509.882	12093.42
510.25	12221.78
510.618	12336.36
510.986	12423.59
511.354	12562.34
511.722	12698.15
512.09	12799.17
512.458	12876.91
512.826	12928.21
513.193	13056.11
513.561	13122.32
513.929	13200.97
514.297	13425.59
514.664	13515.99
515.032	13555.08
515.4	13675.53
515.767	13698.58
516.135	13826.71
516.502	13764.79
516.869	14088.85
517.237	14129.76
517.604	14043.66
517.972	14225.57
518.339	14417.43
518.706	14348.28
519.073	14543.53
519.44	14584.66
519.808	14761.38
520.175	14783.3
520.542	14947.81
520.909	15007.02
521.276	15009.05
521.643	15176.96
522.009	15307.35
522.376	15381.93
522.743	15477.52
523.11	15597.51
523.477	15652.88
523.843	15835.02
524.21	15956.6
524.577	16086.09
524.943	16141.23
525.31	16122.7
525.676	16363.37
526.043	16456.7
526.409	16414.22
526.776	16605.17
527.142	16608.11
527.508	16620.09
527.874	16822.11
528.241	16883.36
528.607	16908.21
528.973	17114.31
529.339	17052.39
529.705	17188.66
530.071	17364.7
530.437	17352.72
530.803	17394.75
531.169	17469.78
531.535	17449.22
531.901	17569.67
532.267	17599.27
532.632	17715.42
532.998	17731.69
533.364	17888.53
533.73	17782.31
534.095	17882.88
534.461	17981.86
534.826	18051.46
535.192	18028.41
535.557	18223.89
535.923	18124.23
536.288	18266.14
536.653	18186.82
537.019	18185.92
537.384	18235.86
537.749	18382.53
538.114	18360.15
538.479	18331
538.845	18441.51
539.21	18387.95
539.575	18439.92
539.94	18483.54
540.305	18514.5
540.67	18429.3
541.034	18579.13
541.399	18611.9
541.764	18605.12
542.129	18699.35
542.494	18620.26
542.858	18715.62
543.223	18670.2
543.587	18831.33
543.952	18792.23
544.316	18880.37
544.681	18746.13
545.045	18917.65
545.41	18896.64
545.774	18942.74
546.138	18944.32
546.503	18911.32
546.867	18859.35
547.231	19100.7
547.595	19035.84
547.959	19040.36
548.324	19020.02
548.688	19059.57
549.052	19099.34
549.416	19054.15
549.779	19065.22
550.143	19088.27
550.507	19145.44
550.871	19279.22
551.235	19127.36
551.599	19307.02
551.962	19319.9
552.326	19358.54
552.689	19397.64
553.053	19289.17
553.417	19360.35
553.78	19504.98
554.143	19514.02
554.507	19583.85
554.87	19540.46
555.234	19763.96
555.597	19596.05
555.96	19610.06
556.323	19675.15
556.686	19657.52
557.05	19740.68
557.413	19786.33
557.776	19822.94
558.139	19969.83
558.502	19930.28
558.865	20042.14
559.228	20172.31
559.59	20072.42
559.953	20219.09
560.316	20314.23
560.679	20305.19
561.041	20421.12
561.404	20536.82
561.767	20542.92
562.129	20428.57
562.492	20678.06
562.854	20625.63
563.217	20543.15
563.579	20649.36
563.941	20738.4
564.304	20761.22
564.666	20923.25
565.028	20841.44
565.39	20932.29
565.753	21126.63
566.115	21132.96
566.477	21139.51
566.839	21130.7
567.201	21315.56
567.563	21283.69
567.925	21391.26
568.287	21481.88
568.648	21424.93
569.01	21659.05
569.372	21771.36
569.734	21650.46
570.095	21798.93
570.457	21819.72
570.819	21810.91
571.18	21965.71
571.542	21936.78
571.903	21967.97
572.265	22045.71
572.626	22106.95
572.987	22122.77
573.349	22104.91
573.71	22153.05
574.071	22199.6
574.432	22209.77
574.794	22492.02
575.155	22448.18
575.516	22221.29
575.877	22439.82
576.238	22452.7
576.599	22528.4
576.96	22494.51
577.32	22648.18
577.681	22672.36
578.042	22764.78
578.403	22742.86
578.763	22798.45
579.124	22641.17
579.485	22796.19
579.845	22789.64
580.206	22776.31
580.566	22704.22
580.927	22772.47
581.287	22933.59
581.648	22841.39
582.008	22940.82
582.368	22959.81
582.728	22842.75
583.089	22987.38
583.449	22923.87
583.809	22918
584.169	22983.31
584.529	22833.03
584.889	23067.37
585.249	22882.29
585.609	22907.15
585.969	23080.48
586.329	22874.61
586.688	22943.08
587.048	22919.35
587.408	22903.76
587.768	22941.95
588.127	22865.8
588.487	22979.01
588.846	23001.84
589.206	22939.02
589.565	22913.93
589.925	23040.03
590.284	22906.93
590.643	23008.17
591.003	22935.4
591.362	23041.39
591.721	22899.92
592.08	22999.13
592.44	23014.04
592.799	23030.99
593.158	22906.7
593.517	22910.99
593.876	23009.97
594.235	22974.72
594.593	22944.67
594.952	22973.14
595.311	22815.85
595.67	23023.76
596.029	23101.5
596.387	23072.12
596.746	23051.78
597.104	23004.1
597.463	23095.4
597.822	23090.2
598.18	22979.69
598.538	23020.6
598.897	23107.82
599.255	23003.42
599.613	23247.03
599.972	23207.48
600.33	23158.9
600.688	23119.8
601.046	23242.06
601.404	23294.26
601.762	23242.96
602.12	23355.05
602.478	23437.76
602.836	23310.76
603.194	23212.68
603.552	23341.72
603.91	23117.09
604.268	23287.48
604.625	23235.05
604.983	23326.58
605.341	23242.51
605.698	23332.23
606.056	23253.58
606.413	23443.63
606.771	23468.27
607.128	23505.55
607.485	23377.42
607.843	23375.39
608.2	23479.11
608.557	23656.96
608.914	23449.96
609.272	23660.13
609.629	23594.14
609.986	23736.28
610.343	23590.98
610.7	23833.91
611.057	23715.04
611.414	23703.06
611.771	23794.36
612.127	23845.88
612.484	23814.02
612.841	23920.01
613.198	23787.58
613.554	23911.65
613.911	23978.76
614.267	23947.35
614.624	24024.64
614.98	23980.57
615.337	24135.14
615.693	24036.16
616.05	24103.05
616.406	24209.72
616.762	24035.48
617.118	24070.51
617.475	24134.01
617.831	24237.74
618.187	24214.91
618.543	24328.58
618.899	24448.58
619.255	24345.53
619.611	24348.02
619.967	24465.98
620.323	24489.48
620.678	24332.43
621.034	24341.46
621.39	24369.49
621.746	24336.04
622.101	24607.45
622.457	24378.07
622.812	24557.5
623.168	24605.64
623.523	24491.29
623.879	24744.62
624.234	24497.39
624.589	24601.57
624.945	24562.93
625.3	24588.46
625.655	24537.39
626.01	24635.92
626.365	24571.74
626.72	24624.62
627.075	24532.65
627.43	24529.48
627.785	24511.63
628.14	24595.7
628.495	24570.84
628.85	24587.56
629.205	24380.11
629.559	24618.97
629.914	24573.55
630.269	24584.62
630.623	24449.94
630.978	24458.07
631.332	24612.87
631.687	24721.57
632.041	24482.25
632.396	24511.86
632.75	24487.45
633.104	24468.24
633.459	24335.59
633.813	24338.53
634.167	24320.67
634.521	24339.66
634.875	24392.31
635.229	24289.71
635.583	24262.37
635.937	24226.89
636.291	24212.88
636.645	24278.64
636.999	24197.29
637.352	24415.36
637.706	24161.13
638.06	24227.8
638.413	24182.37
638.767	24136.95
639.121	24158.19
639.474	24053.11
639.828	24061.47
640.181	23985.54
640.534	23945.99
640.888	24000.68
641.241	23801.37
641.594	23855.38
641.947	24006.33
642.301	23905.77
642.654	23964.07
643.007	23958.88
643.36	23860.57
643.713	23837.52
644.066	23978.99
644.419	23803.17
644.771	23677.75
645.124	23445.67
645.477	23423.97
645.83	23241.61
646.182	23121.38
646.535	23165.22
646.888	23128.84
647.24	22990.09
647.593	23171.78
647.945	23083.19
648.298	22939.02
648.65	22982.63
649.002	22958.22
649.355	22963.65
649.707	22989.86
650.059	23049.3
650.411	23331.1
650.763	23318.67
651.115	23611.54
651.467	23474.59
651.819	23492
652.171	23557.3
652.523	23534.93
652.875	23466.01
653.227	23296.07
653.578	23571.77
653.93	23500.13
654.282	23371.32
654.633	23383.98
654.985	23422.39
655.337	23457.65
655.688	23464.65
656.039	23511.2
656.391	23260.59
656.742	23225.34
657.094	23335.16
657.445	23391.88
657.796	23364.99
658.147	23315.05
658.498	23246.58
658.849	23453.35
659.2	23248.39
659.551	23254.71
659.902	23398.21
660.253	23310.31
660.604	23392.56
660.955	23289.74
661.306	23360.47
661.656	23296.75
662.007	23364.09
662.358	23376.29
662.708	23386.46
663.059	23438.89
663.409	23255.62
663.76	23401.15
664.11	23324.99
664.461	23360.93
664.811	23402.05
665.161	23326.12
665.511	23287.93
665.862	23298.55
666.212	23333.36
666.562	23486.57
666.912	23334.71
667.262	23363.86
667.612	23277.99
667.962	23418.55
668.312	23252.23
668.662	23377.42
669.011	23296.52
669.361	23243.19
669.711	23341.04
670.06	23287.48
670.41	23157.99
670.76	23191.89
671.109	23279.8
671.459	23279.57
671.808	23111.21
672.157	23256.75
672.507	23087.71
672.856	23099.24
673.205	23120.48
673.554	23242.28
673.904	23134.72
674.253	23192.34
674.602	23126.58
674.951	22814.5
675.3	22699.7
675.649	22953.25
675.998	23103.53
676.346	23141.95
676.695	23132.91
677.044	22865.8
677.393	23072.12
677.741	22962.07
678.09	22888.62
678.438	22860.83
678.787	22849.53
679.135	22868.06
679.484	22858.79
679.832	22788.06
680.181	22651.79
680.529	22768.85
680.877	22656.31
681.225	22629.42
681.573	22731.79
681.922	22654.28
682.27	22582.87
682.618	22581.28
682.966	22504.68
683.314	22540.16
683.661	22411.8
684.009	22259.03
684.357	22238.69
684.705	22184.69
685.053	22329.54
685.4	22234.4
685.748	22099.04
686.095	22065.14
686.443	22138.13
686.79	21873.51
687.138	22060.62
687.485	22034.63
687.832	21908.76
688.18	21981.75
688.527	21769.1
688.874	21794.86
689.221	21758.48
689.568	21728.88
689.915	21656.79
690.262	21659.95
690.609	21526.62
690.956	21451.37
691.303	21459.73
691.65	21338.38
691.997	21359.4
692.344	21192.85
692.69	21122.57
693.037	21150.36
693.383	20951.5
693.73	21013.64
694.077	20976.58
694.423	20938.16
694.769	20862.69
695.116	20806.64
695.462	20789.02
695.808	20673.09
696.155	20678.51
696.501	20598.74
696.847	20503.37
697.193	20355.58
697.539	20403.71
697.885	20364.17
698.231	20231.06
698.577	20185.87
698.923	20158.52
699.269	20020.9
699.614	20009.15
699.96	19847.35
700.306	19829.27
700.651	19752.43
700.997	19867.91
701.342	19598.99
701.688	19580.23
702.033	19572.1
702.379	19516.28
702.724	19452.55
703.069	19513.57
703.415	19209.17
703.76	19213.24
704.105	19197.19
704.45	19239
704.795	19135.5
705.14	19070.87
705.485	19052.56
705.83	18993.13
706.175	18935.05
706.52	18894.38
706.865	18808.95
707.209	18851.89
707.554	18730.09
707.899	18712.23
708.243	18670.65
708.588	18662.74
708.932	18482.86
709.277	18510.66
709.621	18448.06
709.966	18333.94
710.31	18447.16
710.654	18166.94
710.998	18253.71
711.342	18197.22
711.687	18195.64
712.031	18025.25
712.375	18082.65
712.719	18102.31
713.063	17979.37
713.407	18068.64
713.75	17954.06
714.094	17860.73
714.438	17928.3
714.782	17852.6
715.125	17754.29
715.469	17740.51
715.812	17699.38
716.156	17618.48
716.499	17644.92
716.843	17613.51
717.186	17470.23
717.53	17585.26
717.873	17584.35
718.216	17494.64
718.559	17446.05
718.902	17376.68
719.246	17294.64
719.589	17354.3
719.932	17256.68
720.275	17341.2
720.617	17246.28
720.96	17279.5
721.303	17287.19
721.646	17159.05
721.989	17088.55
722.331	17059.17
722.674	17164.93
723.016	17253.52
723.359	17099.62
723.701	17173.07
724.044	16910.02
724.386	16973.52
724.729	17017.82
725.071	16926.97
725.413	16998.61
725.755	16998.38
726.097	16929.68
726.439	16854.43
726.782	16773.53
727.124	16930.59
727.465	16791.15
727.807	16764.26
728.149	16748.9
728.491	16792.96
728.833	16764.49
729.175	16724.49
729.516	16627.09
729.858	16687.2
730.199	16644.04
730.541	16637.26
730.882	16661.89
731.224	16690.59
731.565	16621.89
731.906	16569.92
732.248	16448.11
732.589	16570.14
732.93	16500.99
733.271	16435.23
733.612	16493.08
733.953	16529.69
734.294	16414.67
734.635	16454.67
734.976	16501.22
735.317	16529.92
735.658	16459.64
735.999	16393.65
736.339	16410.15
736.68	16432.97
737.021	16417.15
737.361	16291.96
737.702	16424.84
738.042	16317.04
738.383	16360.21
738.723	16441.56
739.063	16270.72
739.404	16376.25
739.744	16312.98
740.084	16277.72
740.424	16424.16
740.764	16373.99
741.104	16329.25
741.444	16299.87
741.784	16233.43
742.124	16282.92
742.464	16310.04
742.804	16340.77
743.143	16273.43
743.483	16395.46
743.823	16233.66
744.162	16298.29
744.502	16324.05
744.841	16358.17
745.181	16395.91
745.52	16435.46
745.86	16430.26
746.199	16492.63
746.538	16463.48
746.877	16421.45
747.216	16546.19
747.556	16376.7
747.895	16467.32
748.234	16510.26
748.573	16607.43
748.911	16509.81
749.25	16743.92
749.589	16512.74
749.928	16655.11
750.267	16780.31
750.605	16702.34
750.944	16842
751.283	16793.19
751.621	16998.38
751.96	16872.28
752.298	16904.15
752.636	17042.67
752.975	17046.52
753.313	17105.27
753.651	17196.34
753.989	17169.22
754.327	17141.43
754.666	17229.11
755.004	17425.04
755.342	17451.93
755.679	17387.75
756.017	17511.59
756.355	17602.66
756.693	17652.83
757.031	17745.71
757.368	17734.41
757.706	17857.79
758.044	17906.61
758.381	17925.59
758.719	17977.56
759.056	18057.34
759.394	18114.28
759.731	17998.35
760.068	18201.51
760.405	18196.77
760.743	18249.42
761.08	18378.23
761.417	18398.8
761.754	18455.52
762.091	18403.32
762.428	18468.62
762.765	18487.61
763.102	18637.21
763.438	18555.63
763.775	18644.67
764.112	18715.62
764.449	18863.19
764.785	18746.81
765.122	18713.82
765.458	18829.75
765.795	18764.66
766.131	18814.38
766.467	18792.01
766.804	18810.54
767.14	18813.93
767.476	18967.59
767.812	18816.86
768.148	18900.93
768.485	18816.64
768.821	18696.87
769.157	18782.29
769.492	18839.01
769.828	18874.26
770.164	18797.2
770.5	18893.25
770.836	18862.96
771.171	18850.31
771.507	18789.29
771.842	18737.32
772.178	18826.58
772.513	18733.93
772.849	18697.77
773.184	18631.56
773.519	18624.78
773.855	18588.17
774.19	18581.84
774.525	18508.85
774.86	18566.02
775.195	18494.39
775.53	18501.39
775.865	18441.05
776.2	18412.35
776.535	18202.19
776.87	18272.7
777.205	18322.87
777.539	18207.84
777.874	18190.67
778.209	18055.98
778.543	18024.12
778.878	17967.85
779.212	17988.64
779.547	17915.64
779.881	17970.78
780.215	17897.11
780.55	17982.08
780.884	17827.06
781.218	17676.1
781.552	17735.54
781.886	17675.2
782.22	17558.37
782.554	17585.71
782.888	17436.56
783.222	17431.59
783.556	17312.72
783.889	17276.34
784.223	17257.13
784.557	17271.37
784.89	17159.96
785.224	17104.37
785.557	17000.87
785.891	16970.58
786.224	17020.08
786.558	16979.4
786.891	16775.56
787.224	16715.22
787.557	16659.18
787.891	16672.06
788.224	16710.93
788.557	16596.58
788.89	16591.84
789.223	16522.91
789.556	16468.9
789.888	16397.49
790.221	16429.36
790.554	16330.6
790.887	16265.74
791.219	16228.91
791.552	16118.86
791.884	16184.16
792.217	16122.25
792.549	16034.34
792.882	15931.52
793.214	15885.19
793.546	15911.63
793.879	15799.54
794.211	15643.61
794.543	15734.01
794.875	15686.1
795.207	15745.98
795.539	15682.48
795.871	15649.04
796.203	15449.27
796.535	15404.75
796.867	15388.71
797.198	15437.74
797.53	15317.52
797.862	15238.43
798.193	15285.66
798.525	15164.98
798.856	15208.82
799.188	15045.21
799.519	14989.85
799.85	14979
800.182	14972.22
800.513	14943.52
800.844	14799.79
801.175	14889.51
801.506	14835.5
801.837	14688.38
802.168	14760.25
802.499	14670.98
802.83	14587.6
803.161	14518.9
803.491	14571.1
803.822	14584.66
804.153	14482.29
804.483	14322.52
804.814	14360.26
805.145	14289.53
805.475	14266.02
805.805	14240.71
806.136	14209.53
806.466	14220.6
806.796	14207.27
807.126	14091.11
807.457	14038.68
807.787	14008.85
808.117	13914.85
808.447	13863.1
808.777	13945.81
809.107	13847.5
809.436	13829.65
809.766	13833.72
810.096	13788.97
810.426	13651.12
810.755	13717.11
811.085	13724.12
811.414	13647.96
811.744	13558.47
812.073	13477.34
812.403	13518.47
812.732	13418.81
813.061	13462.43
813.39	13415.2
813.719	13369.78
814.049	13356.89
814.378	13403.45
814.707	13276.67
815.036	13237.12
815.365	13209.55
815.693	13165.49
816.022	13123
816.351	13010.24
816.68	12970.92
817.008	13095.21
817.337	12934.98
817.665	12913.97
817.994	12972.27
818.322	12918.26
818.651	12836.23
818.979	12852.5
819.307	12865.61
819.636	12743.35
819.964	12665.84
820.292	12872.39
820.62	12809.34
820.948	12683.24
821.276	12800.3
821.604	12766.18
821.932	12730.02
822.259	12755.33
822.587	12723.69
822.915	12662.68
823.243	12694.09
823.57	12623.81
823.898	12728.89
824.225	12619.96
824.553	12628.1
824.88	12692.51
825.207	12749
825.535	12631.49
825.862	12681.21
826.189	12617.03
826.516	12648.89
826.843	12746.97
827.17	12714.65
827.497	12670.81
827.824	12705.16
828.151	12673.75
828.478	12693.18
828.805	12693.18
829.131	12629.91
829.458	12659.74
829.785	12586.75
830.111	12650.02
830.438	12703.13
830.764	12697.93
831.09	12598.72
831.417	12605.73
831.743	12626.29
832.069	12605.5
832.395	12567.99
832.722	12553.98
833.048	12494.09
833.374	12623.35
833.7	12492.06
834.026	12593.75
834.351	12540.19
834.677	12520.98
835.003	12572.51
835.329	12457.71
835.654	12410.7
835.98	12480.31
836.306	12561.89
836.631	12451.16
836.956	12426.98
837.282	12481.21
837.607	12357.6
837.932	12336.81
838.258	12315.34
838.583	12315.79
838.908	12251.16
839.233	12339.97
839.558	12194.67
839.883	12251.39
840.208	12153.08
840.533	12155.8
840.858	12174.1
841.182	12105.63
841.507	12168.23
841.832	12064.73
842.156	12043.03
842.481	12012.52
842.805	11981.11
843.13	11955.8
843.454	11907.22
843.778	11929.81
844.103	11924.62
844.427	11871.06
844.751	11831.96
845.075	11825.86
845.399	11834.22
845.723	11696.6
846.047	11762.13
846.371	11584.51
846.695	11610.95
847.019	11510.84
847.343	11570.05
847.666	11417.96
847.99	11421.58
848.313	11423.84
848.637	11289.83
848.96	11350.62
849.284	11276.27
849.607	11081.47
849.931	11168.93
850.254	11050.06
850.577	11069.5
850.9	10978.88
851.223	11008.03
851.546	10907.69
851.869	10757.41
852.192	10908.82
852.515	10784.08
852.838	10744.76
853.161	10731.88
853.483	10693.69
853.806	10634.48
854.129	10667.25
854.451	10540.25
854.774	10481.04
855.096	10455.05
855.419	10435.16
855.741	10464.54
856.063	10373.02
856.385	10359.69
856.708	10298.9
857.03	10320.59
857.352	10322.62
857.674	10235.85
857.996	10215.06
858.318	10160.14
858.64	10179.13
858.961	10114.95
859.283	10125.57
859.605	10054.16
859.926	10015.51
860.248	10022.97
860.57	9878.12
860.891	9959.47
861.212	9945.91
861.534	9872.92
861.855	9876.08
862.176	9944.33
862.498	9878.79
862.819	9839.92
863.14	9755.41
863.461	9801.28
863.782	9771.23
864.103	9745.24
864.424	9680.16
864.745	9769.87
865.065	9689.42
865.386	9652.81
865.707	9685.35
866.027	9641.96
866.348	9632.47
866.668	9635.18
866.989	9594.28
867.309	9481.29
867.63	9580.5
867.95	9545.47
868.27	9546.15
868.59	9491.91
868.91	9525.36
869.23	9454.85
869.55	9407.17
869.87	9538.24
870.19	9424.79
870.51	9480.16
870.83	9471.8
871.15	9389.32
871.469	9385.02
871.789	9378.69
872.109	9372.59
872.428	9312.03
872.748	9308.64
873.067	9301.86
873.386	9322.2
873.706	9271.58
874.025	9322.88
874.344	9240.17
874.663	9320.84
874.982	9214.63
875.301	9183.22
875.62	9199.72
875.939	9180.51
876.258	9081.75
876.577	9130.34
876.896	9101.41
877.214	9091.02
877.533	9090.11
877.852	9046.5
878.17	9040.4
878.489	9025.03
878.807	9046.5
879.125	9027.06
879.444	9019.61
879.762	9021.64
880.08	8968.99
880.398	8921.08
880.716	8984.13
881.034	8926.05
881.352	8932.38
881.67	8892.83
881.988	8875.43
882.306	8901.87
882.624	8834.98
882.941	8783.23
883.259	8747.52
883.577	8725.38
883.894	8695.32
884.212	8687.41
884.529	8669.56
884.846	8620.07
885.164	8624.82
885.481	8599.51
885.798	8618.04
886.115	8592.95
886.432	8527.64
886.75	8550.24
887.067	8507.53
887.383	8472.5
887.7	8518.15
888.017	8423.69
888.334	8408.78
888.651	8453.52
888.967	8411.04
889.284	8330.81
889.6	8341.43
889.917	8340.53
890.233	8331.72
890.55	8248.55
890.866	8256.24
891.182	8279.97
891.498	8231.83
891.815	8206.97
892.131	8153.19
892.447	8171.49
892.763	8148.67
893.079	8114.77
893.395	8073.87
893.71	8098.73
894.026	8029.13
894.342	8053.98
894.657	7943.7
894.973	7940.31
895.289	7930.14
895.604	7916.13
895.92	7857.83
896.235	7895.12
896.55	7834.33
896.865	7788.68
897.181	7800.43
897.496	7793.88
897.811	7735.12
898.126	7716.14
898.441	7639.08
898.756	7661.23
899.071	7606.31
899.386	7610.38
899.7	7581.68
900.015	7487.22
900.33	7498.07
900.644	7489.25
900.959	7483.83
901.273	7475.92
901.588	7446.54
901.902	7384.4
902.216	7293.78
902.531	7344.85
902.845	7258.75
903.159	7302.59
903.473	7213.33
903.787	7205.19
904.101	7143.95
904.415	7185.08
904.729	7075.25
905.042	7039.09
905.356	7026.89
905.67	7089.71
905.984	7064.18
906.297	7017.4
906.611	6894.24
906.924	6985.31
907.237	6931.07
907.551	6898.08
907.864	6824.86
908.177	6865.31
908.491	6830.74
908.804	6816.5
909.117	6712.1
909.43	6707.58
909.743	6726.56
910.056	6684.75
910.368	6614.02
910.681	6624.19
910.994	6618.54
911.307	6553.68
911.619	6500.35
911.932	6460.35
912.244	6483.4
912.557	6438.66
912.869	6414.03
913.181	6387.59
913.494	6394.59
913.806	6325.89
914.118	6402.5
914.43	6277.53
914.742	6311.66
915.054	6256.29
915.366	6220.36
915.678	6230.53
915.99	6146.69
916.302	6136.07
916.613	6171.55
916.925	6106.69
917.236	6096.07
917.548	6080.02
917.859	6073.7
918.171	6041.61
918.482	5960.93
918.794	5921.61
919.105	5990.53
919.416	5911.44
919.727	5895.62
920.038	5876.87
920.349	5780.37
920.66	5841.61
920.971	5813.59
921.282	5776.53
921.593	5688.17
921.903	5716.64
922.214	5713.93
922.525	5672.35
922.835	5647.49
923.146	5631.22
923.456	5626.7
923.767	5588.74
924.077	5569.75
924.387	5562.52
924.697	5525.24
925.008	5535.86
925.318	5486.14
925.628	5447.27
925.938	5498.57
926.248	5436.88
926.558	5403.43
926.867	5417.89
927.177	5342.19
927.487	5345.58
927.796	5308.74
928.106	5242.98
928.416	5237.11
928.725	5228.97
929.034	5182.42
929.344	5230.1
929.653	5169.99
929.962	5111.69
930.271	5113.95
930.581	5103.55
930.89	5018.58
931.199	5061.97
931.508	5042.31
931.817	5021.75
932.125	5029.43
932.434	4969.54
932.743	4916.66
933.051	4878.02
933.36	4952.14
933.669	4869.21
933.977	4859.72
934.286	4846.84
934.594	4801.41
934.902	4775.65
935.21	4793.96
935.519	4789.66
935.827	4754.18
936.135	4708.76
936.443	4701.98
936.751	4675.77
937.059	4627.63
937.367	4672.38
937.674	4619.05
937.982	4630.34
938.29	4574.53
938.597	4563.91
938.905	4569.78
939.213	4525.49
939.52	4519.84
939.827	4483
940.135	4501.76
940.442	4412.5
940.749	4425.83
941.056	4476.22
941.363	4409.33
941.67	4365.94
941.977	4385.38
942.284	4300.86
942.591	4321.43
942.898	4288.43
943.205	4256.12
943.511	4258.6
943.818	4206.17
944.125	4240.98
944.431	4224.25
944.738	4194.65
945.044	4180.41
945.35	4132.73
945.657	4148.1
945.963	4123.92
946.269	4076.46
946.575	4093.86
946.881	4047.53
947.187	4045.73
947.493	4004.6
947.799	3992.4
948.105	3970.93
948.41	3954.88
948.716	3980.87
949.022	3895
949.327	3991.94
949.633	3885.28
949.938	3921.66
950.244	3908.1
950.549	3863.36
950.854	3820.65
951.16	3802.34
951.465	3786.3
951.77	3756.24
952.075	3772.74
952.38	3780.65
952.685	3755.79
952.99	3721.67
953.294	3727.77
953.599	3706.07
953.904	3669.92
954.209	3662.46
954.513	3680.76
954.818	3617.72
955.122	3640.54
955.426	3619.98
955.731	3545.18
956.035	3580.43
956.339	3572.97
956.643	3537.94
956.948	3542.69
957.252	3500.66
957.556	3506.08
957.86	3489.58
958.163	3516.93
958.467	3471.28
958.771	3445.06
959.075	3457.72
959.378	3443.48
959.682	3410.04
959.985	3362.13
960.289	3369.81
960.592	3381.79
960.896	3366.87
961.199	3372.52
961.502	3301.79
961.805	3292.75
962.108	3270.61
962.411	3261.57
962.714	3253.21
963.017	3233.77
963.32	3221.57
963.623	3201
963.926	3196.26
964.228	3159.87
964.531	3150.38
964.833	3165.52
965.136	3154.22
965.438	3141.34
965.741	3118.97
966.043	3083.04
966.345	3085.3
966.648	3080.78
966.95	3062.02
967.252	3092.53
967.554	3067.22
967.856	3027.22
968.158	2996.49
968.46	2992.42
968.761	3008.92
969.063	2974.79
969.365	2975.47
969.666	2937.51
969.968	2961.91
970.269	2909.94
970.571	2921.91
970.872	2913.55
971.174	2891.63
971.475	2901.12
971.776	2907.23
972.077	2863.61
972.378	2845.08
972.679	2829.49
972.98	2841.92
973.281	2812.31
973.582	2801.47
973.883	2779.55
974.183	2765.53
974.484	2773.67
974.785	2742.71
975.085	2711.07
975.386	2720.11
975.686	2720.79
975.986	2717.85
976.287	2680.11
976.587	2686.21
976.887	2684.18
977.187	2643.73
977.487	2663.39
977.787	2643.73
978.087	2617.29
978.387	2600.12
978.687	2609.61
978.987	2593.79
979.286	2581.58
979.586	2574.81
979.885	2536.16
980.185	2541.36
980.484	2525.99
980.784	2484.64
981.083	2492.77
981.382	2506.33
981.682	2482.38
981.981	2499.1
982.28	2450.74
982.579	2455.03
982.878	2457.07
983.177	2396.5
983.475	2419.1
983.774	2393.34
984.073	2399.67
984.372	2394.24
984.67	2400.12
984.969	2342.49
985.267	2372.1
985.566	2348.82
985.864	2338.88
986.162	2329.39
986.461	2308.37
986.759	2342.49
987.057	2282.38
987.355	2313.12
987.653	2294.36
987.951	2286.23
988.249	2279.22
988.547	2261.59
988.844	2224.53
989.142	2267.24
989.44	2240.8
989.737	2179.34
990.035	2207.13
990.332	2162.61
990.63	2201.93
990.927	2174.82
991.224	2154.93
991.521	2159.22
991.819	2135.95
992.116	2130.3
992.413	2116.96
992.71	2115.38
993.006	2104.08
993.303	2093.46
993.6	2112.9
993.897	2077.87
994.193	2067.02
994.49	2048.04
994.787	2066.34
995.083	2049.4
995.379	2029.96
995.676	2026.8
995.972	1989.06
996.268	2024.31
996.565	1988.61
996.861	1957.42
997.157	1956.52
997.453	1960.81
997.749	1944.77
998.044	1911.55
998.34	1933.92
998.636	1931.43
998.932	1926.01
999.227	1878.55
999.523	1899.57
999.818	1909.51
1000.114	1874.03
1000.409	1856.18
1000.704	1852.34
1001	1847.82
1001.295	1817.54
1001.59	1849.85
1001.885	1804.66
1002.18	1828.38
1002.475	1790.42
1002.77	1783.19
1003.065	1787.26
1003.359	1755.39
1003.654	1749.06
1003.949	1735.73
1004.243	1749.97
1004.538	1742.06
1004.832	1723.08
1005.127	1682.4
1005.421	1710.2
1005.715	1692.34
1006.009	1669.29
1006.304	1683.76
1006.598	1644.66
1006.892	1645.56
1007.186	1648.5
1007.48	1650.08
1007.773	1645.79
1008.067	1625.9
1008.361	1622.74
1008.655	1617.99
1008.948	1603.76
1009.242	1581.16
1009.535	1569.63
1009.829	1575.28
1010.122	1554.94
1010.415	1559.69
1010.708	1530.31
1011.001	1535.51
1011.295	1501.84
1011.588	1552.69
1011.881	1526.92
1012.173	1495.51
1012.466	1484.21
1012.759	1480.37
1013.052	1510.2
1013.344	1473.59
1013.637	1468.39
1013.93	1471.11
1014.222	1456.42
1014.514	1448.06
1014.807	1421.62
1015.099	1407.6
1015.391	1396.08
1015.683	1413.25
1015.976	1421.39
1016.268	1385.23
1016.56	1392.46
1016.851	1391.56
1017.143	1342.97
1017.435	1358.57
1017.727	1354.95
1018.018	1334.39
1018.31	1312.92
1018.602	1335.06
1018.893	1309.08
1019.185	1292.13
1019.476	1297.32
1019.767	1296.87
1020.058	1286.03
1020.35	1250.77
1020.641	1288.51
1020.932	1254.61
1021.223	1229.98
1021.514	1238.8
1021.804	1216.2
1022.095	1225.46
1022.386	1240.38
1022.677	1214.39
1022.967	1205.35
1023.258	1185.92
1023.548	1182.07
1023.839	1172.81
1024.129	1197.67
1024.419	1158.35
1024.709	1147.95
1025	1154.28
1025.29	1131.23
1025.58	1135.75
1025.87	1139.59
1026.16	1105.92
1026.449	1121.06
1026.739	1098.69
1027.029	1116.09
1027.319	1101.62
1027.608	1090.1
1027.898	1091.91
1028.187	1086.03
1028.477	1054.85
1028.766	1056.43
1029.055	1087.39
1029.344	1055.98
1029.634	1049.2
1029.923	1041.51
1030.212	1034.51
1030.501	1031.34
1030.79	1027.05
1031.078	1023.66
1031.367	1009.2
1031.656	999.71
1031.945	988.41
1032.233	979.14
1032.522	989.76
1032.81	952.93
1033.099	966.03
1033.387	968.75
1033.675	982.98
1033.963	949.99
1034.251	952.93
1034.54	941.63
1034.828	940.95
1035.116	937.11
1035.403	935.53
1035.691	908.18
1035.979	927.84
1036.267	926.26
1036.554	895.53
1036.842	897.79
1037.129	893.49
1037.417	907.96
1037.704	878.58
1037.992	881.06
1038.279	860.5
1038.566	863.44
1038.853	863.44
1039.14	863.44
