Data from hue_90_FLMS001491_73.txt Node
Date: Mon Feb 06 15:25:37 GMT 2017
User: dcchb
Spectrometer: FLMS00149
Trigger mode: 0
Integration Time (sec): 2.000000E-2
Scans to average: 10
Electric dark correction enabled: true
Nonlinearity correction enabled: false
Boxcar width: 0
XAxis mode: Wavelengths
Number of Pixels in Spectrum: 2048
>>>>>Begin Spectral Data<<<<<
341.393	-23.18
341.776	-23.18
342.16	-23.18
342.543	-69.28
342.927	-67.92
343.31	-51.65
343.693	-51.88
344.077	-60.46
344.46	-79.22
344.843	-58.66
345.226	-31.09
345.61	-28.15
345.993	-41.93
346.376	-7.13
346.759	30.38
347.142	30.83
347.525	24.73
347.908	44.62
348.291	85.07
348.674	83.49
349.057	111.06
349.44	121.23
349.823	133.65
350.206	174.78
350.588	204.84
350.971	212.52
351.354	220.21
351.737	246.65
352.119	249.81
352.502	257.04
352.884	285.29
353.267	272.63
353.65	285.74
354.032	282.58
354.414	291.62
354.797	323.25
355.179	333.88
355.562	315.12
355.944	321.67
356.326	335.23
356.709	336.36
357.091	339.52
357.473	325.06
357.855	335.46
358.238	328.23
358.62	332.29
359.002	338.62
359.384	334.78
359.766	322.58
360.148	343.82
360.53	355.12
360.912	325.74
361.294	333.42
361.676	319.86
362.057	332.07
362.439	337.27
362.821	316.02
363.203	325.06
363.584	342.46
363.966	327.32
364.348	328.9
364.729	328.68
365.111	326.87
365.493	318.96
365.874	318.06
366.256	309.24
366.637	312.86
367.019	301.11
367.4	309.24
367.781	316.7
368.163	311.28
368.544	328.45
368.925	297.94
369.306	316.02
369.688	304.27
370.069	308.34
370.45	292.97
370.831	312.63
371.212	311.73
371.593	299.53
371.974	323.48
372.355	327.32
372.736	329.36
373.117	319.41
373.498	311.05
373.879	297.94
374.26	303.59
374.641	321.9
375.021	311.73
375.402	309.47
375.783	298.4
376.163	310.37
376.544	303.59
376.925	334.78
377.305	313.99
377.686	336.14
378.066	318.96
378.447	310.15
378.827	328.23
379.208	317.15
379.588	337.04
379.968	342.46
380.349	314.67
380.729	334.78
381.109	349.02
381.489	321.45
381.87	331.84
382.25	305.4
382.63	346.3
383.01	359.41
383.39	341.11
383.77	354.89
384.15	348.11
384.53	351.28
384.91	339.52
385.29	347.43
385.67	340.43
386.049	363.48
386.429	332.29
386.809	347.43
387.189	353.76
387.568	368
387.948	366.42
388.328	339.75
388.707	351.05
389.087	352.63
389.466	343.82
389.846	347.21
390.225	373.2
390.605	381.78
390.984	363.93
391.363	353.54
391.743	368.45
392.122	377.04
392.501	376.13
392.881	368.68
393.26	358.96
393.639	373.65
394.018	349.47
394.397	378.85
394.776	385.85
395.155	372.29
395.534	362.8
395.913	392.86
396.292	373.42
396.671	389.24
397.05	382.69
397.429	385.4
397.808	388.79
398.186	381.33
398.565	380.43
398.944	368
399.323	377.94
399.701	398.05
400.08	408
400.458	413.2
400.837	398.73
401.215	388.11
401.594	390.6
401.972	400.77
402.351	424.72
402.729	406.87
403.107	396.47
403.486	428.34
403.864	422.01
404.242	418.84
404.62	409.81
404.999	415.23
405.377	408
405.755	398.05
406.133	405.06
406.511	427.21
406.889	414.55
407.267	428.56
407.645	436.47
408.023	435.79
408.401	440.54
408.779	437.6
409.156	450.03
409.534	453.87
409.912	436.25
410.29	432.4
410.667	451.16
411.045	426.75
411.422	464.95
411.8	455.68
412.178	456.36
412.555	465.4
412.933	479.63
413.31	477.37
413.687	462.91
414.065	472.85
414.442	475.34
414.819	475.79
415.197	484.83
415.574	508.56
415.951	517.83
416.328	489.13
416.705	511.5
417.082	517.37
417.46	501.55
417.837	504.72
418.214	504.49
418.591	528.9
418.967	523.02
419.344	515.79
419.721	512.63
420.098	522.57
420.475	536.36
420.852	532.51
421.228	527.99
421.605	521.44
421.982	532.74
422.358	533.87
422.735	567.54
423.111	554.89
423.488	564.38
423.864	553.53
424.241	581.78
424.617	555.79
424.994	565.73
425.37	557.82
425.746	568.45
426.123	566.86
426.499	583.36
426.875	581.1
427.251	595.56
427.627	581.33
428.003	579.07
428.379	601.21
428.756	624.94
429.132	617.48
429.507	619.29
429.883	645.96
430.259	624.94
430.635	639.63
431.011	626.07
431.387	622.46
431.763	660.65
432.138	646.86
432.514	640.76
432.89	648.22
433.265	664.94
433.641	692.96
434.016	682.57
434.392	686.41
434.767	700.42
435.143	692.51
435.518	690.48
435.894	703.13
436.269	735.22
436.644	736.12
437.02	716.24
437.395	728.67
437.77	725.5
438.145	750.14
438.52	735.22
438.895	738.61
439.271	751.27
439.646	764.6
440.021	766.41
440.395	754.88
440.77	778.16
441.145	768.67
441.52	777.93
441.895	773.19
442.27	791.94
442.645	784.49
443.019	808.89
443.394	787.42
443.769	814.99
444.143	788.33
444.518	817.48
444.892	829.91
445.267	844.37
445.641	837.36
446.016	832.85
446.39	843.01
446.764	828.33
447.139	841.21
447.513	856.35
447.887	877.82
448.262	864.48
448.636	852.96
449.01	888.21
449.384	883.69
449.758	871.04
450.132	898.61
450.506	891.15
450.88	913.75
451.254	910.36
451.628	927.98
452.002	937.25
452.376	920.07
452.75	940.41
453.123	966.85
453.497	947.87
453.871	965.05
454.244	987.87
454.618	979.06
454.992	1017.47
455.365	993.29
455.739	1022.67
456.112	1038.49
456.486	1042.56
456.859	1053.4
457.232	1091.14
457.606	1078.26
457.979	1059.51
458.352	1107.41
458.725	1113.52
459.099	1139.28
459.472	1139.96
459.845	1143.8
460.218	1159.39
460.591	1154.19
460.964	1180.86
461.337	1238.71
461.71	1211.59
462.083	1252.72
462.456	1235.09
462.829	1252.04
463.201	1271.93
463.574	1260.63
463.947	1303.79
464.32	1299.73
464.692	1344.24
465.065	1357.35
465.438	1399.61
465.81	1397.12
466.183	1398.71
466.555	1445.94
466.928	1452.26
467.3	1434.41
467.672	1489.33
468.045	1544.92
468.417	1541.53
468.789	1561.41
469.161	1594.18
469.534	1587.18
469.906	1644.35
470.278	1621.3
470.65	1664.69
471.022	1733.16
471.394	1760.73
471.766	1752.14
472.138	1793.27
472.51	1874.63
472.882	1893.83
473.253	1885.92
473.625	1937.22
473.997	1986.94
474.369	2013.38
474.74	2045.92
475.112	2104.45
475.484	2172.7
475.855	2207.5
476.227	2233.26
476.598	2306.48
476.97	2355.52
477.341	2425.35
477.713	2466.47
478.084	2483.42
478.455	2593.03
478.827	2669.63
479.198	2755.96
479.569	2789.4
479.94	2878.44
480.311	2949.63
480.682	2990.75
481.053	3115.27
481.424	3191.88
481.795	3243.18
482.166	3302.61
482.537	3447.69
482.908	3572.21
483.279	3570.17
483.65	3687.46
484.021	3792.32
484.391	3931.29
484.762	3947.11
485.133	4056.72
485.503	4135.58
485.874	4271.62
486.244	4353.88
486.615	4500.77
486.985	4607.21
487.356	4725.85
487.726	4783.93
488.097	4956.8
488.467	5044.26
488.837	5106.63
489.207	5240.64
489.578	5421.43
489.948	5562.66
490.318	5647.18
490.688	5742.77
491.058	5869.78
491.428	6036.1
491.798	6076.55
492.168	6293.72
492.538	6370.55
492.908	6506.82
493.278	6590.21
493.648	6723.99
494.017	6844.21
494.387	6985.45
494.757	7069.29
495.126	7211.89
495.496	7334.14
495.866	7403.52
496.235	7556.28
496.605	7640.35
496.974	7735.94
497.344	7867.91
497.713	7907.46
498.082	8063.62
498.452	8177.28
498.821	8282.37
499.19	8320.11
499.559	8475.58
499.928	8538.86
500.298	8582.92
500.667	8698.63
501.036	8794.44
501.405	8921.9
501.774	8906.98
502.143	9053.19
502.512	9146.3
502.88	9255
503.249	9334.77
503.618	9387.65
503.987	9474.43
504.356	9500.41
504.724	9631.26
505.093	9690.01
505.462	9740.63
505.83	9834.42
506.199	9849.33
506.567	10040.74
506.936	10013.17
507.304	10170.45
507.672	10133.17
508.041	10259.49
508.409	10381.52
508.777	10437.56
509.145	10486.83
509.514	10447.28
509.882	10610.89
510.25	10626.49
510.618	10691.12
510.986	10769.08
511.354	10776.31
511.722	10935.4
512.09	10969.08
512.458	10976.76
512.826	11051.11
513.193	11023.09
513.561	11121.84
513.929	11180.14
514.297	11236.19
514.664	11312.34
515.032	11352.34
515.4	11478.89
515.767	11428.27
516.135	11476.86
516.502	11361.61
516.869	11596.86
517.237	11564.99
517.604	11515.05
517.972	11671.43
518.339	11735.84
518.706	11698.55
519.073	11692.9
519.44	11785.33
519.808	11855.83
520.175	11857.19
520.542	11929.05
520.909	11970.86
521.276	11935.83
521.643	12106
522.009	12139.21
522.376	12150.06
522.743	12164.98
523.11	12265.09
523.477	12291.75
523.843	12310.51
524.21	12410.85
524.577	12418.53
524.943	12453.56
525.31	12484.29
525.676	12447.91
526.043	12524.52
526.409	12580.56
526.776	12639.77
527.142	12595.7
527.508	12674.79
527.874	12695.36
528.241	12716.83
528.607	12704.4
528.973	12757.5
529.339	12707.56
529.705	12804.06
530.071	12884.96
530.437	12853.09
530.803	12965.41
531.169	12790.95
531.535	12821.68
531.901	12873.43
532.267	12874.11
532.632	12955.01
532.998	12895.8
533.364	12856.94
533.73	12860.33
534.095	12917.27
534.461	12852.19
534.826	12852.87
535.192	12884.05
535.557	12894.45
535.923	12836.37
536.288	12850.83
536.653	12904.39
537.019	12834.79
537.384	12798.18
537.749	12818.52
538.114	12768.58
538.479	12774.45
538.845	12783.04
539.21	12741.01
539.575	12734
539.94	12673.44
540.305	12745.07
540.67	12595.47
541.034	12592.08
541.399	12694.45
541.764	12643.16
542.129	12594.34
542.494	12500.34
542.858	12591.63
543.223	12442.03
543.587	12570.39
543.952	12488.58
544.316	12508.92
544.681	12458.98
545.045	12477.74
545.41	12438.42
545.774	12396.16
546.138	12386.89
546.503	12429.38
546.867	12302.83
547.231	12359.55
547.595	12330.85
547.959	12273.9
548.324	12292.66
548.688	12237.29
549.052	12234.35
549.416	12192.32
549.779	12169.04
550.143	12112.32
550.507	12197.07
550.871	12157.07
551.235	12063.06
551.599	12088.82
551.962	12099.22
552.326	12056.73
552.689	12048.37
553.053	12000.24
553.417	11957.3
553.78	12017.86
554.143	11938.32
554.507	11988.94
554.87	12038.88
555.234	12046.11
555.597	11951.42
555.96	11927.47
556.323	11938.77
556.686	11939.67
557.05	11996.39
557.413	11894.93
557.776	11894.48
558.139	11930.63
558.502	11886.11
558.865	11872.1
559.228	11923.85
559.59	11937.64
559.953	11905.77
560.316	12024.19
560.679	11942.16
561.041	11969.5
561.404	11999.33
561.767	12024.42
562.129	12057.63
562.492	12071.19
562.854	12023.96
563.217	12048.37
563.579	11982.61
563.941	12057.41
564.304	12070.06
564.666	12069.84
565.028	12119.78
565.39	12054.92
565.753	12088.37
566.115	12154.13
566.477	12107.58
566.839	12080.46
567.201	12171.08
567.563	12156.16
567.925	12254.92
568.287	12308.02
568.648	12277.74
569.01	12232.09
569.372	12317.97
569.734	12209.95
570.095	12265.99
570.457	12434.12
570.819	12358.19
571.18	12376.04
571.542	12390.73
571.903	12428.7
572.265	12411.52
572.626	12485.19
572.987	12453.1
573.349	12418.08
573.71	12380.34
574.071	12454.46
574.432	12430.73
574.794	12572.2
575.155	12525.19
575.516	12458.75
575.877	12491.97
576.238	12530.39
576.599	12566.1
576.96	12503.95
577.32	12552.54
577.681	12559.32
578.042	12557.06
578.403	12538.07
578.763	12556.6
579.124	12522.48
579.485	12593.21
579.845	12664.17
580.206	12607.45
580.566	12499.66
580.927	12522.26
581.287	12571.75
581.648	12595.93
582.008	12649.26
582.368	12542.14
582.728	12611.52
583.089	12503.95
583.449	12546.21
583.809	12521.58
584.169	12549.6
584.529	12514.35
584.889	12601.58
585.249	12621.69
585.609	12449.49
585.969	12636.83
586.329	12532.2
586.688	12546.66
587.048	12470.05
587.408	12517.28
587.768	12444.52
588.127	12492.43
588.487	12392.54
588.846	12511.41
589.206	12397.96
589.565	12420.11
589.925	12478.41
590.284	12469.15
590.643	12515.25
591.003	12484.97
591.362	12500.11
591.721	12368.14
592.08	12483.84
592.44	12525.65
592.799	12434.57
593.158	12400.9
593.517	12430.73
593.876	12478.87
594.235	12433.67
594.593	12429.6
594.952	12352.77
595.311	12379.43
595.67	12374.01
596.029	12429.38
596.387	12386.67
596.746	12388.93
597.104	12385.76
597.463	12360.9
597.822	12364.97
598.18	12277.52
598.538	12308.7
598.897	12366.1
599.255	12312.32
599.613	12428.92
599.972	12274.35
600.33	12396.38
600.688	12317.52
601.046	12433.9
601.404	12436.83
601.762	12357.74
602.12	12428.02
602.478	12373.78
602.836	12393.45
603.194	12352.32
603.552	12358.64
603.91	12316.84
604.268	12340.57
604.625	12312.09
604.983	12351.64
605.341	12345.99
605.698	12352.77
606.056	12371.07
606.413	12323.16
606.771	12373.78
607.128	12357.74
607.485	12351.41
607.843	12338.76
608.2	12443.16
608.557	12436.16
608.914	12398.42
609.272	12449.26
609.629	12470.28
609.986	12453.1
610.343	12417.63
610.7	12548.47
611.057	12492.65
611.414	12475.93
611.771	12482.71
612.127	12511.86
612.484	12518.64
612.841	12643.38
613.198	12592.76
613.554	12513.22
613.911	12610.84
614.267	12587.56
614.624	12499.43
614.98	12593.89
615.337	12644.51
615.693	12669.37
616.05	12621.24
616.406	12619.2
616.762	12642.48
617.118	12664.4
617.475	12573.1
617.831	12581.46
618.187	12681.8
618.543	12653.78
618.899	12723.15
619.255	12736.04
619.611	12644.96
619.967	12780.1
620.323	12794.11
620.678	12717.28
621.034	12670.95
621.39	12610.39
621.746	12700.33
622.101	12779.65
622.457	12744.4
622.812	12816.71
623.168	12745.07
623.523	12735.58
623.879	12805.41
624.234	12678.18
624.589	12675.25
624.945	12725.41
625.3	12756.83
625.655	12720.67
626.01	12695.13
626.365	12782.81
626.72	12696.94
627.075	12670.05
627.43	12704.62
627.785	12712.53
628.14	12755.7
628.495	12711.63
628.85	12712.76
629.205	12646.77
629.559	12762.02
629.914	12615.59
630.269	12651.29
630.623	12613.33
630.978	12645.42
631.332	12653.1
631.687	12657.39
632.041	12574.68
632.396	12601.12
632.75	12555.25
633.104	12561.58
633.459	12486.78
633.813	12492.43
634.167	12525.19
634.521	12503.5
634.875	12484.06
635.229	12520
635.583	12365.2
635.937	12404.97
636.291	12400.9
636.645	12368.81
636.999	12397.96
637.352	12414.46
637.706	12350.51
638.06	12360.45
638.413	12397.51
638.767	12357.29
639.121	12374.46
639.474	12292.88
639.828	12273.45
640.181	12266.89
640.534	12312.54
640.888	12221.7
641.241	12143.96
641.594	12245.65
641.947	12299.66
642.301	12256.05
642.654	12161.81
643.007	12197.52
643.36	12337.4
643.713	12154.36
644.066	12266.22
644.419	12152.1
644.771	12007.69
645.124	12016.05
645.477	11937.19
645.83	11906.68
646.182	11808.38
646.535	11831.65
646.888	11772.44
647.24	11727.93
647.593	11806.12
647.945	11849.28
648.298	11716.17
648.65	11682.73
649.002	11718.21
649.355	11733.12
649.707	11718.89
650.059	11718.66
650.411	11907.36
650.763	11998.43
651.115	12100.57
651.467	12028.94
651.819	11974.47
652.171	12040.01
652.523	11961.59
652.875	11991.87
653.227	11950.75
653.578	12052.89
653.93	11994.13
654.282	11928.6
654.633	11977.64
654.985	11881.82
655.337	11971.54
655.688	11958.65
656.039	11962.27
656.391	11937.86
656.742	11975.38
657.094	11961.59
657.445	12032.32
657.796	11978.54
658.147	11951.2
658.498	11937.64
658.849	11999.78
659.2	12012.89
659.551	11900.35
659.902	11909.39
660.253	11943.29
660.604	11998.65
660.955	11959.33
661.306	12026
661.656	11983.51
662.007	12000.69
662.358	12000.01
662.708	12006.79
663.059	12030.52
663.409	11853.35
663.76	12030.52
664.11	11991.87
664.461	12049.95
664.811	12064.19
665.161	12089.27
665.511	12017.41
665.862	12040.91
666.212	12020.8
666.562	11955.49
666.912	11895.61
667.262	12042.49
667.612	11944.19
667.962	12024.64
668.312	11968.37
668.662	12034.36
669.011	12032.78
669.361	11997.75
669.711	11925.89
670.06	11920.01
670.41	11959.78
670.76	11904.87
671.109	12004.08
671.459	11937.19
671.808	11997.3
672.157	11906.68
672.507	11839.11
672.856	11792.11
673.205	11891.31
673.554	11940.35
673.904	11889.28
674.253	11944.19
674.602	11926.79
674.951	11697.87
675.3	11641.37
675.649	11804.76
675.998	11837.08
676.346	11807.47
676.695	11851.54
677.044	11790.07
677.393	11842.05
677.741	11837.75
678.09	11714.59
678.438	11709.85
678.787	11783.29
679.135	11729.96
679.484	11697.64
679.832	11710.75
680.181	11616.06
680.529	11685.22
680.877	11691.09
681.225	11644.99
681.573	11677.53
681.922	11660.36
682.27	11543.3
682.618	11523.64
682.966	11538.78
683.314	11565.44
683.661	11499.91
684.009	11436.41
684.357	11401.61
684.705	11476.86
685.053	11412.91
685.4	11421.49
685.748	11299.24
686.095	11278.67
686.443	11285
686.79	11359.35
687.138	11309.18
687.485	11234.83
687.832	11212.01
688.18	11205
688.527	11139.47
688.874	11188.05
689.221	11153.7
689.568	11060.6
689.915	10986.48
690.262	11042.29
690.609	10991.9
690.956	10942.64
691.303	10920.72
691.65	10874.62
691.997	10802.3
692.344	10759.59
692.69	10851.79
693.037	10792.13
693.383	10699.48
693.73	10744.22
694.077	10711.68
694.423	10587.39
694.769	10612.93
695.116	10592.81
695.462	10537.67
695.808	10496.32
696.155	10585.58
696.501	10517.79
696.847	10427.62
697.193	10379.26
697.539	10361.86
697.885	10274.4
698.231	10210
698.577	10203.22
698.923	10189.66
699.269	10119.83
699.614	10179.04
699.96	10103.56
700.306	10074.18
700.651	10062.43
700.997	9960.51
701.342	9951.93
701.688	9931.59
702.033	9871.93
702.379	9840.97
702.724	9800.07
703.069	9820.41
703.415	9743.12
703.76	9730.01
704.105	9731.82
704.45	9678.49
704.795	9574.31
705.14	9611.15
705.485	9566.4
705.83	9510.58
706.175	9567.3
706.52	9520.53
706.865	9443.69
707.209	9463.58
707.554	9379.51
707.899	9431.72
708.243	9359.4
708.588	9389.46
708.932	9218.16
709.277	9301.78
709.621	9272.62
709.966	9214.09
710.31	9213.42
710.654	9133.42
710.998	9141.33
711.342	9190.37
711.687	9090.93
712.031	9007.32
712.375	9054.55
712.719	9012.29
713.063	9014.1
713.407	9055.23
713.75	9021.78
714.094	8992.18
714.438	8928.23
714.782	8970.03
715.125	8886.19
715.469	8953.31
715.812	8866.53
716.156	8802.58
716.499	8877.83
716.843	8870.6
717.186	8853.88
717.53	8768.23
717.873	8858.4
718.216	8840.54
718.559	8747.44
718.902	8714.9
719.246	8741.56
719.589	8687.1
719.932	8640.1
720.275	8674.67
720.617	8726.2
720.96	8663.6
721.303	8646.2
721.646	8639.19
721.989	8613.66
722.331	8660.44
722.674	8664.05
723.016	8589.48
723.359	8596.03
723.701	8555.35
724.044	8516.49
724.386	8582.47
724.729	8508.58
725.071	8511.74
725.413	8443.72
725.755	8532.08
726.097	8474.9
726.439	8439.88
726.782	8427.45
727.124	8497.28
727.465	8469.25
727.807	8524.17
728.149	8434.45
728.491	8415.7
728.833	8490.72
729.175	8342.7
729.516	8449.37
729.858	8397.84
730.199	8439.2
730.541	8438.52
730.882	8443.04
731.224	8439.42
731.565	8382.93
731.906	8425.64
732.248	8357.17
732.589	8415.92
732.93	8389.48
733.271	8386.77
733.612	8368.92
733.953	8423.15
734.294	8355.81
734.635	8354.91
734.976	8385.87
735.317	8348.81
735.658	8349.26
735.999	8380.22
736.339	8311.74
736.68	8396.71
737.021	8334.57
737.361	8323.72
737.702	8438.52
738.042	8346.55
738.383	8434.23
738.723	8400.1
739.063	8423.38
739.404	8440.78
739.744	8410.27
740.084	8441.91
740.424	8402.59
740.764	8390.61
741.104	8482.14
741.444	8456.15
741.784	8466.54
742.124	8456.37
742.464	8446.2
742.804	8485.07
743.143	8498.63
743.483	8486.88
743.823	8509.25
744.162	8527.33
744.502	8522.36
744.841	8592.19
745.181	8605.75
745.52	8564.17
745.86	8665.41
746.199	8652.98
746.538	8644.39
746.877	8759.87
747.216	8828.57
747.556	8747.89
747.895	8872.86
748.234	8882.35
748.573	8899.75
748.911	8943.82
749.25	9043.93
749.589	8996.47
749.928	9149.69
750.267	9173.64
750.605	9279.18
750.944	9262.68
751.283	9283.7
751.621	9492.5
751.96	9516.46
752.298	9552.16
752.636	9630.81
752.975	9630.81
753.313	9744.02
753.651	9934.07
753.989	9905.15
754.327	10041.42
754.666	10024.92
755.004	10202.77
755.342	10385.36
755.679	10425.59
756.017	10479.82
756.355	10645.69
756.693	10797.33
757.031	10754.62
757.368	10917.1
757.706	10988.28
758.044	11146.7
758.381	11232.8
758.719	11403.41
759.056	11576.29
759.394	11634.82
759.731	11768.38
760.068	11900.35
760.405	12083.85
760.743	12170.4
761.08	12359.55
761.417	12454.46
761.754	12479.32
762.091	12641.12
762.428	12823.04
762.765	12797.5
763.102	13152.97
763.438	13201.56
763.775	13289.69
764.112	13406.53
764.449	13640.87
764.785	13702.56
765.122	13689.91
765.458	13879.28
765.795	14012.61
766.131	14167.64
766.467	14234.98
766.804	14352.04
767.14	14403.56
767.476	14495.99
767.812	14568.53
768.148	14808.52
768.485	14778.02
768.821	14804.68
769.157	14950.44
769.492	15105.69
769.828	15210.32
770.164	15189.3
770.5	15234.27
770.836	15381.16
771.171	15442.4
771.507	15564.44
771.842	15452.8
772.178	15600.37
772.513	15751.1
772.849	15776.63
773.184	15757.42
773.519	15822.96
773.855	15817.99
774.19	15959.45
774.525	15957.19
774.86	16046.91
775.195	16055.27
775.53	16138.88
775.865	16091.88
776.2	16088.94
776.535	16085.1
776.87	16134.36
777.205	16170.3
777.539	16169.84
777.874	16243.51
778.209	16224.31
778.543	16186.79
778.878	16248.03
779.212	16310.4
779.547	16211.88
779.881	16306.11
780.215	16171.65
780.55	16311.31
780.884	16288.03
781.218	16278.77
781.552	16314.7
781.886	16214.36
782.22	16318.09
782.554	16312.89
782.888	16131.65
783.222	16165.32
783.556	16160.8
783.889	16071.09
784.223	16090.52
784.557	16096.85
784.89	16152.67
785.224	16111.99
785.557	16074.48
785.891	16046.91
786.224	15971.2
786.558	16084.42
786.891	15945.22
787.224	15841.72
787.557	15873.58
787.891	15936.4
788.224	15888.49
788.557	15910.19
788.89	15903.18
789.223	15922.84
789.556	15820.7
789.888	15786.35
790.221	15778.22
790.554	15588.39
790.887	15750.87
791.219	15636.75
791.552	15613.02
791.884	15569.63
792.217	15540.71
792.549	15523.08
792.882	15367.6
793.214	15424.33
793.546	15390.65
793.879	15384.55
794.211	15259.36
794.543	15406.47
794.875	15267.27
795.207	15364.89
795.539	15230.21
795.871	15295.06
796.203	15191.34
796.535	15089.42
796.867	15039.25
797.198	15034.05
797.53	15016.65
797.862	14933.49
798.193	14996.09
798.525	14835.42
798.856	14918.35
799.188	14797
799.519	14776.89
799.85	14666.38
800.182	14717
800.513	14674.29
800.844	14600.84
801.175	14624.57
801.506	14571.02
801.837	14515.88
802.168	14547.74
802.499	14440.62
802.83	14457.57
803.161	14295.54
803.491	14468.87
803.822	14434.3
804.153	14259.61
804.483	14174.64
804.814	14172.83
805.145	14136.22
805.475	14108.2
805.805	14100.52
806.136	14064.14
806.466	14124.7
806.796	14089.45
807.126	13929.45
807.457	13834.76
807.787	13959.05
808.117	13837.48
808.447	13812.39
808.777	13855.78
809.107	13777.36
809.436	13744.82
809.766	13784.82
810.096	13764.26
810.426	13647.65
810.755	13707.99
811.085	13638.38
811.414	13552.96
811.744	13533.3
812.073	13533.53
812.403	13545.51
812.732	13438.84
813.061	13364.27
813.39	13351.39
813.719	13314.78
814.049	13422.34
814.378	13305.96
814.707	13339.18
815.036	13296.25
815.365	13220.32
815.693	13104.61
816.022	13179.64
816.351	13065.52
816.68	13058.06
817.008	13069.59
817.337	12971.51
817.665	12974.22
817.994	12990.04
818.322	13023.71
818.651	12939.65
818.979	12869.59
819.307	12948.01
819.636	12881.34
819.964	12858.07
820.292	12863.26
820.62	12871.4
820.948	12798.18
821.276	12826.2
821.604	12831.17
821.932	12768.58
822.259	12834.56
822.587	12852.87
822.915	12758.63
823.243	12810.61
823.57	12715.92
823.898	12803.38
824.225	12743.04
824.553	12779.42
824.88	12796.37
825.207	12798.86
825.535	12781.46
825.862	12781.01
826.189	12757.96
826.516	12824.85
826.843	12886.54
827.17	12927.89
827.497	12903.04
827.824	12836.37
828.151	12978.97
828.478	12832.76
828.805	12880.66
829.131	12816.26
829.458	12692.87
829.785	12800.67
830.111	12811.51
830.438	12858.97
830.764	12759.99
831.09	12855.35
831.417	12697.84
831.743	12748.01
832.069	12783.72
832.395	12783.27
832.722	12730.84
833.048	12699.43
833.374	12712.76
833.7	12745.53
834.026	12757.5
834.351	12751.85
834.677	12681.8
835.003	12721.57
835.329	12620.78
835.654	12666.21
835.98	12646.09
836.306	12623.95
836.631	12635.02
836.956	12631.18
837.282	12591.63
837.607	12524.74
837.932	12593.67
838.258	12486.1
838.583	12561.35
838.908	12407.23
839.233	12475.03
839.558	12465.76
839.883	12402.03
840.208	12425.31
840.533	12390.73
840.858	12413.11
841.182	12316.84
841.507	12351.19
841.832	12280.45
842.156	12268.48
842.481	12261.47
842.805	12224.18
843.13	12204.07
843.454	12183.28
843.778	12192.32
844.103	12095.15
844.427	12042.95
844.751	12091.53
845.075	12000.24
845.399	11993.68
845.723	11933.8
846.047	11868.49
846.371	11833.69
846.695	11877.07
847.019	11692.67
847.343	11693.8
847.666	11689.74
847.99	11574.26
848.313	11656.29
848.637	11510.08
848.96	11490.19
849.284	11412.23
849.607	11450.87
849.931	11387.14
850.254	11291.78
850.577	11271.67
850.9	11189.64
851.223	11113.48
851.546	11072.58
851.869	11026.25
852.192	11078.68
852.515	10970.21
852.838	10925.46
853.161	10869.64
853.483	10894.73
853.806	10829.87
854.129	10755.52
854.451	10786.03
854.774	10683.89
855.096	10734.28
855.419	10653.38
855.741	10725.47
856.063	10508.75
856.385	10473.04
856.708	10477.56
857.03	10491.57
857.352	10446.6
857.674	10441.63
857.996	10423.33
858.318	10322.31
858.64	10351.69
858.961	10299.26
859.283	10271.02
859.605	10235.54
859.926	10208.64
860.248	10176.78
860.57	10257
860.891	10229.66
861.212	10143.79
861.534	10093.62
861.855	10125.03
862.176	10099.72
862.498	10070.12
862.819	10113.28
863.14	10019.27
863.461	10006.16
863.782	9937.69
864.103	9961.87
864.424	9994.64
864.745	9996.9
865.065	9961.42
865.386	9882.78
865.707	9854.3
866.027	9863.12
866.348	9767.3
866.668	9844.36
866.989	9723.01
867.309	9758.71
867.63	9858.14
867.95	9763.68
868.27	9726.4
868.59	9736.57
868.91	9697.7
869.23	9760.07
869.55	9614.76
869.87	9711.03
870.19	9634.2
870.51	9682.33
870.83	9639.85
871.15	9552.39
871.469	9556.23
871.789	9605.27
872.109	9573.18
872.428	9412.96
872.748	9563.92
873.067	9494.76
873.386	9490.7
873.706	9472.84
874.025	9426.74
874.344	9396.46
874.663	9379.51
874.982	9407.76
875.301	9367.31
875.62	9400.08
875.939	9342.68
876.258	9276.01
876.577	9372.73
876.896	9312.17
877.214	9306.75
877.533	9273.3
877.852	9232.62
878.17	9279.4
878.489	9280.31
878.807	9205.51
879.125	9190.37
879.444	9189.91
879.762	9134.55
880.08	9191.95
880.398	9110.37
880.716	9236.69
881.034	9121.89
881.352	9161.67
881.67	9087.09
881.988	9057.04
882.306	9043.7
882.624	9013.42
882.941	8985.17
883.259	8948.11
883.577	8942.46
883.894	8924.84
884.212	8881.22
884.529	8884.84
884.846	8797.16
885.164	8875.12
885.481	8814.1
885.798	8863.14
886.115	8761.45
886.432	8818.4
886.75	8736.14
887.067	8779.3
887.383	8672.87
887.7	8674.67
888.017	8617.27
888.334	8672.19
888.651	8629.02
888.967	8528.91
889.284	8582.02
889.6	8530.04
889.917	8492.53
890.233	8544.73
890.55	8427.45
890.866	8530.27
891.182	8408.01
891.498	8400.1
891.815	8385.64
892.131	8316.49
892.447	8296.6
892.763	8347.45
893.079	8317.85
893.395	8211.18
893.71	8265.19
894.026	8232.42
894.342	8216.83
894.657	8148.13
894.973	8087.8
895.289	8066.1
895.604	8071.75
895.92	8052.09
896.235	8017.29
896.55	7988.14
896.865	8015.93
897.181	7953.56
897.496	7965.09
897.811	7924.18
898.126	7874.47
898.441	7873.56
898.756	7832.21
899.071	7759.22
899.386	7747.24
899.7	7758.31
900.015	7689.39
900.33	7624.31
900.644	7628.82
900.959	7604.87
901.273	7589.28
901.588	7551.54
901.902	7477.42
902.216	7484.42
902.531	7466.57
902.845	7428.6
903.159	7370.3
903.473	7346.8
903.787	7308.38
904.101	7264.99
904.415	7280.36
904.729	7318.32
905.042	7161.94
905.356	7189.29
905.67	7165.33
905.984	7147.93
906.297	7151.32
906.611	7093.02
906.924	7114.71
907.237	6980.71
907.551	7046.92
907.864	7044.43
908.177	6926.7
908.491	6933.25
908.804	6893.02
909.117	6878.11
909.43	6849.18
909.743	6827.04
910.056	6752.24
910.368	6747.94
910.681	6709.98
910.994	6717.66
911.307	6666.14
911.619	6635.86
911.932	6587.95
912.244	6534.39
912.557	6569.19
912.869	6558.12
913.181	6573.94
913.494	6526.03
913.806	6456.65
914.118	6434.51
914.43	6432.02
914.742	6379.82
915.054	6364.45
915.366	6331.01
915.678	6375.52
915.99	6322.87
916.302	6254.85
916.613	6232.7
916.925	6186.83
917.236	6201.52
917.548	6185.25
917.859	6176.89
918.171	6117
918.482	6088.53
918.794	6061.41
919.105	6056.21
919.416	6074.29
919.727	5992.71
920.038	5964.46
920.349	5993.39
920.66	5923.78
920.971	5934.18
921.282	5865.26
921.593	5853.05
921.903	5807.4
922.214	5814.41
922.525	5790.91
922.835	5724.69
923.146	5709.1
923.456	5732.83
923.767	5744.58
924.077	5750.46
924.387	5646.5
924.697	5646.05
925.008	5592.27
925.318	5614.87
925.628	5611.48
925.938	5545.49
926.248	5493.97
926.558	5460.29
926.867	5483.34
927.177	5467.07
927.487	5396.34
927.796	5413.29
928.106	5382.78
928.416	5357.92
928.725	5383.69
929.034	5322.22
929.344	5276.12
929.653	5304.82
929.962	5276.34
930.271	5230.02
930.581	5210.81
930.89	5197.93
931.199	5154.31
931.508	5162
931.817	5143.01
932.125	5137.14
932.434	5120.64
932.743	5026.63
933.051	5038.84
933.36	5032.96
933.669	4996.35
933.977	4970.59
934.286	4915.45
934.594	4972.62
934.902	4871.61
935.21	4862.8
935.519	4887.43
935.827	4846.53
936.135	4886.75
936.443	4788.9
936.751	4802.46
937.059	4795
937.367	4741.22
937.674	4740.99
937.982	4809.69
938.29	4683.37
938.597	4716.59
938.905	4648.56
939.213	4659.64
939.52	4608.57
939.827	4614.89
940.135	4578.96
940.442	4541.45
940.749	4535.57
941.056	4549.13
941.363	4499.19
941.67	4483.14
941.977	4502.35
942.284	4422.36
942.591	4439.53
942.898	4429.36
943.205	4410.38
943.511	4379.87
943.818	4373.77
944.125	4324.73
944.431	4318.18
944.738	4255.13
945.044	4279.76
945.35	4241.34
945.657	4253.32
945.963	4209.93
946.269	4193.89
946.575	4170.16
946.881	4155.24
947.187	4160.22
947.493	4094.23
947.799	4176.71
948.105	4104.17
948.41	4071.4
948.716	4115.47
949.022	4090.84
949.327	4058.07
949.633	4042.7
949.938	4035.02
950.244	3991.41
950.549	3965.64
950.854	3979.43
951.16	3924.74
951.465	3921.13
951.77	3897.17
952.075	3907.34
952.38	3868.92
952.685	3855.59
952.99	3811.07
953.294	3816.95
953.599	3831.41
953.904	3750.28
954.209	3758.64
954.513	3777.4
954.818	3731.98
955.122	3715.48
955.426	3732.66
955.731	3677.06
956.035	3701.92
956.339	3660.12
956.643	3657.18
956.948	3551.87
957.252	3610.17
957.556	3629.38
957.86	3609.27
958.163	3578.54
958.467	3564.75
958.771	3560.01
959.075	3517.07
959.378	3498.76
959.682	3488.82
959.985	3457.64
960.289	3464.19
960.592	3450.18
960.896	3432.33
961.199	3422.61
961.502	3434.36
961.805	3388.26
962.108	3377.19
962.411	3387.81
962.714	3344.64
963.017	3288.37
963.32	3351.88
963.623	3330.63
963.926	3310.52
964.228	3275.72
964.531	3256.96
964.833	3227.13
965.136	3202.27
965.438	3202.27
965.741	3191.88
966.043	3199.56
966.345	3179.9
966.648	3158.21
966.95	3159.56
967.252	3108.49
967.554	3130.41
967.856	3091.54
968.158	3098.32
968.46	3074.59
968.761	3082.73
969.063	3075.27
969.365	3044.31
969.666	3019.45
969.968	3033.92
970.269	3036.86
970.571	3001.15
970.872	2989.17
971.174	2955.5
971.475	2919.12
971.776	2920.47
972.077	2949.17
972.378	2957.76
972.679	2867.37
972.98	2879.8
973.281	2901.49
973.582	2855.39
973.883	2840.25
974.183	2853.13
974.484	2856.29
974.785	2800.7
975.085	2825.56
975.386	2809.29
975.686	2793.25
975.986	2773.36
976.287	2769.74
976.587	2743.76
976.887	2756.86
977.187	2724.32
977.487	2733.13
977.787	2717.77
978.087	2704.89
978.387	2679.8
978.687	2661.72
978.987	2666.02
979.286	2614.95
979.586	2663.31
979.885	2643.87
980.185	2573.36
980.484	2586.02
980.784	2607.49
981.083	2565.46
981.382	2584.21
981.682	2546.92
981.981	2536.53
982.28	2533.59
982.579	2506.02
982.878	2509.64
983.177	2507.38
983.475	2512.8
983.774	2488.85
984.073	2500.6
984.372	2462.18
984.67	2430.77
984.969	2423.54
985.267	2391.45
985.566	2411.33
985.864	2412.92
986.162	2420.15
986.461	2372.92
986.759	2351.68
987.057	2347.61
987.355	2341.51
987.653	2355.07
987.951	2314.16
988.249	2339.47
988.547	2325.91
988.844	2298.8
989.142	2288.63
989.44	2259.25
989.737	2266.71
990.035	2262.64
990.332	2252.24
990.63	2266.25
990.927	2264.9
991.224	2233.94
991.521	2210.44
991.819	2195.07
992.116	2195.3
992.413	2177.89
992.71	2203.2
993.006	2179.48
993.303	2175.18
993.6	2150.32
993.897	2165.69
994.193	2129.99
994.49	2126.14
994.787	2071.68
995.083	2083.89
995.379	2103.09
995.676	2042.31
995.972	2059.03
996.268	2073.72
996.565	2026.49
996.861	1994.85
997.157	1999.14
997.453	1981.06
997.749	1981.74
998.044	1985.36
998.34	1987.62
998.636	1983.55
998.932	1967.5
999.227	1974.28
999.523	1933.16
999.818	1908.75
1000.114	1915.98
1000.409	1918.92
1000.704	1903.33
1001	1924.79
1001.295	1865.81
1001.59	1864.91
1001.885	1867.62
1002.18	1832.37
1002.475	1855.42
1002.77	1823.78
1003.065	1826.94
1003.359	1810.22
1003.654	1844.12
1003.949	1816.77
1004.243	1813.84
1004.538	1772.48
1004.832	1758.02
1005.127	1761.41
1005.421	1732.71
1005.715	1736.32
1006.009	1730.45
1006.304	1713.5
1006.598	1709.88
1006.892	1691.58
1007.186	1649.77
1007.48	1681.64
1007.773	1649.1
1008.067	1658.36
1008.361	1641.86
1008.655	1623.56
1008.948	1631.24
1009.242	1618.59
1009.535	1617.68
1009.829	1608.64
1010.122	1578.36
1010.415	1601.64
1010.708	1554.41
1011.001	1563.67
1011.295	1542.21
1011.588	1528.19
1011.881	1553.05
1012.173	1523.22
1012.466	1543.34
1012.759	1559.61
1013.052	1505.82
1013.344	1492.94
1013.637	1462.66
1013.93	1487.74
1014.222	1517.35
1014.514	1470.79
1014.807	1432.83
1015.099	1455.2
1015.391	1449.55
1015.683	1421.3
1015.976	1436.9
1016.268	1415.65
1016.56	1371.81
1016.851	1389.67
1017.143	1381.76
1017.435	1387.86
1017.727	1355.32
1018.018	1361.87
1018.31	1348.09
1018.602	1369.55
1018.893	1367.07
1019.185	1330.01
1019.476	1317.35
1019.767	1319.16
1020.058	1314.19
1020.35	1299.05
1020.641	1289.1
1020.932	1282.78
1021.223	1271.25
1021.514	1273.96
1021.804	1260.18
1022.095	1272.16
1022.386	1246.85
1022.677	1223.12
1022.967	1216.56
1023.258	1219.73
1023.548	1212.72
1023.839	1212.04
1024.129	1205.49
1024.419	1214.53
1024.709	1205.49
1025	1170.46
1025.29	1175.44
1025.58	1160.75
1025.87	1143.35
1026.16	1145.38
1026.449	1135.89
1026.739	1123.46
1027.029	1125.72
1027.319	1139.28
1027.608	1129.79
1027.898	1118.04
1028.187	1119.17
1028.477	1082.56
1028.766	1098.83
1029.055	1079.84
1029.344	1085.27
1029.634	1069.45
1029.923	1056.79
1030.212	1042.33
1030.501	1036.23
1030.79	1048.66
1031.078	1052.5
1031.367	1029
1031.656	1049.34
1031.945	1002.56
1032.233	1019.28
1032.522	985.16
1032.81	1002.56
1033.099	969.11
1033.387	985.16
1033.675	952.16
1033.963	970.02
1034.251	974.08
1034.54	967.98
1034.828	936.8
1035.116	964.37
1035.403	952.39
1035.691	936.12
1035.979	941.54
1036.267	914.43
1036.554	927.98
1036.842	910.13
1037.129	939.74
1037.417	901.09
1037.704	894.09
1037.992	904.71
1038.279	892.5
1038.566	897.02
1038.853	897.02
1039.14	897.02
