Data from hue_320_FLMS001491_55.txt Node
Date: Mon Feb 06 15:47:23 GMT 2017
User: dcchb
Spectrometer: FLMS00149
Trigger mode: 0
Integration Time (sec): 2.000000E-2
Scans to average: 10
Electric dark correction enabled: true
Nonlinearity correction enabled: false
Boxcar width: 0
XAxis mode: Wavelengths
Number of Pixels in Spectrum: 2048
>>>>>Begin Spectral Data<<<<<
341.393	-22.51
341.776	-22.51
342.16	-22.51
342.543	-65.68
342.927	-73.36
343.31	-74.04
343.693	-62.06
344.077	-46.24
344.46	-48.95
344.843	-69.52
345.226	-32
345.61	-45.34
345.993	-17.99
346.376	-15.06
346.759	17.49
347.142	24.94
347.525	47.54
347.908	37.37
348.291	69.69
348.674	97.94
349.057	116.24
349.44	111.95
349.823	145.62
350.206	159.18
350.588	167.76
350.971	208.44
351.354	214.77
351.737	235.78
352.119	254.77
352.502	269.68
352.884	254.99
353.267	283.02
353.65	280.76
354.032	280.53
354.414	286.4
354.797	292.05
355.179	306.29
355.562	302.22
355.944	333.64
356.326	333.41
356.709	321.21
357.091	338.61
357.473	325.5
357.855	338.15
358.238	343.13
358.62	339.74
359.002	335.9
359.384	351.04
359.766	313.07
360.148	334.09
360.53	339.96
360.912	336.35
361.294	333.18
361.676	329.57
362.057	309.23
362.439	316.46
362.821	312.39
363.203	324.82
363.584	324.82
363.966	317.59
364.348	314.88
364.729	306.74
365.111	305.84
365.493	294.54
365.874	301.09
366.256	326.4
366.637	304.03
367.019	302
367.4	317.14
367.781	287.08
368.163	309.46
368.544	317.14
368.925	304.71
369.306	302.9
369.688	303.58
370.069	305.84
370.45	304.48
370.831	307.2
371.212	316.23
371.593	297.93
371.974	303.81
372.355	318.27
372.736	332.96
373.117	331.15
373.498	326.18
373.879	308.55
374.26	308.33
374.641	296.12
375.021	298.16
375.402	331.6
375.783	303.35
376.163	294.77
376.544	295.22
376.925	308.55
377.305	294.54
377.686	312.39
378.066	312.17
378.447	319.17
378.827	303.81
379.208	327.99
379.588	319.4
379.968	324.14
380.349	317.82
380.729	317.36
381.109	325.5
381.489	328.66
381.87	317.82
382.25	338.38
382.63	333.64
383.01	311.49
383.39	316.23
383.77	314.65
384.15	346.06
384.53	337.25
384.91	317.36
385.29	336.35
385.67	343.13
386.049	345.61
386.429	331.15
386.809	324.6
387.189	353.75
387.568	360.53
387.948	323.69
388.328	353.75
388.707	354.43
389.087	349
389.466	372.73
389.846	359.17
390.225	353.75
390.605	349.45
390.984	374.54
391.363	361.88
391.743	374.54
392.122	343.35
392.501	374.31
392.881	377.48
393.26	372.73
393.639	364.82
394.018	366.4
394.397	358.04
394.776	385.61
395.155	360.08
395.534	394.42
395.913	368.21
396.292	379.06
396.671	406.18
397.05	372.05
397.429	364.59
397.808	364.14
398.186	376.12
398.565	380.64
398.944	411.83
399.323	390.81
399.701	383.13
400.08	400.53
400.458	387.65
400.837	375.22
401.215	406.85
401.594	398.49
401.972	397.59
402.351	401.43
402.729	386.97
403.107	416.57
403.486	394.42
403.864	428.55
404.242	409.11
404.62	429.23
404.999	415.67
405.377	412.73
405.755	427.42
406.133	438.27
406.511	429.23
406.889	439.4
407.267	425.38
407.645	440.3
408.023	444.37
408.401	450.92
408.779	450.47
409.156	451.6
409.534	464.03
409.912	451.37
410.29	481.88
410.667	475.33
411.045	486.85
411.422	482.56
411.8	478.72
412.178	475.33
412.555	503.57
412.933	529.11
413.31	507.64
413.687	503.35
414.065	537.25
414.442	528.66
414.819	542.44
415.197	550.13
415.574	533.4
415.951	535.21
416.328	558.49
416.705	545.16
417.082	567.3
417.46	563.91
417.837	599.17
418.214	596.45
418.591	608.2
418.967	582.89
419.344	609.33
419.721	620.18
420.098	612.5
420.475	635.1
420.852	633.74
421.228	617.02
421.605	644.14
421.982	643.68
422.358	664.25
422.735	668.99
423.111	650.92
423.488	686.17
423.864	686.62
424.241	691.82
424.617	713.29
424.994	708.54
425.37	694.98
425.746	724.81
426.123	711.03
426.499	733.62
426.875	752.38
427.251	740.18
427.627	756.68
428.003	749.9
428.379	776.56
428.756	768.2
429.132	783.12
429.507	788.99
429.883	802.55
430.259	822.89
430.635	818.14
431.011	811.14
431.387	841.87
431.763	844.81
432.138	838.25
432.514	850.68
432.89	857.24
433.265	887.75
433.641	881.19
434.016	914.86
434.392	925.26
434.767	926.61
435.143	927.29
435.518	917.12
435.894	930
436.269	956.9
436.644	972.71
437.02	948.76
437.395	947.86
437.77	1001.64
438.145	970.68
438.52	1008.19
438.895	986.27
439.271	1006.84
439.646	1033.96
440.021	1031.24
440.395	1038.93
440.77	1031.47
441.145	1026.05
441.52	1044.58
441.895	1055.88
442.27	1072.6
442.645	1067.85
443.019	1066.72
443.394	1074.41
443.769	1084.58
444.143	1083.9
444.518	1091.13
444.892	1103.11
445.267	1098.36
445.641	1113.5
446.016	1111.69
446.39	1104.24
446.764	1125.93
447.139	1125.25
447.513	1150.56
447.887	1126.61
448.262	1157.57
448.636	1134.29
449.01	1116.89
449.384	1142.65
449.758	1179.26
450.132	1166.83
450.506	1157.79
450.88	1168.87
451.254	1194.4
451.628	1195.31
452.002	1217.91
452.376	1209.77
452.75	1217
453.123	1238.7
453.497	1245.48
453.871	1257.45
454.244	1253.16
454.618	1253.61
454.992	1254.29
455.365	1252.71
455.739	1307.17
456.112	1313.5
456.486	1308.07
456.859	1348.52
457.232	1347.39
457.606	1333.16
457.979	1335.19
458.352	1374.51
458.725	1369.99
459.099	1360.27
459.472	1377.9
459.845	1390.1
460.218	1393.04
460.591	1408.64
460.964	1419.03
461.337	1428.52
461.71	1458.35
462.083	1463.1
462.456	1487.28
462.829	1456.54
463.201	1475.07
463.574	1505.81
463.947	1491.57
464.32	1548.29
464.692	1548.97
465.065	1563.43
465.438	1542.87
465.81	1590.1
466.183	1595.52
466.555	1619.25
466.928	1624
467.3	1650.66
467.672	1638.46
468.045	1677.78
468.417	1676.42
468.789	1689.31
469.161	1682.07
469.534	1708.06
469.906	1748.51
470.278	1765.46
470.65	1765.69
471.022	1761.62
471.394	1808.4
471.766	1808.62
472.138	1838.68
472.51	1855.63
472.882	1906.48
473.253	1906.25
473.625	1916.64
473.997	1986.7
474.369	1947.83
474.74	1971.78
475.112	1985.34
475.484	2008.39
475.855	2066.92
476.227	2060.37
476.598	2071.67
476.97	2153.25
477.341	2135.62
477.713	2146.24
478.084	2207.26
478.455	2207.94
478.827	2224.21
479.198	2270.53
479.569	2296.3
479.94	2312.57
480.311	2365.67
480.682	2375.62
481.053	2435.27
481.424	2447.93
481.795	2517.76
482.166	2530.19
482.537	2518.21
482.908	2546.68
483.279	2573.35
483.65	2624.87
484.021	2673.46
484.391	2691.31
484.762	2710.3
485.133	2677.3
485.503	2729.96
485.874	2802.04
486.244	2790.07
486.615	2837.75
486.985	2863.29
487.356	2921.36
487.726	2937.86
488.097	2960.46
488.467	2980.8
488.837	3064.41
489.207	2999.78
489.578	3064.18
489.948	3100.57
490.318	3161.36
490.688	3127.69
491.058	3202.94
491.428	3242.49
491.798	3258.53
492.168	3284.07
492.538	3315.93
492.908	3350.28
493.278	3363.61
493.648	3366.32
494.017	3372.43
494.387	3416.94
494.757	3502.82
495.126	3470.28
495.496	3454.46
495.866	3482.03
496.235	3504.4
496.605	3600.44
496.974	3577.62
497.344	3600.22
497.713	3632.53
498.082	3651.74
498.452	3685.86
498.821	3683.15
499.19	3689.48
499.559	3736.94
499.928	3735.13
500.298	3662.36
500.667	3769.03
501.036	3763.38
501.405	3830.72
501.774	3816.48
502.143	3833.43
502.512	3836.14
502.88	3873.2
503.249	3850.38
503.618	3874.11
503.987	3873.2
504.356	3919.08
504.724	3918.85
505.093	3909.13
505.462	3992.97
505.83	3971.28
506.199	4002.47
506.567	4032.97
506.936	4020.09
507.304	4038.4
507.672	4076.14
508.041	4061.67
508.409	4082.46
508.777	4151.61
509.145	4145.96
509.514	4156.36
509.882	4106.42
510.25	4171.05
510.618	4200.43
510.986	4146.42
511.354	4235.45
511.722	4233.87
512.09	4264.61
512.458	4232.52
512.826	4265.96
513.193	4277.03
513.561	4314.55
513.929	4317.03
514.297	4291.5
514.664	4352.51
515.032	4365.39
515.4	4350.7
515.767	4370.14
516.135	4395.68
516.502	4360.65
516.869	4433.19
517.237	4424.83
517.604	4386.41
517.972	4471.61
518.339	4446.97
518.706	4480.87
519.073	4467.31
519.44	4530.59
519.808	4544.82
520.175	4517.03
520.542	4561.77
520.909	4580.08
521.276	4544.15
521.643	4581.66
522.009	4633.41
522.376	4621.21
522.743	4638.38
523.11	4652.39
523.477	4709.34
523.843	4735.1
524.21	4808.32
524.577	4801.09
524.943	4823.01
525.31	4823.01
525.676	4861.2
526.043	4877.47
526.409	4907.75
526.776	4933.06
527.142	4947.75
527.508	4964.7
527.874	5005.15
528.241	5037.92
528.607	5035.66
528.973	5051.48
529.339	5047.86
529.705	5126.05
530.071	5175.77
530.437	5160.63
530.803	5156.56
531.169	5196.11
531.535	5201.98
531.901	5208.76
532.267	5253.51
532.632	5277.01
532.998	5237.01
533.364	5374.86
533.73	5371.02
534.095	5369.89
534.461	5414.18
534.826	5436.55
535.192	5460.28
535.557	5465.48
535.923	5462.99
536.288	5503.22
536.653	5540.5
537.019	5571.01
537.384	5518.36
537.749	5598.36
538.114	5623.67
538.479	5642.42
538.845	5655.98
539.21	5616.89
539.575	5720.61
539.94	5682.65
540.305	5753.38
540.67	5735.3
541.034	5781.63
541.399	5786.6
541.764	5776.88
542.129	5827.05
542.494	5889.87
542.858	5900.27
543.223	5923.32
543.587	5913.6
543.952	5916.31
544.316	6034.05
544.681	5973.94
545.045	6027.27
545.41	6014.39
545.774	6094.61
546.138	6088.96
546.503	6124.22
546.867	6160.83
547.231	6174.61
547.595	6263.2
547.959	6256.87
548.324	6179.13
548.688	6248.96
549.052	6307.04
549.416	6343.42
549.779	6287.6
550.143	6305.91
550.507	6318.11
550.871	6392.91
551.235	6363.08
551.599	6482.63
551.962	6427.94
552.326	6393.36
552.689	6522.85
553.053	6440.59
553.417	6522.4
553.78	6559.23
554.143	6559.91
554.507	6625.67
554.87	6543.19
555.234	6660.7
555.597	6675.62
555.96	6644.88
556.323	6709.74
556.686	6656.63
557.05	6746.35
557.413	6730.76
557.776	6752.45
558.139	6873.58
558.502	6785.67
558.865	6760.81
559.228	6861.37
559.59	6870.19
559.953	6901.6
560.316	6944.31
560.679	6912.22
561.041	6960.58
561.404	6968.94
561.767	7042.61
562.129	6974.14
562.492	7056.17
562.854	7064.31
563.217	7053.23
563.579	7123.97
563.941	7125.1
564.304	7193.57
564.666	7181.14
565.028	7190.86
565.39	7216.62
565.753	7233.57
566.115	7297.52
566.477	7336.84
566.839	7321.02
567.201	7417.06
567.563	7352.43
567.925	7400.12
568.287	7443.96
568.648	7469.04
569.01	7487.8
569.372	7565.08
569.734	7456.61
570.095	7618.19
570.457	7613.67
570.819	7654.8
571.18	7697.28
571.542	7689.15
571.903	7715.59
572.265	7816.83
572.626	7803.72
572.987	7852.53
573.349	7861.8
573.71	7945.41
574.071	7998.29
574.432	8057.5
574.794	8146.76
575.155	8229.92
575.516	8149.47
575.877	8253.2
576.238	8312.63
576.599	8394.67
576.96	8473.31
577.32	8478.28
577.681	8659.29
578.042	8673.3
578.403	8723.92
578.763	8817.48
579.124	8951.04
579.485	9014.76
579.845	9126.17
580.206	9121.65
580.566	9357.58
580.927	9355.09
581.287	9576.33
581.648	9613.84
582.008	9822.65
582.368	9966.6
582.728	10091.57
583.089	10227.61
583.449	10409.75
583.809	10540.37
584.169	10656.75
584.529	10893.81
584.889	11143.52
585.249	11263.52
585.609	11370.18
585.969	11644.52
586.329	11870.96
586.688	12011.29
587.048	12307.11
587.408	12495.58
587.768	12647.21
588.127	12907.77
588.487	13126.97
588.846	13484.93
589.206	13597.24
589.565	13817.35
589.925	14183.67
590.284	14328.75
590.643	14586.59
591.003	14961.73
591.362	15257.54
591.721	15422.73
592.08	15802.16
592.44	16042.37
592.799	16349.94
593.158	16568.69
593.517	16824.73
593.876	17172.51
594.235	17417.25
594.593	17697.25
594.952	18060.85
595.311	18316.21
595.67	18609.99
596.029	18968.4
596.387	19124.33
596.746	19651.09
597.104	19783.52
597.463	20036.62
597.822	20493.78
598.18	20614.23
598.538	21019.42
598.897	21319.3
599.255	21484.94
599.613	22115.44
599.972	22217.35
600.33	22521.98
600.688	22644.01
601.046	23058.24
601.404	23424.78
601.762	23677.43
602.12	23979.57
602.478	24209.62
602.836	24544.07
603.194	24682.6
603.552	25009.6
603.91	25248.01
604.268	25525.52
604.625	25807.77
604.983	26168.89
605.341	26269.68
605.698	26664.24
606.056	27007.96
606.413	27133.38
606.771	27432.13
607.128	27696.98
607.485	27811.56
607.843	28055.62
608.2	28369.06
608.557	28702.61
608.914	28732.44
609.272	29104.86
609.629	29361.57
609.986	29574
610.343	29675.69
610.7	30140.31
611.057	30262.34
611.414	30390.47
611.771	30634.31
612.127	31068.87
612.484	31191.81
612.841	31460.5
613.198	31393.16
613.554	31519.93
613.911	31966.25
614.267	32057.77
614.624	32180.71
614.98	32364.43
615.337	32762.16
615.693	32712.9
616.05	32859.56
616.406	33262.94
616.762	33204.64
617.118	33303.84
617.475	33527.11
617.831	33633.32
618.187	33782.47
618.543	34024.73
618.899	34387.2
619.255	34353.98
619.611	34537.26
619.967	34734.09
620.323	34900.18
620.678	34918.71
621.034	34868.32
621.39	34986.51
621.746	35069.22
622.101	35615.42
622.457	35336.78
622.812	35553.27
623.168	35687.73
623.523	35699.49
623.879	35970.21
624.234	35844.79
624.589	36026.03
624.945	36209.98
625.3	36212.92
625.655	36284.33
626.01	36407.49
626.365	36366.36
626.72	36520.48
627.075	36584.43
627.43	36688.16
627.785	36727.25
628.14	36815.84
628.495	36860.36
628.85	36949.4
629.205	36804.31
629.559	37069.17
629.914	37138.32
630.269	37044.31
630.623	37023.52
630.978	36959.79
631.332	37237.98
631.687	37268.26
632.041	37189.62
632.396	37306.67
632.75	37272.78
633.104	37322.49
633.459	37207.69
633.813	37208.37
634.167	37339.22
634.521	37282.72
634.875	37322.49
635.229	37400.01
635.583	37254.25
635.937	37335.83
636.291	37228.71
636.645	37301.25
636.999	37325.21
637.352	37413.11
637.706	37226.9
638.06	37467.8
638.413	37363.4
638.767	37351.19
639.121	37461.7
639.474	37272.78
639.828	37220.8
640.181	37411.76
640.534	37465.99
640.888	37309.61
641.241	37139.22
641.594	37311.19
641.947	37330.85
642.301	37247.24
642.654	37256.96
643.007	37363.62
643.36	37314.13
643.713	37101.03
644.066	37422.6
644.419	37132.44
644.771	36922.96
645.124	36586.02
645.477	36610.65
645.83	36334.5
646.182	36239.81
646.535	36158.91
646.888	36334.95
647.24	36053.37
647.593	36325.46
647.945	36187.61
648.298	36080.49
648.65	35944.9
649.002	36019.7
649.355	36054.73
649.707	36147.16
650.059	36120.04
650.411	36701.72
650.763	36768.38
651.115	37120.24
651.467	36845.9
651.819	36950.07
652.171	36815.16
652.523	36753.24
652.875	36789.4
653.227	36681.61
653.578	36921.37
653.93	36840.47
654.282	36579.91
654.633	36614.49
654.985	36743.53
655.337	36654.49
655.688	36632.57
656.039	36966.12
656.391	36432.8
656.742	36701.94
657.094	36678.67
657.445	36589.86
657.796	36649.29
658.147	36492.23
658.498	36593.02
658.849	36671.89
659.2	36672.79
659.551	36548.05
659.902	36587.37
660.253	36650.65
660.604	36615.62
660.955	36603.42
661.306	36618.56
661.656	36553.02
662.007	36495.62
662.358	36549.86
662.708	36483.19
663.059	36537.2
663.409	36422.4
663.76	36533.81
664.11	36532.46
664.461	36587.15
664.811	36458.11
665.161	36545.11
665.511	36339.02
665.862	36535.17
666.212	36515.06
666.562	36597.77
666.912	36454.27
667.262	36463.31
667.612	36512.35
667.962	36468.5
668.312	36450.2
668.662	36628.27
669.011	36587.82
669.361	36415.4
669.711	36401.84
670.06	36248.85
670.41	36238.68
670.76	36283.65
671.109	36371.78
671.459	36272.8
671.808	36207.95
672.157	36419.92
672.507	36169.53
672.856	36179.25
673.205	36223.09
673.554	36317.32
673.904	36227.83
674.253	36378.34
674.602	36241.62
674.951	35704
675.3	35558.7
675.649	36187.16
675.998	36164.33
676.346	36099.47
676.695	36182.86
677.044	36032.36
677.393	36100.6
677.741	36189.64
678.09	35998.46
678.438	35794.85
678.787	36013.83
679.135	36031.23
679.484	35683.67
679.832	35911.91
680.181	35646.15
680.529	35766.38
680.877	35620.39
681.225	35626.04
681.573	35815.64
681.922	35539.94
682.27	35516.89
682.618	35517.12
682.966	35525.93
683.314	35439.6
683.661	35390.34
684.009	35131.36
684.357	35047.75
684.705	35052.5
685.053	35153.06
685.4	35013.63
685.748	34904.7
686.095	34909.45
686.443	34895.66
686.79	34837.13
687.138	34819.73
687.485	34754.43
687.832	34622.68
688.18	34786.74
688.527	34520.08
688.874	34528.89
689.221	34409.35
689.568	34386.3
689.915	34257.26
690.262	34511.72
690.609	34244.83
690.956	34236.25
691.303	33952.19
691.65	34014.33
691.997	34017.5
692.344	33670.61
692.69	33710.16
693.037	33817.95
693.383	33514.46
693.73	33590.39
694.077	33426.32
694.423	33345.65
694.769	33375.48
695.116	33249.38
695.462	33240.79
695.808	33080.12
696.155	33106.11
696.501	32815.04
696.847	32862.27
697.193	32554.93
697.539	32846.45
697.885	32495.5
698.231	32477.2
698.577	32450.76
698.923	32368.73
699.269	32210.99
699.614	32117.88
699.96	31964.67
700.306	31881.51
700.651	31842.41
700.997	31820.72
701.342	31847.16
701.688	31630.44
702.033	31633.15
702.379	31569.88
702.724	31473.61
703.069	31657.33
703.415	31253.5
703.76	31220.28
704.105	31323.78
704.45	31264.57
704.795	31116.55
705.14	30914.07
705.485	31032.04
705.83	30845.15
706.175	30900.06
706.52	30655.55
706.865	30690.13
707.209	30523.58
707.554	30427.99
707.899	30607.42
708.243	30380.3
708.588	30444.48
708.932	30168.11
709.277	30172.62
709.621	30128.78
709.966	29922.01
710.31	30067.77
710.654	29814.44
710.998	29842.24
711.342	29848.79
711.687	29871.16
712.031	29595.24
712.375	29578.52
712.719	29597.5
713.063	29542.36
713.407	29581.68
713.75	29444.96
714.094	29472.53
714.438	29197.74
714.782	29309.82
715.125	29081.81
715.469	29107.34
715.812	28992.54
716.156	28845.88
716.499	28891.75
716.843	28914.13
717.186	28696.28
717.53	28920
717.873	28870.06
718.216	28816.5
718.559	28550.29
718.902	28401.6
719.246	28478.88
719.589	28333.35
719.932	28389.62
720.275	28364.08
720.617	28235.95
720.96	28289.28
721.303	28102.4
721.646	28294.48
721.989	28148.5
722.331	28046.58
722.674	28035.96
723.016	28038.9
723.359	28016.3
723.701	28058.78
724.044	27809.3
724.386	27764.78
724.729	27789.86
725.071	27734.04
725.413	27836.64
725.755	27753.25
726.097	27507.84
726.439	27407.27
726.782	27511.45
727.124	27515.07
727.465	27430.78
727.807	27379.03
728.149	27286.15
728.491	27352.81
728.833	27349.2
729.175	27273.94
729.516	27153.27
729.858	27164.12
730.199	27137.22
730.541	26962.99
730.882	26922.99
731.224	27102.65
731.565	26850.68
731.906	26962.99
732.248	26938.81
732.589	26728.87
732.93	26669.44
733.271	26666.28
733.612	26770.45
733.953	26827.18
734.294	26588.54
734.635	26492.72
734.976	26593.96
735.317	26452.95
735.658	26475.77
735.999	26450.46
736.339	26337.25
736.68	26345.38
737.021	26230.81
737.361	26080.3
737.702	26291.82
738.042	26235.1
738.383	26160.3
738.723	26139.06
739.063	26067.2
739.404	26094.77
739.744	26027.42
740.084	26026.52
740.424	25996.69
740.764	25864.94
741.104	26039.85
741.444	25845.96
741.784	25815.68
742.124	25849.8
742.464	25758.28
742.804	25718.5
743.143	25616.59
743.483	25726.41
743.823	25542.69
744.162	25482.35
744.502	25607.77
744.841	25408.23
745.181	25458.4
745.52	25381.11
745.86	25489.81
746.199	25397.61
746.538	25294.79
746.877	25403.03
747.216	25314.45
747.556	25241.23
747.895	25224.51
748.234	25152.42
748.573	25085.07
748.911	24990.16
749.25	25054.57
749.589	24883.5
749.928	25053.21
750.267	25083.49
750.605	24843.05
750.944	24804.86
751.283	24675.82
751.621	24748.59
751.96	24636.73
752.298	24647.57
752.636	24584.98
752.975	24494.36
753.313	24470.85
753.651	24530.06
753.989	24345.43
754.327	24327.35
754.666	24142.5
755.004	24223.18
755.342	24228.37
755.679	24254.81
756.017	23970.98
756.355	24129.17
756.693	23910.87
757.031	23959.91
757.368	23804.2
757.706	23801.72
758.044	23778.44
758.381	23770.76
758.719	23656.64
759.056	23712.68
759.394	23560.37
759.731	23362.63
760.068	23495.29
760.405	23395.85
760.743	23247.61
761.08	23267.27
761.417	23043.55
761.754	23086.94
762.091	23127.61
762.428	22955.41
762.765	22782.08
763.102	22877.68
763.438	22772.59
763.775	22706.83
764.112	22717.45
764.449	22645.82
764.785	22465.71
765.122	22396.78
765.458	22343.45
765.795	22335.09
766.131	22254.64
766.467	22207.41
766.804	22055.55
767.14	21969.68
767.476	21950.02
767.812	21899.85
768.148	21898.27
768.485	21806.97
768.821	21612.17
769.157	21597.26
769.492	21493.98
769.828	21423.93
770.164	21241.11
770.5	21181.22
770.836	21209.02
771.171	21109.59
771.507	21068.01
771.842	20913.43
772.178	20773.78
772.513	20885.86
772.849	20893.77
773.184	20798.86
773.519	20736.26
773.855	20526.32
774.19	20434.8
774.525	20391.41
774.86	20337.18
775.195	20379.21
775.53	20221.7
775.865	20152.32
776.2	19996.85
776.535	19949.62
776.87	20006.34
777.205	19751.43
777.539	19724.54
777.874	19780.13
778.209	19668.27
778.543	19675.73
778.878	19516.41
779.212	19423.98
779.547	19310.99
779.881	19334.49
780.215	19146.25
780.55	19290.88
780.884	19131.56
781.218	19083.65
781.552	19046.82
781.886	18948.51
782.22	18878.23
782.554	18782.19
782.888	18668.52
783.222	18595.08
783.556	18448.64
783.889	18494.29
784.223	18311.69
784.557	18317.57
784.89	18327.51
785.224	18205.71
785.557	18129.1
785.891	18154.86
786.224	18018.59
786.558	18002.32
786.891	17763.01
787.224	17806.62
787.557	17723.91
787.891	17781.31
788.224	17651.82
788.557	17712.61
788.89	17558.27
789.223	17540.64
789.556	17405.73
789.888	17432.39
790.221	17259.29
790.554	17245.28
790.887	17198.05
791.219	17078.51
791.552	17017.26
791.884	16918.74
792.217	16935.46
792.549	16842.13
792.882	16792.64
793.214	16654.79
793.546	16632.19
793.879	16637.84
794.211	16464.51
794.543	16470.39
794.875	16426.55
795.207	16469.71
795.539	16418.64
795.871	16426.09
796.203	16193.56
796.535	16259.77
796.867	16127.8
797.198	16098.19
797.53	16119.89
797.862	15966.9
798.193	15929.16
798.525	15876.05
798.856	15958.08
799.188	15815.49
799.519	15718.09
799.85	15648.49
800.182	15642.84
800.513	15696.62
800.844	15517.87
801.175	15547.7
801.506	15434.48
801.837	15471.09
802.168	15399.91
802.499	15267.48
802.83	15224.09
803.161	15189.97
803.491	15215.73
803.822	15165.34
804.153	14973.48
804.483	14990.65
804.814	14893.25
805.145	14879.92
805.475	14851.9
805.805	14886.02
806.136	14786.14
806.466	14887.83
806.796	14781.17
807.126	14637.21
807.457	14647.61
807.787	14581.85
808.117	14492.13
808.447	14519.03
808.777	14504.34
809.107	14521.28
809.436	14490.33
809.766	14388.41
810.096	14359.03
810.426	14336.43
810.755	14316.54
811.085	14264.34
811.414	14201.97
811.744	14160.84
812.073	14057.34
812.403	14013.5
812.732	13969.66
813.061	14007.17
813.39	13939.61
813.719	13826.61
814.049	13890.12
814.378	13892.6
814.707	13752.04
815.036	13879.72
815.365	13787.07
815.693	13612.38
816.022	13579.39
816.351	13625.04
816.68	13574.42
817.008	13532.84
817.337	13406.96
817.665	13464.14
817.994	13520.41
818.322	13449.67
818.651	13361.54
818.979	13304.14
819.307	13365.38
819.636	13308.89
819.964	13194.09
820.292	13282.22
820.62	13110.25
820.948	13203.35
821.276	13211.26
821.604	13242.9
821.932	13128.55
822.259	13197.7
822.587	13121.55
822.915	13102.79
823.243	13176.69
823.57	13127.88
823.898	13180.08
824.225	13143.02
824.553	13063.24
824.88	13148.89
825.207	13194.31
825.535	13134.2
825.862	13104.15
826.189	13054.2
826.516	13213.3
826.843	13211.04
827.17	13173.98
827.497	13135.78
827.824	13148.67
828.151	13145.95
828.478	13067.09
828.805	13216.01
829.131	13048.33
829.458	13038.61
829.785	12946.19
830.111	13016.01
830.438	13080.87
830.764	13121.32
831.09	13124.03
831.417	13053.75
831.743	13023.7
832.069	13025.96
832.395	12980.08
832.722	13010.59
833.048	12963.13
833.374	13027.31
833.7	12921.55
834.026	12956.58
834.351	13023.25
834.677	12933.08
835.003	13000.65
835.329	12883.59
835.654	12879.07
835.98	12873.64
836.306	12887.2
836.631	12808.11
836.956	12812.63
837.282	12827.32
837.607	12784.83
837.932	12788
838.258	12753.42
838.583	12718.62
838.908	12668
839.233	12701.9
839.558	12626.42
839.883	12633.2
840.208	12531.51
840.533	12606.76
840.858	12593.88
841.182	12547.1
841.507	12605.18
841.832	12449.02
842.156	12490.6
842.481	12440.21
842.805	12438.63
843.13	12425.75
843.454	12396.82
843.778	12342.13
844.103	12258.07
844.427	12226.66
844.751	12215.36
845.075	12247.45
845.399	12185.08
845.723	12106.43
846.047	12205.87
846.371	12002.26
846.695	12028.92
847.019	11962.03
847.343	11876.16
847.666	11811.3
847.99	11769.94
848.313	11781.47
848.637	11612.89
848.96	11651.3
849.284	11647.46
849.607	11533.11
849.931	11559.78
850.254	11431.2
850.577	11439.56
850.9	11320.92
851.223	11340.58
851.546	11277.53
851.869	11176.29
852.192	11221.48
852.515	11123.18
852.838	11043.18
853.161	11131.32
853.483	10983.3
853.806	10954.82
854.129	11010.87
854.451	10888.16
854.774	10798.44
855.096	10828.5
855.419	10739.24
855.741	10809.97
856.063	10693.14
856.385	10706.7
856.708	10688.62
857.03	10598.22
857.352	10615.85
857.674	10571.33
857.996	10530.43
858.318	10473.03
858.64	10535.85
858.961	10464.22
859.283	10419.25
859.605	10347.84
859.926	10401.62
860.248	10360.94
860.57	10347.38
860.891	10308.06
861.212	10264.67
861.534	10164.79
861.855	10177.67
862.176	10162.98
862.498	10203.66
862.819	10256.99
863.14	10127.73
863.461	10125.24
863.782	10060.84
864.103	10031.69
864.424	10068.75
864.745	10087.05
865.065	10043.44
865.386	9992.36
865.707	10009.77
866.027	9985.81
866.348	9958.47
866.668	9969.77
866.989	9941.97
867.309	9842.31
867.63	9843.22
867.95	9870.33
868.27	9826.95
868.59	9845.48
868.91	9833.95
869.23	9874.4
869.55	9652.94
869.87	9795.99
870.19	9769.55
870.51	9795.53
870.83	9697.68
871.15	9667.18
871.469	9699.94
871.789	9656.1
872.109	9648.87
872.428	9566.61
872.748	9628.53
873.067	9587.18
873.386	9603.22
873.706	9567.29
874.025	9548.99
874.344	9549.89
874.663	9514.18
874.982	9452.94
875.301	9524.58
875.62	9487.97
875.939	9466.5
876.258	9426.96
876.577	9353.29
876.896	9417.46
877.214	9345.15
877.533	9389.22
877.852	9408.2
878.17	9378.82
878.489	9397.35
878.807	9319.84
879.125	9305.6
879.444	9252.5
879.762	9229.9
880.08	9270.35
880.398	9221.31
880.716	9197.58
881.034	9219.73
881.352	9147.19
881.67	9185.38
881.988	9128.43
882.306	9118.72
882.624	9136.34
882.941	9058.6
883.259	9058.15
883.577	9039.17
883.894	9014.99
884.212	8984.93
884.529	8926.86
884.846	8953.07
885.164	8902
885.481	8956.01
885.798	8880.76
886.115	8838.95
886.432	8832.85
886.75	8817.25
887.067	8749.91
887.383	8805.95
887.7	8751.95
888.017	8722.34
888.334	8709.69
888.651	8667.65
888.967	8634.66
889.284	8604.83
889.6	8636.69
889.917	8523.7
890.233	8558.28
890.55	8527.54
890.866	8513.31
891.182	8468.34
891.498	8446.42
891.815	8383.37
892.131	8417.49
892.447	8428.34
892.763	8330.49
893.079	8312.63
893.395	8290.94
893.71	8314.89
894.026	8291.62
894.342	8280.54
894.657	8262.01
894.973	8238.74
895.289	8257.72
895.604	8202.35
895.92	8083.71
896.235	8078.29
896.55	8095.69
896.865	8025.18
897.181	8004.62
897.496	8021.12
897.811	7951.74
898.126	7939.54
898.441	7847.56
898.756	7899.54
899.071	7877.39
899.386	7850.95
899.7	7788.13
900.015	7705.87
900.33	7747.9
900.644	7714.68
900.959	7708.36
901.273	7663.84
901.588	7658.87
901.902	7530.06
902.216	7567.34
902.531	7545.42
902.845	7545.88
903.159	7472.66
903.473	7468.14
903.787	7376.61
904.101	7443.28
904.415	7437.4
904.729	7345.43
905.042	7289.16
905.356	7232.66
905.67	7258.2
905.984	7300.23
906.297	7299.78
906.611	7190.4
906.924	7197.64
907.237	7123.74
907.551	7112.67
907.864	7138.88
908.177	7090.29
908.491	7066.57
908.804	7030.41
909.117	6998.77
909.43	6954.7
909.743	6923.07
910.056	6920.13
910.368	6866.12
910.681	6820.24
910.994	6824.09
911.307	6773.92
911.619	6741.83
911.932	6742.28
912.244	6700.7
912.557	6700.7
912.869	6625.9
913.181	6642.62
913.494	6626.13
913.806	6550.65
914.118	6629.97
914.43	6478.78
914.742	6473.36
915.054	6431.33
915.366	6410.54
915.678	6374.83
915.99	6378.67
916.302	6318.11
916.613	6309.98
916.925	6309.3
917.236	6279.47
917.548	6263.42
917.859	6274.27
918.171	6185.01
918.482	6201.96
918.794	6129.42
919.105	6175.52
919.416	6090.09
919.727	6103.43
920.038	6075.86
920.349	6011.45
920.66	5983.2
920.971	6035.86
921.282	5912.02
921.593	5971.23
921.903	5886.48
922.214	5871.34
922.525	5884.45
922.835	5870.66
923.146	5808.29
923.456	5779.82
923.767	5732.82
924.077	5774.85
924.387	5706.83
924.697	5692.14
925.008	5642.2
925.318	5640.39
925.628	5590.45
925.938	5587.51
926.248	5535.31
926.558	5582.31
926.867	5523.56
927.177	5550.45
927.487	5494.4
927.796	5470.22
928.106	5422.09
928.416	5468.42
928.725	5404.24
929.034	5315.43
929.344	5345.71
929.653	5303.22
929.962	5260.96
930.271	5283.56
930.581	5277.91
930.89	5205.6
931.199	5173.28
931.508	5160.4
931.817	5179.16
932.125	5174.86
932.434	5075.43
932.743	5098.48
933.051	5034.98
933.36	5042.89
933.669	5016.45
933.977	5011.93
934.286	4992.04
934.594	4987.3
934.902	4948.43
935.21	4914.31
935.519	4912.72
935.827	4893.29
936.135	4884.02
936.443	4816.23
936.751	4833.4
937.059	4764.71
937.367	4762.67
937.674	4777.81
937.982	4726.06
938.29	4701.2
938.597	4668.89
938.905	4631.83
939.213	4654.65
939.52	4638.15
939.827	4619.62
940.135	4588.21
940.442	4564.03
940.749	4563.81
941.056	4582.11
941.363	4494.43
941.67	4470.93
941.977	4465.28
942.284	4441.78
942.591	4462.11
942.898	4432.74
943.205	4432.51
943.511	4396.35
943.818	4356.35
944.125	4328.11
944.431	4353.19
944.738	4323.13
945.044	4314.77
945.35	4264.15
945.657	4247.2
945.963	4257.37
946.269	4157.94
946.575	4180.99
946.881	4180.09
947.187	4147.55
947.493	4145.06
947.799	4161.33
948.105	4140.31
948.41	4089.92
948.716	4077.27
949.022	4064.61
949.327	4042.46
949.633	3994.78
949.938	3993.2
950.244	4025.74
950.549	3938.74
950.854	3922.47
951.16	3928.57
951.465	3912.75
951.77	3887.89
952.075	3894.9
952.38	3889.47
952.685	3809.02
952.99	3813.09
953.294	3835.01
953.599	3809.02
953.904	3794.56
954.209	3756.82
954.513	3809.25
954.818	3734
955.122	3735.81
955.426	3699.65
955.731	3718.86
956.035	3679.76
956.339	3618.97
956.643	3686.54
956.948	3639.09
957.252	3636.37
957.556	3610.84
957.86	3611.06
958.163	3600.44
958.467	3569.26
958.771	3568.35
959.075	3540.78
959.378	3551.63
959.682	3484.96
959.985	3486.55
960.289	3459.65
960.592	3439.32
960.896	3449.71
961.199	3426.44
961.502	3413.55
961.805	3400.22
962.108	3373.56
962.411	3323.39
962.714	3333.1
963.017	3340.11
963.32	3336.95
963.623	3287
963.926	3302.6
964.228	3303.05
964.531	3231.41
964.833	3251.52
965.136	3252.65
965.438	3235.71
965.741	3195.25
966.043	3183.5
966.345	3213.56
966.648	3124.3
966.95	3140.34
967.252	3123.84
967.554	3087.46
967.856	3101.02
968.158	3087.69
968.46	3073.45
968.761	3047.91
969.063	3082.94
969.365	3063.51
969.666	3009.05
969.968	2995.03
970.269	2987.8
970.571	3043.39
970.872	2996.84
971.174	2974.7
971.475	2941.25
971.776	2951.42
972.077	2918.43
972.378	2906.22
972.679	2895.15
972.98	2887.01
973.281	2880.24
973.582	2856.05
973.883	2862.38
974.183	2856.51
974.484	2835.49
974.785	2844.08
975.085	2792.55
975.386	2823.51
975.686	2786
975.986	2752.78
976.287	2732.44
976.587	2715.04
976.887	2722.27
977.187	2713.91
977.487	2735.15
977.787	2707.58
978.087	2696.29
978.387	2675.72
978.687	2664.42
978.987	2649.96
979.286	2611.09
979.586	2636.4
979.885	2629.17
980.185	2584.42
980.484	2583.97
980.784	2566.34
981.083	2572.67
981.382	2579
981.682	2560.47
981.981	2524.76
982.28	2538.78
982.579	2469.85
982.878	2526.12
983.177	2485.67
983.475	2490.87
983.774	2443.64
984.073	2460.59
984.372	2443.86
984.67	2430.98
984.969	2430.76
985.267	2421.72
985.566	2400.93
985.864	2418.33
986.162	2404.32
986.461	2348.27
986.759	2368.16
987.057	2389.85
987.355	2344.66
987.653	2350.98
987.951	2309.85
988.249	2290.87
988.547	2292.23
988.844	2313.47
989.142	2288.39
989.44	2275.96
989.737	2284.32
990.035	2244.09
990.332	2262.62
990.63	2232.79
990.927	2239.8
991.224	2209.07
991.521	2210.87
991.819	2203.19
992.116	2197.99
992.413	2174.94
992.71	2193.02
993.006	2140.14
993.303	2141.27
993.6	2130.42
993.897	2112.35
994.193	2118.67
994.49	2098.33
994.787	2059.47
995.083	2080.26
995.379	2070.31
995.676	2047.94
995.972	2074.83
996.268	2027.15
996.565	2061.27
996.861	2038
997.157	1995.74
997.453	1987.83
997.749	2010.43
998.044	1954.84
998.34	1965
998.636	1967.49
998.932	1973.82
999.227	1959.81
999.523	1928.4
999.818	1953.48
1000.114	1903.31
1000.409	1897.89
1000.704	1898.57
1001	1882.75
1001.295	1876.87
1001.59	1845.69
1001.885	1880.49
1002.18	1850.43
1002.475	1875.97
1002.77	1825.12
1003.065	1804.78
1003.359	1821.96
1003.654	1813.82
1003.949	1799.36
1004.243	1797.78
1004.538	1762.75
1004.832	1773.15
1005.127	1781.05
1005.421	1746.25
1005.715	1739.7
1006.009	1709.42
1006.304	1710.55
1006.598	1724.56
1006.892	1680.94
1007.186	1677.78
1007.48	1668.29
1007.773	1660.61
1008.067	1653.15
1008.361	1646.37
1008.655	1628.06
1008.948	1661.74
1009.242	1628.97
1009.535	1630.55
1009.829	1630.32
1010.122	1604.34
1010.415	1560.95
1010.708	1568.41
1011.001	1583.09
1011.295	1567.73
1011.588	1570.44
1011.881	1548.97
1012.173	1521.17
1012.466	1519.59
1012.759	1536.09
1013.052	1497.9
1013.344	1504
1013.637	1495.19
1013.93	1464.45
1014.222	1485.02
1014.514	1485.24
1014.807	1433.72
1015.099	1446.6
1015.391	1449.76
1015.683	1412.93
1015.976	1433.72
1016.268	1446.83
1016.56	1394.4
1016.851	1388.3
1017.143	1407.28
1017.435	1384.68
1017.727	1356.21
1018.018	1377.22
1018.31	1360.5
1018.602	1358.02
1018.893	1354.63
1019.185	1359.6
1019.476	1313.5
1019.767	1319.37
1020.058	1290.9
1020.35	1302.42
1020.641	1298.81
1020.932	1286.15
1021.223	1287.96
1021.514	1271.24
1021.804	1253.39
1022.095	1258.13
1022.386	1265.59
1022.677	1235.31
1022.967	1238.7
1023.258	1216.78
1023.548	1221.3
1023.839	1190.56
1024.129	1204.35
1024.419	1198.25
1024.709	1192.82
1025	1174.07
1025.29	1190.79
1025.58	1157.34
1025.87	1118.25
1026.16	1154.18
1026.449	1153.27
1026.739	1139.49
1027.029	1124.12
1027.319	1131.35
1027.608	1108.98
1027.898	1123.45
1028.187	1123.67
1028.477	1090
1028.766	1093.39
1029.055	1065.59
1029.344	1082.77
1029.634	1061.98
1029.923	1052.49
1030.212	1070.79
1030.501	1059.04
1030.79	1018.14
1031.078	1033.5
1031.367	1019.49
1031.656	1005.71
1031.945	1011.13
1032.233	1012.04
1032.522	1016.33
1032.81	1009.55
1033.099	986.5
1033.387	984.92
1033.675	991.7
1033.963	987.18
1034.251	955.54
1034.54	981.98
1034.828	966.61
1035.116	923.45
1035.403	942.43
1035.691	955.77
1035.979	908.54
1036.267	913.28
1036.554	923
1036.842	887.29
1037.129	909.21
1037.417	899.5
1037.704	907.18
1037.992	886.39
1038.279	887.29
1038.566	899.95
1038.853	899.95
1039.14	899.95
