Data from hue_280_FLMS001491_00061.txt Node
Date: Tue Feb 07 15:55:35 GMT 2017
User: dcchb
Spectrometer: FLMS00149
Trigger mode: 0
Integration Time (sec): 2.000000E-2
Scans to average: 10
Electric dark correction enabled: true
Nonlinearity correction enabled: false
Boxcar width: 0
XAxis mode: Wavelengths
Number of Pixels in Spectrum: 2048
>>>>>Begin Spectral Data<<<<<
341.393	-17.74
341.776	-17.74
342.16	-17.74
342.543	-35.82
342.927	-68.36
343.31	-63.16
343.693	-68.13
344.077	-62.48
344.46	-31.07
344.843	-57.06
345.226	-40.11
345.61	-42.15
345.993	-24.07
346.376	-9.15
346.759	1.47
347.142	13.67
347.525	38.08
347.908	71.52
348.291	74.91
348.674	80.34
349.057	117.4
349.44	132.31
349.823	146.32
350.206	161.01
350.588	197.85
350.971	219.99
351.354	205.53
351.737	223.16
352.119	253.67
352.502	256.15
352.884	270.16
353.267	246.89
353.65	275.36
354.032	294.34
354.414	287.34
354.797	295.7
355.179	288.92
355.562	303.38
355.944	317.84
356.326	338.41
356.709	322.36
357.091	339.54
357.473	339.09
357.855	326.66
358.238	346.09
358.62	323.27
359.002	323.95
359.384	322.59
359.766	336.38
360.148	307.68
360.53	328.24
360.912	310.84
361.294	324.85
361.676	343.38
362.057	339.99
362.439	310.61
362.821	332.31
363.203	307.22
363.584	319.43
363.966	303.38
364.348	324.85
364.729	319.65
365.111	309.94
365.493	318.52
365.874	290.27
366.256	300.22
366.637	308.35
367.019	299.99
367.4	310.39
367.781	332.99
368.163	323.49
368.544	294.12
368.925	297.96
369.306	287.11
369.688	314.91
370.069	303.83
370.45	308.81
370.831	307.9
371.212	310.61
371.593	296.6
371.974	296.6
372.355	317.62
372.736	311.29
373.117	302.48
373.498	292.08
373.879	304.96
374.26	315.36
374.641	310.61
375.021	307.9
375.402	325.08
375.783	301.12
376.163	334.57
376.544	323.95
376.925	304.51
377.305	316.04
377.686	340.89
378.066	318.07
378.447	335.25
378.827	304.06
379.208	316.94
379.588	294.57
379.968	332.08
380.349	343.38
380.729	320.56
381.109	324.62
381.489	332.99
381.87	344.51
382.25	324.85
382.63	348.13
383.01	334.34
383.39	323.72
383.77	352.19
384.15	347.9
384.53	325.3
384.91	344.06
385.29	346.77
385.67	342.48
386.049	344.51
386.429	356.94
386.809	355.36
387.189	341.8
387.568	339.09
387.948	346.09
388.328	372.76
388.707	364.85
389.087	336.38
389.466	377.96
389.846	348.35
390.225	352.87
390.605	358.97
390.984	365.3
391.363	369.82
391.743	360.78
392.122	336.6
392.501	358.3
392.881	360.78
393.26	375.92
393.639	363.04
394.018	382.7
394.397	363.72
394.776	371.63
395.155	382.02
395.534	384.96
395.913	392.87
396.292	404.62
396.671	385.19
397.05	388.58
397.429	389.71
397.808	389.26
398.186	403.72
398.565	373.44
398.944	408.92
399.323	405.98
399.701	401.91
400.08	387.67
400.458	397.84
400.837	419.09
401.215	418.41
401.594	396.26
401.972	401.46
402.351	408.24
402.729	407.11
403.107	432.87
403.486	427.67
403.864	434.68
404.242	430.16
404.62	417.5
404.999	417.73
405.377	446.65
405.755	449.59
406.133	450.5
406.511	439.88
406.889	453.21
407.267	445.3
407.645	474.9
408.023	461.34
408.401	459.08
408.779	464.51
409.156	473.09
409.534	491.63
409.912	485.98
410.29	480.33
410.667	497.73
411.045	486.65
411.422	520.33
411.8	543.15
412.178	512.42
412.555	536.37
412.933	507.67
413.31	555.58
413.687	553.77
414.065	552.64
414.442	564.17
414.819	575.24
415.197	597.39
415.574	569.14
415.951	597.16
416.328	585.63
416.705	596.26
417.082	619.98
417.46	605.97
417.837	616.82
418.214	622.47
418.591	624.05
418.967	628.35
419.344	603.49
419.721	663.15
420.098	640.1
420.475	665.63
420.852	664.5
421.228	688
421.605	689.36
421.982	708.34
422.358	697.04
422.735	717.61
423.111	739.53
423.488	727.55
423.864	732.52
424.241	730.04
424.617	747.89
424.994	746.08
425.37	755.35
425.746	791.28
426.123	780.66
426.499	785.18
426.875	821.56
427.251	822.69
427.627	837.38
428.003	805.97
428.379	841.9
428.756	838.06
429.132	848.68
429.507	862.69
429.883	880.54
430.259	887.55
430.635	892.52
431.011	917.15
431.387	922.35
431.763	920.31
432.138	938.17
432.514	934.55
432.89	969.81
433.265	990.6
433.641	962.57
434.016	1014.1
434.392	1040.09
434.767	1033.53
435.143	1040.76
435.518	1051.16
435.894	1037.83
436.269	1102
436.644	1095.23
437.02	1114.66
437.395	1138.16
437.77	1136.13
438.145	1153.75
438.52	1168.67
438.895	1170.03
439.271	1175.45
439.646	1187.2
440.021	1196.92
440.395	1228.56
440.77	1204.83
441.145	1245.28
441.52	1264.03
441.895	1242.79
442.27	1262.68
442.645	1247.54
443.019	1277.59
443.394	1297.48
443.769	1302.23
444.143	1297.25
444.518	1303.58
444.892	1325.28
445.267	1313.75
445.641	1346.29
446.016	1327.08
446.39	1341.09
446.764	1366.4
447.139	1380.64
447.513	1373.41
447.887	1361.66
448.262	1358.27
448.636	1398.95
449.01	1381.09
449.384	1408.66
449.758	1403.92
450.132	1429.91
450.506	1420.19
450.88	1441.43
451.254	1437.59
451.628	1454.76
452.002	1452.96
452.376	1458.15
452.75	1471.26
453.123	1485.95
453.497	1506.51
453.871	1506.06
454.244	1531.6
454.618	1535.44
454.992	1570.24
455.365	1541.77
455.739	1589.22
456.112	1573.4
456.486	1603.69
456.859	1622.67
457.232	1626.51
457.606	1637.13
457.979	1636
458.352	1639.62
458.725	1687.3
459.099	1671.26
459.472	1718.71
459.845	1723.91
460.218	1743.34
460.591	1733.85
460.964	1771.37
461.337	1793.29
461.71	1795.09
462.083	1846.17
462.456	1811.36
462.829	1837.58
463.201	1869.67
463.574	1879.39
463.947	1892.72
464.32	1927.07
464.692	1932.04
465.065	1935.66
465.438	1978.82
465.81	2013.85
466.183	1975.65
466.555	2027.86
466.928	1993.05
467.3	2014.3
467.672	2064.01
468.045	2047.74
468.417	2064.69
468.789	2096.78
469.161	2114.18
469.534	2162.77
469.906	2182.2
470.278	2179.94
470.65	2194.18
471.022	2217.68
471.394	2277.34
471.766	2275.76
472.138	2266.95
472.51	2337
472.882	2357.11
473.253	2353.72
473.625	2392.82
473.997	2412.48
474.369	2455.19
474.74	2436.66
475.112	2519.59
475.484	2485.47
475.855	2577.45
476.227	2581.51
476.598	2597.11
476.97	2638.69
477.341	2696.77
477.713	2680.04
478.084	2731.57
478.455	2787.38
478.827	2803.2
479.198	2853.37
479.569	2830.32
479.94	2928.85
480.311	2948.06
480.682	3006.81
481.053	3056.98
481.424	3060.6
481.795	3098.79
482.166	3120.93
482.537	3158.45
482.908	3183.98
483.279	3224.21
483.65	3235.06
484.021	3285.45
484.391	3316.86
484.762	3328.61
485.133	3356.86
485.503	3395.05
485.874	3463.98
486.244	3457.65
486.615	3525.44
486.985	3503.3
487.356	3612.22
487.726	3621.03
488.097	3683.86
488.467	3657.42
488.837	3783.97
489.207	3773.57
489.578	3818.09
489.948	3851.31
490.318	3851.76
490.688	3891.54
491.058	3934.92
491.428	3926.79
491.798	3956.17
492.168	4027.58
492.538	4076.62
492.908	4083.85
493.278	4128.14
493.648	4128.14
494.017	4155.48
494.387	4163.85
494.757	4178.53
495.126	4271.87
495.496	4258.31
495.866	4289.72
496.235	4339.43
496.605	4329.26
496.974	4385.99
497.344	4375.14
497.713	4394.57
498.082	4424.63
498.452	4434.12
498.821	4439.32
499.19	4502.82
499.559	4497.85
499.928	4565.64
500.298	4536.26
500.667	4559.54
501.036	4604.29
501.405	4593.89
501.774	4555.25
502.143	4627.34
502.512	4671.85
502.88	4691.52
503.249	4649.48
503.618	4692.64
503.987	4699.42
504.356	4715.47
504.724	4714.79
505.093	4800.21
505.462	4805.64
505.83	4754.34
506.199	4852.87
506.567	4860.55
506.936	4850.38
507.304	4878.85
507.672	4888.35
508.041	4916.14
508.409	4944.39
508.777	4910.27
509.145	4948.23
509.514	4960.43
509.882	5013.31
510.25	4986.87
510.618	4991.62
510.986	5051.73
511.354	5076.82
511.722	5055.12
512.09	5083.37
512.458	5070.94
512.826	5120.66
513.193	5032.98
513.561	5119.53
513.929	5147.1
514.297	5158.85
514.664	5200.88
515.032	5205.85
515.4	5190.48
515.767	5169.69
516.135	5209.47
516.502	5213.31
516.869	5240.2
517.237	5282.01
517.604	5209.02
517.972	5286.53
518.339	5312.06
518.706	5323.14
519.073	5346.64
519.44	5352.97
519.808	5386.64
520.175	5357.03
520.542	5403.59
520.909	5432.51
521.276	5351.38
521.643	5442.68
522.009	5430.93
522.376	5416.47
522.743	5445.62
523.11	5551.83
523.477	5555.45
523.843	5553.64
524.21	5551.38
524.577	5638.83
524.943	5622.34
525.31	5634.77
525.676	5711.6
526.043	5719.74
526.409	5719.28
526.776	5697.59
527.142	5742.56
527.508	5754.54
527.874	5831.82
528.241	5847.42
528.607	5820.3
528.973	5893.29
529.339	5896.91
529.705	5866.63
530.071	5900.97
530.437	5943.23
530.803	5958.83
531.169	6044.25
531.535	5952.95
531.901	5968.54
532.267	5980.75
532.632	6010.35
532.998	6063
533.364	6137.35
533.73	6117.24
534.095	6097.13
534.461	6133.96
534.826	6120.86
535.192	6137.35
535.557	6159.73
535.923	6129.44
536.288	6166.5
536.653	6215.99
537.019	6175.09
537.384	6225.03
537.749	6186.17
538.114	6176
538.479	6225.49
538.845	6293.05
539.21	6244.24
539.575	6258.48
539.94	6251.7
540.305	6363.79
540.67	6292.6
541.034	6346.39
541.399	6334.41
541.764	6370.57
542.129	6341.19
542.494	6429.32
542.858	6374.41
543.223	6351.81
543.587	6444.92
543.952	6352.26
544.316	6455.99
544.681	6430.23
545.045	6453.95
545.41	6446.95
545.774	6495.54
546.138	6549.32
546.503	6504.12
546.867	6548.19
547.231	6555.65
547.595	6573.73
547.959	6597.45
548.324	6563.56
548.688	6565.82
549.052	6594.29
549.416	6585.48
549.779	6625.93
550.143	6596.55
550.507	6684.46
550.871	6624.57
551.235	6590.67
551.599	6661.63
551.962	6696.21
552.326	6675.64
552.689	6685.59
553.053	6619.37
553.417	6666.83
553.78	6748.86
554.143	6755.42
554.507	6746.6
554.87	6787.28
555.234	6760.84
555.597	6798.35
555.96	6773.04
556.323	6822.08
556.686	6866.83
557.05	6868.41
557.413	6866.37
557.776	6911.8
558.139	6902.3
558.502	6905.92
558.865	6944.34
559.228	6946.6
559.59	6992.02
559.953	6983.43
560.316	7022.53
560.679	7033.83
561.041	7025.24
561.404	7057.55
561.767	7147.27
562.129	7103.43
562.492	7175.97
562.854	7167.16
563.217	7169.42
563.579	7157.89
563.941	7246.93
564.304	7202.64
564.666	7298
565.028	7270.2
565.39	7331.22
565.753	7359.02
566.115	7360.15
566.477	7412.8
566.839	7387.26
567.201	7408.96
567.563	7394.27
567.925	7521.27
568.287	7478.11
568.648	7506.36
569.01	7605.34
569.372	7599.01
569.734	7553.59
570.095	7668.84
570.457	7615.51
570.819	7709.06
571.18	7703.19
571.542	7695.05
571.903	7718.33
572.265	7745.9
572.626	7818.44
572.987	7809.17
573.349	7779.34
573.71	7907.02
574.071	7900.24
574.432	7945.21
574.794	8025.21
575.155	7995.61
575.516	7973.01
575.877	8056.85
576.238	8057.98
576.599	8172.33
576.96	8139.33
577.32	8139.56
577.681	8177.53
578.042	8256.62
578.403	8349.72
578.763	8379.33
579.124	8358.99
579.485	8403.73
579.845	8460.91
580.206	8429.27
580.566	8520.34
580.927	8635.59
581.287	8633.33
581.648	8570.51
582.008	8728.02
582.368	8763.95
582.728	8802.59
583.089	8780.67
583.449	8848.69
583.809	8887.34
584.169	8947
584.529	8944.74
584.889	9095.47
585.249	9067.9
585.609	9139.31
585.969	9265.41
586.329	9239.42
586.688	9377.95
587.048	9355.35
587.408	9467.89
587.768	9546.08
588.127	9651.38
588.487	9613.65
588.846	9729.12
589.206	9718.73
589.565	9799.4
589.925	9904.94
590.284	9850.48
590.643	10044.59
591.003	10101.54
591.362	10154.42
591.721	10266.96
592.08	10255.44
592.44	10444.58
592.799	10428.31
593.158	10468.54
593.517	10561.19
593.876	10593.05
594.235	10608.65
594.593	10698.36
594.952	10751.69
595.311	10749.21
595.67	10845.25
596.029	10944.68
596.387	11035.76
596.746	11070.33
597.104	11180.61
597.463	11176.09
597.822	11253.38
598.18	11291.12
598.538	11351.23
598.897	11415.18
599.255	11430.32
599.613	11614.95
599.972	11575.4
600.33	11589.19
600.688	11606.81
601.046	11758
601.404	11846.36
601.762	11838.9
602.12	11967.03
602.478	12049.97
602.836	11937.2
603.194	11978.78
603.552	12023.07
603.91	11986.46
604.268	12136.97
604.625	12119.34
604.983	12216.51
605.341	12199.11
605.698	12323.63
606.056	12328.83
606.413	12416.06
606.771	12400.01
607.128	12450.18
607.485	12426.45
607.843	12449.96
608.2	12608.6
608.557	12585.32
608.914	12578.99
609.272	12651.76
609.629	12694.92
609.986	12817.4
610.343	12722.04
610.7	12872.09
611.057	12822.15
611.414	12867.12
611.771	12862.83
612.127	12945.99
612.484	12955.93
612.841	13049.04
613.198	12980.56
613.554	13066.66
613.911	13084.97
614.267	13133.55
614.624	13069.37
614.98	13168.58
615.337	13282.7
615.693	13214.68
616.05	13154.57
616.406	13280.22
616.762	13241.35
617.118	13291.06
617.475	13239.09
617.831	13319.08
618.187	13315.92
618.543	13365.41
618.899	13414.45
619.255	13457.16
619.611	13479.98
619.967	13461.23
620.323	13521.11
620.678	13410.16
621.034	13495.8
621.39	13417.84
621.746	13498.52
622.101	13707.78
622.457	13598.63
622.812	13576.03
623.168	13711.62
623.523	13663.03
623.879	13726.53
624.234	13675.23
624.589	13722.01
624.945	13642.01
625.3	13736.47
625.655	13641.11
626.01	13598.17
626.365	13729.02
626.72	13739.19
627.075	13712.29
627.43	13625.97
627.785	13653.54
628.14	13687.89
628.495	13725.4
628.85	13785.06
629.205	13614.67
629.559	13791.84
629.914	13764.04
630.269	13744.61
630.623	13728.57
630.978	13586.2
631.332	13712.75
631.687	13658.74
632.041	13572.19
632.396	13629.59
632.75	13491.06
633.104	13576.71
633.459	13538.51
633.813	13539.42
634.167	13593.88
634.521	13559.3
634.875	13552.75
635.229	13531.73
635.583	13611.96
635.937	13510.94
636.291	13523.15
636.645	13466.65
636.999	13512.75
637.352	13517.27
637.706	13465.52
638.06	13509.81
638.413	13435.01
638.767	13379.2
639.121	13460.55
639.474	13381.46
639.828	13485.18
640.181	13378.97
640.534	13347.78
640.888	13416.48
641.241	13332.64
641.594	13358.18
641.947	13432.75
642.301	13381.68
642.654	13433.43
643.007	13343.49
643.36	13249.93
643.713	13329.48
644.066	13336.94
644.419	13339.42
644.771	13243.83
645.124	13163.38
645.477	13094.46
645.83	12960.22
646.182	12960.45
646.535	12921.13
646.888	12950.96
647.24	12896.95
647.593	12962.94
647.945	12940.79
648.298	12920
648.65	12925.2
649.002	12925.42
649.355	12917.06
649.707	12856.95
650.059	12990.05
650.411	13108.92
650.763	13083.16
651.115	13256.71
651.467	13168.35
651.819	13215.13
652.171	13233.89
652.523	13161.8
652.875	13161.57
653.227	13207.22
653.578	13238.63
653.93	13234.79
654.282	13147.34
654.633	13172.2
654.985	13169.48
655.337	13177.62
655.688	13200.67
656.039	13279.54
656.391	13165.42
656.742	13162.48
657.094	13196.6
657.445	13224.85
657.796	13250.61
658.147	13249.03
658.498	13239.09
658.849	13220.78
659.2	13240.44
659.551	13208.58
659.902	13338.52
660.253	13237.28
660.604	13285.19
660.955	13278.18
661.306	13289.03
661.656	13279.54
662.007	13266.66
662.358	13267.79
662.708	13381.91
663.059	13233.89
663.409	13284.06
663.76	13282.02
664.11	13314.34
664.461	13334.9
664.811	13324.06
665.161	13279.31
665.511	13313.44
665.862	13298.97
666.212	13362.02
666.562	13322.93
666.912	13344.62
667.262	13347.11
667.612	13254
667.962	13328.8
668.312	13211.52
668.662	13449.25
669.011	13288.35
669.361	13322.25
669.711	13248.13
670.06	13298.97
670.41	13246.77
670.76	13282.93
671.109	13336.49
671.459	13262.82
671.808	13285.87
672.157	13340.33
672.507	13174.23
672.856	13234.12
673.205	13237.73
673.554	13227.34
673.904	13253.32
674.253	13232.08
674.602	13207.22
674.951	12992.09
675.3	12997.29
675.649	13243.38
675.998	13182.82
676.346	13123.16
676.695	13145.98
677.044	13106.89
677.393	13094.23
677.741	13132.88
678.09	13071.18
678.438	13054.46
678.787	13029.6
679.135	13095.81
679.484	12989.6
679.832	13046.55
680.181	12963.61
680.529	13041.13
680.877	12918.42
681.225	12946.67
681.573	12961.13
681.922	12843.17
682.27	12929.04
682.618	12852.88
682.966	12789.83
683.314	12878.19
683.661	12835.26
684.009	12687.24
684.357	12783.96
684.705	12718.2
685.053	12731.3
685.4	12697.86
685.748	12665.32
686.095	12637.29
686.443	12552.55
686.79	12551.65
687.138	12602.72
687.485	12535.83
687.832	12451.31
688.18	12469.16
688.527	12364.08
688.874	12341.48
689.221	12373.8
689.568	12391.2
689.915	12287.02
690.262	12279.56
690.609	12185.78
690.956	12247.93
691.303	12097.2
691.65	12070.53
691.997	12103.3
692.344	11977.43
692.69	11998.44
693.037	11962.28
693.383	11850.87
693.73	11976.07
694.077	11800.03
694.423	11849.29
694.769	11749.41
695.116	11756.41
695.462	11708.05
695.808	11622.41
696.155	11648.39
696.501	11640.26
696.847	11542.63
697.193	11427.84
697.539	11555.52
697.885	11449.3
698.231	11361.62
698.577	11337.67
698.923	11354.39
699.269	11246.14
699.614	11224.9
699.96	11167.5
700.306	11154.62
700.651	11085.7
700.997	11007.96
701.342	11048.86
701.688	11003.44
702.033	10987.85
702.379	10889.32
702.724	10926.38
703.069	10914.18
703.415	10795.08
703.76	10787.85
704.105	10760.28
704.45	10723.9
704.795	10598.03
705.14	10618.59
705.485	10553.96
705.83	10595.54
706.175	10533.85
706.52	10491.36
706.865	10453.62
707.209	10449.1
707.554	10415.66
707.899	10412.49
708.243	10330.91
708.588	10348.54
708.932	10272.61
709.277	10277.58
709.621	10300.86
709.966	10218.38
710.31	10220.86
710.654	10196.23
710.998	10125.04
711.342	10115.55
711.687	10099.73
712.031	10028.78
712.375	10014.99
712.719	10023.35
713.063	10038.04
713.407	10025.61
713.75	9924.37
714.094	9953.3
714.438	9868.55
714.782	9964.6
715.125	9830.81
715.469	9862.68
715.812	9803.7
716.156	9703.36
716.499	9768.9
716.843	9843.7
717.186	9733.64
717.53	9798.05
717.873	9862.9
718.216	9764.38
718.559	9774.77
718.902	9680.54
719.246	9664.49
719.589	9654.77
719.932	9636.47
720.275	9629.92
720.617	9537.94
720.96	9676.24
721.303	9644.83
721.646	9612.06
721.989	9556.92
722.331	9628.56
722.674	9550.82
723.016	9567.55
723.359	9548.11
723.701	9521.9
724.044	9474.67
724.386	9503.14
724.729	9515.12
725.071	9491.39
725.413	9447.55
725.755	9528.22
726.097	9422.24
726.439	9461.11
726.782	9426.98
727.124	9496.81
727.465	9411.39
727.807	9424.5
728.149	9392.41
728.491	9365.97
728.833	9482.12
729.175	9393.54
729.516	9410.26
729.858	9398.06
730.199	9361.67
730.541	9351.28
730.882	9342.47
731.224	9414.78
731.565	9395.57
731.906	9344.5
732.248	9427.44
732.589	9297.72
732.93	9293.2
733.271	9369.58
733.612	9381.79
733.953	9358.29
734.294	9319.42
734.635	9303.15
734.976	9331.17
735.317	9285.29
735.658	9388.11
735.999	9321
736.339	9358.06
736.68	9369.81
737.021	9363.71
737.361	9325.74
737.702	9329.59
738.042	9391.96
738.383	9323.94
738.723	9409.13
739.063	9352.86
739.404	9421.33
739.744	9477.6
740.084	9417.27
740.424	9475.12
740.764	9474.44
741.104	9466.76
741.444	9476.25
741.784	9524.16
742.124	9547.21
742.464	9492.97
742.804	9496.81
743.143	9538.62
743.483	9606.64
743.823	9549.92
744.162	9578.17
744.502	9637.83
744.841	9576.36
745.181	9742.91
745.52	9678.95
745.86	9759.63
746.199	9838.27
746.538	9795.56
746.877	9906.75
747.216	9934.77
747.556	9954.2
747.895	10000.98
748.234	10011.83
748.573	10084.82
748.911	10136.34
749.25	10223.8
749.589	10276.68
749.928	10371.59
750.267	10418.82
750.605	10444.81
750.944	10523.23
751.283	10525.94
751.621	10682.32
751.96	10724.12
752.298	10914.63
752.636	10970.67
752.975	10941.07
753.313	11081.86
753.651	11267.39
753.989	11271
754.327	11372.02
754.666	11513.93
755.004	11628.06
755.342	11791.89
755.679	11927.93
756.017	11982.4
756.355	12198.21
756.693	12202.5
757.031	12345.55
757.368	12439.11
757.706	12610.4
758.044	12683.4
758.381	12857.63
758.719	13017.85
759.056	13128.81
759.394	13215.58
759.731	13406.54
760.068	13435.01
760.405	13595.46
760.743	13700.77
761.08	13921.55
761.417	13979.18
761.754	14056.92
762.091	14275.9
762.428	14357.93
762.765	14425.27
763.102	14646.28
763.438	14745.26
763.775	14856.45
764.112	15050.56
764.449	15153.61
764.785	15242.42
765.122	15286.49
765.458	15473.15
765.795	15618.46
766.131	15744.33
766.467	15813.93
766.804	15892.35
767.14	15960.6
767.476	16145.68
767.812	16193.59
768.148	16364.65
768.485	16268.16
768.821	16410.75
769.157	16568.49
769.492	16626.34
769.828	16756.96
770.164	16627.25
770.5	16790.63
770.836	16946.33
771.171	16897.97
771.507	16960.12
771.842	16974.58
772.178	17020.46
772.513	17131.64
772.849	17172.32
773.184	17252.77
773.519	17356.27
773.855	17223.84
774.19	17284.86
774.525	17352.88
774.86	17407.79
775.195	17400.33
775.53	17506.32
775.865	17441.24
776.2	17388.13
776.535	17307.45
776.87	17520.56
777.205	17515.36
777.539	17384.29
777.874	17553.55
778.209	17407.34
778.543	17457.51
778.878	17445.3
779.212	17571.63
779.547	17509.94
779.881	17464.06
780.215	17404.4
780.55	17491.4
780.884	17495.92
781.218	17475.59
781.552	17493.21
781.886	17362.37
782.22	17405.98
782.554	17339.32
782.888	17182.49
783.222	17185.88
783.556	17244.63
783.889	17180.45
784.223	17236.27
784.557	17107.91
784.89	17248.25
785.224	17123.05
785.557	17133.45
785.891	17149.27
786.224	17108.36
786.558	17042.38
786.891	16918.76
787.224	16857.52
787.557	16987.46
787.891	16888.93
788.224	16867.92
788.557	16963.73
788.89	16758.32
789.223	16894.58
789.556	16723.52
789.888	16724.19
790.221	16710.41
790.554	16555.84
790.887	16523.97
791.219	16492.33
791.552	16441.26
791.884	16484.65
792.217	16445.1
792.549	16443.07
792.882	16304.32
793.214	16286.46
793.546	16279.46
793.879	16199.01
794.211	16173.02
794.543	16230.87
794.875	16186.35
795.207	16212.34
795.539	16109.29
795.871	16163.3
796.203	15973.7
796.535	15918.56
796.867	15901.62
797.198	15885.8
797.53	15793.6
797.862	15726.93
798.193	15771.68
798.525	15734.84
798.856	15728.96
799.188	15514.06
799.519	15499.37
799.85	15397.45
800.182	15396.09
800.513	15437.22
800.844	15296.66
801.175	15362.65
801.506	15493.72
801.837	15218.24
802.168	15193.61
802.499	15305.25
802.83	15205.81
803.161	15096.44
803.491	15185.93
803.822	15083.78
804.153	15054.86
804.483	14926.27
804.814	14945.26
805.145	14906.39
805.475	14858.03
805.805	14829.78
806.136	14928.08
806.466	14724.02
806.796	14845.6
807.126	14624.81
807.457	14667.98
807.787	14585.94
808.117	14637.69
808.447	14636.34
808.777	14562.22
809.107	14545.27
809.436	14480.41
809.766	14441.09
810.096	14418.26
810.426	14343.92
810.755	14419.39
811.085	14351.15
811.414	14276.12
811.744	14148.44
812.073	14233.41
812.403	14282.22
812.732	14226.86
813.061	14131.72
813.39	14067.77
813.719	14038.16
814.049	14055.56
814.378	14065.51
814.707	13941.22
815.036	14030.93
815.365	13866.42
815.693	13823.7
816.022	13802.69
816.351	13823.48
816.68	13712.52
817.008	13785.74
817.337	13677.27
817.665	13615.35
817.994	13665.97
818.322	13640.88
818.651	13596.37
818.979	13574.9
819.307	13545.52
819.636	13631.84
819.964	13426.65
820.292	13489.25
820.62	13491.74
820.948	13494.9
821.276	13512.53
821.604	13432.3
821.932	13407.22
822.259	13451.96
822.587	13474.11
822.915	13436.82
823.243	13376.26
823.57	13468.46
823.898	13408.35
824.225	13378.74
824.553	13426.2
824.88	13359.99
825.207	13436.82
825.535	13410.83
825.862	13464.84
826.189	13404.51
826.516	13441.79
826.843	13383.26
827.17	13409.25
827.497	13471.4
827.824	13436.37
828.151	13473.43
828.478	13456.93
828.805	13515.24
829.131	13404.73
829.458	13464.84
829.785	13330.84
830.111	13396.37
830.438	13423.94
830.764	13415.81
831.09	13532.64
831.417	13351.17
831.743	13370.16
832.069	13391.63
832.395	13312.76
832.722	13395.24
833.048	13310.27
833.374	13311.4
833.7	13267.11
834.026	13232.31
834.351	13271.63
834.677	13287
835.003	13301.91
835.329	13244.28
835.654	13261.91
835.98	13225.08
836.306	13181.91
836.631	13183.04
836.956	13218.52
837.282	13278.86
837.607	13186.21
837.932	13157.96
838.258	13197.05
838.583	13199.99
838.908	13054.01
839.233	13151.63
839.558	13026.44
839.883	12989.15
840.208	13016.04
840.533	12998.87
840.858	12921.81
841.182	12959.77
841.507	13000.68
841.832	12903.95
842.156	12876.84
842.481	12856.72
842.805	12782.6
843.13	12751.19
843.454	12709.16
843.778	12759.1
844.103	12676.39
844.427	12609.05
844.751	12630.52
845.075	12601.14
845.399	12546.9
845.723	12460.35
846.047	12534.25
846.371	12417.41
846.695	12332.67
847.019	12342.39
847.343	12266.68
847.666	12113.01
847.99	12144.2
848.313	12050.87
848.637	12027.14
848.96	12005.67
849.284	12038.67
849.607	11884.09
849.931	11914.38
850.254	11811.1
850.577	11703.76
850.9	11649.75
851.223	11692.01
851.546	11682.97
851.869	11523.43
852.192	11583.09
852.515	11437.1
852.838	11402.3
853.161	11473.03
853.483	11351.68
853.806	11309.19
854.129	11335.86
854.451	11287.95
854.774	11254.73
855.096	11279.36
855.419	11138.35
855.741	11142.19
856.063	11086.83
856.385	11055.87
856.708	10986.49
857.03	11049.99
857.352	11003.67
857.674	10917.57
857.996	10879.83
858.318	10761.86
858.64	10815.42
858.961	10756.89
859.283	10766.16
859.605	10641.42
859.926	10673.5
860.248	10778.59
860.57	10651.81
860.891	10652.71
861.212	10633.51
861.534	10611.13
861.855	10539.04
862.176	10611.59
862.498	10499.5
862.819	10488.2
863.14	10456.56
863.461	10449.1
863.782	10450.46
864.103	10510.12
864.424	10394.42
864.745	10428.77
865.065	10323.01
865.386	10300.63
865.707	10331.82
866.027	10380.63
866.348	10256.11
866.668	10288.43
866.989	10271.93
867.309	10168.43
867.63	10223.8
867.95	10224.7
868.27	10115.78
868.59	10181.31
868.91	10106.51
869.23	10153.97
869.55	10038.95
869.87	10131.37
870.19	10036.69
870.51	10026.52
870.83	10109.23
871.15	10001.21
871.469	9982.45
871.789	10036.23
872.109	9954.43
872.428	9948.33
872.748	9956.91
873.067	9964.6
873.386	9959.17
873.706	9897.93
874.025	9910.36
874.344	9848.22
874.663	9850.93
874.982	9784.26
875.301	9772.51
875.62	9793.08
875.939	9782.91
876.258	9781.1
876.577	9692.74
876.896	9697.26
877.214	9706.07
877.533	9726.41
877.852	9760.99
878.17	9695.68
878.489	9644.15
878.807	9677.6
879.125	9626.53
879.444	9552.86
879.762	9546.08
880.08	9598.5
880.398	9543.59
880.716	9572.29
881.034	9487.1
881.352	9581.33
881.67	9529.13
881.988	9537.26
882.306	9455.23
882.624	9472.18
882.941	9365.06
883.259	9401.67
883.577	9314.44
883.894	9311.96
884.212	9297.72
884.529	9276.71
884.846	9285.07
885.164	9265.18
885.481	9229.93
885.798	9175.01
886.115	9151.74
886.432	9151.74
886.75	9169.82
887.067	9135.01
887.383	9083.26
887.7	9064.06
888.017	9055.24
888.334	9039.88
888.651	9009.59
888.967	8989.93
889.284	8976.37
889.6	8915.81
889.917	8885.53
890.233	8948.58
890.55	8843.5
890.866	8863.16
891.182	8806.89
891.498	8818.41
891.815	8758.3
892.131	8735.48
892.447	8710.39
892.763	8634.46
893.079	8648.7
893.395	8600.79
893.71	8615.93
894.026	8562.83
894.342	8562.15
894.657	8500.91
894.973	8483.05
895.289	8495.48
895.604	8505.2
895.92	8432.89
896.235	8368.71
896.55	8365.99
896.865	8349.95
897.181	8391.3
897.496	8292.55
897.811	8235.38
898.126	8235.83
898.441	8144.08
898.756	8118.09
899.071	8195.38
899.386	8087.36
899.7	8068.83
900.015	7989.28
900.33	8046.91
900.644	7986.12
900.959	8015.04
901.273	7929.85
901.588	7852.11
901.902	7923.07
902.216	7877.87
902.531	7833.58
902.845	7763.3
903.159	7723.75
903.473	7690.53
903.787	7727.37
904.101	7647.6
904.415	7598.56
904.729	7638.33
905.042	7559.91
905.356	7527.15
905.67	7481.05
905.984	7498.67
906.297	7537.99
906.611	7437.43
906.924	7422.97
907.237	7404.21
907.551	7390.43
907.864	7368.28
908.177	7302.75
908.491	7289.86
908.804	7201.28
909.117	7179.36
909.43	7185.69
909.743	7104.11
910.056	7116.54
910.368	7128.51
910.681	7054.39
910.994	7045.35
911.307	7038.12
911.619	6983.66
911.932	6943.43
912.244	6872.93
912.557	6924
912.869	6841.52
913.181	6831.8
913.494	6829.76
913.806	6719.94
914.118	6792.02
914.43	6718.81
914.742	6680.84
915.054	6584.35
915.366	6658.02
915.678	6624.57
915.99	6575.08
916.302	6483.11
916.613	6533.95
916.925	6500.06
917.236	6487.17
917.548	6448.53
917.859	6436.1
918.171	6397.01
918.482	6339.83
918.794	6326.27
919.105	6346.16
919.416	6289.89
919.727	6202.44
920.038	6242.43
920.349	6215.54
920.66	6171.93
920.971	6210.35
921.282	6108.43
921.593	6154.98
921.903	6081.76
922.214	6095.77
922.525	6018.94
922.835	5985.94
923.146	6017.81
923.456	5959.73
923.767	5924.25
924.077	5904.82
924.387	5905.27
924.697	5836.8
925.008	5857.59
925.318	5767.64
925.628	5830.24
925.938	5778.04
926.248	5744.14
926.558	5684.26
926.867	5674.99
927.177	5697.14
927.487	5618.5
927.796	5617.37
928.106	5606.52
928.416	5585.95
928.725	5526.75
929.034	5504.83
929.344	5507.99
929.653	5514.32
929.962	5463.47
930.271	5455.56
930.581	5439.07
930.89	5406.75
931.199	5350.03
931.508	5356.81
931.817	5345.51
932.125	5305.74
932.434	5313.87
932.743	5252.18
933.051	5219.18
933.36	5224.61
933.669	5187.55
933.977	5160.43
934.286	5125.4
934.594	5124.95
934.902	5086.53
935.21	5084.5
935.519	5058.06
935.827	4990.04
936.135	5021.9
936.443	5036.36
936.751	4981.22
937.059	4990.94
937.367	4925.63
937.674	4941.45
937.982	4943.26
938.29	4885.63
938.597	4908.01
938.905	4809.25
939.213	4814.68
939.52	4795.47
939.827	4774.22
940.135	4762.93
940.442	4759.99
940.749	4760.89
941.056	4737.62
941.363	4637.73
941.67	4632.31
941.977	4638.18
942.284	4595.47
942.591	4591.63
942.898	4595.25
943.205	4551.18
943.511	4503.95
943.818	4533.33
944.125	4514.12
944.431	4459.43
944.738	4459.66
945.044	4405.87
945.35	4409.71
945.657	4392.31
945.963	4424.63
946.269	4325.2
946.575	4331.75
946.881	4351.19
947.187	4301.47
947.493	4293.33
947.799	4282.71
948.105	4252.66
948.41	4221.02
948.716	4225.76
949.022	4223.73
949.327	4206.33
949.633	4157.52
949.938	4203.62
950.244	4136.73
950.549	4092.89
950.854	4095.15
951.16	4072.32
951.465	4058.99
951.77	4033.91
952.075	4027.8
952.38	4035.49
952.685	3994.13
952.99	3954.13
953.294	3934.7
953.599	3944.87
953.904	3862.61
954.209	3887.24
954.513	3903.74
954.818	3838.88
955.122	3897.64
955.426	3806.79
955.731	3823.52
956.035	3806.11
956.339	3775.15
956.643	3797.98
956.948	3736.74
957.252	3687.47
957.556	3747.13
957.86	3742.84
958.163	3709.62
958.467	3656.06
958.771	3661.94
959.075	3635.95
959.378	3612.45
959.682	3638.66
959.985	3607.93
960.289	3624.2
960.592	3573.8
960.896	3566.8
961.199	3556.4
961.502	3515.95
961.805	3497.2
962.108	3481.15
962.411	3525.22
962.714	3472.56
963.017	3446.12
963.32	3420.14
963.623	3414.71
963.926	3437.54
964.228	3391.66
964.531	3392.11
964.833	3377.43
965.136	3319.8
965.438	3306.47
965.741	3295.62
966.043	3330.65
966.345	3252.91
966.648	3302.85
966.95	3280.25
967.252	3260.59
967.554	3274.83
967.856	3212.46
968.158	3201.16
968.46	3202.06
968.761	3183.31
969.063	3153.02
969.365	3125.91
969.666	3138.11
969.968	3137.21
970.269	3094.95
970.571	3089.98
970.872	3062.41
971.174	3039.81
971.475	3054.27
971.776	3021.28
972.077	2982.63
972.378	3002.75
972.679	3008.17
972.98	2954.61
973.281	3009.98
973.582	2955.52
973.883	2997.77
974.183	2920.04
974.484	2935.86
974.785	2931.56
975.085	2929.98
975.386	2909.42
975.686	2869.19
975.986	2829.42
976.287	2854.5
976.587	2827.84
976.887	2824.9
977.187	2823.99
977.487	2796.88
977.787	2807.5
978.087	2782.64
978.387	2801.62
978.687	2739.02
978.987	2757.33
979.286	2695.41
979.586	2736.54
979.885	2690.44
980.185	2695.64
980.484	2684.34
980.784	2685.47
981.083	2636.43
981.382	2667.61
981.682	2614.51
981.981	2638.24
982.28	2613.15
982.579	2601.17
982.878	2581.74
983.177	2571.34
983.475	2566.15
983.774	2561.4
984.073	2502.19
984.372	2521.63
984.67	2504
984.969	2510.33
985.267	2495.41
985.566	2487.51
985.864	2483.44
986.162	2433.95
986.461	2466.26
986.759	2416.77
987.057	2397.79
987.355	2395.76
987.653	2412.93
987.951	2404.8
988.249	2413.83
988.547	2392.59
988.844	2362.54
989.142	2323.22
989.44	2352.82
989.737	2299.71
990.035	2339.03
990.332	2286.38
990.63	2311.24
990.927	2259.94
991.224	2262.43
991.521	2252.03
991.819	2290.45
992.116	2250.45
992.413	2241.41
992.71	2238.47
993.006	2220.85
993.303	2221.07
993.6	2213.61
993.897	2201.86
994.193	2173.62
994.49	2164.12
994.787	2152.15
995.083	2140.85
995.379	2146.5
995.676	2116.22
995.972	2133.16
996.268	2103.33
996.565	2098.81
996.861	2118.25
997.157	2070.57
997.453	2061.75
997.749	2052.71
998.044	2035.99
998.34	2028.53
998.636	2015.43
998.932	2017.69
999.227	2003.45
999.523	1977.01
999.818	1972.26
1000.114	1931.14
1000.409	1974.52
1000.704	1960.97
1001	1937.69
1001.295	1917.58
1001.59	1926.39
1001.885	1900.4
1002.18	1878.93
1002.475	1901.31
1002.77	1861.31
1003.065	1846.84
1003.359	1863.34
1003.654	1850.01
1003.949	1846.62
1004.243	1801.42
1004.538	1803
1004.832	1817.01
1005.127	1787.18
1005.421	1807.98
1005.715	1772.72
1006.009	1805.94
1006.304	1754.19
1006.598	1764.36
1006.892	1759.61
1007.186	1754.87
1007.48	1717.58
1007.773	1708.77
1008.067	1712.16
1008.361	1709.9
1008.655	1691.82
1008.948	1688.2
1009.242	1676.45
1009.535	1635.55
1009.829	1650.92
1010.122	1633.29
1010.415	1633.52
1010.708	1598.49
1011.001	1606.17
1011.295	1594.65
1011.588	1575.66
1011.881	1586.74
1012.173	1561.88
1012.466	1593.29
1012.759	1542.45
1013.052	1555.33
1013.344	1534.54
1013.637	1523.69
1013.93	1515.1
1014.222	1537.25
1014.514	1536.34
1014.807	1497.7
1015.099	1460.87
1015.391	1466.52
1015.683	1459.74
1015.976	1424.26
1016.268	1461.32
1016.56	1398.95
1016.851	1414.77
1017.143	1404.6
1017.435	1402.34
1017.727	1399.62
1018.018	1397.14
1018.31	1371.6
1018.602	1366.86
1018.893	1374.31
1019.185	1370.7
1019.476	1347.42
1019.767	1336.8
1020.058	1306.75
1020.35	1318.27
1020.641	1312.85
1020.932	1314.2
1021.223	1307.65
1021.514	1312.85
1021.804	1268.33
1022.095	1283.92
1022.386	1246.41
1022.677	1259.29
1022.967	1270.59
1023.258	1249.57
1023.548	1261.1
1023.839	1223.58
1024.129	1217.26
1024.419	1212.74
1024.709	1190.36
1025	1209.57
1025.29	1196.92
1025.58	1203.92
1025.87	1185.84
1026.16	1150.59
1026.449	1141.78
1026.739	1186.07
1027.029	1149.69
1027.319	1154.43
1027.608	1158.5
1027.898	1130.7
1028.187	1158.5
1028.477	1114.21
1028.766	1116.69
1029.055	1066.07
1029.344	1087.09
1029.634	1078.73
1029.923	1071.5
1030.212	1075.56
1030.501	1035.57
1030.79	1052.06
1031.078	1068.11
1031.367	1046.19
1031.656	1004.61
1031.945	999.18
1032.233	1017.94
1032.522	1003.93
1032.81	998.96
1033.099	1012.52
1033.387	992.86
1033.675	982.91
1033.963	981.1
1034.251	989.69
1034.54	965.29
1034.828	963.93
1035.116	972.97
1035.403	953.31
1035.691	964.38
1035.979	930.03
1036.267	925.96
1036.554	909.92
1036.842	926.19
1037.129	934.55
1037.417	906.3
1037.704	902.69
1037.992	878.51
1038.279	901.33
1038.566	880.54
1038.853	880.54
1039.14	880.54
