Data from hue_24_FLMS001491_00032.txt Node
Date: Tue Feb 07 17:12:10 GMT 2017
User: dcchb
Spectrometer: FLMS00149
Trigger mode: 0
Integration Time (sec): 2.000000E-2
Scans to average: 10
Electric dark correction enabled: true
Nonlinearity correction enabled: false
Boxcar width: 0
XAxis mode: Wavelengths
Number of Pixels in Spectrum: 2048
>>>>>Begin Spectral Data<<<<<
341.393	0.28
341.776	0.28
342.16	0.28
342.543	-62.77
342.927	-73.61
343.31	-67.96
343.693	-61.41
344.077	-57.57
344.46	-60.96
344.843	-50.79
345.226	-52.6
345.61	-39.72
345.993	-25.71
346.376	-11.24
346.759	-3.11
347.142	48.64
347.525	35.99
347.908	62.88
348.291	78.02
348.674	88.87
349.057	116.66
349.44	134.74
349.823	147.85
350.206	158.47
350.588	190.79
350.971	185.14
351.354	217.23
351.737	242.54
352.119	244.12
352.502	283.66
352.884	259.71
353.267	291.8
353.65	288.41
354.032	297.9
354.414	299.48
354.797	294.51
355.179	323.66
355.562	311.69
355.944	337.45
356.326	329.54
356.709	344.91
357.091	316.43
357.473	340.84
357.855	350.1
358.238	351.91
358.62	319.82
359.002	325.02
359.384	358.69
359.766	363.89
360.148	332.48
360.53	338.8
360.912	332.7
361.294	331.8
361.676	304.91
362.057	345.58
362.439	337.9
362.821	334.51
363.203	323.44
363.584	333.16
363.966	328.64
364.348	316.43
364.729	335.87
365.111	325.25
365.493	327.05
365.874	311.46
366.256	300.39
366.637	305.81
367.019	321.63
367.4	306.26
367.781	329.54
368.163	312.59
368.544	312.14
368.925	315.08
369.306	308.75
369.688	301.74
370.069	299.71
370.45	314.4
370.831	320.73
371.212	334.74
371.593	306.94
371.974	302.65
372.355	304.68
372.736	320.27
373.117	321.86
373.498	317.56
373.879	321.18
374.26	312.36
374.641	320.5
375.021	340.84
375.402	335.64
375.783	313.27
376.163	339.26
376.544	320.5
376.925	324.12
377.305	315.53
377.686	332.03
378.066	336.32
378.447	332.25
378.827	339.71
379.208	325.47
379.588	331.12
379.968	351.46
380.349	323.21
380.729	323.89
381.109	318.47
381.489	332.03
381.87	347.84
382.25	338.58
382.63	362.08
383.01	328.41
383.39	340.16
383.77	341.06
384.15	344.45
384.53	375.87
384.91	367.28
385.29	357.56
385.67	349.2
386.049	338.35
386.429	350.33
386.809	364.34
387.189	362.53
387.568	374.74
387.948	357.34
388.328	361.63
388.707	350.78
389.087	373.83
389.466	367.5
389.846	365.47
390.225	362.53
390.605	357.34
390.984	376.32
391.363	352.59
391.743	375.87
392.122	399.82
392.501	386.26
392.881	389.2
393.26	392.36
393.639	394.62
394.018	394.17
394.397	391.91
394.776	403.66
395.155	382.65
395.534	381.29
395.913	399.14
396.292	398.46
396.671	417.22
397.05	382.42
397.429	408.41
397.808	405.02
398.186	411.12
398.565	396.43
398.944	392.14
399.323	393.72
399.701	425.81
400.08	426.71
400.458	413.15
400.837	415.64
401.215	428.29
401.594	430.55
401.972	407.96
402.351	410.89
402.729	414.96
403.107	411.35
403.486	433.27
403.864	398.01
404.242	458.35
404.62	430.78
404.999	426.03
405.377	459.25
405.755	418.12
406.133	423.55
406.511	447.73
406.889	449.54
407.267	431.01
407.645	444.56
408.023	447.95
408.401	447.73
408.779	440.72
409.156	460.84
409.534	474.39
409.912	459.03
410.29	483.21
410.667	455.41
411.045	468.52
411.422	502.87
411.8	492.47
412.178	487.05
412.555	489.99
412.933	489.31
413.31	504.45
413.687	503.55
414.065	493.15
414.442	496.99
414.819	521.85
415.197	504.68
415.574	506.94
415.951	500.83
416.328	522.75
416.705	526.14
417.082	506.94
417.46	529.99
417.837	549.65
418.214	508.74
418.591	550.32
418.967	538.35
419.344	523.88
419.721	553.94
420.098	544.67
420.475	565.47
420.852	569.76
421.228	553.71
421.605	570.21
421.982	544.22
422.358	585.13
422.735	571.11
423.111	581.96
423.488	586.03
423.864	578.57
424.241	586.93
424.617	593.49
424.994	598.68
425.37	602.75
425.746	602.07
426.123	593.94
426.499	604.79
426.875	615.18
427.251	612.47
427.627	633.03
428.003	632.36
428.379	647.27
428.756	642.3
429.132	667.16
429.507	651.34
429.883	642.53
430.259	661.96
430.635	645.24
431.011	663.99
431.387	671.45
431.763	698.8
432.138	706.7
432.514	682.07
432.89	717.55
433.265	726.59
433.641	711.9
434.016	713.71
434.392	724.33
434.767	738.34
435.143	726.37
435.518	734.05
435.894	756.87
436.269	760.71
436.644	757.55
437.02	767.27
437.395	777.44
437.77	757.1
438.145	760.49
438.52	780.83
438.895	813.37
439.271	784.44
439.646	808.17
440.021	822.86
440.395	810.2
440.77	812.01
441.145	805.69
441.52	844.78
441.895	831.67
442.27	820.6
442.645	842.07
443.019	837.77
443.394	840.26
443.769	866.25
444.143	871.9
444.518	855.63
444.892	890.88
445.267	882.29
445.641	876.42
446.016	883.2
446.39	891.33
446.764	912.35
447.139	905.12
447.513	905.8
447.887	895.17
448.262	930.65
448.636	906.7
449.01	934.5
449.384	933.37
449.758	931.78
450.132	976.53
450.506	969.07
450.88	958.68
451.254	969.75
451.628	953.93
452.002	986.02
452.376	1005.91
452.75	1009.75
453.123	1012.23
453.497	1028.28
453.871	1035.06
454.244	1067.6
454.618	1061.27
454.992	1031.67
455.365	1057.43
455.739	1077.99
456.112	1099.24
456.486	1081.84
456.859	1099.24
457.232	1133.13
457.606	1139.01
457.979	1126.13
458.352	1109.63
458.725	1166.13
459.099	1175.39
459.472	1186.01
459.845	1193.02
460.218	1232.34
460.591	1205.45
460.964	1236.86
461.337	1232.57
461.71	1250.87
462.083	1282.28
462.456	1271.66
462.829	1279.57
463.201	1301.94
463.574	1315.95
463.947	1340.59
464.32	1372.9
464.692	1373.58
465.065	1366.8
465.438	1402.96
465.81	1412.67
466.183	1429.85
466.555	1484.31
466.928	1457.65
467.3	1474.37
467.672	1491.09
468.045	1539.23
468.417	1520.47
468.789	1531.77
469.161	1554.82
469.534	1610.18
469.906	1598.88
470.278	1620.13
470.65	1648.6
471.022	1687.02
471.394	1680.24
471.766	1709.39
472.138	1750.97
472.51	1783.06
472.882	1786.9
473.253	1832.78
473.625	1877.75
473.997	1920.23
474.369	1919.33
474.74	1925.88
475.112	2015.6
475.484	1992.55
475.855	2031.64
476.227	2048.14
476.598	2127.91
476.97	2127.91
477.341	2173.33
477.713	2225.76
478.084	2237.51
478.455	2338.75
478.827	2331.75
479.198	2421.69
479.569	2388.69
479.94	2462.14
480.311	2527.67
480.682	2585.98
481.053	2650.61
481.424	2651.29
481.795	2741.45
482.166	2746.65
482.537	2822.36
482.908	2841.79
483.279	2933.76
483.65	2972.18
484.021	3041.78
484.391	3081.11
484.762	3135.57
485.133	3150.71
485.503	3221.21
485.874	3277.48
486.244	3320.87
486.615	3360.87
486.985	3385.5
487.356	3471.83
487.726	3516.12
488.097	3560.87
488.467	3659.85
488.837	3680.64
489.207	3767.19
489.578	3823.46
489.948	3900.07
490.318	3917.02
490.688	3967.64
491.058	4003.57
491.428	4123.79
491.798	4100.97
492.168	4246.95
492.538	4310
492.908	4326.04
493.278	4342.54
493.648	4392.26
494.017	4428.41
494.387	4464.35
494.757	4554.96
495.126	4582.99
495.496	4580.28
495.866	4643.32
496.235	4706.83
496.605	4710.89
496.974	4742.98
497.344	4815.98
497.713	4884
498.082	4869.76
498.452	4949.76
498.821	4947.27
499.19	4989.76
499.559	5050.09
499.928	5114.5
500.298	5126.93
500.667	5149.75
501.036	5193.14
501.405	5276.08
501.774	5230.65
502.143	5267.04
502.512	5325.79
502.88	5358.11
503.249	5356.75
503.618	5413.47
503.987	5438.78
504.356	5419.58
504.724	5458.9
505.093	5542.74
505.462	5550.42
505.83	5632
506.199	5665.67
506.567	5716.97
506.936	5739.57
507.304	5695.5
507.672	5806.91
508.041	5782.5
508.409	5845.55
508.777	5935.95
509.145	5910.41
509.514	5923.52
509.882	5906.79
510.25	5995.15
510.618	6012.55
510.986	6069.05
511.354	6100.01
511.722	6095.72
512.09	6208.48
512.458	6180.23
512.826	6223.85
513.193	6218.65
513.561	6264.98
513.929	6253.45
514.297	6369.15
514.664	6382.49
515.032	6347.46
515.4	6370.06
515.767	6480.34
516.135	6426.1
516.502	6414.8
516.869	6529.83
517.237	6546.33
517.604	6553.78
517.972	6636.94
518.339	6659.54
518.706	6653.44
519.073	6658.86
519.44	6706.77
519.808	6751.97
520.175	6773.44
520.542	6856.15
520.909	6856.15
521.276	6843.49
521.643	6959.65
522.009	6963.72
522.376	6983.38
522.743	6971.17
523.11	7095.92
523.477	7138.4
523.843	7208.23
524.21	7271.28
524.577	7292.07
524.943	7276.02
525.31	7304.72
525.676	7358.73
526.043	7410.48
526.409	7469.01
526.776	7484.83
527.142	7554.89
527.508	7558.05
527.874	7603.92
528.241	7616.81
528.607	7709.91
528.973	7737.48
529.339	7749.01
529.705	7795.56
530.071	7863.35
530.437	7947.19
530.803	7974.31
531.169	7977.47
531.535	7988.55
531.901	8068.32
532.267	8050.01
532.632	8128.66
532.998	8113.74
533.364	8236.68
533.73	8251.36
534.095	8256.34
534.461	8306.96
534.826	8374.07
535.192	8363
535.557	8403
535.923	8447.07
536.288	8487.52
536.653	8511.02
537.019	8509.44
537.384	8600.73
537.749	8588.08
538.114	8618.81
538.479	8625.59
538.845	8707.85
539.21	8650.45
539.575	8712.82
539.94	8816.55
540.305	8875.98
540.67	8808.41
541.034	8895.87
541.399	8925.92
541.764	9016.54
542.129	9037.78
542.494	8989.42
542.858	9115.97
543.223	9074.62
543.587	9226.71
543.952	9137.67
544.316	9161.62
544.681	9223.32
545.045	9248.17
545.41	9320.26
545.774	9317.1
546.138	9369.3
546.503	9380.15
546.867	9366.59
547.231	9501.28
547.595	9498.56
547.959	9560.71
548.324	9519.81
548.688	9606.81
549.052	9587.38
549.416	9670.99
549.779	9719.8
550.143	9682.06
550.507	9771.78
550.871	9786.01
551.235	9767.71
551.599	9852.9
551.962	9843.87
552.326	9926.35
552.689	9971.09
553.053	9895.16
553.417	9991.66
553.78	10118.89
554.143	10055.39
554.507	10107.14
554.87	10112.56
555.234	10155.72
555.597	10198.21
555.96	10227.36
556.323	10189.17
556.686	10243.63
557.05	10323.85
557.413	10447.01
557.776	10409.73
558.139	10482.72
558.502	10478.88
558.865	10424.42
559.228	10569.04
559.59	10663.96
559.953	10593.68
560.316	10712.54
560.679	10769.26
561.041	10753.45
561.404	10856.95
561.767	10877.06
562.129	10790.06
562.492	10955.02
562.854	10943.5
563.217	10980.56
563.579	11066.21
563.941	11057.84
564.304	11124.74
564.666	11232.08
565.028	11185.98
565.39	11181.91
565.753	11263.72
566.115	11343.26
566.477	11321.57
566.839	11423.26
567.201	11444.28
567.563	11389.81
567.925	11504.61
568.287	11515.91
568.648	11564.5
569.01	11576.02
569.372	11714.32
569.734	11699.86
570.095	11743.93
570.457	11816.69
570.819	11806.75
571.18	11860.31
571.542	11916.58
571.903	12017.82
572.265	12083.35
572.626	12085.61
572.987	12074.54
573.349	12142.79
573.71	12202.22
574.071	12274.08
574.432	12348.21
574.794	12472.5
575.155	12481.31
575.516	12552.04
575.877	12659.16
576.238	12706.84
576.599	12865.03
576.96	12757.24
577.32	12914.07
577.681	13044.01
578.042	13161.52
578.403	13190.44
578.763	13260.05
579.124	13471.57
579.485	13485.35
579.845	13601.05
580.206	13682.18
580.566	13863.65
580.927	13995.39
581.287	14180.7
581.648	14193.58
582.008	14353.35
582.368	14543.18
582.728	14601.25
583.089	14720.8
583.449	14848.93
583.809	15217.28
584.169	15301.35
584.529	15406.43
584.889	15718.97
585.249	15844.84
585.609	15981.11
585.969	16331.6
586.329	16450.92
586.688	16683.46
587.048	16923
587.408	17068.76
587.768	17270.79
588.127	17546.71
588.487	17746.48
588.846	18099.69
589.206	18311.89
589.565	18616.06
589.925	18825.78
590.284	19115.49
590.643	19369.49
591.003	19716.6
591.362	19952.75
591.721	20180.32
592.08	20512.74
592.44	20889.68
592.799	21081.54
593.158	21355.65
593.517	21682.42
593.876	21994.73
594.235	22301.84
594.593	22648.5
594.952	23011.2
595.311	23146.11
595.67	23569.38
596.029	23936.15
596.387	24173.66
596.746	24648.45
597.104	24818.39
597.463	25179.06
597.822	25572.49
598.18	25761.64
598.538	26018.81
598.897	26475.29
599.255	26499.47
599.613	27181.26
599.972	27349.62
600.33	27635.94
600.688	27798.2
601.046	28246.09
601.404	28574.67
601.762	28731.73
602.12	29232.06
602.478	29463.46
602.836	29849.67
603.194	29922.43
603.552	30268.41
603.91	30457.79
604.268	30837.89
604.625	31014.16
604.983	31362.4
605.341	31502.73
605.698	32051.42
606.056	32319.66
606.413	32445.76
606.771	32918.74
607.128	32982.92
607.485	33126.87
607.843	33419.06
608.2	33862.44
608.557	34296.1
608.914	34195.99
609.272	34718.24
609.629	34763.21
609.986	35198.45
610.343	35317.32
610.7	35650.87
611.057	35871.43
611.414	36019
611.771	36251.98
612.127	36613.56
612.484	36759.77
612.841	36966.09
613.198	37011.96
613.554	37197.27
613.911	37625.28
614.267	37708.22
614.624	37942.11
614.98	38123.12
615.337	38399.05
615.693	38490.8
616.05	38660.28
616.406	38959.48
616.762	38937.34
617.118	39102.53
617.475	39225.01
617.831	39575.06
618.187	39588.39
618.543	39865.22
618.899	40122.84
619.255	40017.76
619.611	40305.44
619.967	40468.14
620.323	40735.71
620.678	40653.9
621.034	40622.49
621.39	40813.45
621.746	40890.51
622.101	41348.35
622.457	41170.05
622.812	41391.74
623.168	41630.37
623.523	41542.47
623.879	41805.74
624.234	41722.35
624.589	41908.11
624.945	41992.4
625.3	42172.28
625.655	42150.81
626.01	42264.71
626.365	42374.76
626.72	42362.78
627.075	42450.47
627.43	42448.66
627.785	42557.13
628.14	42702.44
628.495	42779.04
628.85	42663.12
629.205	42510.13
629.559	42983.11
629.914	42743.79
630.269	42822.43
630.623	42807.52
630.978	42760.97
631.332	42992.82
631.687	43067.4
632.041	43047.29
632.396	43327.28
632.75	42943.56
633.104	43134.06
633.459	43042.54
633.813	43120.96
634.167	43108.98
634.521	43158.7
634.875	43317.34
635.229	43279.14
635.583	43072.82
635.937	43116.89
636.291	43051.13
636.645	43153.05
636.999	43116.44
637.352	43273.72
637.706	43067.17
638.06	43261.74
638.413	43126.38
638.767	43112.14
639.121	43244.12
639.474	42956.22
639.828	43027.4
640.181	43065.14
640.534	43175.42
640.888	43034.86
641.241	42878.03
641.594	42942.43
641.947	43059.04
642.301	42959.38
642.654	42984.91
643.007	43061.3
643.36	42965.25
643.713	43049.55
644.066	43167.51
644.419	42953.28
644.771	42629.9
645.124	42290.7
645.477	42338.83
645.83	42135.67
646.182	41977.71
646.535	41841.89
646.888	41860.2
647.24	41654.33
647.593	42012.29
647.945	41934.32
648.298	41617.49
648.65	41608.23
649.002	41521.68
649.355	41726.64
649.707	41706.3
650.059	41916.24
650.411	42285.05
650.763	42510.58
651.115	42713.96
651.467	42556.68
651.819	42528.66
652.171	42476.45
652.523	42507.64
652.875	42473.97
653.227	42441.65
653.578	42742.21
653.93	42611.14
654.282	42473.74
654.633	42352.62
654.985	42504.02
655.337	42407.98
655.688	42426.06
656.039	42637.81
656.391	42259.74
656.742	42483.46
657.094	42332.73
657.445	42427.87
657.796	42353.29
658.147	42329.11
658.498	42217.03
658.849	42429.22
659.2	42417.92
659.551	42285.05
659.902	42292.96
660.253	42229.23
660.604	42294.99
660.955	42147.65
661.306	42331.15
661.656	42320.07
662.007	42342.9
662.358	42230.36
662.708	42256.12
663.059	42363.01
663.409	42055.67
663.76	42332.05
664.11	42345.16
664.461	42433.74
664.811	42275.56
665.161	42205.05
665.511	42254.31
665.862	42241.21
666.212	42387.87
666.562	42272.84
666.912	42095.45
667.262	42189.91
667.612	42189.91
667.962	42255.89
668.312	42252.05
668.662	42302.45
669.011	42136.12
669.361	42027.2
669.711	41938.84
670.06	42035.11
670.41	41910.14
670.76	41883.47
671.109	42066.07
671.459	42003.02
671.808	41960.76
672.157	42145.16
672.507	41852.52
672.856	41846.19
673.205	42054.09
673.554	42130.47
673.904	41940.87
674.253	42054.09
674.602	41958.5
674.951	41338.63
675.3	41232.64
675.649	41880.09
675.998	41776.81
676.346	41917.15
676.695	41956.92
677.044	41563.03
677.393	41665.18
677.741	41822.01
678.09	41580.88
678.438	41553.09
678.787	41540.43
679.135	41613.65
679.484	41246.88
679.832	41523.48
680.181	41213.89
680.529	41331.63
680.877	41303.6
681.225	41259.54
681.573	41574.78
681.922	41097.73
682.27	40987.23
682.618	41267.45
682.966	41114.23
683.314	40961.47
683.661	41041.92
684.009	40777.52
684.357	40683.28
684.705	40813.9
685.053	40910.39
685.4	40828.59
685.748	40602.15
686.095	40629.5
686.443	40351.99
686.79	40311.09
687.138	40339.56
687.485	40514.02
687.832	40349.05
688.18	40249.62
688.527	40084.65
688.874	40135.95
689.221	40109.74
689.568	39867.26
689.915	39800.82
690.262	39867.93
690.609	39694.15
690.956	39501.39
691.303	39420.49
691.65	39405.57
691.997	39364.67
692.344	39131.46
692.69	39189.08
693.037	39088.52
693.383	38826.38
693.73	38938.02
694.077	38587.29
694.423	38707.29
694.769	38531.7
695.116	38330.12
695.462	38470.91
695.808	38366.51
696.155	38316.34
696.501	38074.76
696.847	37985.72
697.193	37905.5
697.539	38031.37
697.885	37811.94
698.231	37791.15
698.577	37722.23
698.923	37599.97
699.269	37369.7
699.614	37309.13
699.96	37181.23
700.306	37293.09
700.651	37061.68
700.997	37041.34
701.342	36973.32
701.688	36940.1
702.033	36771.74
702.379	36851.97
702.724	36619.66
703.069	36641.35
703.415	36338.76
703.76	36312.55
704.105	36297.18
704.45	36103.74
704.795	35975.16
705.14	35962.5
705.485	35911.65
705.83	35702.17
706.175	35775.84
706.52	35738.33
706.865	35514.83
707.209	35509.18
707.554	35483.19
707.899	35541.95
708.243	35188.96
708.588	35402.74
708.932	35004.56
709.277	35055.86
709.621	35008.63
709.966	34758.24
710.31	34873.72
710.654	34587.4
710.998	34691.8
711.342	34613.61
711.687	34525.93
712.031	34327.29
712.375	34362.32
712.719	34212.26
713.063	34289.32
713.407	34276.22
713.75	34181.76
714.094	34035.09
714.438	33901.31
714.782	33925.94
715.125	33734.99
715.469	33948.09
715.812	33537.48
716.156	33542.23
716.499	33574.31
716.843	33645.95
717.186	33432.85
717.53	33493.87
717.873	33511.94
718.216	33376.81
718.559	33229.01
718.902	33005.06
719.246	33072.18
719.589	33054.33
719.932	32956.48
720.275	33022.01
720.617	32809.59
720.96	32900.66
721.303	32868.12
721.646	32898.85
721.989	32573.89
722.331	32668.12
722.674	32626.09
723.016	32507
723.359	32594.68
723.701	32657.5
724.044	32340
724.386	32328.7
724.729	32394.23
725.071	32196.27
725.413	32245.76
725.755	32181.36
726.097	32093.68
726.439	31862.5
726.782	31967.13
727.124	31943.4
727.465	31898.2
727.807	31759.67
728.149	31732.33
728.491	31619.34
728.833	31744.53
729.175	31510.87
729.516	31575.72
729.858	31441.72
730.199	31593.58
730.541	31412.11
730.882	31413.69
731.224	31501.83
731.565	31288.5
731.906	31308.39
732.248	31236.52
732.589	31196.07
732.93	30975.74
733.271	31136.86
733.612	31046.02
733.953	31191.1
734.294	30980.94
734.635	30805.8
734.976	30960.15
735.317	30834.95
735.658	30762.64
735.999	30686.71
736.339	30681.06
736.68	30768.06
737.021	30656.2
737.361	30523.1
737.702	30699.81
738.042	30429.99
738.383	30429.09
738.723	30542.08
739.063	30393.61
739.404	30539.37
739.744	30314.74
740.084	30295.53
740.424	30227.06
740.764	30224.57
741.104	30186.38
741.444	30063.67
741.784	30112.26
742.124	30113.84
742.464	30031.36
742.804	29974.41
743.143	29844.47
743.483	29958.14
743.823	29786.62
744.162	29777.35
744.502	29826.39
744.841	29866.62
745.181	29705.94
745.52	29628.43
745.86	29661.2
746.199	29630.46
746.538	29717.47
746.877	29685.6
747.216	29484.03
747.556	29470.02
747.895	29552.73
748.234	29353.63
748.573	29385.72
748.911	29236.12
749.25	29416.46
749.589	29234.32
749.928	29138.95
750.267	29247.2
750.605	29183.92
750.944	29098.5
751.283	28984.83
751.621	29079.74
751.96	28960.88
752.298	28964.27
752.636	28934.89
752.975	28754.55
753.313	28710.04
753.651	28823.71
753.989	28648.79
754.327	28569.7
754.666	28417.39
755.004	28545.97
755.342	28539.87
755.679	28440.21
756.017	28271.18
756.355	28370.61
756.693	28188.24
757.031	28228.01
757.368	28132.65
757.706	27985.08
758.044	28051.52
758.381	28133.33
758.719	27929.04
759.056	27848.14
759.394	27785.77
759.731	27587.81
760.068	27587.35
760.405	27508.71
760.743	27409.73
761.08	27423.97
761.417	27338.55
761.754	27256.97
762.091	27253.58
762.428	27217.19
762.765	26990.08
763.102	27084.77
763.438	26955.28
763.775	26685.68
764.112	26849.75
764.449	26915.28
764.785	26719.13
765.122	26518.46
765.458	26454.28
765.795	26373.37
766.131	26347.39
766.467	26287.27
766.804	26114.17
767.14	26038.69
767.476	26139.93
767.812	25794.63
768.148	25893.61
768.485	25819.72
768.821	25599.61
769.157	25620.63
769.492	25525.26
769.828	25529.1
770.164	25322.1
770.5	25297.24
770.836	25147.64
771.171	25035.56
771.507	24910.14
771.842	24767.54
772.178	24857.71
772.513	24713.08
772.849	24643.93
773.184	24502.46
773.519	24608.9
773.855	24490.94
774.19	24327.33
774.525	24226.76
774.86	24262.02
775.195	24089.37
775.53	23943.83
775.865	23940.9
776.2	23704.97
776.535	23509.95
776.87	23698.19
777.205	23571.87
777.539	23538.65
777.874	23535.03
778.209	23343.62
778.543	23293.91
778.878	23044.65
779.212	23081.03
779.547	22961.03
779.881	22980.24
780.215	22909.96
780.55	22810.76
780.884	22717.43
781.218	22669.06
781.552	22589.52
781.886	22580.48
782.22	22398.79
782.554	22396.08
782.888	22242.18
783.222	22116.76
783.556	21963.55
783.889	21938.01
784.223	21845.81
784.557	21741.63
784.89	21861.4
785.224	21604.46
785.557	21520.85
785.891	21513.39
786.224	21373.96
786.558	21427.29
786.891	21195.21
787.224	21177.58
787.557	21059.62
787.891	21024.36
788.224	21003.12
788.557	20967.19
788.89	20967.41
789.223	20926.06
789.556	20691.94
789.888	20661.21
790.221	20585.96
790.554	20395
790.887	20333.99
791.219	20334.44
791.552	20288.11
791.884	20203.82
792.217	20072.07
792.549	19960.66
792.882	19927.89
793.214	19962.02
793.546	19848.57
793.879	19791.17
794.211	19587.34
794.543	19635.47
794.875	19567.68
795.207	19708.92
795.539	19495.14
795.871	19482.26
796.203	19335.59
796.535	19216.5
796.867	19221.7
797.198	19122.94
797.53	19192.09
797.862	19005.21
798.193	19072.1
798.525	18884.31
798.856	18958.88
799.188	18787.36
799.519	18642.96
799.85	18600.02
800.182	18647.02
800.513	18656.52
800.844	18335.39
801.175	18536.29
801.506	18430.76
801.837	18431.44
802.168	18294.94
802.499	18169.52
802.83	18172.01
803.161	18114.83
803.491	18036.64
803.822	18055.4
804.153	18048.17
804.483	17870.1
804.814	17796.65
805.145	17810.21
805.475	17666.26
805.805	17555.3
806.136	17672.59
806.466	17675.52
806.796	17574.74
807.126	17482.53
807.457	17401.86
807.787	17360.05
808.117	17305.14
808.447	17305.36
808.777	17263.56
809.107	17256.33
809.436	17040.06
809.766	17151.24
810.096	17035.99
810.426	16986.95
810.755	16974.53
811.085	16960.51
811.414	16999.61
811.744	16826.05
812.073	16744.7
812.403	16693.63
812.732	16623.8
813.061	16667.19
813.39	16594.2
813.719	16462.22
814.049	16576.8
814.378	16525.95
814.707	16419.29
815.036	16359.85
815.365	16247.54
815.693	16197.82
816.022	16237.6
816.351	16147.43
816.68	16116.69
817.008	16098.84
817.337	16000.31
817.665	15913.08
817.994	16047.09
818.322	15985.17
818.651	15871.28
818.979	15913.08
819.307	15794.67
819.636	15841
819.964	15716.93
820.292	15761.68
820.62	15738.4
820.948	15627.89
821.276	15728
821.604	15653.43
821.932	15644.84
822.259	15724.84
822.587	15620.89
822.915	15539.53
823.243	15727.78
823.57	15537.5
823.898	15653.66
824.225	15577.05
824.553	15517.61
824.88	15608.46
825.207	15697.04
825.535	15576.37
825.862	15706.54
826.189	15495.02
826.516	15635.13
826.843	15610.95
827.17	15660.66
827.497	15647.55
827.824	15636.71
828.151	15641.68
828.478	15602.13
828.805	15646.65
829.131	15563.72
829.458	15501.57
829.785	15472.19
830.111	15568.01
830.438	15542.92
830.764	15606.65
831.09	15642.36
831.417	15524.39
831.743	15546.31
832.069	15502.02
832.395	15452.08
832.722	15597.39
833.048	15376.38
833.374	15513.77
833.7	15476.71
834.026	15417.73
834.351	15445.3
834.677	15478.75
835.003	15356.04
835.329	15318.07
835.654	15213.89
835.98	15331.63
836.306	15278.07
836.631	15278.52
836.956	15262.03
837.282	15250.5
837.607	15222.48
837.932	15084.63
838.258	15167.34
838.583	15091.19
838.908	15030.85
839.233	15109.49
839.558	15086.67
839.883	14984.07
840.208	14932.55
840.533	14930.96
840.858	14970.51
841.182	14945.88
841.507	14987.91
841.832	14765.09
842.156	14780.91
842.481	14762.83
842.805	14758.09
843.13	14749.5
843.454	14627.69
843.778	14642.84
844.103	14570.52
844.427	14553.8
844.751	14531.2
845.075	14564.87
845.399	14403.75
845.723	14409.4
846.047	14446.68
846.371	14305.22
846.695	14293.47
847.019	14224.99
847.343	14143.19
847.666	14102.06
847.99	13985.23
848.313	13980.93
848.637	13894.83
848.96	13909.97
849.284	13898.9
849.607	13744.33
849.931	13607.61
850.254	13561.96
850.577	13559.02
850.9	13429.31
851.223	13478.12
851.546	13401.51
851.869	13213.27
852.192	13294.85
852.515	13275.64
852.838	13219.37
853.161	13161.52
853.483	13055.98
853.806	13037.23
854.129	13035.87
854.451	12906.16
854.774	12935.08
855.096	12945.93
855.419	12862.09
855.741	12775.54
856.063	12664.36
856.385	12734.41
856.708	12630.23
857.03	12611.25
857.352	12578.03
857.674	12571.03
857.996	12534.19
858.318	12403.12
858.64	12461.42
858.961	12449.9
859.283	12373.74
859.605	12302.33
859.926	12314.08
860.248	12266.85
860.57	12308.43
860.891	12291.26
861.212	12168.32
861.534	12103.02
861.855	12150.7
862.176	12191.37
862.498	12100.3
862.819	12037.25
863.14	12051.72
863.461	12033.41
863.782	11968.78
864.103	11997.26
864.424	11903.92
864.745	11970.36
865.065	11935.34
865.386	11826.64
865.707	11827.32
866.027	11769.46
866.348	11850.59
866.668	11731.73
866.989	11772.18
867.309	11695.79
867.63	11700.31
867.95	11702.57
868.27	11720.43
868.59	11656.93
868.91	11622.8
869.23	11651.28
869.55	11569.92
869.87	11667.55
870.19	11533.76
870.51	11508.45
870.83	11542.58
871.15	11500.09
871.469	11510.04
871.789	11482.01
872.109	11444.73
872.428	11407.67
872.748	11387.1
873.067	11381
873.386	11433.88
873.706	11373.99
874.025	11315.01
874.344	11314.79
874.663	11283.6
874.982	11272.98
875.301	11218.97
875.62	11305.97
875.939	11209.93
876.258	11205.19
876.577	11114.57
876.896	11207.9
877.214	11098.97
877.533	11112.98
877.852	11043.61
878.17	11117.73
878.489	11107.34
878.807	11096.26
879.125	11057.17
879.444	11003.83
879.762	11024.4
880.08	11034.34
880.398	10987.79
880.716	10990.05
881.034	10952.08
881.352	10851.97
881.67	10850.39
881.988	10882.03
882.306	10852.65
882.624	10851.97
882.941	10715.48
883.259	10658.08
883.577	10651.75
883.894	10590.74
884.212	10675.48
884.529	10635.03
884.846	10590.29
885.164	10580.34
885.481	10589.38
885.798	10592.55
886.115	10472.1
886.432	10435.94
886.75	10452.66
887.067	10474.13
887.383	10374.25
887.7	10390.74
888.017	10376.73
888.334	10401.82
888.651	10329.28
888.967	10313.01
889.284	10229.17
889.6	10233.23
889.917	10165.89
890.233	10232.78
890.55	10140.35
890.866	10147.13
891.182	10067.36
891.498	10027.36
891.815	10020.13
892.131	9992.79
892.447	9923.86
892.763	9906.69
893.079	9894.26
893.395	9889.74
893.71	9852.23
894.026	9832.79
894.342	9802.51
894.657	9745.34
894.973	9773.58
895.289	9715.06
895.604	9618.79
895.92	9600.26
896.235	9607.49
896.55	9569.75
896.865	9584.21
897.181	9532.46
897.496	9510.09
897.811	9548.51
898.126	9395.97
898.441	9358
898.756	9428.06
899.071	9325.01
899.386	9283.43
899.7	9183.54
900.015	9223.32
900.33	9096.54
900.644	9129.08
900.959	9112.13
901.273	9114.85
901.588	9042.76
901.902	9013.6
902.216	9047.73
902.531	8974.28
902.845	8955.98
903.159	8891.12
903.473	8877.79
903.787	8808.19
904.101	8774.06
904.415	8746.95
904.729	8792.59
905.042	8660.62
905.356	8689.77
905.67	8629.21
905.984	8652.48
906.297	8630.34
906.611	8571.58
906.924	8542.66
907.237	8527.52
907.551	8489.55
907.864	8396.22
908.177	8407.75
908.491	8318.93
908.804	8283.68
909.117	8257.24
909.43	8245.49
909.743	8222.44
910.056	8137.47
910.368	8192.61
910.681	8099.28
910.994	8094.76
911.307	8058.83
911.619	7986.06
911.932	8104.25
912.244	7946.29
912.557	7921.43
912.869	7849.34
913.181	7899.74
913.494	7806.18
913.806	7731.38
914.118	7778.16
914.43	7715.33
914.742	7712.85
915.054	7619.74
915.366	7655.67
915.678	7584.94
915.99	7564.15
916.302	7506.98
916.613	7457.71
916.925	7467.88
917.236	7395.12
917.548	7459.52
917.859	7360.99
918.171	7390.14
918.482	7247.55
918.794	7273.99
919.105	7269.02
919.416	7218.4
919.727	7248.68
920.038	7197.61
920.349	7146.54
920.66	7052.98
920.971	7068.8
921.282	7029.93
921.593	7007.78
921.903	6992.64
922.214	6909.71
922.525	6930.04
922.835	6925.52
923.146	6840.55
923.456	6867.9
923.767	6780.44
924.077	6739.09
924.387	6771.86
924.697	6726.43
925.008	6678.75
925.318	6681.01
925.628	6624.29
925.938	6640.33
926.248	6550.62
926.558	6480.79
926.867	6585.65
927.177	6475.82
927.487	6434.69
927.796	6426.1
928.106	6407.12
928.416	6333.45
928.725	6320.57
929.034	6314.47
929.344	6342.49
929.653	6279.44
929.962	6237.63
930.271	6259.55
930.581	6171.19
930.89	6151.53
931.199	6133.45
931.508	6123.51
931.817	6127.13
932.125	6076.73
932.434	6033.8
932.743	6047.81
933.051	6005.55
933.36	5965.32
933.669	5918.09
933.977	5909.73
934.286	5873.8
934.594	5916.29
934.902	5868.38
935.21	5788.83
935.519	5790.86
935.827	5751.77
936.135	5734.14
936.443	5726.01
936.751	5701.15
937.059	5667.93
937.367	5633.58
937.674	5633.58
937.982	5637.87
938.29	5549.97
938.597	5541.15
938.905	5560.81
939.213	5491.66
939.52	5496.64
939.827	5465.45
940.135	5404.89
940.442	5395.17
940.749	5417.32
941.056	5334.83
941.363	5356.3
941.67	5296.41
941.977	5298
942.284	5238.56
942.591	5238.34
942.898	5240.14
943.205	5195.63
943.511	5170.09
943.818	5135.51
944.125	5131.45
944.431	5138.68
944.738	5068.17
945.044	5058.45
945.35	5028.85
945.657	5030.21
945.963	4948.17
946.269	4980.49
946.575	4961.28
946.881	4912.02
947.187	4912.7
947.493	4848.06
947.799	4899.36
948.105	4865.92
948.41	4808.29
948.716	4752.25
949.022	4808.29
949.327	4758.12
949.633	4729.88
949.938	4711.8
950.244	4701.4
950.549	4672.7
950.854	4610.1
951.16	4621.18
951.465	4611.91
951.77	4585.02
952.075	4572.59
952.38	4557.22
952.685	4528.3
952.99	4501.63
953.294	4466.61
953.599	4473.16
953.904	4442.43
954.209	4451.24
954.513	4431.13
954.818	4411.47
955.122	4376.44
955.426	4362.65
955.731	4365.37
956.035	4294.63
956.339	4314.75
956.643	4324.69
956.948	4272.26
957.252	4243.79
957.556	4199.27
957.86	4198.14
958.163	4211.7
958.467	4207.18
958.771	4118.14
959.075	4131.47
959.378	4096.45
959.682	4109.78
959.985	4043.11
960.289	4094.86
960.592	4041.53
960.896	4014.87
961.199	3981.87
961.502	3993.4
961.805	4006.96
962.108	3936.45
962.411	3939.84
962.714	3951.14
963.017	3847.64
963.32	3929.9
963.623	3856.9
963.926	3874.76
964.228	3825.72
964.531	3789.34
964.833	3825.04
965.136	3793.63
965.438	3743.23
965.741	3709.11
966.043	3750.01
966.345	3748.43
966.648	3699.62
966.95	3697.36
967.252	3662.33
967.554	3660.3
967.856	3623.46
968.158	3606.97
968.46	3602.9
968.761	3597.02
969.063	3610.13
969.365	3580.3
969.666	3563.13
969.968	3531.72
970.269	3516.57
970.571	3515.44
970.872	3459.63
971.174	3488.55
971.475	3449.01
971.776	3440.42
972.077	3420.08
972.378	3418.05
972.679	3372.4
972.98	3357.03
973.281	3406.52
973.582	3346.64
973.883	3338.05
974.183	3329.23
974.484	3302.34
974.785	3297.37
975.085	3290.37
975.386	3287.43
975.686	3293.53
975.986	3261.89
976.287	3234.77
976.587	3268.9
976.887	3207.66
977.187	3190.71
977.487	3194.32
977.787	3151.61
978.087	3141.22
978.387	3177.6
978.687	3084.95
978.987	3099.86
979.286	3081.78
979.586	3106.64
979.885	3060.09
980.185	3049.02
980.484	3033.2
980.784	3002.01
981.083	3020.99
981.382	2989.81
981.682	2945.52
981.981	2972.63
982.28	2983.25
982.579	2899.87
982.878	2948.45
983.177	2893.77
983.475	2901.68
983.774	2877.04
984.073	2881.79
984.372	2865.52
984.67	2869.36
984.969	2822.13
985.267	2793.43
985.566	2855.35
985.864	2805.86
986.162	2803.6
986.461	2734.45
986.759	2764.05
987.057	2736.93
987.355	2751.85
987.653	2728.57
987.951	2722.24
988.249	2672.08
988.547	2675.24
988.844	2659.65
989.142	2637.28
989.44	2682.7
989.737	2625.07
990.035	2621.91
990.332	2585.3
990.63	2616.26
990.927	2598.41
991.224	2560.44
991.521	2543.27
991.819	2528.58
992.116	2556.83
992.413	2500.78
992.71	2520.44
993.006	2526.32
993.303	2501.46
993.6	2514.57
993.897	2469.37
994.193	2467.56
994.49	2452.65
994.787	2460.33
995.083	2414.91
995.379	2399.77
995.676	2372.88
995.972	2372.65
996.268	2385.3
996.565	2353.89
996.861	2324.29
997.157	2331.97
997.453	2369.71
997.749	2301.01
998.044	2281.35
998.34	2288.58
998.636	2305.98
998.932	2258.53
999.227	2257.17
999.523	2275.02
999.818	2223.05
1000.114	2237.74
1000.409	2198.42
1000.704	2197.06
1001	2181.69
1001.295	2191.19
1001.59	2187.34
1001.885	2154.12
1002.18	2177.4
1002.475	2141.7
1002.77	2106.22
1003.065	2112.54
1003.359	2103.5
1003.654	2078.19
1003.949	2093.11
1004.243	2087.91
1004.538	2036.16
1004.832	2043.17
1005.127	2042.49
1005.421	1978.54
1005.715	2011.08
1006.009	2007.46
1006.304	1964.52
1006.598	1972.89
1006.892	1962.26
1007.186	1913
1007.48	1943.06
1007.773	1951.64
1008.067	1937.41
1008.361	1911.87
1008.655	1906.67
1008.948	1903.74
1009.242	1903.74
1009.535	1876.84
1009.829	1847.47
1010.122	1840.01
1010.415	1830.97
1010.708	1838.88
1011.001	1842.27
1011.295	1818.54
1011.588	1800.01
1011.881	1774.25
1012.173	1774.02
1012.466	1761.14
1012.759	1724.76
1013.052	1782.83
1013.344	1728.37
1013.637	1724.76
1013.93	1718.88
1014.222	1705.55
1014.514	1694.02
1014.807	1687.24
1015.099	1680.24
1015.391	1661.71
1015.683	1657.41
1015.976	1657.87
1016.268	1615.16
1016.56	1613.57
1016.851	1602.5
1017.143	1598.21
1017.435	1608.15
1017.727	1580.81
1018.018	1599.56
1018.31	1554.14
1018.602	1569.05
1018.893	1562.5
1019.185	1531.99
1019.476	1537.87
1019.767	1488.15
1020.058	1535.84
1020.35	1496.74
1020.641	1454.26
1020.932	1475.72
1021.223	1439.11
1021.514	1450.87
1021.804	1443.41
1022.095	1427.36
1022.386	1428.49
1022.677	1407.93
1022.967	1388.95
1023.258	1400.02
1023.548	1389.17
1023.839	1368.61
1024.129	1375.39
1024.419	1350.08
1024.709	1356.63
1025	1332
1025.29	1345.56
1025.58	1318.89
1025.87	1318.44
1026.16	1323.19
1026.449	1322.73
1026.739	1311.21
1027.029	1279.57
1027.319	1285.9
1027.608	1270.31
1027.898	1259.91
1028.187	1268.95
1028.477	1242.06
1028.766	1216.52
1029.055	1217.88
1029.344	1203.64
1029.634	1192.79
1029.923	1203.87
1030.212	1203.19
1030.501	1193.47
1030.79	1174.04
1031.078	1168.16
1031.367	1159.8
1031.656	1161.61
1031.945	1169.52
1032.233	1120.03
1032.522	1154.6
1032.81	1110.31
1033.099	1135.85
1033.387	1107.15
1033.675	1086.81
1033.963	1105.34
1034.251	1097.2
1034.54	1094.49
1034.828	1062.4
1035.116	1069.41
1035.403	1075.73
1035.691	1071.67
1035.979	1050.2
1036.267	1039.13
1036.554	1045.9
1036.842	1016.75
1037.129	1036.41
1037.417	1028.05
1037.704	1016.75
1037.992	996.87
1038.279	987.6
1038.566	982.63
1038.853	982.63
1039.14	982.63
