Data from hue_24_FLMS001491_00039.txt Node
Date: Tue Feb 07 17:12:12 GMT 2017
User: dcchb
Spectrometer: FLMS00149
Trigger mode: 0
Integration Time (sec): 2.000000E-2
Scans to average: 10
Electric dark correction enabled: true
Nonlinearity correction enabled: false
Boxcar width: 0
XAxis mode: Wavelengths
Number of Pixels in Spectrum: 2048
>>>>>Begin Spectral Data<<<<<
341.393	-1.5
341.776	-1.5
342.16	-1.5
342.543	-51.21
342.927	-78.33
343.31	-71.1
343.693	-71.1
344.077	-56.64
344.46	-68.61
344.843	-50.08
345.226	-51.67
345.61	-31.55
345.993	-26.58
346.376	-17.54
346.759	17.26
347.142	32.63
347.525	32.17
347.908	64.72
348.291	78.27
348.674	99.07
349.057	120.76
349.44	115.79
349.823	148.1
350.206	170.02
350.588	202.79
350.971	201.44
351.354	248.44
351.737	230.59
352.119	246.63
352.502	266.52
352.884	283.47
353.267	263.13
353.65	311.26
354.032	299.96
354.414	317.14
354.797	328.66
355.179	336.57
355.562	323.47
355.944	336.12
356.326	320.3
356.709	347.87
357.091	338.38
357.473	339.28
357.855	347.87
358.238	346.74
358.62	345.61
359.002	339.96
359.384	341.54
359.766	345.84
360.148	346.74
360.53	313.52
360.912	327.08
361.294	323.47
361.676	320.98
362.057	337.48
362.439	327.76
362.821	308.78
363.203	323.69
363.584	321.66
363.966	317.14
364.348	335.44
364.729	329.79
365.111	312.62
365.493	319.4
365.874	349.68
366.256	305.39
366.637	303.81
367.019	315.78
367.4	328.66
367.781	331.38
368.163	303.35
368.544	304.94
368.925	321.66
369.306	312.39
369.688	314.2
370.069	313.3
370.45	332.96
370.831	320.08
371.212	305.39
371.593	311.49
371.974	322.34
372.355	314.65
372.736	342
373.117	311.71
373.498	334.77
373.879	322.79
374.26	336.12
374.641	342.9
375.021	340.87
375.402	336.57
375.783	321.43
376.163	337.93
376.544	309.68
376.925	340.41
377.305	331.38
377.686	346.52
378.066	326.4
378.447	318.27
378.827	322.79
379.208	331.6
379.588	343.13
379.968	333.18
380.349	332.05
380.729	339.51
381.109	350.81
381.489	324.14
381.87	337.7
382.25	341.32
382.63	337.03
383.01	330.7
383.39	327.99
383.77	347.87
384.15	344.03
384.53	365.72
384.91	361.66
385.29	354.65
385.67	362.11
386.049	366.63
386.429	349.23
386.809	358.27
387.189	364.82
387.568	361.66
387.948	372.73
388.328	351.94
388.707	357.36
389.087	389
389.466	351.49
389.846	352.17
390.225	374.99
390.605	380.87
390.984	393.29
391.363	373.86
391.743	395.55
392.122	363.69
392.501	387.42
392.881	383.35
393.26	380.64
393.639	378.83
394.018	398.04
394.397	390.36
394.776	392.16
395.155	398.72
395.534	398.49
395.913	402.79
396.292	398.49
396.671	405.05
397.05	396.46
397.429	385.84
397.808	392.62
398.186	400.53
398.565	405.72
398.944	405.72
399.323	407.53
399.701	392.84
400.08	411.37
400.458	405.95
400.837	424.25
401.215	428.32
401.594	392.39
401.972	402.11
402.351	432.16
402.729	419.96
403.107	422.67
403.486	438.49
403.864	430.58
404.242	410.02
404.62	438.94
404.999	450.69
405.377	432.39
405.755	439.17
406.133	451.6
406.511	445.5
406.889	458.15
407.267	432.84
407.645	457.02
408.023	457.02
408.401	458.38
408.779	436.23
409.156	462.45
409.534	456.12
409.912	461.32
410.29	467.19
410.667	477.36
411.045	482.11
411.422	487.3
411.8	450.47
412.178	501.77
412.555	475.78
412.933	485.27
413.31	492.73
413.687	493.63
414.065	497.25
414.442	487.98
414.819	508.32
415.197	499.73
415.574	511.71
415.951	519.39
416.328	517.13
416.705	513.97
417.082	549.9
417.46	530.01
417.837	511.48
418.214	543.8
418.591	544.7
418.967	522.78
419.344	533.63
419.721	560.07
420.098	555.1
420.475	550.58
420.852	565.95
421.228	562.1
421.605	547.64
421.982	560.52
422.358	556.91
422.735	599.39
423.111	556.45
423.488	576.79
423.864	595.78
424.241	586.74
424.617	573.63
424.994	606.4
425.37	627.86
425.746	599.39
426.123	624.25
426.499	565.95
426.875	629.22
427.251	630.35
427.627	624.25
428.003	639.39
428.379	629.22
428.756	657.69
429.132	647.98
429.507	662.67
429.883	673.97
430.259	634.42
430.635	683
431.011	678.03
431.387	679.16
431.763	687.3
432.138	696.34
432.514	688.65
432.89	682.33
433.265	711.93
433.641	739.27
434.016	742.89
434.392	730.46
434.767	730.24
435.143	725.26
435.518	730.46
435.894	751.93
436.269	758.48
436.644	750.8
437.02	763.68
437.395	755.55
437.77	759.16
438.145	761.42
438.52	798.48
438.895	800.29
439.271	791.25
439.646	811.14
440.021	823.57
440.395	811.36
440.77	793.96
441.145	817.01
441.52	844.81
441.895	828.76
442.27	859.05
442.645	854.53
443.019	831.93
443.394	842.77
443.769	856.79
444.143	867.18
444.518	870.57
444.892	861.76
445.267	850.91
445.641	856.11
446.016	881.87
446.39	909.67
446.764	900.63
447.139	895.2
447.513	901.98
447.887	922.32
448.262	923.45
448.636	918.93
449.01	935.43
449.384	922.55
449.758	920.51
450.132	949.44
450.506	960.74
450.88	953.28
451.254	948.53
451.628	954.41
452.002	980.17
452.376	983.34
452.75	989.44
453.123	1009.55
453.497	1037.12
453.871	1006.84
454.244	1016.1
454.618	1045.26
454.992	1048.64
455.365	1035.54
455.739	1070.57
456.112	1096.78
456.486	1119.6
456.859	1113.28
457.232	1100.39
457.606	1122.54
457.979	1130
458.352	1174.07
458.725	1189.21
459.099	1139.94
459.472	1163.22
459.845	1184.46
460.218	1224.46
460.591	1227.85
460.964	1226.72
461.337	1240.5
461.71	1277.11
462.083	1289.99
462.456	1264.23
462.829	1298.81
463.201	1309.43
463.574	1295.19
463.947	1343.1
464.32	1381.74
464.692	1348.98
465.065	1376.32
465.438	1381.52
465.81	1427.84
466.183	1440.72
466.555	1458.35
466.928	1428.3
467.3	1470.1
467.672	1507.16
468.045	1549.42
468.417	1526.6
468.789	1537.9
469.161	1560.27
469.534	1586.94
469.906	1631.91
470.278	1630.55
470.65	1687.72
471.022	1693.83
471.394	1689.76
471.766	1690.44
472.138	1740.38
472.51	1783.77
472.882	1808.62
473.253	1851.34
473.625	1886.59
473.997	1889.3
474.369	1905.12
474.74	1933.82
475.112	1974.95
475.484	2038.68
475.855	2039.13
476.227	2091.56
476.598	2135.85
476.97	2100.59
477.341	2191.89
477.713	2245
478.084	2258.78
478.455	2327.26
478.827	2321.61
479.198	2405.22
479.569	2411.55
479.94	2454.48
480.311	2492
480.682	2578.77
481.053	2614.25
481.424	2671.65
481.795	2718.66
482.166	2745.78
482.537	2805.21
482.908	2858.77
483.279	2880.46
483.65	2946.9
484.021	3065.09
484.391	3075.48
484.762	3095.37
485.133	3116.61
485.503	3196.16
485.874	3249.72
486.244	3319.55
486.615	3390.28
486.985	3409.71
487.356	3461.91
487.726	3549.37
488.097	3608.35
488.467	3607
488.837	3730.38
489.207	3783.04
489.578	3843.15
489.948	3861.68
490.318	3931.51
490.688	3945.29
491.058	4024.61
491.428	4039.98
491.798	4098.06
492.168	4181.67
492.538	4256.24
492.908	4291.05
493.278	4323.36
493.648	4356.81
494.017	4399.07
494.387	4440.87
494.757	4518.38
495.126	4550.25
495.496	4580.08
495.866	4612.62
496.235	4669.34
496.605	4749.11
496.974	4753.86
497.344	4812.61
497.713	4846.51
498.082	4847.87
498.452	4948.2
498.821	4920.86
499.19	5004.25
499.559	5058.71
499.928	5072.72
500.298	5107.3
500.667	5143
501.036	5203.79
501.405	5205.37
501.774	5247.4
502.143	5292.83
502.512	5290.57
502.88	5322.88
503.249	5310.23
503.618	5393.16
503.987	5425.48
504.356	5469.77
504.724	5497.12
505.093	5496.44
505.462	5538.24
505.83	5548.87
506.199	5575.31
506.567	5643.1
506.936	5673.61
507.304	5702.31
507.672	5744.11
508.041	5755.64
508.409	5806.26
508.777	5818.69
509.145	5884.9
509.514	5880.83
509.882	5912.92
510.25	5949.98
510.618	5952.47
510.986	5964
511.354	6082.64
511.722	6100.94
512.09	6175.52
512.458	6171.45
512.826	6195.85
513.193	6196.31
513.561	6212.35
513.929	6295.06
514.297	6332.12
514.664	6382.06
515.032	6373.02
515.4	6309.75
515.767	6430.65
516.135	6458.22
516.502	6440.37
516.869	6585.45
517.237	6528.05
517.604	6504.09
517.972	6554.49
518.339	6613.92
518.706	6550.87
519.073	6628.39
519.44	6694.6
519.808	6740.7
520.175	6734.6
520.542	6792.67
520.909	6828.61
521.276	6834.93
521.643	6874.48
522.009	6888.04
522.376	6961.71
522.743	6991.99
523.11	7046.68
523.477	7092.33
523.843	7186.34
524.21	7208.48
524.577	7302.27
524.943	7236.96
525.31	7269.5
525.676	7396.27
526.043	7362.15
526.409	7420.23
526.776	7532.54
527.142	7496.84
527.508	7565.54
527.874	7531.86
528.241	7645.31
528.607	7659.32
528.973	7790.61
529.339	7779.54
529.705	7793.55
530.071	7918.97
530.437	7887.33
530.803	7923.72
531.169	7953.1
531.535	8014.11
531.901	8015.02
532.267	8155.58
532.632	8079.87
532.998	8101.34
533.364	8157.38
533.73	8150.6
534.095	8197.61
534.461	8309.02
534.826	8371.84
535.192	8368.9
535.557	8406.19
535.923	8428.34
536.288	8385.85
536.653	8485.29
537.019	8509.69
537.384	8481.9
537.749	8530.26
538.114	8652.74
538.479	8635.34
538.845	8655
539.21	8687.77
539.575	8723.92
539.94	8757.14
540.305	8847.54
540.67	8807.08
541.034	8872.85
541.399	8908.1
541.764	8859.06
542.129	8929.34
542.494	8994.65
542.858	9062.9
543.223	9080.75
543.587	9181.99
543.952	9190.58
544.316	9163.23
544.681	9193.74
545.045	9153.97
545.41	9287.52
545.774	9344.47
546.138	9348.99
546.503	9399.16
546.867	9395.32
547.231	9467.86
547.595	9483
547.959	9547.18
548.324	9491.81
548.688	9548.53
549.052	9586.5
549.416	9637.12
549.779	9638.02
550.143	9699.49
550.507	9684.35
550.871	9740.62
551.235	9800.73
551.599	9918.92
551.962	9919.37
552.326	9894.51
552.689	9946.72
553.053	9920.95
553.417	9948.07
553.78	10079.82
554.143	10018.8
554.507	10030.78
554.87	10110.1
555.234	10180.83
555.597	10144
555.96	10135.19
556.323	10290.66
556.686	10263.54
557.05	10328.17
557.413	10295.41
557.776	10350.32
558.139	10447.49
558.502	10423.77
558.865	10464.22
559.228	10480.04
559.59	10565
559.953	10545.8
560.316	10706.7
560.679	10694.04
561.041	10735.17
561.404	10756.86
561.767	10859.91
562.129	10833.25
562.492	10966.8
562.854	10910.76
563.217	10939.46
563.579	10944.43
563.941	11038.44
564.304	11018.78
564.666	11153.24
565.028	11167.93
565.39	11113.46
565.753	11252.44
566.115	11336.51
566.477	11311.65
566.839	11381.25
567.201	11375.38
567.563	11388.26
567.925	11487.69
568.287	11466.45
568.648	11577.63
569.01	11633.45
569.372	11589.16
569.734	11603.17
570.095	11772.2
570.457	11742.15
570.819	11812.66
571.18	11895.14
571.542	11889.49
571.903	11963.61
572.265	11959.54
572.626	12073.67
572.987	12157.05
573.349	12170.61
573.71	12240.67
574.071	12267.11
574.432	12400.21
574.794	12432.98
575.155	12483.15
575.516	12446.76
575.877	12592.75
576.238	12773.99
576.599	12808.56
576.96	12787.55
577.32	12886.53
577.681	12972.85
578.042	13098.27
578.403	13109.8
578.763	13237.25
579.124	13413.29
579.485	13529.45
579.845	13541.65
580.206	13724.47
580.566	13771.93
580.927	13888.31
581.287	14077.23
581.648	14199.03
582.008	14349.99
582.368	14471.34
582.728	14704.78
583.089	14786.81
583.449	14887.15
583.809	15106.58
584.169	15295.05
584.529	15386.8
584.889	15733.23
585.249	15754.47
585.609	15971.64
585.969	16198.08
586.329	16416.6
586.688	16578.41
587.048	16861.79
587.408	16978.17
587.768	17274.66
588.127	17445.5
588.487	17696.79
588.846	18012.49
589.206	18117.12
589.565	18516.43
589.925	18694.28
590.284	19181.28
590.643	19264.89
591.003	19581.94
591.362	19971.76
591.721	20176.96
592.08	20499.43
592.44	20759.76
592.799	21035.46
593.158	21383.93
593.517	21680.64
593.876	21919.96
594.235	22317.46
594.593	22642.2
594.952	22920.61
595.311	23114.51
595.67	23471.56
596.029	23969.17
596.387	24210.75
596.746	24603.73
597.104	24765.31
597.463	24949.49
597.822	25368.46
598.18	25506.31
598.538	25956.24
598.897	26457.47
599.255	26398.26
599.613	27112.37
599.972	27149.88
600.33	27683.88
600.688	27794.16
601.046	28218.33
601.404	28620.8
601.762	28823.51
602.12	29226.89
602.478	29475.47
602.836	29731.51
603.194	29869.58
603.552	30225.05
603.91	30344.82
604.268	30778.48
604.625	31046.73
604.983	31284.69
605.341	31519.26
605.698	31930.32
606.056	32253.25
606.413	32394.26
606.771	32734.59
607.128	32880.58
607.485	33034.02
607.843	33190.85
608.2	33756.49
608.557	33956.71
608.914	34087.55
609.272	34566.63
609.629	34829
609.986	35080.29
610.343	35200.74
610.7	35708.3
611.057	35648.19
611.414	35855.87
611.771	36143.99
612.127	36558.9
612.484	36590.99
612.841	36851.09
613.198	36957.98
613.554	37317.3
613.911	37580.34
614.267	37643.16
614.624	37858.07
614.98	37889.03
615.337	38185.3
615.693	38350.71
616.05	38561.1
616.406	38834.32
616.762	38697.6
617.118	38952.28
617.475	39186.17
617.831	39440.86
618.187	39494.87
618.543	39648.31
618.899	39963.78
619.255	40014.85
619.611	40166.49
619.967	40284.45
620.323	40674.72
620.678	40486.7
621.034	40671.78
621.39	40721.5
621.746	40887.6
622.101	41290.07
622.457	41173.69
622.812	41515.15
623.168	41516.73
623.523	41563.51
623.879	41761.02
624.234	41450.07
624.589	41707.01
624.945	41982.71
625.3	42060.45
625.655	42131.41
626.01	42140.45
626.365	42143.16
626.72	42152.87
627.075	42262.48
627.43	42381.8
627.785	42341.12
628.14	42614.33
628.495	42668.34
628.85	42715.57
629.205	42539.08
629.559	42806.42
629.914	42736.81
630.269	42886.19
630.623	42741.56
630.978	42802.58
631.332	42954.89
631.687	43074.88
632.041	42864.49
632.396	43043.47
632.75	42962.12
633.104	43159.18
633.459	42878.73
633.813	42908.56
634.167	43064.04
634.521	43097.71
634.875	43174.32
635.229	42960.09
635.583	42938.16
635.937	42984.72
636.291	43036.47
636.645	43078.73
636.999	42944.94
637.352	43185.39
637.706	42902.23
638.06	43046.86
638.413	43091.83
638.767	42987.88
639.121	43063.59
639.474	42930.93
639.828	43010.71
640.181	43095.67
640.534	43177.71
640.888	42955.57
641.241	42843.7
641.594	42918.28
641.947	43132.96
642.301	43076.92
642.654	42989.46
643.007	42998.5
643.36	42939.29
643.713	42855
644.066	42993.98
644.419	42748.11
644.771	42661.34
645.124	42211.4
645.477	42222.25
645.83	42073.1
646.182	41913.78
646.535	41842.6
646.888	41802.15
647.24	41659.33
647.593	41854.8
647.945	41655.71
648.298	41617.3
648.65	41469.95
649.002	41391.54
649.355	41622.27
649.707	41646.45
650.059	41859.1
650.411	42197.39
650.763	42359.2
651.115	42753.31
651.467	42511.96
651.819	42507.22
652.171	42501.34
652.523	42414.79
652.875	42363.26
653.227	42333.43
653.578	42566.65
653.93	42433.77
654.282	42302.02
654.633	42135.93
654.985	42322.36
655.337	42310.16
655.688	42308.8
656.039	42537.05
656.391	42150.84
656.742	42262.02
657.094	42291.63
657.445	42444.62
657.796	42417.5
658.147	42166.66
658.498	42145.64
658.849	42262.93
659.2	42226.55
659.551	42130.95
659.902	42364.62
660.253	42270.84
660.604	42190.61
660.955	42089.83
661.306	42350.38
661.656	42215.7
662.007	42152.65
662.358	42188.13
662.708	42294.11
663.059	42269.03
663.409	42029.71
663.76	42373.43
664.11	42261.12
664.461	42298.63
664.811	42188.58
665.161	42202.14
665.511	42084.63
665.862	42192.42
666.212	42301.8
666.562	42304.28
666.912	42135.47
667.262	42025.19
667.612	42196.26
667.962	42210.73
668.312	42075.14
668.662	42163.27
669.011	42150.61
669.361	42081.69
669.711	41933.67
670.06	41921.02
670.41	41900
670.76	41798.76
671.109	41878.76
671.459	41915.82
671.808	41783.84
672.157	41894.35
672.507	41686.9
672.856	41721.93
673.205	41829.49
673.554	41980.45
673.904	41844.41
674.253	41864.97
674.602	41719.89
674.951	41309.96
675.3	41137.31
675.649	41807.35
675.998	41551.99
676.346	41771.42
676.695	41909.72
677.044	41533
677.393	41600.12
677.741	41673.34
678.09	41457.3
678.438	41531.65
678.787	41414.14
679.135	41375.04
679.484	41253.92
679.832	41463.4
680.181	41119
680.529	41360.58
680.877	41184.54
681.225	41168.72
681.573	41356.06
681.922	41043.07
682.27	40972.57
682.618	41061.6
682.966	40884.21
683.314	40893.02
683.661	40813.93
684.009	40739.13
684.357	40567.61
684.705	40655.51
685.053	40733.7
685.4	40774.38
685.748	40448.74
686.095	40471.34
686.443	40443.77
686.79	40265.47
687.138	40379.59
687.485	40327.84
687.832	40242.64
688.18	40248.74
688.527	39870.45
688.874	39930.11
689.221	40003.33
689.568	39794.97
689.915	39706.39
690.262	39847.17
690.609	39618.48
690.956	39366.06
691.303	39377.81
691.65	39219.17
691.997	39173.97
692.344	39037.7
692.69	39085.84
693.037	39048.55
693.383	38739.41
693.73	38942.79
694.077	38592.52
694.423	38661.22
694.769	38543.48
695.116	38474.55
695.462	38313.65
695.808	38239.53
696.155	38290.83
696.501	37911.86
696.847	37982.59
697.193	37764.74
697.539	37969.93
697.885	37775.36
698.231	37658.76
698.577	37608.36
698.923	37595.03
699.269	37395.26
699.614	37311.87
699.96	37263.74
700.306	37184.87
700.651	36983.52
700.997	36959.79
701.342	36858.78
701.688	36838.66
702.033	36539.01
702.379	36530.65
702.724	36501.5
703.069	36712.57
703.415	36195.74
703.76	36320.94
704.105	36147.16
704.45	36146.48
704.795	35944.22
705.14	35899.71
705.485	35771.8
705.83	35595.98
706.175	35761.18
706.52	35656.32
706.865	35506.72
707.209	35519.83
707.554	35364.8
707.899	35458.14
708.243	35238.48
708.588	35256.56
708.932	34920.3
709.277	34896.34
709.621	34827.42
709.966	34784.48
710.31	34892.05
710.654	34598.27
710.998	34589.23
711.342	34534.32
711.687	34396.69
712.031	34278.73
712.375	34252.29
712.719	34202.58
713.063	34228.56
713.407	34160.54
713.75	34066.53
714.094	34086.87
714.438	33999.19
714.782	34011.17
715.125	33799.2
715.469	33766.88
715.812	33618.64
716.156	33543.16
716.499	33537.51
716.843	33593.1
717.186	33389.49
717.53	33375.48
717.873	33446.44
718.216	33255.93
718.559	33113.11
718.902	33041.48
719.246	33081.02
719.589	33036.73
719.932	32791.76
720.275	32971.42
720.617	32832.89
720.96	32827.47
721.303	32762.39
721.646	32709.73
721.989	32492.11
722.331	32676.29
722.674	32459.8
723.016	32597.87
723.359	32462.96
723.701	32560.13
724.044	32203.98
724.386	32192.23
724.729	32300.03
725.071	32204.89
725.413	32184.55
725.755	32084.21
726.097	31945.91
726.439	31836.76
726.782	31780.72
727.124	31954.72
727.465	31773.71
727.807	31628.18
728.149	31786.59
728.491	31632.02
728.833	31689.2
729.175	31451.01
729.516	31453.5
729.858	31453.27
730.199	31396.1
730.541	31347.74
730.882	31361.75
731.224	31460.73
731.565	31183.9
731.906	31161.07
732.248	31278.36
732.589	31174.18
732.93	31005.15
733.271	30987.74
733.612	31041.75
733.953	31091.7
734.294	30834.53
734.635	30834.08
734.976	30878.82
735.317	30852.15
735.658	30750.69
735.999	30659.62
736.339	30680.18
736.68	30687.19
737.021	30569.45
737.361	30433.86
737.702	30571.48
738.042	30489
738.383	30503.24
738.723	30496.23
739.063	30369.91
739.404	30410.36
739.744	30243.81
740.084	30206.3
740.424	30143.7
740.764	29974.21
741.104	30263.02
741.444	30189.57
741.784	30051.05
742.124	29964.49
742.464	29973.31
742.804	29917.72
743.143	29831.62
743.483	29989.58
743.823	29739.42
744.162	29877.27
744.502	29804.05
744.841	29627.55
745.181	29763.14
745.52	29694.9
745.86	29646.31
746.199	29561.79
746.538	29594.79
746.877	29572.64
747.216	29596.59
747.556	29471.63
747.895	29486.99
748.234	29385.53
748.573	29368.35
748.911	29195.25
749.25	29195.48
749.589	29136.04
749.928	29210.62
750.267	29308.01
750.605	29001.13
750.944	29006.55
751.283	28995.48
751.621	29097.4
751.96	28865.77
752.298	28858.08
752.636	28901.92
752.975	28702.15
753.313	28633
753.651	28746.9
753.989	28549.84
754.327	28602.95
754.666	28365.21
755.004	28364.99
755.342	28407.93
755.679	28297.87
756.017	28186.46
756.355	28324.76
756.693	28153.92
757.031	28252.68
757.368	27940.82
757.706	28050.19
758.044	27952.34
758.381	27919.8
758.719	27877.77
759.056	27910.09
759.394	27728.17
759.731	27637.1
760.068	27582.18
760.405	27445.46
760.743	27301.29
761.08	27509.64
761.417	27236.2
761.754	27451.57
762.091	27257.67
762.428	27118.69
762.765	26911.92
763.102	27107.39
763.438	26877.8
763.775	26950.56
764.112	26787.63
764.449	26861.3
764.785	26574.75
765.122	26489.78
765.458	26461.76
765.795	26352.84
766.131	26354.19
766.467	26188.77
766.804	26128.44
767.14	25960.98
767.476	26023.36
767.812	25766.19
768.148	25838.28
768.485	25726.41
768.821	25555.35
769.157	25574.1
769.492	25566.42
769.828	25416.14
770.164	25242.13
770.5	25253.21
770.836	25182.02
771.171	25011.86
771.507	24979.77
771.842	24785.42
772.178	24800.34
772.513	24685.31
772.849	24625.65
773.184	24537.07
773.519	24498.2
773.855	24343.63
774.19	24309.95
774.525	24200.8
774.86	24091.88
775.195	24053.24
775.53	24055.05
775.865	23893.47
776.2	23643.3
776.535	23701.61
776.87	23514.72
777.205	23469.07
777.539	23417.32
777.874	23554.04
778.209	23216.88
778.543	23217.1
778.878	23065.47
779.212	23009.2
779.547	22815.08
779.881	22978.92
780.215	22716.78
780.55	22854.63
780.884	22658.25
781.218	22560.62
781.552	22610.56
781.886	22473.39
782.22	22256.45
782.554	22338.25
782.888	22261.19
783.222	22082.89
783.556	21936.91
783.889	21853.75
784.223	21750.7
784.557	21768.1
784.89	21724.94
785.224	21604.71
785.557	21567.65
785.891	21338.96
786.224	21503.93
786.558	21373.08
786.891	21130.38
787.224	21188.23
787.557	21023.94
787.891	21070.27
788.224	20924.73
788.557	20974.9
788.89	20815.58
789.223	20839.99
789.556	20637.06
789.888	20562.71
790.221	20556.83
790.554	20330.62
790.887	20251.08
791.219	20320
791.552	20240.68
791.884	20089.95
792.217	20084.75
792.549	20030.97
792.882	19854.03
793.214	19900.35
793.546	19804.08
793.879	19760.47
794.211	19678.66
794.543	19738.77
794.875	19548.5
795.207	19551.89
795.539	19423.53
795.871	19444.55
796.203	19360.93
796.535	19250.65
796.867	19247.94
797.198	19117.32
797.53	19098.79
797.862	18917.33
798.193	18986.25
798.525	18916.88
798.856	18901.96
799.188	18687.95
799.519	18657.22
799.85	18577
800.182	18531.8
800.513	18553.5
800.844	18399.37
801.175	18498.36
801.506	18433.95
801.837	18334.52
802.168	18300.85
802.499	18189.44
802.83	18050.23
803.161	18017.92
803.491	18094.52
803.822	18012.27
804.153	17932.04
804.483	17810.92
804.814	17810.46
805.145	17771.37
805.475	17819.05
805.805	17657.93
806.136	17586.29
806.466	17581.32
806.796	17533.64
807.126	17451.15
807.457	17378.61
807.787	17348.33
808.117	17255.9
808.447	17331.38
808.777	17295
809.107	17226.3
809.436	17115.34
809.766	17122.57
810.096	17004.16
810.426	16921
810.755	17038.51
811.085	16924.16
811.414	16901.11
811.744	16716.48
812.073	16768.91
812.403	16664.05
812.732	16642.13
813.061	16711.96
813.39	16485.53
813.719	16470.39
814.049	16649.82
814.378	16437.39
814.707	16382.48
815.036	16400.78
815.365	16340.22
815.693	16242.37
816.022	16170.28
816.351	16207.12
816.68	16055.48
817.008	16004.64
817.337	15950.85
817.665	15908.14
817.994	15961.92
818.322	15980.46
818.651	15903.17
818.979	15834.7
819.307	15867.24
819.636	15798.09
819.964	15768.71
820.292	15798.31
820.62	15733.68
820.948	15626.57
821.276	15748.82
821.604	15665.66
821.932	15667.02
822.259	15756.73
822.587	15622.05
822.915	15625.21
823.243	15636.96
823.57	15568.94
823.898	15691.88
824.225	15515.16
824.553	15578.21
824.88	15634.7
825.207	15619.11
825.535	15583.4
825.862	15589.96
826.189	15530.52
826.516	15549.05
826.843	15632.67
827.17	15566.46
827.497	15626.79
827.824	15629.96
828.151	15626.34
828.478	15639.45
828.805	15639
829.131	15469.96
829.458	15528.26
829.785	15491.2
830.111	15521.48
830.438	15631.54
830.764	15606
831.09	15521.48
831.417	15436.97
831.743	15486.68
832.069	15530.52
832.395	15403.75
832.722	15379.57
833.048	15401.94
833.374	15473.8
833.7	15267.71
834.026	15442.39
834.351	15379.12
834.677	15325.11
835.003	15320.13
835.329	15288.72
835.654	15351.32
835.98	15238.78
836.306	15243.3
836.631	15231.55
836.956	15325.11
837.282	15220.7
837.607	15113.36
837.932	15162.85
838.258	15096.86
838.583	15056.41
838.908	14992.46
839.233	15047.6
839.558	14986.81
839.883	15024.55
840.208	14922.18
840.533	14920.6
840.858	14859.81
841.182	14898.22
841.507	14828.62
841.832	14767.83
842.156	14741.84
842.481	14714.05
842.805	14703.2
843.13	14716.76
843.454	14641.06
843.778	14614.62
844.103	14529.65
844.427	14565.35
844.751	14595.41
845.075	14433.83
845.399	14365.58
845.723	14378.24
846.047	14411.68
846.371	14245.36
846.695	14230.45
847.019	14157.68
847.343	14176.44
847.666	14044.46
847.99	14024.57
848.313	13950.23
848.637	13906.16
848.96	13881.3
849.284	13813.28
849.607	13715.88
849.931	13708.88
850.254	13629.56
850.577	13613.74
850.9	13373.52
851.223	13430.92
851.546	13400.86
851.869	13203.81
852.192	13270.02
852.515	13215.78
852.838	13202
853.161	13169.23
853.483	13019.18
853.806	13004.71
854.129	13032.28
854.451	12911.84
854.774	12915.45
855.096	12878.39
855.419	12740.54
855.741	12809.47
856.063	12659.41
856.385	12655.8
856.708	12656.25
857.03	12593.2
857.352	12633.42
857.674	12531.51
857.996	12484.95
858.318	12451.28
858.64	12446.54
858.961	12396.59
859.283	12320.44
859.605	12275.47
859.926	12341.23
860.248	12277.05
860.57	12241.8
860.891	12243.83
861.212	12171.29
861.534	12115.92
861.855	12127.68
862.176	12128.13
862.498	12162.25
862.819	12070.73
863.14	12004.74
863.461	11932.88
863.782	11905.08
864.103	11975.36
864.424	11885.87
864.745	11924.52
865.065	11916.16
865.386	11801.58
865.707	11736.5
866.027	11845.2
866.348	11757.06
866.668	11764.75
866.989	11731.3
867.309	11616.28
867.63	11671.19
867.95	11640.91
868.27	11595.94
868.59	11585.77
868.91	11563.85
869.23	11579.89
869.55	11485.43
869.87	11554.81
870.19	11604.07
870.51	11614.24
870.83	11593.9
871.15	11427.35
871.469	11510.06
871.789	11457.64
872.109	11506.45
872.428	11389.16
872.748	11364.08
873.067	11391.2
873.386	11402.72
873.706	11373.8
874.025	11296.28
874.344	11272.1
874.663	11286.34
874.982	11318.88
875.301	11271.43
875.62	11224.87
875.939	11149.17
876.258	11220.58
876.577	11126.35
876.896	11071.21
877.214	11119.34
877.533	11130.87
877.852	10996.86
878.17	11075.73
878.489	11090.41
878.807	11028.95
879.125	10977.2
879.444	10935.39
879.762	11034.14
880.08	11020.13
880.398	10955.5
880.716	10994.6
881.034	10911.21
881.352	10906.69
881.67	10890.65
881.988	10828.05
882.306	10772.68
882.624	10795.06
882.941	10658.34
883.259	10689.52
883.577	10725.9
883.894	10749.18
884.212	10679.35
884.529	10637.77
884.846	10597.32
885.164	10586.02
885.481	10518.23
885.798	10526.14
886.115	10543.31
886.432	10475.06
886.75	10488.4
887.067	10485.01
887.383	10378.12
887.7	10436.87
888.017	10409.53
888.334	10402.3
888.651	10337.67
888.967	10219.25
889.284	10238.01
889.6	10258.35
889.917	10162.53
890.233	10195.75
890.55	10089.09
890.866	10182.19
891.182	10116.88
891.498	10034.85
891.815	9995.53
892.131	9987.62
892.447	9972.25
892.763	9876.89
893.079	9945.13
893.395	9832.14
893.71	9876.44
894.026	9802.54
894.342	9809.54
894.657	9820.17
894.973	9658.81
895.289	9663.56
895.604	9633.28
895.92	9605.93
896.235	9580.85
896.55	9585.37
896.865	9493.62
897.181	9544.24
897.496	9495.43
897.811	9447.52
898.126	9400.06
898.441	9366.39
898.756	9369.1
899.071	9259.73
899.386	9321.42
899.7	9163.69
900.015	9174.31
900.33	9193.74
900.644	9179.73
900.959	9074.65
901.273	9091.15
901.588	9072.39
901.902	9039.17
902.216	8990.81
902.531	8976.57
902.845	8882.34
903.159	8896.8
903.473	8788.33
903.787	8844.6
904.101	8752.17
904.415	8735.45
904.729	8708.78
905.042	8684.38
905.356	8637.6
905.67	8626.75
905.984	8606.86
906.297	8619.07
906.611	8507.43
906.924	8541.56
907.237	8483.93
907.551	8447.32
907.864	8403.03
908.177	8367.1
908.491	8342.01
908.804	8316.7
909.117	8209.81
909.43	8218.4
909.743	8206.65
910.056	8239.19
910.368	8194.22
910.681	8114.22
910.994	8080.1
911.307	8025.86
911.619	7948.8
911.932	7930.05
912.244	7925.3
912.557	7920.78
912.869	7865.64
913.181	7849.6
913.494	7852.31
913.806	7748.58
914.118	7788.13
914.43	7705.42
914.742	7750.39
915.054	7638.3
915.366	7641.24
915.678	7560.79
915.99	7513.79
916.302	7500
916.613	7456.16
916.925	7446.44
917.236	7468.81
917.548	7338.65
917.859	7405.31
918.171	7313.79
918.482	7257.07
918.794	7238.09
919.105	7257.75
919.416	7193.34
919.727	7150.63
920.038	7160.12
920.349	7077.41
920.66	7107.47
920.971	7052.78
921.282	7078.09
921.593	7005.78
921.903	6956.74
922.214	6967.81
922.525	6952.67
922.835	6907.47
923.146	6848.27
923.456	6827.02
923.767	6791.54
924.077	6763.97
924.387	6696.18
924.697	6640.59
925.008	6678.1
925.318	6671.55
925.628	6617.09
925.938	6587.26
926.248	6514.04
926.558	6550.87
926.867	6510.87
927.177	6528.73
927.487	6419.8
927.796	6404.89
928.106	6425.68
928.416	6362.63
928.725	6320.82
929.034	6321.05
929.344	6300.48
929.653	6268.17
929.962	6232.24
930.271	6181.84
930.581	6135.97
930.89	6171.22
931.199	6149.53
931.508	6113.6
931.817	6096.87
932.125	6124.67
932.434	6083.77
932.743	5963.09
933.051	5950.21
933.36	5965.58
933.669	5869.08
933.977	5885.58
934.286	5863.21
934.594	5903.21
934.902	5840.61
935.21	5834.51
935.519	5735.3
935.827	5751.8
936.135	5708.86
936.443	5684.91
936.751	5655.53
937.059	5720.16
937.367	5629.32
937.674	5626.38
937.982	5600.39
938.29	5571.46
938.597	5532.14
938.905	5489.43
939.213	5427.51
939.52	5433.84
939.827	5457.34
940.135	5372.6
940.442	5383.22
940.749	5319.49
941.056	5399.26
941.363	5312.04
941.67	5321.53
941.977	5254.18
942.284	5258.7
942.591	5263.68
942.898	5235.43
943.205	5144.36
943.511	5137.35
943.818	5175.77
944.125	5123.79
944.431	5091.48
944.738	5082.66
945.044	5072.72
945.35	5020.97
945.657	5011.93
945.963	5006.51
946.269	4987.52
946.575	4959.73
946.881	4935.55
947.187	4890.13
947.493	4872.5
947.799	4886.06
948.105	4852.84
948.41	4808.55
948.716	4812.84
949.022	4781.2
949.327	4777.13
949.633	4752.5
949.938	4712.96
950.244	4725.84
950.549	4683.13
950.854	4679.74
951.16	4645.84
951.465	4632.96
951.77	4569.68
952.075	4558.83
952.38	4568.55
952.685	4505.73
952.99	4480.19
953.294	4492.62
953.599	4448.1
953.904	4461.89
954.209	4366.75
954.513	4403.58
954.818	4403.13
955.122	4310.93
955.426	4353.64
955.731	4319.07
956.035	4283.81
956.339	4325.85
956.643	4254.21
956.948	4253.98
957.252	4264.38
957.556	4244.94
957.86	4198.62
958.163	4206.75
958.467	4145.06
958.771	4116.13
959.075	4129.69
959.378	4103.48
959.682	4105.97
959.985	4071.62
960.289	4068.68
960.592	4076.36
960.896	4023.03
961.199	4044.72
961.502	3956.82
961.805	3978.74
962.108	3958.4
962.411	3914.33
962.714	3896.71
963.017	3959.75
963.32	3891.06
963.623	3885.86
963.926	3875.01
964.228	3796.14
964.531	3801.11
964.833	3779.87
965.136	3741.23
965.438	3775.8
965.741	3745.07
966.043	3733.55
966.345	3732.42
966.648	3695.81
966.95	3679.76
967.252	3641.57
967.554	3662.36
967.856	3640.44
968.158	3608.13
968.46	3610.16
968.761	3574
969.063	3568.58
969.365	3541.69
969.666	3580.33
969.968	3550.73
970.269	3522.03
970.571	3523.16
970.872	3477.73
971.174	3448.13
971.475	3430.95
971.776	3454.91
972.077	3427.11
972.378	3415.36
972.679	3405.87
972.98	3415.81
973.281	3371.07
973.582	3358.41
973.883	3357.96
974.183	3323.16
974.484	3300.56
974.785	3305.99
975.085	3300.79
975.386	3301.92
975.686	3275.48
975.986	3239.32
976.287	3213.79
976.587	3187.35
976.887	3181.92
977.187	3211.75
977.487	3193.67
977.787	3141.25
978.087	3127.01
978.387	3077.52
978.687	3110.06
978.987	3094.69
979.286	3069.83
979.586	3048.82
979.885	3029.38
980.185	3042.04
980.484	3046.11
980.784	3034.81
981.083	3009.05
981.382	2959.33
981.682	2953.68
981.981	2924.53
982.28	2944.19
982.579	2922.72
982.878	2910.52
983.177	2900.57
983.475	2912.32
983.774	2903.51
984.073	2880.69
984.372	2846.79
984.67	2820.35
984.969	2830.52
985.267	2850.41
985.566	2816.73
985.864	2798.88
986.162	2809.5
986.461	2749.84
986.759	2775.15
987.057	2739.22
987.355	2748.71
987.653	2722.05
987.951	2732.89
988.249	2678.43
988.547	2683.63
988.844	2651.31
989.142	2674.82
989.44	2655.16
989.737	2600.24
990.035	2604.99
990.332	2613.35
990.63	2615.38
990.927	2570.64
991.224	2566.57
991.521	2543.97
991.819	2542.16
992.116	2534.03
992.413	2532.22
992.71	2504.88
993.006	2478.89
993.303	2510.75
993.6	2506.23
993.897	2491.77
994.193	2428.04
994.49	2431.43
994.787	2403.19
995.083	2399.34
995.379	2430.3
995.676	2374.49
995.972	2395.28
996.268	2386.69
996.565	2385.11
996.861	2333.58
997.157	2345.33
997.453	2364.09
997.749	2317.31
998.044	2286.35
998.34	2288.61
998.636	2260.59
998.932	2256.07
999.227	2240.48
999.523	2241.61
999.818	2231.89
1000.114	2247.94
1000.409	2226.01
1000.704	2192.8
1001	2177.65
1001.295	2137.2
1001.59	2179.01
1001.885	2161.84
1002.18	2140.14
1002.475	2128.62
1002.77	2115.74
1003.065	2083.65
1003.359	2091.33
1003.654	2077.32
1003.949	2061.95
1004.243	2048.62
1004.538	2042.97
1004.832	2052.69
1005.127	2038.45
1005.421	2015.62
1005.715	2005
1006.009	2008.85
1006.304	1956.64
1006.598	1963.42
1006.892	1968.39
1007.186	1978.34
1007.48	1939.92
1007.773	1942.18
1008.067	1911.9
1008.361	1929.75
1008.655	1914.61
1008.948	1873.93
1009.242	1882.75
1009.535	1877.32
1009.829	1857.66
1010.122	1819.92
1010.415	1827.61
1010.708	1818.79
1011.001	1804.11
1011.295	1816.53
1011.588	1805.69
1011.881	1759.13
1012.173	1771.79
1012.466	1755.97
1012.759	1753.26
1013.052	1741.28
1013.344	1737.44
1013.637	1732.24
1013.93	1696.99
1014.222	1721.85
1014.514	1721.4
1014.807	1686.37
1015.099	1670.32
1015.391	1656.76
1015.683	1633.26
1015.976	1629.87
1016.268	1610.66
1016.56	1616.99
1016.851	1597.1
1017.143	1604.34
1017.435	1613.38
1017.727	1576.99
1018.018	1560.04
1018.31	1589.65
1018.602	1569.08
1018.893	1526.15
1019.185	1530.21
1019.476	1533.6
1019.767	1491.34
1020.058	1513.72
1020.35	1488.63
1020.641	1468.52
1020.932	1487.28
1021.223	1472.14
1021.514	1438.92
1021.804	1460.16
1022.095	1425.58
1022.386	1429.2
1022.677	1442.53
1022.967	1390.1
1023.258	1417
1023.548	1394.17
1023.839	1384.68
1024.129	1384
1024.419	1375.19
1024.709	1376.32
1025	1340.61
1025.29	1355.76
1025.58	1332.48
1025.87	1332.93
1026.16	1298.36
1026.449	1303.1
1026.739	1259.71
1027.029	1289.99
1027.319	1287.73
1027.608	1267.4
1027.898	1270.11
1028.187	1233.72
1028.477	1223.33
1028.766	1239.37
1029.055	1232.82
1029.344	1207.28
1029.634	1196.21
1029.923	1176.78
1030.212	1198.92
1030.501	1223.78
1030.79	1182.65
1031.078	1162.54
1031.367	1170
1031.656	1151.92
1031.945	1169.55
1032.233	1129.77
1032.522	1132.03
1032.81	1109.89
1033.099	1121.64
1033.387	1095.65
1033.675	1104.01
1033.963	1112.15
1034.251	1069.66
1034.54	1108.3
1034.828	1071.69
1035.116	1064.24
1035.403	1062.88
1035.691	1059.04
1035.979	1027.4
1036.267	1066.95
1036.554	1021.53
1036.842	1030.79
1037.129	1010
1037.417	1025.59
1037.704	990.57
1037.992	1008.65
1038.279	1005.26
1038.566	982.88
1038.853	982.88
1039.14	982.88
