Data from hue_340_FLMS001491_44.txt Node
Date: Mon Feb 06 15:43:10 GMT 2017
User: dcchb
Spectrometer: FLMS00149
Trigger mode: 0
Integration Time (sec): 2.000000E-2
Scans to average: 10
Electric dark correction enabled: true
Nonlinearity correction enabled: false
Boxcar width: 0
XAxis mode: Wavelengths
Number of Pixels in Spectrum: 2048
>>>>>Begin Spectral Data<<<<<
341.393	-19.38
341.776	-19.38
342.16	-19.38
342.543	-57.34
342.927	-73.16
343.31	-84.69
343.693	-54.86
344.077	-73.39
344.46	-55.76
344.843	-45.59
345.226	-33.84
345.61	-22.32
345.993	-19.83
346.376	-24.8
346.759	13.16
347.142	36.67
347.525	41.86
347.908	61.75
348.291	71.02
348.674	89.09
349.057	101.52
349.44	146.27
349.823	120.05
350.206	155.31
350.588	173.39
350.971	203.67
351.354	226.04
351.737	243.44
352.119	236.89
352.502	250.45
352.884	271.91
353.267	274.4
353.65	299.71
354.032	311.23
354.414	302.2
354.797	306.26
355.179	312.82
355.562	309.88
355.944	317.79
356.326	312.36
356.709	323.44
357.091	328.64
357.473	343.78
357.855	317.79
358.238	315.08
358.62	341.52
359.002	342.42
359.384	325.7
359.766	331.8
360.148	343.78
360.53	331.35
360.912	331.57
361.294	336.09
361.676	332.93
362.057	320.73
362.439	333.83
362.821	311.46
363.203	333.16
363.584	319.6
363.966	313.04
364.348	319.14
364.729	303.55
365.111	299.48
365.493	308.07
365.874	306.94
366.256	306.94
366.637	309.43
367.019	310.78
367.4	310.1
367.781	324.57
368.163	308.75
368.544	312.59
368.925	305.59
369.306	310.1
369.688	309.88
370.069	304.68
370.45	286.83
370.831	306.72
371.212	302.42
371.593	293.83
371.974	298.81
372.355	301.07
372.736	299.48
373.117	293.83
373.498	286.38
373.879	311.46
374.26	295.64
374.641	309.2
375.021	299.03
375.402	295.64
375.783	296.32
376.163	332.25
376.544	306.49
376.925	325.47
377.305	323.44
377.686	312.14
378.066	304.46
378.447	330.22
378.827	306.04
379.208	304
379.588	312.14
379.968	325.92
380.349	305.13
380.729	313.04
381.109	311.91
381.489	339.26
381.87	330.44
382.25	306.49
382.63	329.77
383.01	328.64
383.39	335.41
383.77	309.88
384.15	329.09
384.53	332.25
384.91	323.89
385.29	326.38
385.67	334.96
386.049	333.16
386.429	348.97
386.809	350.1
387.189	350.33
387.568	357.34
387.948	321.18
388.328	343.32
388.707	347.62
389.087	360.05
389.466	337.9
389.846	341.74
390.225	340.39
390.605	345.58
390.984	347.39
391.363	335.64
391.743	358.24
392.122	355.98
392.501	353.72
392.881	359.14
393.26	343.32
393.639	344.23
394.018	355.08
394.397	368.41
394.776	366.37
395.155	362.08
395.534	346.94
395.913	359.37
396.292	383.1
396.671	349.88
397.05	342.65
397.429	369.09
397.808	350.1
398.186	365.02
398.565	379.26
398.944	366.83
399.323	364.34
399.701	376.54
400.08	374.51
400.458	378.58
400.837	380.39
401.215	380.84
401.594	399.37
401.972	387.62
402.351	381.29
402.729	409.09
403.107	365.02
403.486	381.52
403.864	409.09
404.242	401.4
404.62	401.4
404.999	396.43
405.377	412.48
405.755	402.53
406.133	404.57
406.511	412.7
406.889	410.89
407.267	407.05
407.645	413.15
408.023	431.46
408.401	424.68
408.779	427.62
409.156	436.66
409.534	424.68
409.912	429.65
410.29	441.4
410.667	440.95
411.045	457.45
411.422	460.84
411.8	458.8
412.178	438.24
412.555	444.34
412.933	459.48
413.31	448.63
413.687	463.77
414.065	483.21
414.442	459.48
414.819	458.35
415.197	476.88
415.574	481.4
415.951	498.8
416.328	501.74
416.705	503.77
417.082	501.06
417.46	496.77
417.837	506.48
418.214	520.27
418.591	526.14
418.967	522.3
419.344	539.25
419.721	532.25
420.098	532.02
420.475	539.7
420.852	557.78
421.228	550.55
421.605	550.78
421.982	555.3
422.358	531.12
422.735	545.35
423.111	577.44
423.488	553.49
423.864	602.98
424.241	594.39
424.617	590.55
424.994	600.27
425.37	607.72
425.746	600.94
426.123	603.66
426.499	614.28
426.875	611.79
427.251	621.74
427.627	639.81
428.003	617.89
428.379	651.79
428.756	632.13
429.132	651.79
429.507	665.12
429.883	662.19
430.259	650.89
430.635	636.2
431.011	678.68
431.387	693.6
431.763	702.41
432.138	697.44
432.514	716.87
432.89	694.5
433.265	705.35
433.641	724.11
434.016	718.91
434.392	726.82
434.767	724.11
435.143	741.96
435.518	731.56
435.894	743.99
436.269	774.27
436.644	737.66
437.02	779.92
437.395	784.44
437.77	799.13
438.145	773.37
438.52	793.48
438.895	783.99
439.271	797.78
439.646	802.75
440.021	850.2
440.395	813.59
440.77	791
441.145	833.48
441.52	840.71
441.895	814.72
442.27	849.98
442.645	847.49
443.019	854.95
443.394	856.31
443.769	872.35
444.143	855.85
444.518	856.98
444.892	874.16
445.267	877.32
445.641	861.05
446.016	853.59
446.39	890.43
446.764	875.29
447.139	888.62
447.513	876.19
447.887	899.47
448.262	894.04
448.636	899.24
449.01	930.43
449.384	909.19
449.758	929.07
450.132	942.4
450.506	922.52
450.88	938.11
451.254	939.01
451.628	943.08
452.002	944.89
452.376	956.19
452.75	965
453.123	962.52
453.497	972.23
453.871	982.86
454.244	977.21
454.618	995.51
454.992	998
455.365	1011.1
455.739	1007.49
456.112	1012.46
456.486	1025.34
456.859	1035.28
457.232	1061.27
457.606	1035.96
457.979	1048.84
458.352	1065.79
458.725	1067.6
459.099	1078.22
459.472	1117.32
459.845	1129.97
460.218	1110.76
460.591	1098.56
460.964	1136.75
461.337	1140.14
461.71	1155.73
462.083	1151.66
462.456	1157.54
462.829	1168.84
463.201	1168.39
463.574	1191.21
463.947	1190.99
464.32	1204.77
464.692	1233.92
465.065	1236.63
465.438	1238.67
465.81	1276.86
466.183	1270.31
466.555	1267.59
466.928	1307.37
467.3	1304.65
467.672	1323.64
468.045	1366.57
468.417	1362.96
468.789	1358.66
469.161	1356.18
469.534	1395.5
469.906	1406.57
470.278	1385.56
470.65	1427.36
471.022	1448.38
471.394	1466.01
471.766	1468.94
472.138	1489.51
472.51	1506.46
472.882	1538.1
473.253	1569.05
473.625	1542.39
473.997	1574.93
474.369	1599.56
474.74	1610.64
475.112	1639.79
475.484	1652.22
475.855	1712.78
476.227	1695.15
476.598	1723.18
476.97	1736.96
477.341	1778.31
477.713	1801.37
478.084	1844.75
478.455	1856.05
478.827	1888.37
479.198	1927.24
479.569	1927.46
479.94	1944.64
480.311	1985.32
480.682	1985.54
481.053	2048.59
481.424	2090.17
481.795	2104.86
482.166	2110.74
482.537	2190.73
482.908	2204.52
483.279	2227.34
483.65	2214.24
484.021	2267.79
484.391	2286.55
484.762	2322.93
485.133	2359.77
485.503	2373.55
485.874	2421.91
486.244	2463.27
486.615	2494.68
486.985	2496.26
487.356	2546.43
487.726	2578.75
488.097	2617.84
488.467	2619.65
488.837	2646.77
489.207	2705.3
489.578	2746.88
489.948	2715.69
490.318	2775.58
490.688	2769.25
491.058	2849.25
491.428	2915.91
491.798	2879.3
492.168	2926.76
492.538	2939.41
492.908	2991.62
493.278	2988
493.648	3005.63
494.017	3064.61
494.387	3090.82
494.757	3107.09
495.126	3150.26
495.496	3145.51
495.866	3147.77
496.235	3192.51
496.605	3203.81
496.974	3284.49
497.344	3237.94
497.713	3292.17
498.082	3307.09
498.452	3355
498.821	3378.95
499.19	3332.85
499.559	3400.65
499.928	3392.06
500.298	3386.63
500.667	3400.87
501.036	3459.85
501.405	3440.42
501.774	3487.87
502.143	3480.64
502.512	3494.65
502.88	3545.73
503.249	3521.77
503.618	3574.88
503.987	3562.22
504.356	3614.88
504.724	3619.17
505.093	3601.77
505.462	3633.41
505.83	3642.9
506.199	3687.42
506.567	3729
506.936	3716.79
507.304	3710.47
507.672	3736.23
508.041	3754.31
508.409	3788.21
508.777	3813.74
509.145	3809
509.514	3772.39
509.882	3858.03
510.25	3841.09
510.618	3846.06
510.986	3833.4
511.354	3865.04
511.722	3908.65
512.09	3938.03
512.458	3915.66
512.826	3904.81
513.193	3935.77
513.561	3960.86
513.929	3983.23
514.297	4015.32
514.664	4003.12
515.032	4056.45
515.4	3995.21
515.767	4052.61
516.135	4070.68
516.502	4042.66
516.869	4130.12
517.237	4151.59
517.604	4127.63
517.972	4077.01
518.339	4121.76
518.706	4150.23
519.073	4172.6
519.44	4128.08
519.808	4207.86
520.175	4177.57
520.542	4236.1
520.909	4231.36
521.276	4251.47
521.643	4258.7
522.009	4266.16
522.376	4261.87
522.743	4255.31
523.11	4313.39
523.477	4352.03
523.843	4346.61
524.21	4427.96
524.577	4439.04
524.943	4428.41
525.31	4458.02
525.676	4456.66
526.043	4488.07
526.409	4548.86
526.776	4541.18
527.142	4532.82
527.508	4565.13
527.874	4608.3
528.241	4602.2
528.607	4614.85
528.973	4642.87
529.339	4643.1
529.705	4747.73
530.071	4758.58
530.437	4713.38
530.803	4743.43
531.169	4789.08
531.535	4785.02
531.901	4809.65
532.267	4808.07
532.632	4879.48
532.998	4873.37
533.364	4942.3
533.73	4909.08
534.095	4985.01
534.461	4958.34
534.826	4935.29
535.192	5046.48
535.557	5058.23
535.923	5034.5
536.288	5055.29
536.653	5080.83
537.019	5068.4
537.384	5148.85
537.749	5173.48
538.114	5131
538.479	5171.9
538.845	5200.82
539.21	5188.17
539.575	5228.85
539.94	5250.99
540.305	5300.48
540.67	5265.23
541.034	5298.67
541.399	5300.93
541.764	5354.49
542.129	5367.82
542.494	5361.72
542.858	5384.55
543.223	5386.36
543.587	5451.89
543.952	5461.16
544.316	5466.58
544.681	5495.73
545.045	5525.56
545.41	5568.05
545.774	5548.61
546.138	5574.15
546.503	5605.56
546.867	5602.62
547.231	5641.04
547.595	5705.9
547.959	5714.48
548.324	5672.68
548.688	5729.62
549.052	5812.33
549.416	5817.08
549.779	5768.04
550.143	5790.86
550.507	5850.75
550.871	5823.18
551.235	5821.15
551.599	5922.16
551.962	5909.05
552.326	5922.61
552.689	5956.74
553.053	5897.75
553.417	5942.95
553.78	6040.35
554.143	6004.87
554.507	6037.19
554.87	6034.7
555.234	6087.35
555.597	6099.56
555.96	6088.94
556.323	6118.09
556.686	6116.05
557.05	6179.78
557.413	6103.85
557.776	6144.75
558.139	6190.63
558.502	6244.86
558.865	6234.69
559.228	6255.03
559.59	6325.09
559.953	6294.35
560.316	6380.91
560.679	6362.38
561.041	6381.13
561.404	6344.07
561.767	6417.29
562.129	6429.94
562.492	6474.01
562.854	6436.05
563.217	6481.69
563.579	6488.25
563.941	6528.02
564.304	6544.74
564.666	6569.38
565.028	6584.97
565.39	6596.49
565.753	6627.23
566.115	6671.29
566.477	6657.73
566.839	6674.91
567.201	6747.45
567.563	6690.5
567.925	6733.66
568.287	6739.77
568.648	6826.09
569.01	6865.19
569.372	6891.63
569.734	6893.89
570.095	6885.07
570.457	6953.55
570.819	7005.52
571.18	7072.86
571.542	7048.46
571.903	7035.35
572.265	7151.05
572.626	7126.65
572.987	7196.03
573.349	7233.76
573.71	7305.4
574.071	7276.93
574.432	7345.85
574.794	7496.36
575.155	7451.16
575.516	7453.42
575.877	7524.6
576.238	7601.89
576.599	7709.01
576.96	7770.93
577.32	7836.01
577.681	7917.81
578.042	7971.15
578.403	8014.54
578.763	8053.4
579.124	8138.15
579.485	8331.81
579.845	8387.86
580.206	8477.35
580.566	8602.99
580.927	8692.71
581.287	8781.97
581.648	8880.27
582.008	9067.16
582.368	9190.1
582.728	9278
583.089	9420.37
583.449	9564.78
583.809	9711.44
584.169	9860.14
584.529	10050.87
584.889	10221.93
585.249	10356.17
585.609	10484.07
585.969	10797.74
586.329	10905.31
586.688	11068.01
587.048	11272.08
587.408	11521.34
587.768	11728.79
588.127	11896.69
588.487	12101.66
588.846	12491.93
589.206	12535.55
589.565	12876.55
589.925	13123.33
590.284	13340.95
590.643	13575.07
591.003	13799.47
591.362	14043.76
591.721	14368.27
592.08	14514.7
592.44	14901.36
592.799	15145.42
593.158	15374.12
593.517	15654.79
593.876	15917.6
594.235	16178.84
594.593	16451.83
594.952	16751.71
595.311	16999.61
595.67	17344.46
596.029	17753.94
596.387	17927.49
596.746	18273.02
597.104	18403.64
597.463	18866.91
597.822	19091.76
598.18	19324.97
598.538	19581.46
598.897	19872.75
599.255	19983.49
599.613	20567.88
599.972	20675.67
600.33	20999.73
600.688	21174.19
601.046	21502.77
601.404	21949.54
601.762	22199.25
602.12	22451.44
602.478	22808.95
602.836	22919.23
603.194	23174.81
603.552	23403.06
603.91	23511.3
604.268	23898.86
604.625	24052.76
604.983	24448.23
605.341	24561.67
605.698	24940.87
606.056	25147.87
606.413	25371.82
606.771	25657.91
607.128	25853.61
607.485	25832.15
607.843	26204.11
608.2	26594.16
608.557	26815.17
608.914	26991.21
609.272	27070.53
609.629	27434.14
609.986	27674.13
610.343	27735.82
610.7	28186.21
611.057	28222.59
611.414	28362.25
611.771	28637.27
612.127	28879.52
612.484	28999.97
612.841	29317.03
613.198	29351.6
613.554	29395.67
613.911	29848.99
614.267	29936.44
614.624	29874.53
614.98	30209.43
615.337	30505.47
615.693	30654.62
616.05	30659.59
616.406	31034.95
616.762	30970.99
617.118	31080.6
617.475	31223.19
617.831	31571.88
618.187	31644.2
618.543	31731.88
618.899	32088.25
619.255	32101.13
619.611	32083.51
619.967	32357.62
620.323	32517.39
620.678	32472.65
621.034	32579.99
621.39	32657.73
621.746	32746.54
622.101	33241.89
622.457	33055.46
622.812	33194.21
623.168	33311.95
623.523	33394.66
623.879	33534.77
624.234	33381.78
624.589	33664.93
624.945	33713.97
625.3	33939.5
625.655	33928.66
626.01	34056.34
626.365	34076.45
626.72	34192.15
627.075	34062.21
627.43	34140.85
627.785	34265.6
628.14	34327.52
628.495	34452.26
628.85	34427.85
629.205	34359.83
629.559	34715.3
629.914	34547.85
630.269	34473.95
630.623	34569.09
630.978	34611.35
631.332	34753.94
631.687	34802.31
632.041	34676.66
632.396	34635.76
632.75	34699.71
633.104	34691.35
633.459	34642.76
633.813	34730.44
634.167	34626.26
634.521	34798.92
634.875	34791.68
635.229	34731.8
635.583	34701.52
635.937	34669.2
636.291	34656.55
636.645	34834.17
636.999	34701.97
637.352	34847.73
637.706	34649.09
638.06	34758.01
638.413	34850.67
638.767	34675.75
639.121	34845.69
639.474	34680.5
639.828	34688.86
640.181	34871
640.534	34668.3
640.888	34721.4
641.241	34614.74
641.594	34715.75
641.947	34728.41
642.301	34680.27
642.654	34653.61
643.007	34809.54
643.36	34738.58
643.713	34785.36
644.066	34766.6
644.419	34662.2
644.771	34408.64
645.124	34153.51
645.477	34064.25
645.83	33931.14
646.182	33715.78
646.535	33730.92
646.888	33805.95
647.24	33561.21
647.593	33869.22
647.945	33725.5
648.298	33559.17
648.65	33522.56
649.002	33506.75
649.355	33635.1
649.707	33670.13
650.059	33638.72
650.411	34131.59
650.763	34233.73
651.115	34431.47
651.467	34441.64
651.819	34337.91
652.171	34320.74
652.523	34381.53
652.875	34306.05
653.227	34191.47
653.578	34442.54
653.93	34373.84
654.282	34133.4
654.633	34103.79
654.985	34260.62
655.337	34198.71
655.688	34197.8
656.039	34387.4
656.391	34035.55
656.742	34100.63
657.094	34043.68
657.445	34233.28
657.796	34070.8
658.147	34057.92
658.498	33928.43
658.849	34169.78
659.2	34000.29
659.551	33910.13
659.902	34059.95
660.253	34021.99
660.604	34155.99
660.955	33860.18
661.306	33983.12
661.656	33904.48
662.007	33981.99
662.358	34014.98
662.708	34014.53
663.059	34087.75
663.409	33813.18
663.76	33954.42
664.11	34001.2
664.461	34027.41
664.811	34070.57
665.161	34077.35
665.511	33940.63
665.862	34018.6
666.212	34007.3
666.562	33968.65
666.912	33974.3
667.262	33964.36
667.612	33854.31
667.962	33965.94
668.312	34006.17
668.662	33965.94
669.011	33996.22
669.361	33807.08
669.711	33938.15
670.06	33704.03
670.41	33833.29
670.76	33687.53
671.109	33951.25
671.459	33803.69
671.808	33796.68
672.157	33799.17
672.507	33599.85
672.856	33687.76
673.205	33740.86
673.554	33889.56
673.904	33659.06
674.253	33892.72
674.602	33739.06
674.951	33309.24
675.3	33173.65
675.649	33525.95
675.998	33607.31
676.346	33605.27
676.695	33684.82
677.044	33431.49
677.393	33523.69
677.741	33607.31
678.09	33466.07
678.438	33502
678.787	33439.4
679.135	33537.71
679.484	33265.17
679.832	33561.66
680.181	33174.1
680.529	33319.63
680.877	33289.8
681.225	33156.02
681.573	33327.09
681.922	33193.08
682.27	32942.24
682.618	32969.36
682.966	32937.72
683.314	32955.57
683.661	32899.98
684.009	32801.68
684.357	32703.83
684.705	32658.41
685.053	32713.77
685.4	32734.11
685.748	32542.48
686.095	32715.81
686.443	32377.51
686.79	32364.4
687.138	32501.12
687.485	32358.08
687.832	32349.49
688.18	32252.32
688.527	32114.47
688.874	32147.23
689.221	32085.99
689.568	32022.49
689.915	31904.98
690.262	31935.49
690.609	31804.19
690.956	31727.58
691.303	31680.58
691.65	31451.21
691.997	31482.39
692.344	31429.74
692.69	31317.65
693.037	31437.65
693.383	31153.59
693.73	31255.28
694.077	30976.64
694.423	31095.06
694.769	30906.14
695.116	30955.4
695.462	30945.46
695.808	30789.76
696.155	30845.12
696.501	30511.8
696.847	30531.91
697.193	30298.02
697.539	30521.06
697.885	30345.7
698.231	30151.81
698.577	30123.56
698.923	30116.1
699.269	29990.45
699.614	29886.73
699.96	29769.9
700.306	29773.28
700.651	29801.98
700.997	29592.27
701.342	29540.75
701.688	29550.69
702.033	29382.79
702.379	29394.54
702.724	29293.98
703.069	29358.61
703.415	28928.11
703.76	28928.34
704.105	28970.14
704.45	29032.06
704.795	28802.01
705.14	28800.66
705.485	28650.83
705.83	28593.2
706.175	28625.74
706.52	28665.29
706.865	28536.48
707.209	28442.92
707.554	28464.17
707.899	28334.23
708.243	28167.9
708.588	28133.33
708.932	27917.06
709.277	28010.39
709.621	28022.82
709.966	27846.1
710.31	27870.74
710.654	27652.66
710.998	27659.67
711.342	27687.69
711.687	27668.48
712.031	27455.38
712.375	27434.82
712.719	27507.36
713.063	27322.28
713.407	27437.3
713.75	27373.57
714.094	27240.7
714.438	27196.18
714.782	27099.91
715.125	27095.62
715.469	27206.57
715.812	26988.27
716.156	26845.23
716.499	26903.98
716.843	26761.39
717.186	26788.05
717.53	26826.7
717.873	26818.11
718.216	26653.59
718.559	26579.24
718.902	26401.85
719.246	26527.04
719.589	26532.01
719.932	26280.5
720.275	26225.81
720.617	26235.75
720.96	26299.93
721.303	26176.77
721.646	26164.34
721.989	26064
722.331	25947.85
722.674	25982.88
723.016	26018.58
723.359	25847.29
723.701	25949.43
724.044	25800.96
724.386	25736.55
724.729	25779.27
725.071	25737.91
725.413	25811.36
725.755	25614.3
726.097	25570.46
726.439	25412.95
726.782	25474.87
727.124	25655.43
727.465	25458.82
727.807	25332.27
728.149	25308.32
728.491	25260.64
728.833	25310.13
729.175	25232.61
729.516	25197.81
729.858	25076.46
730.199	25153.29
730.541	25051.6
730.882	25077.36
731.224	25175.67
731.565	24894.32
731.906	24927.08
732.248	25024.94
732.589	24850.02
732.93	24831.04
733.271	24831.27
733.612	24776.35
733.953	24851.83
734.294	24712.63
734.635	24591.73
734.976	24695.45
735.317	24483.48
735.658	24625.17
735.999	24549.02
736.339	24412.75
736.68	24494.78
737.021	24480.09
737.361	24409.58
737.702	24465.4
738.042	24354.67
738.383	24368
738.723	24316.71
739.063	24192.19
739.404	24243.03
739.744	24223.15
740.084	24095.02
740.424	24100.67
740.764	23998.52
741.104	24180.89
741.444	23982.02
741.784	23879.65
742.124	23899.09
742.464	23923.27
742.804	23874.91
743.143	23723.95
743.483	23854.57
743.823	23793.33
744.162	23715.14
744.502	23752.65
744.841	23527.35
745.181	23657.06
745.52	23605.76
745.86	23560.34
746.199	23521.02
746.538	23483.73
746.877	23566.44
747.216	23569.38
747.556	23490.29
747.895	23401.25
748.234	23336.62
748.573	23210.52
748.911	23151.54
749.25	23184.31
749.589	23183.18
749.928	23100.24
750.267	23209.84
750.605	23012.78
750.944	22945.22
751.283	22986.57
751.621	22995.16
751.96	22896.18
752.298	22796.75
752.636	22841.49
752.975	22815.05
753.313	22688.5
753.651	22803.3
753.989	22566.92
754.327	22586.58
754.666	22546.58
755.004	22547.26
755.342	22548.62
755.679	22549.29
756.017	22335.97
756.355	22465.91
756.693	22313.37
757.031	22365.12
757.368	22106.59
757.706	22197.44
758.044	22061.17
758.381	22091
758.719	22026.82
759.056	21917.45
759.394	21934.4
759.731	21759.26
760.068	21745.7
760.405	21703.44
760.743	21500.96
761.08	21605.36
761.417	21468.19
761.754	21545.7
762.091	21413.5
762.428	21440.4
762.765	21112.04
763.102	21343.9
763.438	21081.54
763.775	21074.08
764.112	21102.55
764.449	21089.22
764.785	20993.18
765.122	20820.75
765.458	20754.77
765.795	20712.73
766.131	20684.26
766.467	20619.85
766.804	20553.19
767.14	20446.3
767.476	20429.58
767.812	20304.38
768.148	20327.66
768.485	20210.15
768.821	20179.41
769.157	20073.43
769.492	20001.34
769.828	20043.37
770.164	19774.45
770.5	19781.01
770.836	19834.79
771.171	19613.78
771.507	19583.95
771.842	19545.08
772.178	19522.03
772.513	19472.99
772.849	19369.26
773.184	19280.45
773.519	19284.3
773.855	19106.45
774.19	19176.28
774.525	18987.13
774.86	18962.5
775.195	18977.64
775.53	18908.03
775.865	18743.52
776.2	18668.04
776.535	18602.96
776.87	18518.21
777.205	18543.98
777.539	18334.49
777.874	18390.99
778.209	18254.04
778.543	18160.03
778.878	18134.95
779.212	18108.73
779.547	18014.27
779.881	18055.63
780.215	17871
780.55	17894.73
780.884	17705.81
781.218	17669.2
781.552	17636.2
781.886	17574.74
782.22	17487.05
782.554	17369.09
782.888	17307.85
783.222	17218.13
783.556	17198.02
783.889	17167.74
784.223	16979.5
784.557	17001.19
784.89	17027.18
785.224	16925.71
785.557	16834.42
785.891	16740.63
786.224	16767.98
786.558	16734.98
786.891	16488.21
787.224	16541.54
787.557	16428.33
787.891	16395.56
788.224	16365.95
788.557	16335.9
788.89	16404.37
789.223	16315.79
789.556	16149.46
789.888	16177.48
790.221	16104.04
790.554	15889.58
790.887	16029.01
791.219	15897.72
791.552	15815.91
791.884	15817.49
792.217	15777.49
792.549	15671.28
792.882	15657.27
793.214	15538.4
793.546	15496.37
793.879	15470.61
794.211	15289.15
794.543	15475.13
794.875	15356.94
795.207	15382.48
795.539	15257.06
795.871	15309.48
796.203	15201.01
796.535	15100.9
796.867	15088.93
797.198	14942.26
797.53	14934.81
797.862	14872.66
798.193	14801.93
798.525	14757.63
798.856	14826.56
799.188	14598.77
799.519	14631.31
799.85	14427.47
800.182	14533.46
800.513	14533.23
800.844	14324.88
801.175	14487.59
801.506	14448.49
801.837	14343.86
802.168	14371.66
802.499	14273.58
802.83	14216.63
803.161	14148.16
803.491	14203.07
803.822	14184.09
804.153	14071.78
804.483	13907.49
804.814	13832.46
805.145	13854.16
805.475	13821.16
805.805	13832.69
806.136	13791.56
806.466	13782.74
806.796	13720.37
807.126	13698
807.457	13604.67
807.787	13606.25
808.117	13599.92
808.447	13481.74
808.777	13573.03
809.107	13367.16
809.436	13323.55
809.766	13381.63
810.096	13325.81
810.426	13298.69
810.755	13302.08
811.085	13270.44
811.414	13219.37
811.744	13108.64
812.073	13077
812.403	13141.86
812.732	13098.7
813.061	13009.43
813.39	13003.56
813.719	12936.44
814.049	12970.56
814.378	12902.99
814.707	12848.76
815.036	12866.61
815.365	12794.52
815.693	12677.46
816.022	12642.89
816.351	12666.62
816.68	12545.04
817.008	12629.78
817.337	12492.84
817.665	12482.67
817.994	12493.06
818.322	12433.63
818.651	12466.62
818.979	12360.18
819.307	12456.9
819.636	12432.72
819.964	12254.42
820.292	12350.92
820.62	12329.9
820.948	12263.91
821.276	12336.68
821.604	12276.34
821.932	12267.53
822.259	12350.69
822.587	12253.52
822.915	12225.05
823.243	12335.78
823.57	12223.69
823.898	12246.74
824.225	12219.17
824.553	12244.71
824.88	12197.48
825.207	12210.36
825.535	12223.69
825.862	12309.34
826.189	12164.03
826.516	12156.12
826.843	12306.85
827.17	12186.63
827.497	12245.16
827.824	12182.79
828.151	12229.57
828.478	12171.49
828.805	12253.29
829.131	12152.73
829.458	12202.45
829.785	12124.03
830.111	12161.77
830.438	12110.7
830.764	12206.52
831.09	12203.35
831.417	12056.01
831.743	12162.9
832.069	12193.41
832.395	12061.21
832.722	12083.35
833.048	12072.51
833.374	12050.36
833.7	12017.37
834.026	12007.88
834.351	12079.96
834.677	12058.27
835.003	12066.18
835.329	12040.19
835.654	12070.47
835.98	11874.77
836.306	12003.58
836.631	11869.12
836.956	11968.78
837.282	11926.75
837.607	11902.34
837.932	11819.41
838.258	11910.48
838.583	11822.34
838.908	11824.83
839.233	11844.04
839.558	11803.59
839.883	11724.27
840.208	11721.33
840.533	11722.01
840.858	11736.92
841.182	11677.72
841.507	11686.98
841.832	11630.03
842.156	11658.73
842.481	11560.2
842.805	11585.06
843.13	11547.78
843.454	11545.74
843.778	11477.27
844.103	11467.55
844.427	11420.1
844.751	11325.86
845.075	11406.76
845.399	11331.96
845.723	11238.41
846.047	11263.72
846.371	11156.6
846.695	11260.78
847.019	11113.44
847.343	11065.08
847.666	10971.52
847.99	10902.14
848.313	10964.74
848.637	10932.2
848.96	10855.36
849.284	10808.13
849.607	10774.46
849.931	10708.93
850.254	10637.52
850.577	10640.91
850.9	10581.93
851.223	10526.33
851.546	10471.87
851.869	10499.44
852.192	10431.87
852.515	10348.48
852.838	10355.94
853.161	10329.28
853.483	10282.95
853.806	10304.42
854.129	10208.6
854.451	10120.92
854.774	10128.38
855.096	10103.29
855.419	10109.85
855.741	10069.62
856.063	9983.97
856.385	9915.28
856.708	9893.36
857.03	9917.31
857.352	9934.26
857.674	9884.99
857.996	9851.32
858.318	9734.26
858.64	9774.04
858.961	9779.23
859.283	9724.32
859.605	9672.8
859.926	9630.09
860.248	9625.34
860.57	9632.12
860.891	9608.62
861.212	9554.83
861.534	9616.53
861.855	9480.49
862.176	9523.2
862.498	9568.62
862.819	9530.43
863.14	9474.84
863.461	9461.05
863.782	9382.63
864.103	9365.69
864.424	9363.2
864.745	9405.46
865.065	9326.59
865.386	9248.63
865.707	9350.77
866.027	9287.04
866.348	9254.28
866.668	9232.58
866.989	9216.31
867.309	9198.68
867.63	9214.05
867.95	9205.24
868.27	9101.06
868.59	9133.83
868.91	9141.06
869.23	9066.71
869.55	9124.56
869.87	9152.36
870.19	9047.73
870.51	9060.38
870.83	9065.35
871.15	9098.12
871.469	8988.75
871.789	9038.91
872.109	9028.52
872.428	9011.8
872.748	8999.82
873.067	9014.51
873.386	8930.9
873.706	8929.09
874.025	8840.95
874.344	8887.73
874.663	8885.02
874.982	8876.21
875.301	8857.9
875.62	8808.86
875.939	8778.36
876.258	8821.75
876.577	8738.81
876.896	8805.93
877.214	8682.54
877.533	8749.88
877.852	8706.27
878.17	8772.26
878.489	8784.91
878.807	8708.53
879.125	8678.92
879.444	8643.67
879.762	8591.02
880.08	8610.23
880.398	8585.37
880.716	8606.38
881.034	8590.34
881.352	8644.35
881.67	8565.26
881.988	8522.09
882.306	8510.34
882.624	8525.93
882.941	8443.22
883.259	8365.71
883.577	8421.76
883.894	8440.29
884.212	8365.71
884.529	8384.02
884.846	8367.29
885.164	8322.55
885.481	8293.17
885.798	8329.1
886.115	8222.67
886.432	8266.96
886.75	8290.23
887.067	8195.77
887.383	8184.47
887.7	8150.58
888.017	8125.27
888.334	8111.93
888.651	8081.88
888.967	8134.76
889.284	8041.43
889.6	8081.43
889.917	8010.69
890.233	7992.84
890.55	7908.55
890.866	7985.84
891.182	7946.29
891.498	7938.83
891.815	7912.62
892.131	7824.03
892.447	7773.19
892.763	7779.74
893.079	7799.85
893.395	7784.94
893.71	7755.56
894.026	7703.81
894.342	7695.67
894.657	7688.22
894.973	7688.67
895.289	7612.06
895.604	7667.88
895.92	7578.39
896.235	7568.45
896.55	7528.22
896.865	7506.3
897.181	7498.62
897.496	7509.01
897.811	7391.27
898.126	7395.34
898.441	7353.31
898.756	7314.44
899.071	7323.25
899.386	7311.5
899.7	7278.28
900.015	7165.07
900.33	7199.64
900.644	7225.18
900.959	7157.83
901.273	7224.27
901.588	7134.56
901.902	7138.85
902.216	7036.93
902.531	7009.82
902.845	6974.56
903.159	6974.79
903.473	6909.93
903.787	6954.45
904.101	6856.83
904.415	6888.91
904.729	6851.4
905.042	6807.56
905.356	6843.27
905.67	6798.3
905.984	6793.55
906.297	6791.74
906.611	6755.81
906.924	6686.21
907.237	6699.09
907.551	6650.28
907.864	6604.4
908.177	6652.99
908.491	6625.42
908.804	6564.18
909.117	6488.47
909.43	6505.42
909.743	6422.49
910.056	6422.49
910.368	6350.85
910.681	6360.12
910.994	6345.43
911.307	6326.67
911.619	6320.57
911.932	6335.03
912.244	6220.68
912.557	6230.85
912.869	6212.1
913.181	6181.36
913.494	6202.61
913.806	6118.77
914.118	6087.35
914.43	6057.3
914.742	6119.44
915.054	6029.05
915.366	6033.12
915.678	6018.66
915.99	5955.83
916.302	5956.96
916.613	5912.22
916.925	5880.81
917.236	5902.05
917.548	5838.77
917.859	5832.22
918.171	5801.94
918.482	5734.14
918.794	5752.45
919.105	5740.92
919.416	5726.01
919.727	5677.42
920.038	5635.39
920.349	5665.44
920.66	5650.98
920.971	5582.06
921.282	5569.18
921.593	5518.1
921.903	5538.22
922.214	5483.3
922.525	5478.56
922.835	5474.49
923.146	5421.38
923.456	5383.42
923.767	5367.82
924.077	5354.04
924.387	5312.46
924.697	5283.08
925.008	5272.69
925.318	5286.25
925.628	5279.01
925.938	5213.7
926.248	5177.55
926.558	5182.97
926.867	5222.97
927.177	5130.09
927.487	5083.31
927.796	5111.56
928.106	5095.29
928.416	5094.39
928.725	5071.34
929.034	5007.61
929.344	5020.49
929.653	4992.69
929.962	4956.99
930.271	4936.42
930.581	4896.42
930.89	4875.18
931.199	4849.42
931.508	4859.14
931.817	4813.26
932.125	4836.31
932.434	4801.96
932.743	4764.23
933.051	4693.27
933.36	4717.22
933.669	4689.65
933.977	4658.24
934.286	4699.59
934.594	4665.7
934.902	4648.75
935.21	4611.46
935.519	4591.8
935.827	4619.37
936.135	4520.16
936.443	4531.24
936.751	4481.52
937.059	4525.81
937.367	4432.71
937.674	4425.02
937.982	4454.18
938.29	4423.44
938.597	4417.34
938.905	4366.72
939.213	4362.88
939.52	4305.48
939.827	4328.98
940.135	4301.86
940.442	4301.64
940.749	4292.82
941.056	4273.16
941.363	4250.11
941.67	4210.34
941.977	4192.71
942.284	4197.46
942.591	4172.83
942.898	4143
943.205	4145.71
943.511	4095.09
943.818	4120.63
944.125	4051.7
944.431	4053.51
944.738	4072.27
945.044	4008.99
945.35	4029.1
945.657	4011.7
945.963	3996.56
946.269	3957.92
946.575	3957.47
946.881	3922.44
947.187	3867.07
947.493	3880.41
947.799	3864.81
948.105	3825.72
948.41	3841.76
948.716	3854.19
949.022	3839.96
949.327	3784.14
949.633	3737.13
949.938	3743.23
950.244	3760.64
950.549	3742.78
950.854	3691.94
951.16	3658.49
951.465	3685.16
951.77	3693.97
952.075	3691.03
952.38	3620.53
952.685	3611.26
952.99	3600.41
953.294	3598.38
953.599	3587.08
953.904	3530.13
954.209	3507.76
954.513	3524.94
954.818	3529
955.122	3489.23
955.426	3446.75
955.731	3475.22
956.035	3442.68
956.339	3420.76
956.643	3459.63
956.948	3412.17
957.252	3389.8
957.556	3386.63
957.86	3312.29
958.163	3338.73
958.467	3332.85
958.771	3302.34
959.075	3264.83
959.378	3276.58
959.682	3281.33
959.985	3288.33
960.289	3265.96
960.592	3251.04
960.896	3204.04
961.199	3189.58
961.502	3173.76
961.805	3178.5
962.108	3160.88
962.411	3186.64
962.714	3132.86
963.017	3140.31
963.32	3136.7
963.623	3086.53
963.926	3094.66
964.228	3057.6
964.531	3050.6
964.833	3065.96
965.136	3034.33
965.438	3007.21
965.741	2959.53
966.043	2993.42
966.345	2983.93
966.648	2984.16
966.95	2963.59
967.252	2952.07
967.554	2944.16
967.856	2925.86
968.158	2915.91
968.46	2904.39
968.761	2885.86
969.063	2860.55
969.365	2819.19
969.666	2877.72
969.968	2797.72
970.269	2802.69
970.571	2832.3
970.872	2795.24
971.174	2777.84
971.475	2780.55
971.776	2739.87
972.077	2753.66
972.378	2774.67
972.679	2749.81
972.98	2730.38
973.281	2739.87
973.582	2654.68
973.883	2682.47
974.183	2651.74
974.484	2682.47
974.785	2613.1
975.085	2655.58
975.386	2652.19
975.686	2605.19
975.986	2592.08
976.287	2604.96
976.587	2580.1
976.887	2567.67
977.187	2597.95
977.487	2568.12
977.787	2541.68
978.087	2522.02
978.387	2518.86
978.687	2470.95
978.987	2461.69
979.286	2502.82
979.586	2502.14
979.885	2455.81
980.185	2403.61
980.484	2408.81
980.784	2451.74
981.083	2427.56
981.382	2396.38
981.682	2386.43
981.981	2392.54
982.28	2390.5
982.579	2347.11
982.878	2365.19
983.177	2339.88
983.475	2364.06
983.774	2315.02
984.073	2314.12
984.372	2277.06
984.67	2296.27
984.969	2304.4
985.267	2259.43
985.566	2272.54
985.864	2226.89
986.162	2207.68
986.461	2200.9
986.759	2220.11
987.057	2210.17
987.355	2205.87
987.653	2204.52
987.951	2203.84
988.249	2151.41
988.547	2170.39
988.844	2170.62
989.142	2162.49
989.44	2114.35
989.737	2134.01
990.035	2121.13
990.332	2115.48
990.63	2107.8
990.927	2129.72
991.224	2080
991.521	2081.81
991.819	2054.01
992.116	2059.21
992.413	2052.43
992.71	2026.67
993.006	2086.33
993.303	2019.66
993.6	2004.07
993.897	2018.31
994.193	2004.98
994.49	1991.64
994.787	1997.74
995.083	1985.09
995.379	1958.88
995.676	1948.03
995.972	1944.19
996.268	1930.18
996.565	1923.17
996.861	1886.56
997.157	1865.54
997.453	1866
997.749	1894.7
998.044	1863.51
998.34	1887.01
998.636	1843.85
998.932	1848.82
999.227	1827.35
999.523	1823.51
999.818	1810.63
1000.114	1801.37
1000.409	1775.38
1000.704	1774.47
1001	1788.48
1001.295	1780.8
1001.59	1779.22
1001.885	1747.36
1002.18	1729.05
1002.475	1743.74
1002.77	1737.41
1003.065	1745.32
1003.359	1712.1
1003.654	1713.23
1003.949	1691.31
1004.243	1662.61
1004.538	1675.04
1004.832	1660.58
1005.127	1636.17
1005.421	1647.47
1005.715	1629.17
1006.009	1641.37
1006.304	1593.23
1006.598	1596.4
1006.892	1622.16
1007.186	1606.57
1007.48	1584.65
1007.773	1572.22
1008.067	1564.31
1008.361	1548.26
1008.655	1562.95
1008.948	1530.86
1009.242	1547.81
1009.535	1527.93
1009.829	1545.1
1010.122	1535.38
1010.415	1504.65
1010.708	1495.61
1011.001	1508.27
1011.295	1490.86
1011.588	1477.08
1011.881	1456.06
1012.173	1456.74
1012.466	1441.37
1012.759	1457.42
1013.052	1443.63
1013.344	1413.8
1013.637	1423.3
1013.93	1419
1014.222	1392.56
1014.514	1403.86
1014.807	1402.96
1015.099	1387.59
1015.391	1383.3
1015.683	1365.22
1015.976	1343.3
1016.268	1365.9
1016.56	1330.64
1016.851	1314.82
1017.143	1342.39
1017.435	1287.93
1017.727	1300.36
1018.018	1302.4
1018.31	1299.46
1018.602	1290.87
1018.893	1276.18
1019.185	1267.59
1019.476	1247.26
1019.767	1261.27
1020.058	1236.63
1020.35	1221.72
1020.641	1222.85
1020.932	1229.18
1021.223	1220.82
1021.514	1192.57
1021.804	1206.8
1022.095	1183.3
1022.386	1204.77
1022.677	1172.91
1022.967	1175.62
1023.258	1162.74
1023.548	1165.9
1023.839	1151.21
1024.129	1125.22
1024.419	1138.11
1024.709	1120.03
1025	1123.42
1025.29	1128.84
1025.58	1104.66
1025.87	1082.06
1026.16	1083.19
1026.449	1096.52
1026.739	1070.31
1027.029	1075.06
1027.319	1078.9
1027.608	1071.44
1027.898	1052.46
1028.187	1058.56
1028.477	1061.5
1028.766	1026.7
1029.055	1034.83
1029.344	1009.07
1029.634	1011.33
1029.923	1030.99
1030.212	990.99
1030.501	995.96
1030.79	1003.42
1031.078	977.88
1031.367	956.64
1031.656	971.78
1031.945	983.76
1032.233	954.61
1032.522	949.41
1032.81	954.38
1033.099	931.33
1033.387	918.22
1033.675	946.25
1033.963	915.29
1034.251	923.65
1034.54	938.11
1034.828	901.95
1035.116	910.09
1035.403	882.29
1035.691	891.56
1035.979	888.39
1036.267	872.8
1036.554	883.42
1036.842	871.67
1037.129	845.46
1037.417	835.97
1037.704	853.59
1037.992	835.06
1038.279	830.54
1038.566	814.5
1038.853	814.5
1039.14	814.5
