Data from hue_200_FLMS001491_00043.txt Node
Date: Tue Feb 07 16:43:20 GMT 2017
User: dcchb
Spectrometer: FLMS00149
Trigger mode: 0
Integration Time (sec): 2.000000E-2
Scans to average: 10
Electric dark correction enabled: true
Nonlinearity correction enabled: false
Boxcar width: 0
XAxis mode: Wavelengths
Number of Pixels in Spectrum: 2048
>>>>>Begin Spectral Data<<<<<
341.393	-18.29
341.776	-18.29
342.16	-18.29
342.543	-50.83
342.927	-57.39
343.31	-60.78
343.693	-70.72
344.077	-75.01
344.46	-63.26
344.843	-62.81
345.226	-50.15
345.61	-27.78
345.993	-11.96
346.376	-14.45
346.759	18.54
347.142	9.96
347.525	46.57
347.908	56.96
348.291	83.4
348.674	106
349.057	115.49
349.44	111.2
349.823	141.25
350.206	166.11
350.588	194.36
350.971	227.58
351.354	223.51
351.737	227.13
352.119	259.67
352.502	260.57
352.884	284.3
353.267	308.71
353.65	299.44
354.032	285.2
354.414	327.69
354.797	314.81
355.179	327.24
355.562	332.21
355.944	330.17
356.326	328.37
356.709	336.28
357.091	337.63
357.473	352.1
357.855	350.74
358.238	349.61
358.62	336.05
359.002	345.09
359.384	350.97
359.766	351.87
360.148	344.86
360.53	361.36
360.912	335.6
361.294	340.34
361.676	359.33
362.057	334.69
362.439	333.79
362.821	334.24
363.203	343.28
363.584	337.86
363.966	328.82
364.348	304.86
364.729	324.98
365.111	331.08
365.493	317.29
365.874	338.54
366.256	329.72
366.637	328.59
367.019	309.61
367.4	316.84
367.781	311.19
368.163	313.45
368.544	321.81
368.925	326.56
369.306	320.23
369.688	311.64
370.069	312.77
370.45	320.68
370.831	321.81
371.212	312.77
371.593	317.97
371.974	328.82
372.355	318.42
372.736	309.84
373.117	313.68
373.498	321.14
373.879	335.82
374.26	315.26
374.641	316.62
375.021	322.94
375.402	328.82
375.783	330.4
376.163	334.92
376.544	322.72
376.925	331.98
377.305	340.57
377.686	296.28
378.066	325.43
378.447	323.17
378.827	325.2
379.208	339.89
379.588	328.37
379.968	341.47
380.349	348.93
380.729	338.08
381.109	350.06
381.489	353.9
381.87	339.21
382.25	373.34
382.63	320.01
383.01	366.78
383.39	332.21
383.77	365.43
384.15	343.96
384.53	341.7
384.91	356.61
385.29	377.86
385.67	327.69
386.049	350.29
386.429	363.85
386.809	371.98
387.189	355.94
387.568	363.17
387.948	348.48
388.328	361.36
388.707	359.55
389.087	361.13
389.466	362.26
389.846	366.33
390.225	378.31
390.605	376.05
390.984	363.62
391.363	355.03
391.743	360
392.122	383.28
392.501	379.67
392.881	372.66
393.26	374.69
393.639	369.04
394.018	410.62
394.397	389.83
394.776	373.56
395.155	378.54
395.534	377.86
395.913	418.53
396.292	422.83
396.671	407.46
397.05	405.65
397.429	397.97
397.808	422.83
398.186	397.97
398.565	430.96
398.944	400.91
399.323	391.64
399.701	412.66
400.08	411.3
400.458	418.08
400.837	417.18
401.215	419.21
401.594	430.51
401.972	450.17
402.351	430.96
402.729	447.46
403.107	456.27
403.486	455.82
403.864	425.31
404.242	470.96
404.62	447.69
404.999	459.66
405.377	472.77
405.755	469.83
406.133	471.64
406.511	484.75
406.889	487.46
407.267	489.49
407.645	470.74
408.023	508.93
408.401	511.87
408.779	511.19
409.156	507.35
409.534	535.14
409.912	533.79
410.29	557.06
410.667	566.55
411.045	560.45
411.422	550.51
411.8	569.26
412.178	580.56
412.555	602.03
412.933	616.72
413.31	627.12
413.687	614.91
414.065	642.03
414.442	626.89
414.819	659.88
415.197	682.26
415.574	664.86
415.951	677.74
416.328	687
416.705	677.06
417.082	699.66
417.46	706.89
417.837	729.49
418.214	728.36
418.591	742.82
418.967	746.21
419.344	777.62
419.721	785.98
420.098	774.91
420.475	806.77
420.852	809.26
421.228	821.01
421.605	838.64
421.982	869.6
422.358	855.81
422.735	871.86
423.111	867.79
423.488	923.61
423.864	961.57
424.241	950.95
424.617	967.22
424.994	952.98
425.37	1014.22
425.746	995.47
426.123	1028.91
426.499	1040.89
426.875	1094.22
427.251	1071.85
427.627	1090.83
428.003	1106.43
428.379	1099.65
428.756	1136.26
429.132	1141.23
429.507	1168.12
429.883	1148.46
430.259	1184.62
430.635	1188.46
431.011	1224.84
431.387	1227.33
431.763	1255.35
432.138	1281.79
432.514	1281.11
432.89	1289.47
433.265	1324.05
433.641	1365.18
434.016	1368.11
434.392	1390.49
434.767	1457.83
435.143	1460.77
435.518	1498.96
435.894	1507.77
436.269	1544.15
436.644	1599.07
437.02	1604.04
437.395	1623.7
437.77	1632.97
438.145	1662.12
438.52	1722.23
438.895	1719.52
439.271	1751.61
439.646	1811.94
440.021	1836.58
440.395	1839.74
440.77	1844.71
441.145	1844.49
441.52	1931.71
441.895	1937.82
442.27	1973.97
442.645	1969
443.019	1972.62
443.394	2011.03
443.769	2052.16
444.143	2003.58
444.518	2073.18
444.892	2085.83
445.267	2098.26
445.641	2128.55
446.016	2168.77
446.39	2166.74
446.764	2171.03
447.139	2162.22
447.513	2215.78
447.887	2215.55
448.262	2223.46
448.636	2238.37
449.01	2312.27
449.384	2316.34
449.758	2312.27
450.132	2383.45
450.506	2390.01
450.88	2383.23
451.254	2378.48
451.628	2452.61
452.002	2457.58
452.376	2490.34
452.75	2493.96
453.123	2514.3
453.497	2554.07
453.871	2578.48
454.244	2641.3
454.618	2656.22
454.992	2674.52
455.365	2695.54
455.739	2765.14
456.112	2788.64
456.486	2786.83
456.859	2810.11
457.232	2875.19
457.606	2875.42
457.979	2928.3
458.352	2995.64
458.725	3038.8
459.099	2999.94
459.472	3080.84
459.845	3106.83
460.218	3135.3
460.591	3157.9
460.964	3149.76
461.337	3233.38
461.71	3298.23
462.083	3329.87
462.456	3368.74
462.829	3352.47
463.201	3441.73
463.574	3427.04
463.947	3502.97
464.32	3526.25
464.692	3620.03
465.065	3633.36
465.438	3678.56
465.81	3700.48
466.183	3792
466.555	3840.37
466.928	3896.41
467.3	3844.43
467.672	3923.98
468.045	3993.58
468.417	4040.13
468.789	4031.09
469.161	4128.04
469.534	4189.51
469.906	4271.99
470.278	4279.68
470.65	4309.51
471.022	4397.86
471.394	4502.04
471.766	4495.04
472.138	4490.97
472.51	4601.25
472.882	4675.82
473.253	4749.72
473.625	4840.79
473.997	4952.88
474.369	4951.97
474.74	5011.63
475.112	5080.56
475.484	5168.92
475.855	5204.62
476.227	5221.35
476.598	5383.15
476.97	5451.4
477.341	5566.87
477.713	5645.52
478.084	5655.23
478.455	5822.69
478.827	5833.99
479.198	6011.61
479.569	6007.31
479.94	6167.54
480.311	6179.06
480.682	6373.63
481.053	6473.29
481.424	6587.86
481.795	6628.31
482.166	6714.19
482.537	6741.98
482.908	6873.73
483.279	6962.54
483.65	7103.78
484.021	7185.59
484.391	7254.51
484.762	7312.14
485.133	7304
485.503	7437.56
485.874	7618.34
486.244	7696.76
486.615	7818.34
486.985	7910.09
487.356	8056.75
487.726	8106.02
488.097	8234.15
488.467	8181.49
488.837	8396.18
489.207	8493.8
489.578	8544.87
489.948	8646.11
490.318	8797.3
490.688	8777.41
491.058	8847.92
491.428	8937.18
491.798	9034.35
492.168	9218.08
492.538	9239.77
492.908	9328.81
493.278	9405.64
493.648	9438.18
494.017	9478.63
494.387	9588.24
494.757	9677.05
495.126	9759.76
495.496	9734.45
495.866	9847.44
496.235	9882.47
496.605	9956.14
496.974	10014.89
497.344	10086.53
497.713	10032.97
498.082	10136.47
498.452	10246.07
498.821	10284.49
499.19	10290.37
499.559	10340.53
499.928	10415.11
500.298	10378.72
500.667	10406.97
501.036	10468.89
501.405	10567.65
501.774	10528.78
502.143	10676.8
502.512	10672.5
502.88	10739.17
503.249	10761.99
503.618	10740.52
503.987	10710.92
504.356	10843.12
504.724	10843.12
505.093	10809.22
505.462	10878.82
505.83	10928.77
506.199	10998.37
506.567	11045.37
506.936	11044.7
507.304	11178.93
507.672	11211.24
508.041	11142.55
508.409	11207.86
508.777	11280.4
509.145	11299.38
509.514	11241.07
509.882	11307.29
510.25	11373.5
510.618	11521.29
510.986	11396.78
511.354	11416.21
511.722	11468.19
512.09	11559.94
512.458	11484.46
512.826	11571.46
513.193	11564.46
513.561	11531.69
513.929	11646.26
514.297	11731.23
514.664	11682.42
515.032	11630.44
515.4	11728.52
515.767	11707.95
516.135	11741.17
516.502	11640.61
516.869	11809.65
517.237	11811.91
517.604	11734.39
517.972	11795.86
518.339	11817.33
518.706	11844.9
519.073	11813.71
519.44	11776.88
519.808	11917.44
520.175	11847.61
520.542	11989.08
520.909	12007.38
521.276	11858.91
521.643	11929.19
522.009	11944.56
522.376	11986.82
522.743	11978
523.11	11990.89
523.477	12043.31
523.843	12095.52
524.21	12138.23
524.577	12111.33
524.943	12143.2
525.31	12219.35
525.676	12214.83
526.043	12163.76
526.409	12166.7
526.776	12288.96
527.142	12180.94
527.508	12196.3
527.874	12229.75
528.241	12335.73
528.607	12214.38
528.973	12213.25
529.339	12186.59
529.705	12288.05
530.071	12263.42
530.437	12161.73
530.803	12245.34
531.169	12228.85
531.535	12172.12
531.901	12142.75
532.267	12074.95
532.632	12120.83
532.998	12094.16
533.364	12076.53
533.73	11991.79
534.095	12101.39
534.461	12063.43
534.826	12014.39
535.192	12017.1
535.557	11903.43
535.923	11961.96
536.288	11870.89
536.653	11893.71
537.019	11789.53
537.384	11763.09
537.749	11818.23
538.114	11740.04
538.479	11729.2
538.845	11617.34
539.21	11573.95
539.575	11546.15
539.94	11526.26
540.305	11527.39
540.67	11464.12
541.034	11398.58
541.399	11425.25
541.764	11304.58
542.129	11406.49
542.494	11250.11
542.858	11266.38
543.223	11133.73
543.587	11261.86
543.952	11136.67
544.316	11117.91
544.681	11008.99
545.045	11012.15
545.41	10985.94
545.774	10856.9
546.138	10876.11
546.503	10801.31
546.867	10790.24
547.231	10704.37
547.595	10699.17
547.959	10633.86
548.324	10579.85
548.688	10575.1
549.052	10468.44
549.416	10536.91
549.779	10469.12
550.143	10472.06
550.507	10470.25
550.871	10372.62
551.235	10370.36
551.599	10420.31
551.962	10258.95
552.326	10254.43
552.689	10287.65
553.053	10168.79
553.417	10142.8
553.78	10218.05
554.143	10100.77
554.507	10051.28
554.87	10011.95
555.234	10068.22
555.597	10014.89
555.96	9961.56
556.323	9899.87
556.686	9865.52
557.05	9870.26
557.413	9933.99
557.776	9798.63
558.139	9848.57
558.502	9781.45
558.865	9823.48
559.228	9812.41
559.59	9778.74
559.953	9748.01
560.316	9770.15
560.679	9722.7
561.041	9745.75
561.404	9719.31
561.767	9784.39
562.129	9638.63
562.492	9742.13
562.854	9647.9
563.217	9639.31
563.579	9616.48
563.941	9715.01
564.304	9635.47
564.666	9664.39
565.028	9654.22
565.39	9614.68
565.753	9612.64
566.115	9615.81
566.477	9615.58
566.839	9682.25
567.201	9636.14
567.563	9624.85
567.925	9731.96
568.287	9686.54
568.648	9658.74
569.01	9728.35
569.372	9697.39
569.734	9677.05
570.095	9726.54
570.457	9710.04
570.819	9731.51
571.18	9649.48
571.542	9703.04
571.903	9725.86
572.265	9784.62
572.626	9694.45
572.987	9699.65
573.349	9675.01
573.71	9695.58
574.071	9730.15
574.432	9689.02
574.794	9813.77
575.155	9774.45
575.516	9734
575.877	9745.97
576.238	9737.16
576.599	9770.38
576.96	9763.15
577.32	9729.7
577.681	9804.5
578.042	9761.79
578.403	9725.18
578.763	9702.81
579.124	9766.54
579.485	9737.16
579.845	9757.5
580.206	9733.32
580.566	9676.37
580.927	9675.47
581.287	9797.72
581.648	9682.02
582.008	9759.31
582.368	9713.43
582.728	9697.39
583.089	9704.39
583.449	9695.58
583.809	9711.62
584.169	9703.26
584.529	9687.89
584.889	9748.68
585.249	9677.05
585.609	9645.86
585.969	9647.44
586.329	9612.64
586.688	9661.46
587.048	9661.23
587.408	9651.29
587.768	9614.45
588.127	9619.65
588.487	9651.74
588.846	9654.9
589.206	9625.07
589.565	9564.96
589.925	9631.4
590.284	9613.77
590.643	9614
591.003	9574.45
591.362	9699.19
591.721	9574.45
592.08	9587.56
592.44	9649.7
592.799	9642.02
593.158	9619.87
593.517	9565.64
593.876	9499.65
594.235	9565.41
594.593	9527.45
594.952	9524.28
595.311	9518.41
595.67	9538.52
596.029	9619.87
596.387	9590.04
596.746	9597.5
597.104	9483.38
597.463	9489.26
597.822	9546.66
598.18	9483.38
598.538	9515.7
598.897	9519.09
599.255	9472.08
599.613	9569.03
599.972	9444.96
600.33	9478.63
600.688	9471.4
601.046	9527.45
601.404	9506.43
601.762	9466.66
602.12	9486.77
602.478	9498.97
602.836	9544.17
603.194	9471.63
603.552	9412.2
603.91	9455.13
604.268	9452.42
604.625	9517.05
604.983	9447.22
605.341	9421.46
605.698	9424.85
606.056	9453.55
606.413	9471.86
606.771	9459.88
607.128	9469.82
607.485	9485.19
607.843	9463.49
608.2	9441.57
608.557	9497.84
608.914	9444.29
609.272	9481.8
609.629	9486.32
609.986	9558.86
610.343	9470.5
610.7	9523.38
611.057	9495.81
611.414	9482.93
611.771	9570.61
612.127	9548.24
612.484	9507.79
612.841	9555.47
613.198	9522.93
613.554	9566.99
613.911	9577.39
614.267	9559.99
614.624	9535.58
614.98	9584.62
615.337	9582.59
615.693	9649.25
616.05	9613.77
616.406	9663.71
616.762	9595.24
617.118	9612.64
617.475	9552.31
617.831	9568.12
618.187	9638.4
618.543	9600.44
618.899	9657.61
619.255	9647.67
619.611	9660.78
619.967	9633.43
620.323	9705.3
620.678	9654
621.034	9585.07
621.39	9643.38
621.746	9613.77
622.101	9721.11
622.457	9620.55
622.812	9719.31
623.168	9712.53
623.523	9679.76
623.879	9683.83
624.234	9652.64
624.589	9672.98
624.945	9696.03
625.3	9661.68
625.655	9614.45
626.01	9604.06
626.365	9637.27
626.72	9631.17
627.075	9615.58
627.43	9594.79
627.785	9495.36
628.14	9636.37
628.495	9594.56
628.85	9583.72
629.205	9530.84
629.559	9591.85
629.914	9576.94
630.269	9615.58
630.623	9532.42
630.978	9505.53
631.332	9571.97
631.687	9563.6
632.041	9488.13
632.396	9554.79
632.75	9460.33
633.104	9463.95
633.459	9447.9
633.813	9437.96
634.167	9429.14
634.521	9434.12
634.875	9478.63
635.229	9430.05
635.583	9404.51
635.937	9375.81
636.291	9338.07
636.645	9399.54
636.999	9359.32
637.352	9429.6
637.706	9332.88
638.06	9268.02
638.413	9357.06
638.767	9253.78
639.121	9275.7
639.474	9184.18
639.828	9237.29
640.181	9292.65
640.534	9231.86
640.888	9232.77
641.241	9191.18
641.594	9184.86
641.947	9260.11
642.301	9139.21
642.654	9191.41
643.007	9193.67
643.36	9139.21
643.713	9186.67
644.066	9220.56
644.419	9142.15
644.771	9067.8
645.124	8987.35
645.477	9039.32
645.83	8920.68
646.182	8922.72
646.535	8886.33
646.888	8940.57
647.24	8821.93
647.593	8878.88
647.945	8908.71
648.298	8916.84
648.65	8836.17
649.002	8798.88
649.355	8878.2
649.707	8898.31
650.059	8904.41
650.411	8972.89
650.763	9019.66
651.115	9070.74
651.467	9066.89
651.819	9051.98
652.171	9069.15
652.523	9118.19
652.875	9058.53
653.227	8999.55
653.578	9099.44
653.93	9084.75
654.282	9057.86
654.633	9016.5
654.985	9066.22
655.337	8989.16
655.688	9085.42
656.039	9023.28
656.391	9037.97
656.742	9093.79
657.094	9045.2
657.445	9158.64
657.796	9082.26
658.147	9009.95
658.498	9055.14
658.849	9092.43
659.2	9197.29
659.551	9092.66
659.902	9064.63
660.253	9151.41
660.604	9139.66
660.955	9052.66
661.306	9102.6
661.656	9148.93
662.007	9082.04
662.358	9145.54
662.708	9088.81
663.059	9096.5
663.409	9121.58
663.76	9085.65
664.11	9189.15
664.461	9164.07
664.811	9165.87
665.161	9153.9
665.511	9098.98
665.862	9124.52
666.212	9174.24
666.562	9134.69
666.912	9207.46
667.262	9117.74
667.612	9206.55
667.962	9120.68
668.312	9091.07
668.662	9205.2
669.011	9139.89
669.361	9077.74
669.711	9192.31
670.06	9080.23
670.41	9108.7
670.76	9137.63
671.109	9144.86
671.459	9112.77
671.808	9099.66
672.157	9099.66
672.507	9116.16
672.856	9084.75
673.205	9101.02
673.554	9057.4
673.904	9075.26
674.253	9109.15
674.602	9059.66
674.951	8950.06
675.3	8937.86
675.649	9075.71
675.998	9015.6
676.346	8979.44
676.695	8980.57
677.044	8961.59
677.393	8940.8
677.741	9007.46
678.09	8960.68
678.438	8941.02
678.787	8974.92
679.135	8974.02
679.484	8874.13
679.832	8891.76
680.181	8867.13
680.529	8870.97
680.877	8832.1
681.225	8804.98
681.573	8870.06
681.922	8755.72
682.27	8762.95
682.618	8776.51
682.966	8747.58
683.314	8782.61
683.661	8720.01
684.009	8668.49
684.357	8701.25
684.705	8677.75
685.053	8669.16
685.4	8699.45
685.748	8499.9
686.095	8542.61
686.443	8494.93
686.79	8495.16
687.138	8579.45
687.485	8462.84
687.832	8501.49
688.18	8479.11
688.527	8424.88
688.874	8430.98
689.221	8412.67
689.568	8330.42
689.915	8337.2
690.262	8319.12
690.609	8297.88
690.956	8293.58
691.303	8309.17
691.65	8217.43
691.997	8198.89
692.344	8209.52
692.69	8115.96
693.037	8120.7
693.383	8126.35
693.73	8085.9
694.077	8026.02
694.423	7998
694.769	7954.16
695.116	7968.39
695.462	7943.08
695.808	7884.33
696.155	7929.52
696.501	7798.45
696.847	7816.53
697.193	7711.22
697.539	7745.8
697.885	7701.28
698.231	7690.43
698.577	7653.6
698.923	7642.98
699.269	7528.18
699.614	7517.56
699.96	7542.41
700.306	7484.56
700.651	7413.83
700.997	7431.91
701.342	7428.07
701.688	7452.02
702.033	7362.76
702.379	7344.45
702.724	7306.49
703.069	7345.36
703.415	7226.94
703.76	7293.61
704.105	7263.78
704.45	7262.87
704.795	7158.92
705.14	7170
705.485	7172.03
705.83	7088.87
706.175	7086.16
706.52	7073.95
706.865	7035.54
707.209	7022.43
707.554	6959.83
707.899	6995.99
708.243	6907.4
708.588	6911.02
708.932	6855.2
709.277	6878.93
709.621	6874.18
709.966	6920.74
710.31	6855.2
710.654	6760.51
710.998	6766.16
711.342	6812.49
711.687	6766.39
712.031	6685.04
712.375	6707.86
712.719	6708.54
713.063	6707.86
713.407	6657.69
713.75	6691.36
714.094	6685.26
714.438	6656.79
714.782	6677.58
715.125	6661.53
715.469	6624.92
715.812	6567.53
716.156	6559.62
716.499	6560.75
716.843	6585.83
717.186	6522.78
717.53	6550.12
717.873	6577.47
718.216	6489.34
718.559	6536.11
718.902	6492.5
719.246	6498.15
719.589	6467.19
719.932	6487.98
720.275	6494.98
720.617	6484.82
720.96	6451.6
721.303	6420.41
721.646	6405.5
721.989	6369.34
722.331	6414.76
722.674	6425.16
723.016	6446.4
723.359	6456.34
723.701	6411.6
724.044	6366.63
724.386	6390.35
724.729	6389
725.071	6394.42
725.413	6406.63
725.755	6366.63
726.097	6301.54
726.439	6338.6
726.782	6334.31
727.124	6382.67
727.465	6333.63
727.807	6345.38
728.149	6324.14
728.491	6305.39
728.833	6332.28
729.175	6335.21
729.516	6294.76
729.858	6297.25
730.199	6314.42
730.541	6280.98
730.882	6292.05
731.224	6326.85
731.565	6318.94
731.906	6313.29
732.248	6300.64
732.589	6318.04
732.93	6265.84
733.271	6278.27
733.612	6338.83
733.953	6327.08
734.294	6327.08
734.635	6356.91
734.976	6337.7
735.317	6273.3
735.658	6304.48
735.999	6328.89
736.339	6312.84
736.68	6360.07
737.021	6296.8
737.361	6297.25
737.702	6373.86
738.042	6375.89
738.383	6333.41
738.723	6369.56
739.063	6340.41
739.404	6381.54
739.744	6386.06
740.084	6383.35
740.424	6386.96
740.764	6426.06
741.104	6416.79
741.444	6452.27
741.784	6439.39
742.124	6493.18
742.464	6548.99
742.804	6530.69
743.143	6560.07
743.483	6534.08
743.823	6604.13
744.162	6595.77
744.502	6689.33
744.841	6668.31
745.181	6672.83
745.52	6683
745.86	6708.76
746.199	6791.7
746.538	6808.87
746.877	6896.56
747.216	6882.55
747.556	6928.87
747.895	7033.28
748.234	7048.42
748.573	7046.83
748.911	7168.64
749.25	7211.58
749.589	7243.89
749.928	7300.84
750.267	7376.32
750.605	7419.25
750.944	7494.73
751.283	7582.19
751.621	7692.69
751.96	7738.57
752.298	7841.39
752.636	7939.69
752.975	7951.22
753.313	8084.32
753.651	8198.89
753.989	8296.75
754.327	8409.74
754.666	8489.51
755.004	8669.62
755.342	8812.44
755.679	8893.57
756.017	9005.65
756.355	9202.03
756.693	9313.44
757.031	9481.57
757.368	9564.51
757.706	9726.76
758.044	9816.48
758.381	10061.9
758.719	10246.98
759.056	10410.81
759.394	10524.03
759.731	10697.13
760.068	10801.09
760.405	10955.21
760.743	11085.37
761.08	11335.76
761.417	11437.91
761.754	11655.07
762.091	11854.84
762.428	12035.63
762.765	12178
763.102	12361.05
763.438	12509.52
763.775	12648.04
764.112	12869.51
764.449	13001.93
764.785	13157.41
765.122	13274.69
765.458	13451.19
765.795	13645.76
766.131	13831.74
766.467	14012.53
766.804	14209.81
767.14	14173.88
767.476	14430.82
767.812	14435.57
768.148	14760.53
768.485	14876.69
768.821	14889.34
769.157	15055.44
769.492	15224.02
769.828	15386.73
770.164	15382.89
770.5	15596.21
770.836	15708.53
771.171	15747.17
771.507	15959.59
771.842	15942.65
772.178	16138.12
772.513	16204.79
772.849	16286.82
773.184	16443.88
773.519	16508.05
773.855	16600.48
774.19	16528.62
774.525	16677.32
774.86	16857.42
775.195	16833.92
775.53	16952.11
775.865	16977.65
776.2	16995.5
776.535	16980.36
776.87	17129.51
777.205	17170.18
777.539	17133.57
777.874	17239.33
778.209	17218.77
778.543	17262.61
778.878	17274.36
779.212	17308.26
779.547	17293.34
779.881	17421.02
780.215	17347.35
780.55	17529.04
780.884	17467.8
781.218	17540.12
781.552	17571.08
781.886	17510.06
782.22	17488.82
782.554	17523.17
782.888	17385.09
783.222	17501.7
783.556	17418.31
783.889	17400.69
784.223	17412.66
784.557	17468.03
784.89	17545.09
785.224	17392.33
785.557	17455.83
785.891	17435.04
786.224	17334.7
786.558	17465.09
786.891	17226
787.224	17268.71
787.557	17424.19
787.891	17359.11
788.224	17350.52
788.557	17341.48
788.89	17347.13
789.223	17348.26
789.556	17333.8
789.888	17281.14
790.221	17260.58
790.554	17075.27
790.887	17169.51
791.219	17051.77
791.552	17085.44
791.884	16925.44
792.217	17095.16
792.549	17083.63
792.882	16905.56
793.214	16900.81
793.546	16987.59
793.879	16906.69
794.211	16820.36
794.543	16956.18
794.875	16848.84
795.207	16878.21
795.539	16775.84
795.871	16810.19
796.203	16746.24
796.535	16561.16
796.867	16579.24
797.198	16614.49
797.53	16538.11
797.862	16434.16
798.193	16579.69
798.525	16370.88
798.856	16483.65
799.188	16216.76
799.519	16211.79
799.85	16267.38
800.182	16229.87
800.513	16226.25
800.844	16170.89
801.175	16212.47
801.506	16234.39
801.837	16114.39
802.168	16146.26
802.499	15960.5
802.83	15947.84
803.161	15932.25
803.491	15922.08
803.822	15899.03
804.153	15889.99
804.483	15738.36
804.814	15730.9
805.145	15708.3
805.475	15701.52
805.805	15638.7
806.136	15767.74
806.466	15567.29
806.796	15607.51
807.126	15433.73
807.457	15483.22
807.787	15376.56
808.117	15385.82
808.447	15370.91
808.777	15367.52
809.107	15410.46
809.436	15305.83
809.766	15281.19
810.096	15278.26
810.426	15204.13
810.755	15247.3
811.085	15203.91
811.414	15165.27
811.744	15048.66
812.073	15067.41
812.403	15004.59
812.732	14998.04
813.061	15029.45
813.39	14914.42
813.719	14949.9
814.049	14946.29
814.378	14845.5
814.707	14810.7
815.036	14852.28
815.365	14768.67
815.693	14686.18
816.022	14716.24
816.351	14598.05
816.68	14591.04
817.008	14687.76
817.337	14472.4
817.665	14462.68
817.994	14549.46
818.322	14555.11
818.651	14443.25
818.979	14350.82
819.307	14551.27
819.636	14447.54
819.964	14333.87
820.292	14423.36
820.62	14388.34
820.948	14314.67
821.276	14466.75
821.604	14370.71
821.932	14282.8
822.259	14262.46
822.587	14304.5
822.915	14289.81
823.243	14370.48
823.57	14345.85
823.898	14384.72
824.225	14277.83
824.553	14200.09
824.88	14280.99
825.207	14366.42
825.535	14271.5
825.862	14271.05
826.189	14303.37
826.516	14379.3
826.843	14452.97
827.17	14392.86
827.497	14447.77
827.824	14426.53
828.151	14318.28
828.478	14336.59
828.805	14478.96
829.131	14348.11
829.458	14397.6
829.785	14328.68
830.111	14396.92
830.438	14434.21
830.764	14378.85
831.09	14388.11
831.417	14285.06
831.743	14306.08
832.069	14309.24
832.395	14276.93
832.722	14277.83
833.048	14185.63
833.374	14303.37
833.7	14231.96
834.026	14226.08
834.351	14278.73
834.677	14283.48
835.003	14316.93
835.329	14169.81
835.654	14247.55
835.98	14154.9
836.306	14227.66
836.631	14125.07
836.956	14268.57
837.282	14239.41
837.607	14174.78
837.932	14049.59
838.258	14119.42
838.583	14076.25
838.908	13974.56
839.233	13972.98
839.558	14024.73
839.883	13881.68
840.208	13895.24
840.533	13925.98
840.858	13893.89
841.182	13878.07
841.507	13900.67
841.832	13798.3
842.156	13872.42
842.481	13772.99
842.805	13731.63
843.13	13728.92
843.454	13733.66
843.778	13600.79
844.103	13614.12
844.427	13552.88
844.751	13562.37
845.075	13537.29
845.399	13464.97
845.723	13488.7
846.047	13439.89
846.371	13371.19
846.695	13342.26
847.019	13255.71
847.343	13118.54
847.666	13051.42
847.99	12961.26
848.313	13128.48
848.637	12933.69
848.96	12927.13
849.284	12987.24
849.607	12866.12
849.931	12755.38
850.254	12738.66
850.577	12556.75
850.9	12556.97
851.223	12569.85
851.546	12459.12
851.869	12477.2
852.192	12353.36
852.515	12291.67
852.838	12295.51
853.161	12344.1
853.483	12216.19
853.806	12169.86
854.129	12174.61
854.451	12126.02
854.774	12047.61
855.096	11995.18
855.419	11989.98
855.741	11982.98
856.063	11862.3
856.385	11911.11
856.708	11820.27
857.03	11716.54
857.352	11788.4
857.674	11750.21
857.996	11699.82
858.318	11578.92
858.64	11728.29
858.961	11630.44
859.283	11514.06
859.605	11466.83
859.926	11516.32
860.248	11469.54
860.57	11536.21
860.891	11437.68
861.212	11396.55
861.534	11374.18
861.855	11342.09
862.176	11311.58
862.498	11304.35
862.819	11341.41
863.14	11267.29
863.461	11186.16
863.782	11224.8
864.103	11207.4
864.424	11232.71
864.745	11215.31
865.065	11093.28
865.386	11076.79
865.707	11095.32
866.027	11099.84
866.348	11054.64
866.668	11126.5
866.989	11024.81
867.309	10982.78
867.63	10881.08
867.95	10926.96
868.27	10947.07
868.59	10913.63
868.91	10905.04
869.23	10859.62
869.55	10890.58
869.87	10845.83
870.19	10824.36
870.51	10810.13
870.83	10934.64
871.15	10762.67
871.469	10806.74
871.789	10792.27
872.109	10777.13
872.428	10681.54
872.748	10726.51
873.067	10721.09
873.386	10743.46
873.706	10661.65
874.025	10617.36
874.344	10593.41
874.663	10658.94
874.982	10581.43
875.301	10589.34
875.62	10531.49
875.939	10558.83
876.258	10548.89
876.577	10464.15
876.896	10468.67
877.214	10486.74
877.533	10481.77
877.852	10430.93
878.17	10455.33
878.489	10442.23
878.807	10396.8
879.125	10407.65
879.444	10422.56
879.762	10369.01
880.08	10386.41
880.398	10276.13
880.716	10326.52
881.034	10285.39
881.352	10274.32
881.67	10249.91
881.988	10230.25
882.306	10184.38
882.624	10097.15
882.941	10060.99
883.259	10092.4
883.577	10045.63
883.894	10100.54
884.212	10006.98
884.529	9962.46
884.846	9969.02
885.164	9980.32
885.481	9899.41
885.798	9879.98
886.115	9842.02
886.432	9855.57
886.75	9852.41
887.067	9847.21
887.383	9809.7
887.7	9807.89
888.017	9746.65
888.334	9769.93
888.651	9754.33
888.967	9697.16
889.284	9679.99
889.6	9633.89
889.917	9589.37
890.233	9545.53
890.55	9583.26
890.866	9531.97
891.182	9524.96
891.498	9459.43
891.815	9409.71
892.131	9409.26
892.447	9407.22
892.763	9342.82
893.079	9312.99
893.395	9378.98
893.71	9246.55
894.026	9244.97
894.342	9314.57
894.657	9188.02
894.973	9095.37
895.289	9148.47
895.604	9089.94
895.92	9049.72
896.235	8991.64
896.55	9016.27
896.865	9002.26
897.181	8974.24
897.496	8945.54
897.811	8889.5
898.126	8862.15
898.441	8821.7
898.756	8816.05
899.071	8724.98
899.386	8712.1
899.7	8640.46
900.015	8651.76
900.33	8571.54
900.644	8575.38
900.959	8576.96
901.273	8532.67
901.588	8472.56
901.902	8429.85
902.216	8430.53
902.531	8423.07
902.845	8346.69
903.159	8312.34
903.473	8318.21
903.787	8311.89
904.101	8168.84
904.415	8219.46
904.729	8188.73
905.042	8156.86
905.356	8154.15
905.67	8130.42
905.984	8124.09
906.297	8040.48
906.611	7998.9
906.924	7963.42
907.237	7921.84
907.551	7873.03
907.864	7805.01
908.177	7828.28
908.491	7848.4
908.804	7766.59
909.117	7704.44
909.43	7720.49
909.743	7665.12
910.056	7613.83
910.368	7608.18
910.681	7568.4
910.994	7485.47
911.307	7529.76
911.619	7447.95
911.932	7422.19
912.244	7400.5
912.557	7395.3
912.869	7299.71
913.181	7368.86
913.494	7320.73
913.806	7296.55
914.118	7221.52
914.43	7211.58
914.742	7200.73
915.054	7181.97
915.366	7126.61
915.678	7072.14
915.99	7031.47
916.302	7000.28
916.613	6926.39
916.925	7007.29
917.236	6980.62
917.548	6920.28
917.859	6891.81
918.171	6868.53
918.482	6805.26
918.794	6806.84
919.105	6786.95
919.416	6752.83
919.727	6702.44
920.038	6682.1
920.349	6664.47
920.66	6685.71
920.971	6621.99
921.282	6607.3
921.593	6576.34
921.903	6545.83
922.214	6559.62
922.525	6466.28
922.835	6415.44
923.146	6444.59
923.456	6436.91
923.767	6410.69
924.077	6353.29
924.387	6310.36
924.697	6302.67
925.008	6296.12
925.318	6257.93
925.628	6268.1
925.938	6251.15
926.248	6174.99
926.558	6170.47
926.867	6160.53
927.177	6057.26
927.487	6053.87
927.796	6072.4
928.106	5993.53
928.416	6023.13
928.725	6040.99
929.034	5980.42
929.344	5942
929.653	5921.67
929.962	5865.62
930.271	5854.1
930.581	5872.4
930.89	5803.03
931.199	5804.83
931.508	5746.98
931.817	5762.57
932.125	5733.87
932.434	5711.5
932.743	5688.45
933.051	5628.79
933.36	5608.23
933.669	5663.14
933.977	5628.34
934.286	5577.04
934.594	5557.61
934.902	5529.13
935.21	5474.45
935.519	5504.95
935.827	5490.72
936.135	5431.74
936.443	5384.05
936.751	5414.34
937.059	5340.89
937.367	5323.04
937.674	5365.75
937.982	5321.23
938.29	5281.68
938.597	5278.97
938.905	5235.36
939.213	5173.21
939.52	5149.48
939.827	5199.88
940.135	5171.4
940.442	5097.06
940.749	5089.82
941.056	5096.6
941.363	5060.22
941.67	4975.25
941.977	5036.94
942.284	4939.55
942.591	4987.68
942.898	4953.56
943.205	4901.58
943.511	4901.35
943.818	4842.6
944.125	4843.95
944.431	4846.89
944.738	4824.29
945.044	4790.4
945.35	4758.53
945.657	4753.56
945.963	4707.01
946.269	4695.48
946.575	4691.87
946.881	4637.86
947.187	4642.38
947.493	4635.37
947.799	4605.99
948.105	4570.29
948.41	4567.13
948.716	4580.91
949.022	4556.96
949.327	4553.57
949.633	4480.8
949.938	4513.57
950.244	4442.16
950.549	4467.69
950.854	4420.24
951.16	4370.52
951.465	4401.25
951.77	4347.02
952.075	4350.63
952.38	4345.21
952.685	4335.27
952.99	4260.69
953.294	4289.62
953.599	4195.38
953.904	4238.55
954.209	4217.08
954.513	4195.16
954.818	4185.67
955.122	4177.76
955.426	4150.41
955.731	4100.7
956.035	4093.24
956.339	4087.59
956.643	4084.2
956.948	4039.23
957.252	4036.74
957.556	4045.56
957.86	3988.16
958.163	4018.67
958.467	3968.05
958.771	3984.32
959.075	3944.54
959.378	3894.83
959.682	3898.89
959.985	3847.82
960.289	3814.15
960.592	3866.81
960.896	3848.95
961.199	3832.23
961.502	3832.46
961.805	3794.49
962.108	3766.02
962.411	3757.88
962.714	3745.23
963.017	3753.81
963.32	3721.5
963.623	3697.54
963.926	3687.15
964.228	3651.9
964.531	3608.73
964.833	3638.56
965.136	3622.52
965.438	3580.03
965.741	3592.01
966.043	3522.86
966.345	3518.34
966.648	3530.09
966.95	3531.22
967.252	3512.01
967.554	3451.22
967.856	3483.54
968.158	3430.21
968.46	3470.21
968.761	3451.22
969.063	3442.86
969.365	3397.66
969.666	3424.78
969.968	3393.82
970.269	3351.79
970.571	3339.14
970.872	3345.24
971.174	3335.97
971.475	3250.1
971.776	3301.85
972.077	3289.42
972.378	3211.46
972.679	3240.61
972.98	3265.46
973.281	3213.26
973.582	3204
973.883	3167.16
974.183	3160.61
974.484	3166.48
974.785	3148.63
975.085	3149.99
975.386	3119.48
975.686	3104.79
975.986	3114.51
976.287	3100.95
976.587	3103.66
976.887	3061.63
977.187	3053.04
977.487	3027.28
977.787	3012.14
978.087	2968.75
978.387	2966.49
978.687	3000.39
978.987	2923.78
979.286	2954.06
979.586	2964.23
979.885	2908.64
980.185	2881.97
980.484	2897.57
980.784	2846.04
981.083	2847.62
981.382	2859.37
981.682	2803.1
981.981	2847.62
982.28	2811.01
982.579	2812.14
982.878	2816.44
983.177	2779.6
983.475	2771.24
983.774	2750
984.073	2741.86
984.372	2729.43
984.67	2722.65
984.969	2690.56
985.267	2680.4
985.566	2672.94
985.864	2684.24
986.162	2691.69
986.461	2648.53
986.759	2612.83
987.057	2641.3
987.355	2584.35
987.653	2606.73
987.951	2564.47
988.249	2585.48
988.547	2553.85
988.844	2552.49
989.142	2543.45
989.44	2547.97
989.737	2502.55
990.035	2507.07
990.332	2513.62
990.63	2489.44
990.927	2505.71
991.224	2480.4
991.521	2452.38
991.819	2421.19
992.116	2414.19
992.413	2425.04
992.71	2392.04
993.006	2374.41
993.303	2376.22
993.6	2377.8
993.897	2357.24
994.193	2347.07
994.49	2327.86
994.787	2339.84
995.083	2295.32
995.379	2320.41
995.676	2305.26
995.972	2291.25
996.268	2227.75
996.565	2269.78
996.861	2260.97
997.157	2256.45
997.453	2196.79
997.749	2187.08
998.044	2206.28
998.34	2178.71
998.636	2181.65
998.932	2178.04
999.227	2158.15
999.523	2159.28
999.818	2133.52
1000.114	2123.8
1000.409	2111.82
1000.704	2106.17
1001	2069.11
1001.295	2051.49
1001.59	2055.55
1001.885	2053.75
1002.18	2077.25
1002.475	2049.9
1002.77	2015.55
1003.065	2001.77
1003.359	1997.02
1003.654	2011.26
1003.949	1974.2
1004.243	1964.71
1004.538	1943.24
1004.832	1936.46
1005.127	1931.04
1005.421	1941.21
1005.715	1910.02
1006.009	1918.61
1006.304	1890.59
1006.598	1884.94
1006.892	1893.98
1007.186	1866.63
1007.48	1851.04
1007.773	1830.02
1008.067	1825.73
1008.361	1833.41
1008.655	1817.59
1008.948	1824.15
1009.242	1798.84
1009.535	1809.46
1009.829	1772.85
1010.122	1783.02
1010.415	1753.41
1010.708	1749.57
1011.001	1735.11
1011.295	1722
1011.588	1712.96
1011.881	1718.84
1012.173	1684.94
1012.466	1680.42
1012.759	1677.03
1013.052	1669.57
1013.344	1625.28
1013.637	1648.56
1013.93	1614.66
1014.222	1632.51
1014.514	1624.38
1014.807	1614.66
1015.099	1586.87
1015.391	1599.07
1015.683	1572.4
1015.976	1550.48
1016.268	1543.48
1016.56	1512.52
1016.851	1535.57
1017.143	1530.37
1017.435	1524.27
1017.727	1486.08
1018.018	1491.27
1018.31	1471.84
1018.602	1478.17
1018.893	1495.34
1019.185	1447.66
1019.476	1445.63
1019.767	1446.53
1020.058	1442.46
1020.35	1416.02
1020.641	1404.5
1020.932	1384.84
1021.223	1362.01
1021.514	1424.38
1021.804	1360.66
1022.095	1392.07
1022.386	1351.84
1022.677	1352.07
1022.967	1343.71
1023.258	1346.65
1023.548	1327.21
1023.839	1335.35
1024.129	1334.22
1024.419	1295.8
1024.709	1276.59
1025	1302.13
1025.29	1277.95
1025.58	1283.14
1025.87	1268.91
1026.16	1254.9
1026.449	1245.18
1026.739	1228
1027.029	1251.73
1027.319	1173.77
1027.608	1243.37
1027.898	1210.6
1028.187	1187.78
1028.477	1182.36
1028.766	1204.5
1029.055	1166.76
1029.344	1184.39
1029.634	1171.51
1029.923	1155.01
1030.212	1169.25
1030.501	1143.49
1030.79	1110.49
1031.078	1121.57
1031.367	1118.85
1031.656	1103.71
1031.945	1109.14
1032.233	1091.96
1032.522	1127.44
1032.81	1082.25
1033.099	1081.57
1033.387	1057.39
1033.675	1080.89
1033.963	1022.59
1034.251	1049.7
1034.54	1046.99
1034.828	1037.05
1035.116	1030.04
1035.403	1056.71
1035.691	1032.3
1035.979	1002.7
1036.267	1004.51
1036.554	998.41
1036.842	981.91
1037.129	971.29
1037.417	982.14
1037.704	970.84
1037.992	981.01
1038.279	993.43
1038.566	957.28
1038.853	957.28
1039.14	957.28
