Data from hue_140_FLMS001491_00050.txt Node
Date: Tue Feb 07 16:55:59 GMT 2017
User: dcchb
Spectrometer: FLMS00149
Trigger mode: 0
Integration Time (sec): 2.000000E-2
Scans to average: 10
Electric dark correction enabled: true
Nonlinearity correction enabled: false
Boxcar width: 0
XAxis mode: Wavelengths
Number of Pixels in Spectrum: 2048
>>>>>Begin Spectral Data<<<<<
341.393	15.85
341.776	15.85
342.16	15.85
342.543	-62.12
342.927	-61.21
343.31	-61.44
343.693	-82.68
344.077	-20.54
344.46	-52.85
344.843	-73.87
345.226	-48.11
345.61	-50.14
345.993	-1.33
346.376	-14.89
346.759	12.46
347.142	20.82
347.525	34.15
347.908	45.68
348.291	84.09
348.674	94.94
349.057	113.7
349.44	127.48
349.823	141.95
350.206	153.92
350.588	198.22
350.971	213.13
351.354	219.68
351.737	234.37
352.119	246.12
352.502	226.91
352.884	277.99
353.267	280.02
353.65	315.95
354.032	293.35
354.414	309.4
354.797	304.43
355.179	327.48
355.562	324.09
355.944	326.12
356.326	326.57
356.709	330.42
357.091	341.04
357.473	334.26
357.855	333.13
358.238	357.98
358.62	357.98
359.002	337.87
359.384	322.51
359.766	333.8
360.148	332.67
360.53	340.81
360.912	339.91
361.294	334.71
361.676	343.97
362.057	334.93
362.439	340.81
362.821	324.99
363.203	317.53
363.584	313.92
363.966	340.58
364.348	301.04
364.729	316.86
365.111	305.1
365.493	328.61
365.874	339.45
366.256	304.65
366.637	316.18
367.019	315.73
367.4	332
367.781	312.56
368.163	288.16
368.544	327.48
368.925	307.59
369.306	308.49
369.688	315.27
370.069	313.69
370.45	323.18
370.831	322.51
371.212	324.09
371.593	338.78
371.974	311.21
372.355	296.74
372.736	316.18
373.117	324.31
373.498	337.87
373.879	300.59
374.26	307.36
374.641	306.91
375.021	321.6
375.402	324.31
375.783	327.03
376.163	339
376.544	333.13
376.925	322.73
377.305	344.43
377.686	334.03
378.066	318.21
378.447	326.12
378.827	332.9
379.208	339.91
379.588	346.23
379.968	339.23
380.349	353.92
380.729	339.23
381.109	350.75
381.489	361.6
381.87	337.19
382.25	368.61
382.63	335.61
383.01	328.38
383.39	346.46
383.77	331.54
384.15	324.77
384.53	340.13
384.91	342.39
385.29	357.76
385.67	365.22
386.049	350.75
386.429	334.48
386.809	361.37
387.189	360.47
387.568	365.67
387.948	353.69
388.328	365.22
388.707	340.81
389.087	357.76
389.466	359.11
389.846	375.16
390.225	367.7
390.605	368.15
390.984	376.74
391.363	378.55
391.743	354.37
392.122	358.44
392.501	368.83
392.881	367.02
393.26	367.48
393.639	396.85
394.018	386.23
394.397	381.71
394.776	382.62
395.155	379.91
395.534	371.77
395.913	403.63
396.292	386.46
396.671	393.92
397.05	395.5
397.429	399.57
397.808	376.74
398.186	382.84
398.565	409.51
398.944	399.57
399.323	388.94
399.701	405.44
400.08	417.42
400.458	399.79
400.837	412.45
401.215	395.05
401.594	411.77
401.972	429.4
402.351	401.6
402.729	385.78
403.107	401.15
403.486	417.64
403.864	412.22
404.242	425.1
404.62	406.57
404.999	409.96
405.377	404.09
405.755	427.14
406.133	421.71
406.511	435.72
406.889	415.84
407.267	439.11
407.645	448.6
408.023	453.35
408.401	441.82
408.779	449.73
409.156	438.21
409.534	430.98
409.912	448.15
410.29	440.92
410.667	451.77
411.045	461.71
411.422	463.52
411.8	446.34
412.178	464.87
412.555	481.82
412.933	477.08
413.31	468.72
413.687	493.35
414.065	487.02
414.442	491.77
414.819	496.74
415.197	486.34
415.574	483.41
415.951	502.84
416.328	490.86
416.705	481.37
417.082	489.28
417.46	512.33
417.837	498.09
418.214	503.74
418.591	507.59
418.967	499.45
419.344	527.02
419.721	531.54
420.098	522.5
420.475	530.64
420.852	531.77
421.228	548.71
421.605	522.73
421.982	532.22
422.358	526.12
422.735	552.78
423.111	511.88
423.488	547.58
423.864	562.5
424.241	566.57
424.617	563.63
424.994	563.4
425.37	585.78
425.746	548.94
426.123	567.24
426.499	581.26
426.875	579.22
427.251	591.65
427.627	572.89
428.003	581.26
428.379	593.46
428.756	602.95
429.132	573.35
429.507	616.96
429.883	608.6
430.259	602.95
430.635	607.47
431.011	639.33
431.387	646.34
431.763	615.38
432.138	665.55
432.514	664.87
432.89	654.25
433.265	673
433.641	662.84
434.016	682.27
434.392	685.89
434.767	697.86
435.143	700.57
435.518	695.15
435.894	691.31
436.269	713
436.644	697.86
437.02	728.37
437.395	722.04
437.77	724.53
438.145	742.38
438.52	728.37
438.895	743.06
439.271	745.32
439.646	790.97
440.021	782.61
440.395	761.59
440.77	783.74
441.145	771.53
441.52	764.53
441.895	770.4
442.27	798.65
442.645	784.87
443.019	797.07
443.394	802.04
443.769	834.58
444.143	784.41
444.518	773.12
444.892	794.58
445.267	814.02
445.641	838.42
446.016	833.45
446.39	821.25
446.764	836.16
447.139	838.88
447.513	833.68
447.887	819.22
448.262	830.97
448.636	856.05
449.01	864.64
449.384	880.68
449.758	901.02
450.132	894.24
450.506	895.37
450.88	890.85
451.254	893.56
451.628	879.33
452.002	917.97
452.376	924.75
452.75	927.46
453.123	939.89
453.497	961.13
453.871	943.05
454.244	977.63
454.618	1011.08
454.992	995.26
455.365	992.09
455.739	1001.36
456.112	1018.53
456.486	1006.78
456.859	1058.76
457.232	1020.79
457.606	1062.6
457.979	1062.83
458.352	1084.52
458.725	1089.04
459.099	1111.19
459.472	1119.77
459.845	1125.65
460.218	1147.12
460.591	1125.42
460.964	1163.61
461.337	1174.91
461.71	1192.54
462.083	1227.79
462.456	1216.04
462.829	1194.35
463.201	1229.6
463.574	1249.26
463.947	1260.33
464.32	1277.96
464.692	1301.01
465.065	1294.91
465.438	1337.85
465.81	1343.04
466.183	1349.6
466.555	1403.38
466.928	1402.7
467.3	1421.01
467.672	1441.8
468.045	1493.77
468.417	1484.96
468.789	1523.38
469.161	1506.88
469.534	1574.9
469.906	1581.68
470.278	1598.63
470.65	1621.23
471.022	1642.92
471.394	1691.74
471.766	1739.87
472.138	1763.6
472.51	1802.92
472.882	1861
473.253	1846.99
473.625	1892.63
473.997	1934.89
474.369	1976.93
474.74	1975.57
475.112	2040.65
475.484	2095.79
475.855	2141.44
476.227	2183.7
476.598	2244.71
476.97	2315.22
477.341	2333.53
477.713	2391.83
478.084	2437.48
478.455	2517.93
478.827	2630.24
479.198	2680.41
479.569	2707.75
479.94	2788.43
480.311	2859.61
480.682	2968.09
481.053	3083.34
481.424	3135.09
481.795	3176.67
482.166	3279.26
482.537	3359.26
482.908	3460.5
483.279	3528.07
483.65	3685.36
484.021	3742.3
484.391	3844.22
484.762	3902.52
485.133	3998.34
485.503	4100.49
485.874	4254.61
486.244	4296.19
486.615	4453.7
486.985	4575.5
487.356	4721.03
487.726	4794.48
488.097	4935.94
488.467	5006.68
488.837	5166.45
489.207	5296.39
489.578	5409.38
489.948	5516.04
490.318	5660.67
490.688	5716.49
491.058	5906.77
491.428	6061.11
491.798	6134.33
492.168	6303.82
492.538	6457.03
492.908	6521.66
493.278	6666.75
493.648	6812.5
494.017	6938.6
494.387	7014.99
494.757	7162.55
495.126	7284.81
495.496	7389.66
495.866	7513.5
496.235	7605.03
496.605	7732.25
496.974	7814.96
497.344	7953.04
497.713	8042.75
498.082	8201.17
498.452	8326.59
498.821	8373.82
499.19	8541.05
499.559	8605
499.928	8698.33
500.298	8824.88
500.667	8892.9
501.036	8973.8
501.405	9068.26
501.774	9120.01
502.143	9241.14
502.512	9314.81
502.88	9447.69
503.249	9464.19
503.618	9611.07
503.987	9670.06
504.356	9760.9
504.724	9889.94
505.093	9851.97
505.462	9908.92
505.83	10115.02
506.199	10098.97
506.567	10313.2
506.936	10291.06
507.304	10381.68
507.672	10408.79
508.041	10513.2
508.409	10563.37
508.777	10679.52
509.145	10773.3
509.514	10749.35
509.882	10802.23
510.25	10906.63
510.618	10957.25
510.986	10954.32
511.354	11117.25
511.722	11164.25
512.09	11233.63
512.458	11190.92
512.826	11291.93
513.193	11397.02
513.561	11341.42
513.929	11385.49
514.297	11551.14
514.664	11528.09
515.032	11642.43
515.4	11625.26
515.767	11615.77
516.135	11717.46
516.502	11614.19
516.869	11767.4
517.237	11812.82
517.604	11725.6
517.972	11838.14
518.339	11883.11
518.706	11901.64
519.073	11994.06
519.44	11921.52
519.808	12138.47
520.175	12003.78
520.542	12138.47
520.909	12262.53
521.276	12101.18
521.643	12159.26
522.009	12247.84
522.376	12324.68
522.743	12303.43
523.11	12335.75
523.477	12460.27
523.843	12434.05
524.21	12503.65
524.577	12558.12
524.943	12504.33
525.31	12605.8
525.676	12676.98
526.043	12649.87
526.409	12589.3
526.776	12724.44
527.142	12707.04
527.508	12745
527.874	12789.75
528.241	12790.43
528.607	12701.62
528.973	12818.45
529.339	12693.71
529.705	12845.34
530.071	12832.91
530.437	12925.56
530.803	12833.14
531.169	12781.39
531.535	12782.52
531.901	12799.69
532.267	12770.99
532.632	12810.76
532.998	12810.31
533.364	12845.34
533.73	12839.46
534.095	12866.58
534.461	12770.99
534.826	12793.82
535.192	12872.68
535.557	12765.57
535.923	12762.4
536.288	12803.99
536.653	12749.52
537.019	12587.95
537.384	12624.33
537.749	12604.44
538.114	12653.25
538.479	12535.74
538.845	12639.7
539.21	12578.23
539.575	12571.22
539.94	12514.05
540.305	12582.75
540.67	12418.01
541.034	12404.45
541.399	12429.31
541.764	12355.18
542.129	12358.35
542.494	12303.66
542.858	12345.01
543.223	12298.69
543.587	12331.46
543.952	12236.32
544.316	12280.84
544.681	12179.37
545.045	12192.7
545.41	12211.91
545.774	12109.99
546.138	12028.41
546.503	12101.86
546.867	12056.21
547.231	12021.41
547.595	12034.29
547.959	11933.73
548.324	11889.43
548.688	11846.04
549.052	11914.07
549.416	11780.28
549.779	11806.27
550.143	11737.57
550.507	11822.99
550.871	11827.74
551.235	11694.18
551.599	11762.2
551.962	11660.51
552.326	11630.23
552.689	11706.16
553.053	11610.34
553.417	11604.47
553.78	11735.09
554.143	11587.29
554.507	11633.85
554.87	11523.79
555.234	11577.8
555.597	11500.97
555.96	11526.96
556.323	11540.52
556.686	11451.7
557.05	11524.47
557.413	11491.93
557.776	11455.55
558.139	11488.77
558.502	11493.74
558.865	11439.05
559.228	11452.83
559.59	11537.58
559.953	11434.3
560.316	11543.91
560.679	11471.37
561.041	11470.46
561.404	11503.45
561.767	11530.12
562.129	11485.83
562.492	11594.75
562.854	11519.5
563.217	11481.31
563.579	11451.03
563.941	11427.07
564.304	11510.91
564.666	11563.57
565.028	11542.55
565.39	11562.89
565.753	11563.34
566.115	11609.67
566.477	11616.45
566.839	11658.25
567.201	11685.82
567.563	11631.81
567.925	11743.22
568.287	11699.38
568.648	11687.18
569.01	11625.49
569.372	11746.84
569.734	11678.37
570.095	11774.63
570.457	11802.66
570.819	11792.03
571.18	11782.32
571.542	11825.25
571.903	11765.37
572.265	11897.79
572.626	11858.25
572.987	11853.05
573.349	11819.38
573.71	11879.26
574.071	11807.4
574.432	11895.08
574.794	11924.69
575.155	11938.47
575.516	11846.5
575.877	12006.49
576.238	11898.47
576.599	12009.88
576.96	11940.73
577.32	11967.17
577.681	12036.1
578.042	11940.51
578.403	12004.46
578.763	11989.09
579.124	11954.52
579.485	12035.42
579.845	12001.97
580.206	12004.01
580.566	11942.31
580.927	12011.01
581.287	12022.54
581.648	11952.93
582.008	11992.93
582.368	11974.18
582.728	11997.23
583.089	12021.41
583.449	11940.28
583.809	11932.82
584.169	11945.7
584.529	11986.83
584.889	12032.48
585.249	11960.39
585.609	11852.37
585.969	11908.64
586.329	11897.34
586.688	11997.9
587.048	11900.73
587.408	11824.12
587.768	11812.37
588.127	11891.92
588.487	11783.22
588.846	11914.74
589.206	11805.82
589.565	11855.76
589.925	11876.78
590.284	11816.21
590.643	11837.46
591.003	11832.94
591.362	11878.59
591.721	11795.65
592.08	11809.21
592.44	11828.42
592.799	11836.78
593.158	11815.99
593.517	11821.41
593.876	11868.64
594.235	11792.94
594.593	11745.26
594.952	11778.02
595.311	11752.04
595.67	11780.28
596.029	11816.89
596.387	11778.02
596.746	11825.93
597.104	11719.72
597.463	11719.72
597.822	11796.78
598.18	11763.33
598.538	11720.62
598.897	11817.12
599.255	11677.91
599.613	11786.61
599.972	11795.65
600.33	11751.13
600.688	11704.58
601.046	11745.71
601.404	11790.23
601.762	11728.31
602.12	11806.72
602.478	11872.48
602.836	11743.22
603.194	11685.37
603.552	11743.67
603.91	11752.04
604.268	11779.83
604.625	11733.96
604.983	11776.89
605.341	11763.33
605.698	11906.83
606.056	11838.14
606.413	11771.02
606.771	11821.19
607.128	11792.71
607.485	11723.11
607.843	11827.29
608.2	11861.41
608.557	11942.99
608.914	11854.86
609.272	11823.22
609.629	11867.51
609.986	11932.37
610.343	11818.93
610.7	11918.36
611.057	11944.8
611.414	11925.14
611.771	11917.68
612.127	11976.21
612.484	11949.77
612.841	11988.41
613.198	11918.58
613.554	11946.61
613.911	12015.31
614.267	11993.39
614.624	12039.71
614.98	12042.42
615.337	12007.85
615.693	11997.68
616.05	11996.1
616.406	12090.78
616.762	11953.61
617.118	12010.79
617.475	12045.81
617.831	12060.05
618.187	12041.07
618.543	12064.12
618.899	12094.85
619.255	12118.13
619.611	12115.64
619.967	12201.97
620.323	12203.78
620.678	12120.16
621.034	12109.77
621.39	12093.72
621.746	12069.99
622.101	12152.25
622.457	12104.57
622.812	12166.04
623.168	12194.06
623.523	12156.54
623.879	12107.51
624.234	12026.6
624.589	12191.57
624.945	12168.07
625.3	12164.45
625.655	12145.47
626.01	12187.28
626.365	12178.47
626.72	12077.45
627.075	12206.03
627.43	12128.07
627.785	12125.36
628.14	12092.14
628.495	12163.78
628.85	12143.44
629.205	12059.6
629.559	12129.88
629.914	12034.97
630.269	12068.41
630.623	12008.07
630.978	11989.54
631.332	12037.23
631.687	12051.46
632.041	12016.66
632.396	11990
632.75	11975.31
633.104	12039.03
633.459	11959.49
633.813	11962.43
634.167	11952.26
634.521	11946.61
634.875	11954.29
635.229	11948.41
635.583	11884.91
635.937	11851.92
636.291	11883.11
636.645	11921.97
636.999	11891.24
637.352	11892.6
637.706	11839.72
638.06	11834.07
638.413	11830.45
638.767	11741.41
639.121	11798.59
639.474	11702.77
639.828	11738.02
640.181	11745.48
640.534	11798.36
640.888	11668.2
641.241	11617.58
641.594	11626.16
641.947	11682.88
642.301	11652.83
642.654	11687.4
643.007	11697.57
643.36	11665.03
643.713	11638.37
644.066	11619.84
644.419	11644.02
644.771	11566.73
645.124	11437.92
645.477	11456.9
645.83	11359.05
646.182	11296.68
646.535	11285.83
646.888	11287.19
647.24	11197.7
647.593	11331.48
647.945	11298.94
648.298	11275.44
648.65	11279.51
649.002	11173.52
649.355	11239.96
649.707	11246.06
650.059	11348.88
650.411	11401.08
650.763	11428.2
651.115	11623.68
651.467	11550.23
651.819	11477.69
652.171	11509.1
652.523	11471.59
652.875	11466.17
653.227	11366.51
653.578	11498.71
653.93	11425.49
654.282	11449.44
654.633	11400.41
654.985	11455.55
655.337	11458.71
655.688	11473.62
656.039	11433.85
656.391	11399.05
656.742	11444.02
657.094	11452.61
657.445	11526.96
657.796	11417.13
658.147	11403.8
658.498	11422.1
658.849	11476.79
659.2	11344.81
659.551	11388.43
659.902	11452.16
660.253	11424.36
660.604	11473.85
660.955	11455.32
661.306	11442.89
661.656	11488.54
662.007	11505.94
662.358	11485.15
662.708	11401.99
663.059	11512.27
663.409	11464.13
663.76	11474.53
664.11	11528.76
664.461	11517.24
664.811	11533.96
665.161	11499.84
665.511	11486.51
665.862	11521.08
666.212	11520.63
666.562	11559.05
666.912	11528.54
667.262	11466.17
667.612	11530.8
667.962	11474.53
668.312	11511.14
668.662	11530.12
669.011	11503.45
669.361	11476.11
669.711	11419.84
670.06	11433.17
670.41	11431.82
670.76	11430.24
671.109	11444.02
671.459	11433.17
671.808	11414.19
672.157	11420.07
672.507	11346.4
672.856	11361.09
673.205	11418.49
673.554	11384.36
673.904	11365.15
674.253	11431.37
674.602	11467.98
674.951	11153.41
675.3	11140.75
675.649	11364.02
675.998	11345.94
676.346	11361.76
676.695	11435.21
677.044	11271.37
677.393	11300.97
677.741	11271.37
678.09	11274.31
678.438	11263.46
678.787	11267.53
679.135	11192.05
679.484	11146.63
679.832	11281.09
680.181	11180.75
680.529	11124.93
680.877	11111.83
681.225	11174.42
681.573	11176.23
681.922	10981.21
682.27	11082.22
682.618	11033.64
682.966	11036.57
683.314	11064.14
683.661	10971.49
684.009	10898.72
684.357	11011.04
684.705	10891.95
685.053	10903.02
685.4	10871.38
685.748	10830.25
686.095	10810.14
686.443	10799.07
686.79	10734.21
687.138	10782.34
687.485	10792.51
687.832	10733.76
688.18	10660.99
688.527	10692.4
688.874	10653.76
689.221	10583.93
689.568	10628
689.915	10568.79
690.262	10583.03
690.609	10537.38
690.956	10445.86
691.303	10473.65
691.65	10408.34
691.997	10456.02
692.344	10396.59
692.69	10402.24
693.037	10355.46
693.383	10251.28
693.73	10236.37
694.077	10134.9
694.423	10302.36
694.769	10119.76
695.116	10135.13
695.462	10111.85
695.808	10103.94
696.155	10098.07
696.501	9987.11
696.847	10024.85
697.193	9836.38
697.539	9896.27
697.885	9884.97
698.231	9793.44
698.577	9799.09
698.923	9790.51
699.269	9750.51
699.614	9644.29
699.96	9674.58
700.306	9673.67
700.651	9600.45
700.997	9587.35
701.342	9555.48
701.688	9526.56
702.033	9517.97
702.379	9459.21
702.724	9418.76
703.069	9447.69
703.415	9320.01
703.76	9326.34
704.105	9293.34
704.45	9257.19
704.795	9283.85
705.14	9188.49
705.485	9209.5
705.83	9165.89
706.175	9176.28
706.52	9147.36
706.865	9100.35
707.209	9043.63
707.554	9063.97
707.899	9071.88
708.243	8895.16
708.588	9016.74
708.932	8927.03
709.277	8931.54
709.621	8922.96
709.966	8823.3
710.31	8876.41
710.654	8768.84
710.998	8783.53
711.342	8760.25
711.687	8774.71
712.031	8743.75
712.375	8639.35
712.719	8693.13
713.063	8685.68
713.407	8650.2
713.75	8631.21
714.094	8636.41
714.438	8586.02
714.782	8626.47
715.125	8565.9
715.469	8588.28
715.812	8532.01
716.156	8513.48
716.499	8490.43
716.843	8553.25
717.186	8521.16
717.53	8436.19
717.873	8523.65
718.216	8470.31
718.559	8431.44
718.902	8380.37
719.246	8372.24
719.589	8379.02
719.932	8321.39
720.275	8375.63
720.617	8360.71
720.96	8362.75
721.303	8384.89
721.646	8368.62
721.989	8285.46
722.331	8339.92
722.674	8336.98
723.016	8313.03
723.359	8274.61
723.701	8269.64
724.044	8253.14
724.386	8170.66
724.729	8237.1
725.071	8234.84
725.413	8196.65
725.755	8244.56
726.097	8151
726.439	8134.5
726.782	8160.27
727.124	8141.28
727.465	8179.47
727.807	8161.4
728.149	8159.14
728.491	8138.8
728.833	8182.64
729.175	8132.02
729.516	8147.61
729.858	8111.23
730.199	8123.2
730.541	8087.05
730.882	8083.21
731.224	8144.45
731.565	8036.65
731.906	8134.5
732.248	8125.92
732.589	8152.81
732.93	8053.83
733.271	8068.29
733.612	8118.46
733.953	8106.26
734.294	8056.99
734.635	8076.88
734.976	8104
735.317	8047.5
735.658	8025.35
735.999	8049.08
736.339	8035.07
736.68	8159.36
737.021	8111.68
737.361	8059.48
737.702	8148.74
738.042	8114.17
738.383	8146.71
738.723	8090.21
739.063	8072.36
739.404	8160.49
739.744	8092.02
740.084	8073.94
740.424	8156.42
740.764	8144.22
741.104	8202.75
741.444	8134.96
741.784	8140.38
742.124	8210.43
742.464	8204.11
742.804	8159.36
743.143	8228.06
743.483	8261.73
743.823	8220.6
744.162	8315.52
744.502	8376.53
744.841	8359.13
745.181	8399.58
745.52	8426.7
745.86	8432.8
746.199	8413.14
746.538	8492.69
746.877	8584.44
747.216	8628.5
747.556	8565.9
747.895	8673.25
748.234	8684.32
748.573	8732.45
748.911	8804.99
749.25	8872.34
749.589	8892
749.928	8970.64
750.267	9033.01
750.605	9109.39
750.944	9168.83
751.283	9169.73
751.621	9267.36
751.96	9315.49
752.298	9463.06
752.636	9522.94
752.975	9602.49
753.313	9676.61
753.651	9737.63
753.989	9854.68
754.327	9894.68
754.666	10028.92
755.004	10064.4
755.342	10231.4
755.679	10331.28
756.017	10459.64
756.355	10565.85
756.693	10734.66
757.031	10839.07
757.368	10950.47
757.706	11042.68
758.044	11253.52
758.381	11327.41
758.719	11497.35
759.056	11715.65
759.394	11791.58
759.731	11883.56
760.068	12109.77
760.405	12171.46
760.743	12323.55
761.08	12571.9
761.417	12631.56
761.754	12780.94
762.091	13042.62
762.428	13154.03
762.765	13229.96
763.102	13410.75
763.438	13546.56
763.775	13743.4
764.112	13878.31
764.449	14069.49
764.785	14161.46
765.122	14321.23
765.458	14392.87
765.795	14514.9
766.131	14791.96
766.467	14844.61
766.804	14898.62
767.14	15015.45
767.476	15252.06
767.812	15310.59
768.148	15496.8
768.485	15590.8
768.821	15699.05
769.157	15765.94
769.492	15949.67
769.828	16138.36
770.164	16012.94
770.5	16266.04
770.836	16281.41
771.171	16303.33
771.507	16460.84
771.842	16485.92
772.178	16670.32
772.513	16739.93
772.849	16858.12
773.184	16873.71
773.519	17014.04
773.855	17033.48
774.19	17197.32
774.525	17154.15
774.86	17239.12
775.195	17315.96
775.53	17336.07
775.865	17301.04
776.2	17331.78
776.535	17342.62
776.87	17427.37
777.205	17457.2
777.539	17381.49
777.874	17550.3
778.209	17468.27
778.543	17534.26
778.878	17475.27
779.212	17566.35
779.547	17567.02
779.881	17615.16
780.215	17667.59
780.55	17729.73
780.884	17527.48
781.218	17675.04
781.552	17722.05
781.886	17621.26
782.22	17560.24
782.554	17592.56
782.888	17537.87
783.222	17490.19
783.556	17517.76
783.889	17527.48
784.223	17514.82
784.557	17544.65
784.89	17581.94
785.224	17504.65
785.557	17467.37
785.891	17493.35
786.224	17471.66
786.558	17469.85
786.891	17388.72
787.224	17395.96
787.557	17366.8
787.891	17414.26
788.224	17355.96
788.557	17282.96
788.89	17340.59
789.223	17348.95
789.556	17284.55
789.888	17378.33
790.221	17235.51
790.554	17139.92
790.887	17173.59
791.219	17133.14
791.552	17122.52
791.884	17106.25
792.217	16987.38
792.549	17039.81
792.882	16977.66
793.214	16950.99
793.546	16998.45
793.879	16804.33
794.211	16728.4
794.543	16772.24
794.875	16693.83
795.207	16844.56
795.539	16754.62
795.871	16677.33
796.203	16607.05
796.535	16494.74
796.867	16560.27
797.198	16515.53
797.53	16520.72
797.862	16460.61
798.193	16449.31
798.525	16387.17
798.856	16404.79
799.188	16168.19
799.519	16227.62
799.85	16188.08
800.182	16096.55
800.513	16177.91
800.844	15956.9
801.175	16071.24
801.506	16073.05
801.837	15940.17
802.168	15982.66
802.499	15966.61
802.83	15891.14
803.161	15832.61
803.491	15850.68
803.822	15805.26
804.153	15665.61
804.483	15646.85
804.814	15633.29
805.145	15556.46
805.475	15582.67
805.805	15631.03
806.136	15506.74
806.466	15547.64
806.796	15498.38
807.126	15406.85
807.457	15392.39
807.787	15387.65
808.117	15288.44
808.447	15247.08
808.777	15245.73
809.107	15314.88
809.436	15154.88
809.766	15144.26
810.096	15081.89
810.426	15149.46
810.755	15067.43
811.085	15112.85
811.414	14980.2
811.744	14944.27
812.073	14934.1
812.403	14874.89
812.732	14768.45
813.061	14779.3
813.39	14723.26
813.719	14709.92
814.049	14786.76
814.378	14696.14
814.707	14685.07
815.036	14698.85
815.365	14620.21
815.693	14412.53
816.022	14494.11
816.351	14505.18
816.68	14499.99
817.008	14472.19
817.337	14252.99
817.665	14327.79
817.994	14344.51
818.322	14337.5
818.651	14315.81
818.979	14284.17
819.307	14349.26
819.636	14270.39
819.964	14229.26
820.292	14259.77
820.62	14192.42
820.948	14180.22
821.276	14289.14
821.604	14156.04
821.932	14263.61
822.259	14219.99
822.587	14085.08
822.915	14081.47
823.243	14224.29
823.57	14069.04
823.898	14190.16
824.225	14089.83
824.553	14129.37
824.88	14087.34
825.207	14133.22
825.535	14119.88
825.862	14224.96
826.189	14101.13
826.516	14175.93
826.843	14229.94
827.17	14199.65
827.497	14151.52
827.824	14181.58
828.151	14253.44
828.478	14184.97
828.805	14329.37
829.131	14191.07
829.458	14128.02
829.785	14076.49
830.111	14140.22
830.438	14239.88
830.764	14169.37
831.09	14102.03
831.417	14041.92
831.743	14193.33
832.069	14130.5
832.395	14106.32
832.722	14155.14
833.048	14115.14
833.374	14112.2
833.7	14110.39
834.026	14043.5
834.351	14092.77
834.677	14077.4
835.003	14066.1
835.329	14085.08
835.654	14068.81
835.98	13976.16
836.306	13979.77
836.631	13926.89
836.956	13994.91
837.282	13953.33
837.607	13939.32
837.932	13927.12
838.258	13881.92
838.583	13865.88
838.908	13746.11
839.233	13803.51
839.558	13749.05
839.883	13749.95
840.208	13694.13
840.533	13670.63
840.858	13718.09
841.182	13643.29
841.507	13688.71
841.832	13638.99
842.156	13621.82
842.481	13605.09
842.805	13572.1
843.13	13475.83
843.454	13463.63
843.778	13450.52
844.103	13373.91
844.427	13289.4
844.751	13333.69
845.075	13274.26
845.399	13284.65
845.723	13200.36
846.047	13256.4
846.371	13098.21
846.695	13172.79
847.019	13029.52
847.343	13002.17
847.666	12926.47
847.99	12890.31
848.313	12842.4
848.637	12765.79
848.96	12710.65
849.284	12623.2
849.607	12580.49
849.931	12625.23
850.254	12614.84
850.577	12439.02
850.9	12388.86
851.223	12420.72
851.546	12342.08
851.869	12264.79
852.192	12224.57
852.515	12154.51
852.838	12119.03
853.161	12086.72
853.483	11985.02
853.806	12062.54
854.129	11926.04
854.451	11896.89
854.774	11845.14
855.096	11828.42
855.419	11797.46
855.741	11792.49
856.063	11694.41
856.385	11700.51
856.708	11693.73
857.03	11559.95
857.352	11646.95
857.674	11653.06
857.996	11558.59
858.318	11431.37
858.64	11438.6
858.961	11447.64
859.283	11515.21
859.605	11379.16
859.926	11376.68
860.248	11280.64
860.57	11302.33
860.891	11266.62
861.212	11218.94
861.534	11140.98
861.855	11109.79
862.176	11200.64
862.498	11195.67
862.819	11126.29
863.14	11133.07
863.461	11114.54
863.782	11019.63
864.103	11056.23
864.424	11053.97
864.745	11036.57
865.065	10913.64
865.386	10958.84
865.707	10871.83
866.027	10905.28
866.348	10797.71
866.668	10897.59
866.989	10845.39
867.309	10815.11
867.63	10818.73
867.95	10818.95
868.27	10684.27
868.59	10748.22
868.91	10712.06
869.23	10708.22
869.55	10679.07
869.87	10758.39
870.19	10689.24
870.51	10709.13
870.83	10648.79
871.15	10586.42
871.469	10628.45
871.789	10633.19
872.109	10628.22
872.428	10503.48
872.748	10560.88
873.067	10519.75
873.386	10527.44
873.706	10502.35
874.025	10398.17
874.344	10443.37
874.663	10357.5
874.982	10388.68
875.301	10385.97
875.62	10312.53
875.939	10325.86
876.258	10348.23
876.577	10302.58
876.896	10361.11
877.214	10319.3
877.533	10329.93
877.852	10262.13
878.17	10209.25
878.489	10236.82
878.807	10224.17
879.125	10198.4
879.444	10185.75
879.762	10122.7
880.08	10161.12
880.398	10113.66
880.716	10136.94
881.034	10134.45
881.352	10105.53
881.67	10008.13
881.988	10009.71
882.306	10047.22
882.624	9997.28
882.941	9972.2
883.259	9898.75
883.577	9929.26
883.894	9877.73
884.212	9871.41
884.529	9832.76
884.846	9819.43
885.164	9784.4
885.481	9738.08
885.798	9700.56
886.115	9686.55
886.432	9724.07
886.75	9725.65
887.067	9676.38
887.383	9628.93
887.7	9694.91
888.017	9588.02
888.334	9613.33
888.651	9578.99
888.967	9523.39
889.284	9480.46
889.6	9494.92
889.917	9407.24
890.233	9431.87
890.55	9450.85
890.866	9361.14
891.182	9329.27
891.498	9219.9
891.815	9231.88
892.131	9192.33
892.447	9274.59
892.763	9114.82
893.079	9162.05
893.395	9184.42
893.71	9079.79
894.026	9084.31
894.342	9093.35
894.657	9001.83
894.973	8933.35
895.289	8941.94
895.604	8898.55
895.92	8910.08
896.235	8823.75
896.55	8830.98
896.865	8849.06
897.181	8786.92
897.496	8748.5
897.811	8718.44
898.126	8699.91
898.441	8697.2
898.756	8620.37
899.071	8609.52
899.386	8650.2
899.7	8499.24
900.015	8511.89
900.33	8409.98
900.644	8392.8
900.959	8471.22
901.273	8362.07
901.588	8416.76
901.902	8318.45
902.216	8258.79
902.531	8292.47
902.845	8311.9
903.159	8223.31
903.473	8192.13
903.787	8144.9
904.101	8115.3
904.415	8069.19
904.729	8073.94
905.042	8051.12
905.356	7936.32
905.67	8025.13
905.984	7984
906.297	8014.73
906.611	7890.89
906.924	7869.2
907.237	7747.85
907.551	7756.43
907.864	7742.2
908.177	7745.81
908.491	7656.32
908.804	7709.66
909.117	7622.65
909.43	7514.86
909.743	7469.44
910.056	7477.12
910.368	7453.84
910.681	7440.51
910.994	7458.36
911.307	7402.77
911.619	7325.03
911.932	7342.21
912.244	7316.45
912.557	7309.67
912.869	7244.81
913.181	7166.17
913.494	7163.23
913.806	7127.07
914.118	7197.35
914.43	7062.22
914.742	7068.77
915.054	7038.26
915.366	7029.22
915.678	7005.04
915.99	6965.95
916.302	6913.29
916.613	6892.73
916.925	6863.58
917.236	6869.45
917.548	6781.32
917.859	6856.57
918.171	6731.6
918.482	6733.18
918.794	6676.46
919.105	6696.35
919.416	6685.05
919.727	6640.98
920.038	6647.31
920.349	6551.72
920.66	6490.93
920.971	6538.61
921.282	6599.4
921.593	6493.87
921.903	6427.43
922.214	6443.7
922.525	6382.69
922.835	6349.24
923.146	6320.99
923.456	6342.23
923.767	6264.95
924.077	6258.85
924.387	6256.36
924.697	6204.84
925.008	6154.89
925.318	6178.17
925.628	6173.65
925.938	6128.23
926.248	6056.59
926.558	6043.94
926.867	6071.51
927.177	6012.98
927.487	5981.34
927.796	5938.63
928.106	5913.77
928.416	5920.55
928.725	5903.6
929.034	5819.31
929.344	5875.58
929.653	5820.89
929.962	5819.31
930.271	5762.36
930.581	5745.19
930.89	5702.7
931.199	5707.9
931.508	5698.41
931.817	5707
932.125	5604.85
932.434	5602.14
932.743	5522.59
933.051	5558.75
933.36	5557.85
933.669	5476.27
933.977	5512.43
934.286	5499.77
934.594	5493.22
934.902	5406.21
935.21	5391.75
935.519	5382.71
935.827	5370.28
936.135	5361.47
936.443	5316.95
936.751	5286.67
937.059	5276.05
937.367	5246.67
937.674	5250.96
937.982	5231.3
938.29	5183.39
938.597	5169.38
938.905	5112.21
939.213	5096.84
939.52	5095.94
939.827	5083.28
940.135	5090.97
940.442	5040.12
940.749	5010.74
941.056	5014.81
941.363	4946.11
941.67	4924.64
941.977	4894.36
942.284	4860.24
942.591	4870.63
942.898	4853.69
943.205	4842.16
943.511	4805.33
943.818	4822.95
944.125	4744.99
944.431	4751.99
944.738	4760.58
945.044	4705.89
945.35	4735.5
945.657	4625.67
945.963	4624.77
946.269	4615.73
946.575	4605.1
946.881	4606.91
947.187	4580.92
947.493	4538.89
947.799	4537.99
948.105	4509.29
948.41	4493.24
948.716	4511.77
949.022	4410.76
949.327	4454.37
949.633	4402.17
949.938	4424.32
950.244	4388.39
950.549	4350.65
950.854	4370.08
951.16	4336.19
951.465	4336.19
951.77	4272.23
952.075	4274.94
952.38	4246.47
952.685	4248.28
952.99	4171.67
953.294	4178.68
953.599	4183.2
953.904	4176.64
954.209	4176.87
954.513	4127.6
954.818	4097.77
955.122	4100.71
955.426	4095.74
955.731	4047.83
956.035	4030.66
956.339	4022.75
956.643	4010.32
956.948	3960.6
957.252	3982.3
957.556	3971.9
957.86	3911.11
958.163	3950.21
958.467	3933.26
958.771	3861.85
959.075	3883.99
959.378	3814.17
959.682	3854.62
959.985	3808.29
960.289	3843.54
960.592	3765.35
960.896	3811.45
961.199	3763.55
961.502	3743.43
961.805	3704.11
962.108	3689.2
962.411	3700.95
962.714	3701.63
963.017	3677.45
963.32	3645.58
963.623	3594.06
963.926	3611.01
964.228	3640.16
964.531	3625.92
964.833	3592.7
965.136	3540.05
965.438	3554.74
965.741	3557.22
966.043	3528.75
966.345	3517.68
966.648	3506.6
966.95	3500.5
967.252	3418.92
967.554	3426.38
967.856	3417.79
968.158	3370.11
968.46	3392.71
968.761	3343.9
969.063	3344.57
969.365	3398.13
969.666	3343.22
969.968	3313.61
970.269	3309.32
970.571	3286.27
970.872	3295.76
971.174	3251.24
971.475	3261.19
971.776	3187.52
972.077	3199.72
972.378	3195.2
972.679	3190.9
972.98	3193.16
973.281	3162.43
973.582	3135.09
973.883	3172.15
974.183	3142.32
974.484	3125.37
974.785	3117.23
975.085	3100.29
975.386	3060.06
975.686	3078.59
975.986	3051.7
976.287	3010.34
976.587	3004.92
976.887	3004.47
977.187	2996.56
977.487	3002.66
977.787	2956.11
978.087	2954.75
978.387	2966.05
978.687	2942.32
978.987	2942.78
979.286	2875.21
979.586	2870.69
979.885	2877.01
980.185	2846.73
980.484	2816.45
980.784	2821.42
981.083	2834.53
981.382	2797.47
981.682	2753.4
981.981	2759.5
982.28	2762.67
982.579	2731.48
982.878	2742.56
983.177	2713.63
983.475	2731.93
983.774	2705.72
984.073	2716.34
984.372	2686.96
984.67	2679.96
984.969	2671.14
985.267	2659.17
985.566	2668.66
985.864	2615.55
986.162	2606.29
986.461	2593.63
986.759	2625.5
987.057	2568.1
987.355	2541.88
987.653	2552.73
987.951	2541.43
988.249	2540.75
988.547	2517.02
988.844	2492.62
989.142	2522.67
989.44	2497.82
989.737	2470.7
990.035	2471.38
990.332	2497.82
990.63	2446.52
990.927	2437.25
991.224	2401.32
991.521	2428.44
991.819	2404.26
992.116	2367.42
992.413	2395.9
992.71	2378.27
993.006	2359.29
993.303	2355.67
993.6	2338.27
993.897	2329.68
994.193	2326.75
994.49	2335.79
994.787	2310.25
995.083	2280.65
995.379	2286.97
995.676	2240.87
995.972	2245.62
996.268	2228.44
996.565	2180.54
996.861	2202
997.157	2190.93
997.453	2197.71
997.749	2173.3
998.044	2168.11
998.34	2157.26
998.636	2124.27
998.932	2151.38
999.227	2135.34
999.523	2127.88
999.818	2114.32
1000.114	2065.74
1000.409	2106.41
1000.704	2098.5
1001	2034.55
1001.295	2041.1
1001.59	2047.88
1001.885	2034.78
1002.18	2017.83
1002.475	2019.18
1002.77	2015.12
1003.065	1989.81
1003.359	1982.57
1003.654	1964.72
1003.949	1955.68
1004.243	1934.67
1004.538	1930.15
1004.832	1974.89
1005.127	1903.93
1005.421	1883.82
1005.715	1895.8
1006.009	1842.69
1006.304	1863.93
1006.598	1845.86
1006.892	1846.99
1007.186	1803.82
1007.48	1826.87
1007.773	1804.5
1008.067	1768.12
1008.361	1765.18
1008.655	1813.99
1008.948	1751.17
1009.242	1764.28
1009.535	1749.59
1009.829	1729.7
1010.122	1712.75
1010.415	1707.78
1010.708	1716.59
1011.001	1721.79
1011.295	1723.6
1011.588	1695.35
1011.881	1682.92
1012.173	1691.28
1012.466	1652.19
1012.759	1641.12
1013.052	1635.47
1013.344	1634.56
1013.637	1609.48
1013.93	1593.21
1014.222	1581.46
1014.514	1597.73
1014.807	1586.2
1015.099	1593.21
1015.391	1585.75
1015.683	1585.98
1015.976	1563.6
1016.268	1526.99
1016.56	1540.33
1016.851	1517.95
1017.143	1532.64
1017.435	1493.32
1017.727	1490.16
1018.018	1498.29
1018.31	1456.71
1018.602	1494.9
1018.893	1457.84
1019.185	1447.9
1019.476	1438.41
1019.767	1433.21
1020.058	1427.79
1020.35	1412.19
1020.641	1392.31
1020.932	1388.47
1021.223	1404.06
1021.514	1355.92
1021.804	1341.24
1022.095	1336.26
1022.386	1359.31
1022.677	1315.7
1022.967	1291.29
1023.258	1305.76
1023.548	1324.06
1023.839	1305.76
1024.129	1288.36
1024.419	1268.7
1024.709	1258.3
1025	1272.99
1025.29	1277.06
1025.58	1264.85
1025.87	1244.74
1026.16	1224.63
1026.449	1236.83
1026.739	1219.43
1027.029	1221.47
1027.319	1231.18
1027.608	1212.65
1027.898	1173.56
1028.187	1188.47
1028.477	1168.81
1028.766	1148.7
1029.055	1174.91
1029.344	1147.34
1029.634	1154.12
1029.923	1135.14
1030.212	1126.78
1030.501	1134.24
1030.79	1103.05
1031.078	1136.27
1031.367	1118.19
1031.656	1073.22
1031.945	1086.33
1032.233	1094.01
1032.522	1058.98
1032.81	1059.89
1033.099	1063.05
1033.387	1067.12
1033.675	1045.65
1033.963	1049.04
1034.251	1018.31
1034.54	1022.15
1034.828	1018.31
1035.116	1022.37
1035.403	1002.49
1035.691	1009.49
1035.979	1020.57
1036.267	987.57
1036.554	996.39
1036.842	971.3
1037.129	993.9
1037.417	964.07
1037.704	953
1037.992	929.27
1038.279	940.34
1038.566	906.45
1038.853	906.45
1039.14	906.45
