Data from hue_90_FLMS001491_33.txt Node
Date: Mon Feb 06 15:25:02 GMT 2017
User: dcchb
Spectrometer: FLMS00149
Trigger mode: 0
Integration Time (sec): 2.000000E-2
Scans to average: 10
Electric dark correction enabled: true
Nonlinearity correction enabled: false
Boxcar width: 0
XAxis mode: Wavelengths
Number of Pixels in Spectrum: 2048
>>>>>Begin Spectral Data<<<<<
341.393	-13.42
341.776	-13.42
342.16	-13.42
342.543	-67.2
342.927	-62.46
343.31	-61.33
343.693	-77.82
344.077	-66.75
344.46	-59.52
344.843	-40.76
345.226	-41.67
345.61	-43.7
345.993	-19.97
346.376	-6.64
346.759	13.7
347.142	2.85
347.525	36.3
347.908	62.06
348.291	77.2
348.674	103.64
349.057	122.4
349.44	131.44
349.823	150.65
350.206	149.74
350.588	202.62
350.971	207.59
351.354	246.46
351.737	240.59
352.119	226.8
352.502	269.74
352.884	289.85
353.267	280.81
353.65	294.14
354.032	284.88
354.414	306.57
354.797	302.73
355.179	322.84
355.562	308.61
355.944	327.36
356.326	343.64
356.709	343.86
357.091	318.78
357.473	347.02
357.855	354.93
358.238	352.22
358.62	335.73
359.002	326.69
359.384	341.83
359.766	343.18
360.148	337.31
360.53	361.94
360.912	326.69
361.294	323.3
361.676	327.14
362.057	350.87
362.439	347.25
362.821	329.62
363.203	351.32
363.584	321.04
363.966	328.95
364.348	343.86
364.729	323.3
365.111	315.61
365.493	335.5
365.874	327.14
366.256	321.26
366.637	312.9
367.019	326.01
367.4	301.83
367.781	306.12
368.163	303.18
368.544	323.97
368.925	288.27
369.306	320.81
369.688	324.2
370.069	316.97
370.45	330.3
370.831	321.04
371.212	322.62
371.593	324.65
371.974	324.2
372.355	333.47
372.736	323.52
373.117	327.36
373.498	346.57
373.879	315.39
374.26	309.51
374.641	297.76
375.021	323.75
375.402	314.94
375.783	323.3
376.163	327.36
376.544	351.54
376.925	327.82
377.305	319
377.686	330.08
378.066	327.59
378.447	338.44
378.827	336.86
379.208	340.02
379.588	340.7
379.968	348.83
380.349	347.25
380.729	343.18
381.109	346.57
381.489	349.06
381.87	368.49
382.25	346.35
382.63	355.16
383.01	355.84
383.39	352
383.77	353.58
384.15	332.56
384.53	363.52
384.91	341.38
385.29	356.74
385.67	376.85
386.049	388.15
386.429	361.94
386.809	377.98
387.189	383.41
387.568	379.11
387.948	379.34
388.328	387.25
388.707	368.95
389.087	376.4
389.466	368.49
389.846	372.56
390.225	369.4
390.605	355.61
390.984	379.11
391.363	363.97
391.743	400.81
392.122	403.07
392.501	399.45
392.881	377.76
393.26	369.4
393.639	400.81
394.018	397.64
394.397	404.42
394.776	401.26
395.155	404.88
395.534	407.14
395.913	381.6
396.292	402.39
396.671	402.62
397.05	403.52
397.429	400.36
397.808	399
398.186	429.06
398.565	408.49
398.944	398.55
399.323	426.12
399.701	431.77
400.08	417.31
400.458	432.67
400.837	449.17
401.215	429.96
401.594	407.14
401.972	429.96
402.351	437.64
402.729	431.54
403.107	429.96
403.486	420.92
403.864	430.41
404.242	428.38
404.62	443.29
404.999	461.15
405.377	434.71
405.755	453.69
406.133	446.23
406.511	457.76
406.889	471.54
407.267	470.64
407.645	472.22
408.023	464.54
408.401	511.09
408.779	490.75
409.156	474.48
409.534	470.19
409.912	474.93
410.29	497.53
410.667	515.83
411.045	475.61
411.422	499.11
411.8	493.24
412.178	509.73
412.555	516.51
412.933	490.75
413.31	512.22
413.687	490.52
414.065	501.82
414.442	540.24
414.819	541.6
415.197	509.73
415.574	523.52
415.951	535.72
416.328	536.4
416.705	546.79
417.082	540.24
417.46	529.39
417.837	546.79
418.214	578.21
418.591	569.62
418.967	584.08
419.344	561.26
419.721	587.02
420.098	569.17
420.475	587.02
420.852	591.09
421.228	565.32
421.605	594.25
421.982	595.15
422.358	592.89
422.735	578.66
423.111	596.28
423.488	602.84
423.864	626.11
424.241	620.69
424.617	635.6
424.994	635.38
425.37	634.25
425.746	650.75
426.123	641.93
426.499	629.73
426.875	652.78
427.251	655.72
427.627	705.89
428.003	683.74
428.379	688.94
428.756	694.81
429.132	678.99
429.507	706.34
429.883	714.7
430.259	698.43
430.635	725.09
431.011	710.41
431.387	723.51
431.763	741.36
432.138	731.42
432.514	749.95
432.89	742.49
433.265	751.53
433.641	743.62
434.016	792.66
434.392	776.39
434.767	793.79
435.143	792.66
435.518	794.47
435.894	804.87
436.269	822.04
436.644	834.24
437.02	820.68
437.395	817.52
437.77	846.9
438.145	840.35
438.52	835.37
438.895	867.24
439.271	845.09
439.646	878.08
440.021	880.12
440.395	891.19
440.77	878.08
441.145	891.19
441.52	919.21
441.895	904.52
442.27	940.23
442.645	930.29
443.019	932.09
443.394	960.12
443.769	941.13
444.143	946.78
444.518	967.8
444.892	952.43
445.267	973.67
445.641	987.69
446.016	960.57
446.39	985.65
446.764	957.63
447.139	963.28
447.513	1005.99
447.887	975.71
448.262	1014.58
448.636	1002.15
449.01	1013
449.384	1030.85
449.758	1029.72
450.132	1054.8
450.506	1056.61
450.88	1066.55
451.254	1067.68
451.628	1087.12
452.002	1089.38
452.376	1124.41
452.75	1110.17
453.123	1120.11
453.497	1149.72
453.871	1129.15
454.244	1160.79
454.618	1163.73
454.992	1203.95
455.365	1197.4
455.739	1205.99
456.112	1201.01
456.486	1221.58
456.859	1272.2
457.232	1261.35
457.606	1244.4
457.979	1294.57
458.352	1297.96
458.725	1321.69
459.099	1333.67
459.472	1378.41
459.845	1382.48
460.218	1376.6
460.591	1382.03
460.964	1399.43
461.337	1452.76
461.71	1450.05
462.083	1466.32
462.456	1462.25
462.829	1488.01
463.201	1513.1
463.574	1532.76
463.947	1554.22
464.32	1598.07
464.692	1611.62
465.065	1628.8
465.438	1627.9
465.81	1658.63
466.183	1721.9
466.555	1725.75
466.928	1772.75
467.3	1764.84
467.672	1798.06
468.045	1846.19
468.417	1858.62
468.789	1854.1
469.161	1873.31
469.534	1955.12
469.906	1998.05
470.278	1968.9
470.65	2008.22
471.022	2052.97
471.394	2117.83
471.766	2134.32
472.138	2160.76
472.51	2251.83
472.882	2265.62
473.253	2341.32
473.625	2364.37
473.997	2444.37
474.369	2486.86
474.74	2522.33
475.112	2599.17
475.484	2610.24
475.855	2729.56
476.227	2766.4
476.598	2799.39
476.97	2882.78
477.341	2963.23
477.713	3041.19
478.084	3105.37
478.455	3178.59
478.827	3279.83
479.198	3388.75
479.569	3400.96
479.94	3542.19
480.311	3678.46
480.682	3725.92
481.053	3830.32
481.424	3989.41
481.795	4012.24
482.166	4145.34
482.537	4284.77
482.908	4406.13
483.279	4469.85
483.65	4604.31
484.021	4745.1
484.391	4884.53
484.762	4951.2
485.133	5107.8
485.503	5143.28
485.874	5328.81
486.244	5487.68
486.615	5584.85
486.985	5735.58
487.356	5907.33
487.726	6028.46
488.097	6217.6
488.467	6304.61
488.837	6548.22
489.207	6657.37
489.578	6873.63
489.948	6991.82
490.318	7130.8
490.688	7232.27
491.058	7408.08
491.428	7575.99
491.798	7756.77
492.168	7951.57
492.538	8091.91
492.908	8267.27
493.278	8440.82
493.648	8457.55
494.017	8697.54
494.387	8797.42
494.757	8964.43
495.126	9147.47
495.496	9243.97
495.866	9463.62
496.235	9590.17
496.605	9748.13
496.974	9868.36
497.344	9951.52
497.713	10087.56
498.082	10189.03
498.452	10436.7
498.821	10509.47
499.19	10635.34
499.559	10804.83
499.928	10887.76
500.298	11018.83
500.667	11191.49
501.036	11176.57
501.405	11355.55
501.774	11411.37
502.143	11522.1
502.512	11668.08
502.88	11849.55
503.249	11804.8
503.618	12011.12
503.987	12056.1
504.356	12174.96
504.724	12324.11
505.093	12297.9
505.462	12412.7
505.83	12567.04
506.199	12639.58
506.567	12913.93
506.936	12870.09
507.304	12978.56
507.672	13093.81
508.041	13131.55
508.409	13225.78
508.777	13323.41
509.145	13402.73
509.514	13430.3
509.882	13525.44
510.25	13535.83
510.618	13635.71
510.986	13669.16
511.354	13872.09
511.722	13865.99
512.09	14025.54
512.458	13976.72
512.826	14152.31
513.193	14120.9
513.561	14223.95
513.929	14277.05
514.297	14413.32
514.664	14409.71
515.032	14430.72
515.4	14595.01
515.767	14568.35
516.135	14646.31
516.502	14548.46
516.869	14821.45
517.237	14756.82
517.604	14687.89
517.972	14949.8
518.339	14922.01
518.706	14976.7
519.073	14995
519.44	15058.28
519.808	15167.88
520.175	15119.52
520.542	15313.41
520.909	15274.09
521.276	15248.55
521.643	15397.7
522.009	15419.85
522.376	15465.5
522.743	15474.99
523.11	15575.32
523.477	15605.61
523.843	15727.64
524.21	15771.48
524.577	15863.23
524.943	15791.36
525.31	15856.22
525.676	15936.67
526.043	16011.92
526.409	15989.55
526.776	16091.92
527.142	16098.7
527.508	16154.97
527.874	16121.75
528.241	16181.18
528.607	16112.49
528.973	16237.91
529.339	16164.01
529.705	16277.45
530.071	16333.05
530.437	16340.05
530.803	16318.81
531.169	16377.56
531.535	16320.62
531.901	16322.88
532.267	16410.11
532.632	16407.39
532.998	16386.6
533.364	16339.82
533.73	16291.01
534.095	16331.92
534.461	16349.99
534.826	16404
535.192	16352.25
535.557	16375.76
535.923	16317
536.288	16278.36
536.653	16254.18
537.019	16162.43
537.384	16296.21
537.749	16280.84
538.114	16208.75
538.479	16095.31
538.845	16223.22
539.21	16149.1
539.575	16132.6
539.94	16064.35
540.305	16120.4
540.67	16063.9
541.034	16021.87
541.399	16051.92
541.764	15994.97
542.129	15975.31
542.494	15926.73
542.858	15947.29
543.223	15856.45
543.587	15928.31
543.952	15751.37
544.316	15772.61
544.681	15731.25
545.045	15763.34
545.41	15734.19
545.774	15630.01
546.138	15620.3
546.503	15628.88
546.867	15585.04
547.231	15686.06
547.595	15604.02
547.959	15575.55
548.324	15550.24
548.688	15540.98
549.052	15457.36
549.416	15439.51
549.779	15395.22
550.143	15429.79
550.507	15408.1
550.871	15378.95
551.235	15307.76
551.599	15349.57
551.962	15244.26
552.326	15244.26
552.689	15297.82
553.053	15217.59
553.417	15157.71
553.78	15392.28
554.143	15112.29
554.507	15213.75
554.87	15181.44
555.234	15252.85
555.597	15101.67
555.96	14998.62
556.323	15152.96
556.686	15124.49
557.05	15166.97
557.413	15160.87
557.776	15065.73
558.139	15201.55
558.502	15100.54
558.865	15035.23
559.228	15133.75
559.59	15148.44
559.953	15088.56
560.316	15178.73
560.679	15171.95
561.041	15192.06
561.404	15296.69
561.767	15398.61
562.129	15099.86
562.492	15277.48
562.854	15191.83
563.217	15215.11
563.579	15224.6
563.941	15260.08
564.304	15279.29
564.666	15354.09
565.028	15284.94
565.39	15294.88
565.753	15299.17
566.115	15396.12
566.477	15458.49
566.839	15452.62
567.201	15410.81
567.563	15465.95
567.925	15484.93
568.287	15443.13
568.648	15482.67
569.01	15477.25
569.372	15643.12
569.734	15517.25
570.095	15595.21
570.457	15587.75
570.819	15599.51
571.18	15584.36
571.542	15668.43
571.903	15670.69
572.265	15763.34
572.626	15703.01
572.987	15673.85
573.349	15808.31
573.71	15764.02
574.071	15803.57
574.432	15787.75
574.794	15886.96
575.155	15859.39
575.516	15916.33
575.877	15800.63
576.238	15791.14
576.599	15885.83
576.96	15851.48
577.32	15951.13
577.681	15919.5
578.042	15977.57
578.403	15795.21
578.763	15891.7
579.124	15903
579.485	16011.25
579.845	15952.94
580.206	16007.4
580.566	15992.72
580.927	15968.08
581.287	16020.28
581.648	15988.87
582.008	15911.14
582.368	15930.8
582.728	15971.7
583.089	15965.6
583.449	15876.11
583.809	15905.71
584.169	15865.94
584.529	15864.36
584.889	16070
585.249	15856
585.609	15857.58
585.969	15920.63
586.329	15937.35
586.688	15830.46
587.048	15761.08
587.408	15805.83
587.768	15823.68
588.127	15809.9
588.487	15741.2
588.846	15836.79
589.206	15703.46
589.565	15687.19
589.925	15846.5
590.284	15787.75
590.643	15757.47
591.003	15798.82
591.362	15797.69
591.721	15725.38
592.08	15792.04
592.44	15815.77
592.799	15839.05
593.158	15728.99
593.517	15719.05
593.876	15832.72
594.235	15701.88
594.593	15751.59
594.952	15760.63
595.311	15665.72
595.67	15749.78
596.029	15733.96
596.387	15769.67
596.746	15741.65
597.104	15590.92
597.463	15737.81
597.822	15723.8
598.18	15692.61
598.538	15673.18
598.897	15756.34
599.255	15584.36
599.613	15761.99
599.972	15652.61
600.33	15744.36
600.688	15697.13
601.046	15707.52
601.404	15749.78
601.762	15638.6
602.12	15875.88
602.478	15738.03
602.836	15699.39
603.194	15647.19
603.552	15713.63
603.91	15690.58
604.268	15730.35
604.625	15658.03
604.983	15664.14
605.341	15609.9
605.698	15693.97
606.056	15759.73
606.413	15703.23
606.771	15760.63
607.128	15717.92
607.485	15674.08
607.843	15845.37
608.2	15865.49
608.557	15957.46
608.914	15798.37
609.272	15781.42
609.629	15833.17
609.986	15817.35
610.343	15908.42
610.7	15942.55
611.057	15846.5
611.414	15804.02
611.771	15914.07
612.127	15856.45
612.484	15935.99
612.841	15934.86
613.198	15933.51
613.554	15972.83
613.911	16004.92
614.267	15951.59
614.624	15983.68
614.98	16065.48
615.337	16076.78
615.693	16105.25
616.05	15952.04
616.406	16187.29
616.762	16030
617.118	15996.56
617.475	16060.28
617.831	16072.04
618.187	16127.17
618.543	16100.06
618.899	16265.25
619.255	16195.42
619.611	16202.2
619.967	16218.02
620.323	16250.56
620.678	16126.27
621.034	16145.93
621.39	16223.67
621.746	16152.48
622.101	16274.06
622.457	16083.33
622.812	16256.44
623.168	16174.63
623.523	16241.07
623.879	16307.96
624.234	16145.03
624.589	16257.57
624.945	16261.63
625.3	16205.36
625.655	16144.35
626.01	16249.66
626.365	16229.77
626.72	16236.32
627.075	16171.47
627.43	16165.14
627.785	16210.11
628.14	16148.42
628.495	16225.7
628.85	16179.83
629.205	16083.56
629.559	16260.05
629.914	16148.64
630.269	16079.94
630.623	16043.11
630.978	16075.2
631.332	16109.55
631.687	16155.2
632.041	16115.65
632.396	16020.74
632.75	16131.02
633.104	15975.99
633.459	15887.41
633.813	15982.32
634.167	15999.72
634.521	15879.72
634.875	15989.78
635.229	15887.63
635.583	15876.33
635.937	15880.4
636.291	15911.59
636.645	15823
636.999	15812.83
637.352	15854.19
637.706	15719.95
638.06	15780.52
638.413	15779.16
638.767	15749.11
639.121	15788.43
639.474	15676.11
639.828	15714.3
640.181	15637.47
640.534	15558.83
640.888	15545.04
641.241	15580.75
641.594	15452.39
641.947	15614.42
642.301	15550.01
642.654	15531.26
643.007	15518.38
643.36	15502.78
643.713	15578.04
644.066	15638.15
644.419	15441.09
644.771	15359.51
645.124	15329
645.477	15304.15
645.83	15167.88
646.182	15055.56
646.535	14973.08
646.888	15077.48
647.24	14964.72
647.593	15116.13
647.945	15013.98
648.298	14936.92
648.65	14945.51
649.002	14881.78
649.355	14900.77
649.707	14939.64
650.059	15048.79
650.411	15133.53
650.763	15153.42
651.115	15288.1
651.467	15296.24
651.819	15277.93
652.171	15365.84
652.523	15204.49
652.875	15258.05
653.227	15246.75
653.578	15362
653.93	15345.27
654.282	15177.37
654.633	15159.97
654.985	15278.38
655.337	15162.45
655.688	15234.77
656.039	15285.39
656.391	15144.83
656.742	15211.72
657.094	15162.68
657.445	15269.34
657.796	15218.05
658.147	15235.9
658.498	15195.22
658.849	15327.87
659.2	15233.19
659.551	15118.16
659.902	15266.18
660.253	15142.34
660.604	15240.42
660.955	15226.63
661.306	15266.41
661.656	15219.63
662.007	15312.51
662.358	15265.28
662.708	15229.12
663.059	15262.11
663.409	15222.11
663.76	15285.84
664.11	15307.76
664.461	15260.3
664.811	15326.97
665.161	15279.97
665.511	15279.74
665.862	15267.54
666.212	15240.42
666.562	15466.4
666.912	15318.16
667.262	15305.73
667.612	15327.42
667.962	15343.92
668.312	15248.78
668.662	15337.82
669.011	15300.3
669.361	15248.1
669.711	15303.69
670.06	15233.86
670.41	15257.14
670.76	15235.67
671.109	15346.4
671.459	15203.13
671.808	15223.24
672.157	15268.67
672.507	15176.24
672.856	15221.21
673.205	15185.73
673.554	15251.94
673.904	15094.66
674.253	15227.31
674.602	15131.04
674.951	14969.47
675.3	14902.12
675.649	15098.05
675.998	15025.73
676.346	15061.89
676.695	15066.19
677.044	15023.25
677.393	15112.74
677.741	15062.34
678.09	15026.19
678.438	15002.46
678.787	15013.98
679.135	14953.19
679.484	14897.15
679.832	14955.23
680.181	14866.87
680.529	14842.46
680.877	14801.79
681.225	14767.44
681.573	14800.66
681.922	14746.42
682.27	14793.2
682.618	14751.39
682.966	14691.96
683.314	14682.24
683.661	14668.91
684.009	14606.54
684.357	14481.34
684.705	14534.22
685.053	14580.77
685.4	14500.32
685.748	14412.64
686.095	14408.35
686.443	14328.35
686.79	14326.32
687.138	14346.43
687.485	14344.62
687.832	14270.05
688.18	14304.4
688.527	14225.53
688.874	14179.2
689.221	14146.89
689.568	14090.84
689.915	14056.72
690.262	14098.3
690.609	14054.69
690.956	13979.66
691.303	13898.31
691.65	13814.02
691.997	13811.08
692.344	13721.36
692.69	13731.31
693.037	13644.98
693.383	13609.27
693.73	13695.37
694.077	13524.53
694.423	13579.9
694.769	13360.24
695.116	13477.3
695.462	13382.61
695.808	13340.36
696.155	13367.7
696.501	13207.03
696.847	13205.44
697.193	13126.58
697.539	13168.61
697.885	13007.03
698.231	12978.78
698.577	13033.24
698.923	12953.7
699.269	12979.46
699.614	12740.15
699.96	12790.99
700.306	12788.05
700.651	12734.04
700.997	12675.51
701.342	12711.45
701.688	12721.84
702.033	12588.74
702.379	12548.29
702.724	12540.15
703.069	12546.03
703.415	12332.92
703.76	12454.28
704.105	12357.56
704.45	12349.42
704.795	12254.96
705.14	12150.33
705.485	12197.79
705.83	11989.88
706.175	12029.88
706.52	12066.26
706.865	12002.76
707.209	11973.39
707.554	11932.03
707.899	11940.84
708.243	11870.34
708.588	11827.85
708.932	11770.91
709.277	11741.3
709.621	11735.88
709.966	11631.93
710.31	11789.21
710.654	11599.61
710.998	11705.37
711.342	11702.43
711.687	11586.28
712.031	11494.75
712.375	11511.7
712.719	11513.74
713.063	11538.14
713.407	11555.77
713.75	11417.47
714.094	11461.08
714.438	11416.56
714.782	11387.41
715.125	11350.8
715.469	11379.73
715.812	11291.14
716.156	11239.39
716.499	11308.32
716.843	11208.21
717.186	11220.41
717.53	11235.33
717.873	11247.3
718.216	11169.34
718.559	11071.26
718.902	11099.51
719.246	11123.69
719.589	11074.65
719.932	11010.47
720.275	11031.94
720.617	11118.04
720.96	11009.8
721.303	11005.5
721.646	11044.14
721.989	10949.91
722.331	10980.87
722.674	10920.98
723.016	10924.83
723.359	10925.96
723.701	11035.11
724.044	10846.41
724.386	10801.89
724.729	10873.98
725.071	10893.19
725.413	10811.83
725.755	10856.35
726.097	10812.06
726.439	10712.18
726.782	10754.21
727.124	10857.48
727.465	10724.83
727.807	10807.54
728.149	10766.41
728.491	10773.87
728.833	10790.59
729.175	10709.24
729.516	10757.15
729.858	10754.89
730.199	10760.76
730.541	10667.66
730.882	10716.92
731.224	10755.79
731.565	10704.72
731.906	10709.24
732.248	10681.22
732.589	10619.75
732.93	10665.62
733.271	10568.9
733.612	10714.66
733.953	10655.91
734.294	10741.1
734.635	10625.17
734.976	10641.22
735.317	10620.88
735.658	10706.53
735.999	10654.55
736.339	10608
736.68	10625.62
737.021	10633.53
737.361	10632.18
737.702	10754.66
738.042	10679.18
738.383	10714.44
738.723	10684.61
739.063	10626.3
739.404	10721.67
739.744	10699.52
740.084	10685.06
740.424	10781.55
740.764	10727.32
741.104	10808.44
741.444	10752.17
741.784	10713.53
742.124	10788.56
742.464	10716.92
742.804	10713.98
743.143	10787.2
743.483	10826.75
743.823	10827.65
744.162	10812.51
744.502	10882.34
744.841	10894.54
745.181	10979.06
745.52	10987.87
745.86	11040.75
746.199	10954.88
746.538	11007.76
746.877	11117.14
747.216	11161.88
747.556	11271.26
747.895	11266.06
748.234	11309
748.573	11391.48
748.911	11401.88
749.25	11489.78
749.589	11450.69
749.928	11602.55
750.267	11749.44
750.605	11769.78
750.944	11824.92
751.283	11937.68
751.621	12071.24
751.96	12143.55
752.298	12188.75
752.636	12340.83
752.975	12361.17
753.313	12507.61
753.651	12676.64
753.989	12652.92
754.327	12843.19
754.666	12927.71
755.004	13066.92
755.342	13222.17
755.679	13313.01
756.017	13407.7
756.355	13629.84
756.693	13732.66
757.031	13932.43
757.368	14002.48
757.706	14095.82
758.044	14323.38
758.381	14439.99
758.719	14625.52
759.056	14883.82
759.394	14960.2
759.731	15106.86
760.068	15291.72
760.405	15387.53
760.743	15571.03
761.08	15799.95
761.417	15861.65
761.754	16083.56
762.091	16254.86
762.428	16357.68
762.765	16564
763.102	16761.51
763.438	16847.16
763.775	17032.46
764.112	17264.09
764.449	17367.37
764.785	17479.23
765.122	17600.81
765.458	17711.31
765.795	17995.15
766.131	18092.32
766.467	18292.09
766.804	18382.48
767.14	18434.91
767.476	18657.05
767.812	18720.33
768.148	18952.86
768.485	18897.05
768.821	19111.5
769.157	19329.35
769.492	19350.37
769.828	19595.33
770.164	19586.97
770.5	19646.63
770.836	19860.41
771.171	19856.57
771.507	19885.72
771.842	19926.4
772.178	20158.03
772.513	20104.92
772.849	20282.09
773.184	20270.57
773.519	20312.6
773.855	20440.73
774.19	20483.22
774.525	20547.4
774.86	20681.41
775.195	20776.32
775.53	20690.22
775.865	20768.41
776.2	20579.26
776.535	20653.16
776.87	20805.47
777.205	20921.4
777.539	20873.72
777.874	20990.55
778.209	20843.21
778.543	20831.46
778.878	20869.2
779.212	20907.61
779.547	20886.82
779.881	21018.35
780.215	20935.18
780.55	21028.29
780.884	20989.19
781.218	20935.64
781.552	21042.53
781.886	20962.53
782.22	20864.9
782.554	20880.72
782.888	20760.73
783.222	20793.94
783.556	20787.84
783.889	20781.06
784.223	20658.58
784.557	20656.77
784.89	20739.48
785.224	20638.47
785.557	20687.51
785.891	20635.3
786.224	20609.09
786.558	20728.41
786.891	20499.26
787.224	20526.16
787.557	20508.98
787.891	20426.72
788.224	20553.95
788.557	20493.16
788.89	20322.09
789.223	20475.54
789.556	20259.72
789.888	20337.69
790.221	20290.46
790.554	20268.08
790.887	20195.99
791.219	20080.07
791.552	20108.77
791.884	20123.91
792.217	20040.74
792.549	19977.24
792.882	19812.5
793.214	19798.26
793.546	19859.51
793.879	19718.27
794.211	19624.03
794.543	19766.63
794.875	19663.58
795.207	19797.36
795.539	19516.69
795.871	19614.09
796.203	19404.6
796.535	19425.85
796.867	19354.43
797.198	19374.77
797.53	19309.69
797.862	19187.66
798.193	19261.78
798.525	19130.26
798.856	19151.05
799.188	18999.64
799.519	19008.91
799.85	18924.39
800.182	18880.1
800.513	18904.28
800.844	18830.61
801.175	18825.63
801.506	18715.36
801.837	18672.87
802.168	18698.86
802.499	18636.26
802.83	18577.73
803.161	18493.89
803.491	18567.79
803.822	18580.9
804.153	18412.99
804.483	18296.16
804.814	18190.85
805.145	18249.15
805.475	18196.27
805.805	18127.12
806.136	18204.86
806.466	18139.33
806.796	18070.85
807.126	17956.51
807.457	17918.54
807.787	17918.99
808.117	17823.63
808.447	17777.07
808.777	17837.86
809.107	17684.65
809.436	17707.47
809.766	17651.65
810.096	17664.99
810.426	17599.45
810.755	17616.18
811.085	17596.97
811.414	17588.83
811.744	17407.14
812.073	17259.8
812.403	17393.36
812.732	17281.04
813.061	17214.6
813.39	17210.99
813.719	17147.71
814.049	17220.71
814.378	17207.15
814.707	17160.59
815.036	17049.64
815.365	17024.78
815.693	16862.97
816.022	16965.8
816.351	16860.49
816.68	16742.3
817.008	16863.88
817.337	16679.7
817.665	16721.06
817.994	16764.67
818.322	16718.12
818.651	16596.54
818.979	16588.86
819.307	16621.63
819.636	16650.78
819.964	16466.15
820.292	16575.07
820.62	16485.81
820.948	16498.24
821.276	16496.2
821.604	16486.71
821.932	16493.94
822.259	16485.81
822.587	16457.79
822.915	16488.07
823.243	16507.05
823.57	16446.04
823.898	16416.88
824.225	16422.53
824.553	16345.47
824.88	16466.6
825.207	16393.16
825.535	16478.35
825.862	16388.18
826.189	16391.57
826.516	16470.44
826.843	16492.81
827.17	16473.61
827.497	16521.74
827.824	16423.66
828.151	16569.65
828.478	16482.65
828.805	16527.62
829.131	16378.69
829.458	16407.85
829.785	16326.04
830.111	16442.65
830.438	16510.44
830.764	16484.68
831.09	16441.52
831.417	16338.24
831.743	16443.32
832.069	16358.58
832.395	16384.8
832.722	16437.22
833.048	16303.67
833.374	16371.46
833.7	16264.35
834.026	16349.77
834.351	16338.92
834.677	16264.8
835.003	16331.92
835.329	16331.24
835.654	16337.11
835.98	16276.78
836.306	16268.87
836.631	16191.13
836.956	16294.85
837.282	16195.65
837.607	16202.65
837.932	16167.85
838.258	15991.81
838.583	16050.79
838.908	16029.78
839.233	15918.59
839.558	15971.7
839.883	15835.43
840.208	15937.58
840.533	15913.62
840.858	15993.62
841.182	15930.12
841.507	15887.63
841.832	15743.46
842.156	15792.95
842.481	15755.21
842.805	15667.53
843.13	15603.8
843.454	15601.99
843.778	15654.87
844.103	15521.99
844.427	15616
844.751	15480.64
845.075	15466.4
845.399	15410.36
845.723	15340.3
846.047	15425.05
846.371	15221.44
846.695	15251.27
847.019	15143.7
847.343	15060.08
847.666	14968.56
847.99	15036.13
848.313	14818.51
848.637	14842.91
848.96	14805.4
849.284	14724.5
849.607	14662.35
849.931	14612.64
850.254	14444.28
850.577	14417.39
850.9	14276.38
851.223	14312.53
851.546	14247.45
851.869	14157.28
852.192	14258.3
852.515	14064.4
852.838	14118.41
853.161	14088.58
853.483	13919.78
853.806	13972.2
854.129	13892.88
854.451	13803.62
854.774	13737.41
855.096	13715.49
855.419	13620.8
855.741	13622.83
856.063	13562.95
856.385	13577.64
856.708	13525.44
857.03	13414.7
857.352	13500.35
857.674	13449.73
857.996	13348.04
858.318	13246.12
858.64	13372.44
858.961	13230.75
859.283	13180.81
859.605	13128.84
859.926	13174.03
860.248	13173.35
860.57	13099.46
860.891	13102.4
861.212	12953.02
861.534	12968.84
861.855	12948.73
862.176	12877.77
862.498	12919.35
862.819	12881.84
863.14	12843.42
863.461	12852.46
863.782	12753.93
864.103	12790.31
864.424	12684.55
864.745	12673.93
865.065	12673.93
865.386	12663.09
865.707	12689.98
866.027	12668.51
866.348	12564.1
866.668	12623.09
866.989	12509.42
867.309	12466.03
867.63	12405.69
867.95	12520.26
868.27	12400.04
868.59	12461.28
868.91	12468.51
869.23	12424.9
869.55	12378.35
869.87	12464.45
870.19	12302.64
870.51	12314.39
870.83	12370.89
871.15	12229.2
871.469	12298.35
871.789	12278.69
872.109	12268.52
872.428	12180.39
872.748	12292.93
873.067	12152.14
873.386	12167.96
873.706	12149.88
874.025	12081.63
874.344	12081.63
874.663	12120.5
874.982	12038.69
875.301	12034.18
875.62	12082.08
875.939	12077.79
876.258	11970.45
876.577	11943.1
876.896	11935.19
877.214	11897.46
877.533	11918.7
877.852	11857.46
878.17	11832.82
878.489	11818.36
878.807	11875.54
879.125	11773.39
879.444	11830.34
879.762	11795.76
880.08	11735.65
880.398	11663.34
880.716	11737.46
881.034	11679.83
881.352	11626.95
881.67	11576.79
881.988	11664.02
882.306	11579.95
882.624	11584.02
882.941	11546.28
883.259	11468.31
883.577	11508.77
883.894	11385.83
884.212	11400.75
884.529	11394.64
884.846	11386.06
885.164	11366.62
885.481	11280.3
885.798	11269.45
886.115	11240.75
886.432	11211.82
886.75	11144.93
887.067	11229
887.383	11087.53
887.7	11113.52
888.017	11020.64
888.334	11104.26
888.651	10987.2
888.967	10949.46
889.284	10954.43
889.6	10920.53
889.917	10836.24
890.233	10877.14
890.55	10829.46
890.866	10805.73
891.182	10744.94
891.498	10705.17
891.815	10690.71
892.131	10731.84
892.447	10691.84
892.763	10572.97
893.079	10540.66
893.395	10512.63
893.71	10517.6
894.026	10550.82
894.342	10490.71
894.657	10382.47
894.973	10373.65
895.289	10428.79
895.604	10292.07
895.92	10240.1
896.235	10211.62
896.55	10236.93
896.865	10153.77
897.181	10254.79
897.496	10186.31
897.811	10111.29
898.126	10021.35
898.441	10033.32
898.756	9951.74
899.071	9931.63
899.386	9877.62
899.7	9859.99
900.015	9822.26
900.33	9795.36
900.644	9780
900.959	9728.92
901.273	9715.82
901.588	9588.59
901.902	9664.52
902.216	9530.29
902.531	9521.7
902.845	9525.99
903.159	9466.33
903.473	9395.6
903.787	9384.75
904.101	9357.41
904.415	9365.32
904.729	9325.55
905.042	9173.91
905.356	9191.99
905.67	9229.73
905.984	9201.48
906.297	9134.14
906.611	9057.98
906.924	9055.72
907.237	9009.17
907.551	9020.92
907.864	8912.68
908.177	8869.06
908.491	8859.34
908.804	8779.8
909.117	8810.98
909.43	8768.27
909.743	8658.22
910.056	8683.53
910.368	8662.51
910.681	8562.4
910.994	8555.4
911.307	8487.6
911.619	8473.14
911.932	8499.35
912.244	8451.22
912.557	8421.61
912.869	8384.1
913.181	8354.72
913.494	8266.14
913.806	8237.44
914.118	8224.33
914.43	8193.37
914.742	8156.54
915.054	8048.29
915.366	8081.96
915.678	8087.61
915.99	8009.65
916.302	7861.4
916.613	7949.31
916.925	7957.45
917.236	7875.19
917.548	7843.1
917.859	7858.24
918.171	7762.2
918.482	7766.49
918.794	7763.1
919.105	7744.8
919.416	7621.64
919.727	7622.99
920.038	7565.37
920.349	7561.07
920.66	7582.09
920.971	7521.07
921.282	7504.12
921.593	7421.87
921.903	7418.03
922.214	7410.79
922.525	7387.29
922.835	7293.28
923.146	7331.93
923.456	7278.14
923.767	7248.09
924.077	7235.88
924.387	7186.84
924.697	7127.41
925.008	7110.01
925.318	7122.89
925.628	7080.86
925.938	7045.15
926.248	7022.56
926.558	6956.34
926.867	6925.16
927.177	6953.63
927.487	6910.02
927.796	6851.49
928.106	6791.38
928.416	6833.18
928.725	6813.07
929.034	6705.73
929.344	6756.35
929.653	6686.97
929.962	6649.68
930.271	6644.26
930.581	6594.77
930.89	6593.64
931.199	6551.83
931.508	6526.07
931.817	6497.82
932.125	6501.89
932.434	6455.11
932.743	6362.23
933.051	6390.48
933.36	6336.47
933.669	6326.53
933.977	6315.68
934.286	6250.15
934.594	6268.45
934.902	6291.05
935.21	6158.62
935.519	6185.29
935.827	6201.33
936.135	6108.91
936.443	6083.15
936.751	6088.57
937.059	6088.12
937.367	5973.32
937.674	6013.99
937.982	6025.52
938.29	5919.53
938.597	5932.19
938.905	5837.95
939.213	5816.49
939.52	5818.29
939.827	5803.15
940.135	5787.33
940.442	5766.32
940.749	5710.5
941.056	5800.21
941.363	5707.79
941.67	5672.08
941.977	5637.28
942.284	5618.07
942.591	5611.07
942.898	5563.38
943.205	5532.2
943.511	5510.73
943.818	5465.76
944.125	5490.17
944.431	5416.95
944.738	5417.17
945.044	5347.8
945.35	5343.73
945.657	5372.2
945.963	5350.06
946.269	5225.77
946.575	5272.77
946.881	5263.96
947.187	5254.69
947.493	5197.29
947.799	5201.59
948.105	5164.07
948.41	5119.55
948.716	5147.8
949.022	5106.22
949.327	5066.67
949.633	5031.65
949.938	5062.61
950.244	5016.51
950.549	4990.74
950.854	4970.86
951.16	4983.29
951.465	4887.02
951.77	4949.62
952.075	4869.62
952.38	4840.92
952.685	4851.54
952.99	4842.05
953.294	4822.61
953.599	4762.28
953.904	4797.76
954.209	4751.65
954.513	4747.14
954.818	4720.24
955.122	4639.12
955.426	4638.66
955.731	4645.89
956.035	4599.34
956.339	4585.33
956.643	4595.05
956.948	4543.75
957.252	4535.39
957.556	4531.1
957.86	4531.32
958.163	4500.59
958.467	4454.26
958.771	4473.02
959.075	4448.84
959.378	4395.51
959.682	4379.69
959.985	4342.85
960.289	4338.33
960.592	4287.49
960.896	4295.17
961.199	4294.04
961.502	4301.72
961.805	4248.17
962.108	4270.31
962.411	4220.37
962.714	4164.55
963.017	4183.99
963.32	4194.61
963.623	4125.23
963.926	4094.72
964.228	4121.39
964.531	4102.86
964.833	4065.12
965.136	4019.92
965.438	4023.99
965.741	4020.6
966.043	4025.8
966.345	3961.39
966.648	3983.09
966.95	3957.33
967.252	3933.6
967.554	3899.93
967.856	3903.32
968.158	3849.76
968.46	3905.12
968.761	3829.42
969.063	3810.66
969.365	3847.27
969.666	3804.79
969.968	3740.61
970.269	3747.39
970.571	3762.53
970.872	3790.78
971.174	3682.98
971.475	3703.32
971.776	3659.93
972.077	3666.71
972.378	3649.08
972.679	3651.12
972.98	3631.91
973.281	3589.65
973.582	3573.15
973.883	3566.38
974.183	3552.59
974.484	3534.74
974.785	3494.96
975.085	3519.82
975.386	3541.07
975.686	3468.3
975.986	3444.57
976.287	3485.02
976.587	3431.92
976.887	3411.58
977.187	3372.93
977.487	3387.62
977.787	3362.54
978.087	3317.12
978.387	3321.86
978.687	3342.43
978.987	3326.61
979.286	3310.11
979.586	3288.64
979.885	3221.98
980.185	3255.42
980.484	3197.35
980.784	3219.04
981.083	3209.55
981.382	3225.37
981.682	3180.85
981.981	3154.41
982.28	3138.59
982.579	3099.49
982.878	3149.89
983.177	3127.97
983.475	3122.77
983.774	3052.26
984.073	3085.71
984.372	3016.79
984.67	3034.41
984.969	3039.84
985.267	3007.75
985.566	3026.05
985.864	2983.11
986.162	2974.98
986.461	2966.62
986.759	2909.44
987.057	2912.61
987.355	2926.39
987.653	2916
987.951	2886.84
988.249	2886.17
988.547	2893.17
988.844	2868.77
989.142	2806.4
989.44	2820.41
989.737	2807.07
990.035	2777.24
990.332	2791.03
990.63	2775.89
990.927	2760.07
991.224	2758.26
991.521	2748.32
991.819	2708.77
992.116	2685.04
992.413	2704.48
992.71	2693.18
993.006	2698.6
993.303	2653.63
993.6	2644.59
993.897	2622.9
994.193	2604.59
994.49	2571.83
994.787	2583.12
995.083	2584.25
995.379	2618.38
995.676	2561.66
995.972	2562.79
996.268	2528.21
996.565	2530.02
996.861	2518.95
997.157	2500.41
997.453	2496.8
997.749	2470.81
998.044	2448.44
998.34	2418.38
998.636	2419.06
998.932	2433.52
999.227	2368.67
999.523	2388.33
999.818	2359.18
1000.114	2379.97
1000.409	2311.27
1000.704	2348.33
1001	2339.06
1001.295	2303.36
1001.59	2279.86
1001.885	2314.66
1002.18	2278.73
1002.475	2274.66
1002.77	2235.34
1003.065	2233.3
1003.359	2226.07
1003.654	2226.3
1003.949	2181.55
1004.243	2179.29
1004.538	2183.13
1004.832	2172.97
1005.127	2155.79
1005.421	2142.01
1005.715	2103.59
1006.009	2136.58
1006.304	2084.38
1006.598	2079.18
1006.892	2064.04
1007.186	2066.98
1007.48	2063.14
1007.773	2063.59
1008.067	2048.22
1008.361	2018.17
1008.655	2023.36
1008.948	1998.05
1009.242	1965.97
1009.535	1957.83
1009.829	1939.75
1010.122	1918.73
1010.415	1913.54
1010.708	1936.59
1011.001	1935.68
1011.295	1914.67
1011.588	1900.2
1011.881	1870.37
1012.173	1890.49
1012.466	1885.06
1012.759	1835.8
1013.052	1845.06
1013.344	1843.93
1013.637	1829.02
1013.93	1794.22
1014.222	1820.21
1014.514	1775.69
1014.807	1776.14
1015.099	1767.33
1015.391	1748.34
1015.683	1737.27
1015.976	1697.72
1016.268	1695.01
1016.56	1703.83
1016.851	1705.41
1017.143	1706.31
1017.435	1649.14
1017.727	1656.82
1018.018	1664.5
1018.31	1656.82
1018.602	1634.22
1018.893	1652.75
1019.185	1606.2
1019.476	1598.97
1019.767	1608.23
1020.058	1575.69
1020.35	1591.74
1020.641	1555.58
1020.932	1550.83
1021.223	1547.22
1021.514	1545.41
1021.804	1513.1
1022.095	1523.27
1022.386	1514.68
1022.677	1525.07
1022.967	1505.64
1023.258	1463.15
1023.548	1462.25
1023.839	1434.68
1024.129	1439.88
1024.419	1434.45
1024.709	1402.59
1025	1408.92
1025.29	1404.85
1025.58	1364.17
1025.87	1378.18
1026.16	1386.55
1026.449	1379.77
1026.739	1384.06
1027.029	1352.2
1027.319	1333.44
1027.608	1361.69
1027.898	1312.42
1028.187	1308.81
1028.477	1294.57
1028.766	1324.85
1029.055	1305.19
1029.344	1297.73
1029.634	1266.1
1029.923	1292.31
1030.212	1259.77
1030.501	1252.76
1030.79	1247.79
1031.078	1246.66
1031.367	1216.61
1031.656	1205.76
1031.945	1215.02
1032.233	1192.88
1032.522	1214.35
1032.81	1197.62
1033.099	1158.98
1033.387	1196.49
1033.675	1157.4
1033.963	1150.17
1034.251	1149.94
1034.54	1118.98
1034.828	1142.94
1035.116	1105.42
1035.403	1089.83
1035.691	1113.78
1035.979	1104.74
1036.267	1095.93
1036.554	1074.46
1036.842	1070.17
1037.129	1069.27
1037.417	1076.72
1037.704	1068.59
1037.992	1082.6
1038.279	1028.36
1038.566	1024.52
1038.853	1024.52
1039.14	1024.52
