Data from hue_220_FLMS001491_00034.txt Node
Date: Tue Feb 07 16:39:22 GMT 2017
User: dcchb
Spectrometer: FLMS00149
Trigger mode: 0
Integration Time (sec): 2.000000E-2
Scans to average: 10
Electric dark correction enabled: true
Nonlinearity correction enabled: false
Boxcar width: 0
XAxis mode: Wavelengths
Number of Pixels in Spectrum: 2048
>>>>>Begin Spectral Data<<<<<
341.393	-14.52
341.776	-14.52
342.16	-14.52
342.543	-60.17
342.927	-64.69
343.31	-71.47
343.693	-73.95
344.077	-62.88
344.46	-57.91
344.843	-34.18
345.226	-31.69
345.61	-30.11
345.993	-17.91
346.376	-8.19
346.759	21.64
347.142	23.22
347.525	36.78
347.908	38.81
348.291	79.72
348.674	90.34
349.057	97.79
349.44	107.29
349.823	132.37
350.206	150.45
350.588	195.42
350.971	188.87
351.354	208.75
351.737	227.51
352.119	244.23
352.502	239.03
352.884	272.93
353.267	283.78
353.65	280.61
354.032	283.55
354.414	280.16
354.797	299.14
355.179	321.52
355.562	328.07
355.944	335.08
356.326	324.91
356.709	340.73
357.091	338.69
357.473	330.1
357.855	342.99
358.238	326.71
358.62	337.34
359.002	328.52
359.384	333.95
359.766	345.7
360.148	329.88
360.53	331.91
360.912	328.97
361.294	333.27
361.676	351.8
362.057	337.56
362.439	310.67
362.821	307.73
363.203	326.26
363.584	312.7
363.966	338.47
364.348	325.13
364.729	343.66
365.111	299.14
365.493	330.33
365.874	301.63
366.256	296.88
366.637	292.14
367.019	309.09
367.4	299.6
367.781	340.73
368.163	308.41
368.544	297.79
368.925	308.41
369.306	314.06
369.688	287.17
370.069	310.9
370.45	316.32
370.831	286.49
371.212	317.9
371.593	295.08
371.974	321.07
372.355	313.61
372.736	292.14
373.117	293.95
373.498	290.11
373.879	317
374.26	301.86
374.641	318.58
375.021	301.18
375.402	325.58
375.783	317.68
376.163	305.25
376.544	327.84
376.925	324.45
377.305	330.1
377.686	328.3
378.066	333.27
378.447	320.16
378.827	322.65
379.208	340.05
379.588	337.34
379.968	328.97
380.349	326.04
380.729	323.78
381.109	315.64
381.489	325.81
381.87	340.73
382.25	339.82
382.63	328.3
383.01	328.97
383.39	324
383.77	326.94
384.15	332.59
384.53	325.36
384.91	314.06
385.29	347.05
385.67	342.53
386.049	333.49
386.429	321.97
386.809	328.97
387.189	343.21
387.568	339.82
387.948	334.4
388.328	366.94
388.707	338.01
389.087	362.42
389.466	352.7
389.846	337.79
390.225	359.48
390.605	364
390.984	346.83
391.363	360.16
391.743	336.66
392.122	349.31
392.501	377.33
392.881	390.89
393.26	372.59
393.639	367.39
394.018	391.8
394.397	369.2
394.776	387.96
395.155	368.75
395.534	382.08
395.913	385.7
396.292	405.36
396.671	394.28
397.05	374.17
397.429	368.75
397.808	385.24
398.186	382.08
398.565	378.01
398.944	396.77
399.323	368.3
399.701	372.14
400.08	398.8
400.458	387.96
400.837	413.49
401.215	396.32
401.594	415.53
401.972	414.85
402.351	391.8
402.729	417.79
403.107	393.83
403.486	405.36
403.864	415.07
404.242	411.23
404.62	418.46
404.999	418.01
405.377	424.57
405.755	436.99
406.133	436.09
406.511	457.11
406.889	467.05
407.267	456.65
407.645	454.85
408.023	467.73
408.401	460.72
408.779	473.38
409.156	473.83
409.534	472.47
409.912	494.39
410.29	503.43
410.667	514.73
411.045	491.23
411.422	510.44
411.8	513.83
412.178	532.36
412.555	550.21
412.933	562.64
413.31	558.35
413.687	544.79
414.065	577.1
414.442	564.9
414.819	573.04
415.197	582.3
415.574	603.54
415.951	596.54
416.328	625.24
416.705	620.94
417.082	614.16
417.46	630.66
417.837	626.82
418.214	651
418.591	678.57
418.967	659.14
419.344	689.64
419.721	685.8
420.098	675.18
420.475	667.95
420.852	690.09
421.228	718.57
421.605	739.59
421.982	723.99
422.358	745.69
422.735	769.41
423.111	773.48
423.488	800.15
423.864	804.67
424.241	801.73
424.617	822.97
424.994	811.45
425.37	827.49
425.746	842.86
426.123	850.99
426.499	862.07
426.875	892.58
427.251	881.95
427.627	909.98
428.003	942.74
428.379	931.22
428.756	963.99
429.132	948.85
429.507	961.27
429.883	954.72
430.259	997.43
430.635	971.22
431.011	995.17
431.387	1036.53
431.763	1060.03
432.138	1037.2
432.514	1076.75
432.89	1069.97
433.265	1107.71
433.641	1117.2
434.016	1147.94
434.392	1157.2
434.767	1184.77
435.143	1189.06
435.518	1210.53
435.894	1227.48
436.269	1270.87
436.644	1289.85
437.02	1283.75
437.395	1299.57
437.77	1304.99
438.145	1354.26
438.52	1370.08
438.895	1381.15
439.271	1393.58
439.646	1453.69
440.021	1468.15
440.395	1459.34
440.77	1453.92
441.145	1473.8
441.52	1520.36
441.895	1521.94
442.27	1544.08
442.645	1561.71
443.019	1582.05
443.394	1590.86
443.769	1609.84
444.143	1629.05
444.518	1669.5
444.892	1629.05
445.267	1672.44
445.641	1682.39
446.016	1684.19
446.39	1728.26
446.764	1710.18
447.139	1710.86
447.513	1746.79
447.887	1745.89
448.262	1754.7
448.636	1763.29
449.01	1770.52
449.384	1823.85
449.758	1812.33
450.132	1845.09
450.506	1823.4
450.88	1870.4
451.254	1881.48
451.628	1869.05
452.002	1916.96
452.376	1926.22
452.75	1947.91
453.123	1974.35
453.497	1991.3
453.871	2015.03
454.244	2010.29
454.618	2052.54
454.992	2046.22
455.365	2058.19
455.739	2123.28
456.112	2153.56
456.486	2124.18
456.859	2163.28
457.232	2213.9
457.606	2172.54
457.979	2203.05
458.352	2271.52
458.725	2286.89
459.099	2298.41
459.472	2334.57
459.845	2385.42
460.218	2352.88
460.591	2363.72
460.964	2369.82
461.337	2468.58
461.71	2458.64
462.083	2503.61
462.456	2519.43
462.829	2493.21
463.201	2573.44
463.574	2589.71
463.947	2571.4
464.32	2671.74
464.692	2679.2
465.065	2683.49
465.438	2702.47
465.81	2766.42
466.183	2800.32
466.555	2824.95
466.928	2875.8
467.3	2855.46
467.672	2910.83
468.045	2971.62
468.417	2938.4
468.789	3006.19
469.161	3017.04
469.534	3078.28
469.906	3100.88
470.278	3175.91
470.65	3150.37
471.022	3213.19
471.394	3276.02
471.766	3255.68
472.138	3338.16
472.51	3383.58
472.882	3419.06
473.253	3447.99
473.625	3493.64
473.997	3536.12
474.369	3552.17
474.74	3614.76
475.112	3695.67
475.484	3713.74
475.855	3777.92
476.227	3824.93
476.598	3883.01
476.97	3919.84
477.341	4018.59
477.713	4033.51
478.084	4053.4
478.455	4165.94
478.827	4166.84
479.198	4276.22
479.569	4278.02
479.94	4403.9
480.311	4404.57
480.682	4500.16
481.053	4571.8
481.424	4674.17
481.795	4682.53
482.166	4704.9
482.537	4834.84
482.908	4880.72
483.279	4922.75
483.65	4966.37
484.021	5060.15
484.391	5106.7
484.762	5190.09
485.133	5146.47
485.503	5214.95
485.874	5353.93
486.244	5387.6
486.615	5438.9
486.985	5507.14
487.356	5615.16
487.726	5654.48
488.097	5738.32
488.467	5724.09
488.837	5868.49
489.207	5863.07
489.578	6018.99
489.948	5973.8
490.318	6100.35
490.688	6083.63
491.058	6165.43
491.428	6248.37
491.798	6239.33
492.168	6407.46
492.538	6388.48
492.908	6441.36
493.278	6487.46
493.648	6496.27
494.017	6550.96
494.387	6616.04
494.757	6611.52
495.126	6721.57
495.496	6739.43
495.866	6832.76
496.235	6819.43
496.605	6941.68
496.974	6910.72
497.344	6993.21
497.713	6945.07
498.082	6999.99
498.452	7075.92
498.821	7069.14
499.19	7075.92
499.559	7096.48
499.928	7164.73
500.298	7237.04
500.667	7228.68
501.036	7172.64
501.405	7281.56
501.774	7297.6
502.143	7365.85
502.512	7361.33
502.88	7371.95
503.249	7406.08
503.618	7392.74
503.987	7406.08
504.356	7486.98
504.724	7450.37
505.093	7439.97
505.462	7515
505.83	7510.93
506.199	7593.19
506.567	7591.61
506.936	7591.83
507.304	7660.31
507.672	7730.59
508.041	7751.38
508.409	7749.12
508.777	7741.89
509.145	7814.2
509.514	7773.52
509.882	7815.11
510.25	7833.64
510.618	7847.65
510.986	7844.48
511.354	7856.46
511.722	7883.8
512.09	7919.06
512.458	7936.91
512.826	8018.04
513.193	7962.67
513.561	7978.94
513.929	7993.41
514.297	8058.49
514.664	8025.72
515.032	8063.46
515.4	8088.09
515.767	8089.9
516.135	8093.29
516.502	7998.6
516.869	8180.97
517.237	8115.44
517.604	8049.9
517.972	8113.63
518.339	8143.01
518.706	8116.34
519.073	8175.1
519.44	8133.74
519.808	8144.81
520.175	8123.12
520.542	8194.08
520.909	8247.86
521.276	8139.62
521.643	8251.03
522.009	8218.26
522.376	8190.46
522.743	8259.84
523.11	8265.04
523.477	8287.86
523.843	8308.88
524.21	8339.16
524.577	8323.34
524.943	8312.72
525.31	8382.1
525.676	8366.96
526.043	8368.54
526.409	8343.23
526.776	8465.71
527.142	8415.09
527.508	8450.12
527.874	8411.02
528.241	8415.99
528.607	8384.58
528.973	8467.97
529.339	8348.88
529.705	8445.37
530.071	8446.5
530.437	8466.84
530.803	8486.27
531.169	8490.34
531.535	8435.2
531.901	8457.8
532.267	8441.76
532.632	8423.9
532.998	8390.01
533.364	8452.6
533.73	8397.24
534.095	8350.23
534.461	8409.21
534.826	8369.67
535.192	8359.05
535.557	8408.08
535.923	8371.25
536.288	8360.4
536.653	8327.41
537.019	8309.78
537.384	8347.52
537.749	8260.29
538.114	8277.47
538.479	8259.16
538.845	8227.3
539.21	8167.86
539.575	8150.69
539.94	8197.69
540.305	8164.93
540.67	8145.27
541.034	8110.92
541.399	8116.79
541.764	8052.61
542.129	8016.46
542.494	8030.92
542.858	8047.19
543.223	8019.39
543.587	7989.56
543.952	8017.13
544.316	7953.63
544.681	7895.56
545.045	7960.41
545.41	7895.56
545.774	7919.06
546.138	7909.57
546.503	7841.32
546.867	7810.36
547.231	7845.39
547.595	7768.33
547.959	7803.81
548.324	7750.47
548.688	7745.73
549.052	7710.93
549.416	7753.19
549.779	7723.58
550.143	7653.98
550.507	7658.05
550.871	7643.58
551.235	7617.6
551.599	7636.13
551.962	7595.9
552.326	7486.98
552.689	7513.87
553.053	7518.16
553.417	7505.51
553.78	7562.23
554.143	7481.55
554.507	7477.71
554.87	7463.48
555.234	7516.13
555.597	7486.98
555.96	7447.66
556.323	7428.45
556.686	7383.7
557.05	7412.86
557.413	7459.18
557.776	7320.43
558.139	7367.89
558.502	7408.34
558.865	7361.56
559.228	7413.76
559.59	7415.57
559.953	7344.16
560.316	7392.29
560.679	7378.96
561.041	7357.94
561.404	7418.05
561.767	7413.99
562.129	7327.66
562.492	7388.9
562.854	7357.72
563.217	7324.27
563.579	7437.71
563.941	7366.08
564.304	7338.06
564.666	7428.67
565.028	7410.82
565.39	7423.93
565.753	7406.75
566.115	7478.84
566.477	7425.51
566.839	7465.96
567.201	7473.87
567.563	7439.3
567.925	7438.62
568.287	7485.62
568.648	7484.94
569.01	7600.42
569.372	7493.53
569.734	7468
570.095	7571.27
570.457	7590.03
570.819	7563.81
571.18	7480.2
571.542	7605.17
571.903	7575.56
572.265	7609.01
572.626	7574.43
572.987	7580.31
573.349	7644.94
573.71	7661.89
574.071	7703.02
574.432	7693.53
574.794	7714.99
575.155	7754.77
575.516	7633.42
575.877	7695.33
576.238	7724.49
576.599	7786.86
576.96	7792.73
577.32	7775.78
577.681	7816.46
578.042	7849
578.403	7779.4
578.763	7817.59
579.124	7822.79
579.485	7862.11
579.845	7884.93
580.206	7928.77
580.566	7885.84
580.927	7946.63
581.287	7960.19
581.648	7937.14
582.008	7981.43
582.368	7988.21
582.728	8010.81
583.089	8034.76
583.449	7966.74
583.809	8000.41
584.169	8044.03
584.529	8061.88
584.889	8121.54
585.249	8092.61
585.609	7994.08
585.969	8115.21
586.329	8041.31
586.688	8131.93
587.048	8143.46
587.408	8114.98
587.768	8084.25
588.127	8167.64
588.487	8143.23
588.846	8246.28
589.206	8190.24
589.565	8201.08
589.925	8265.49
590.284	8246.51
590.643	8256.9
591.003	8317.46
591.362	8276.56
591.721	8284.02
592.08	8341.19
592.44	8333.51
592.799	8329.22
593.158	8329.44
593.517	8359.5
593.876	8330.57
594.235	8399.04
594.593	8359.05
594.952	8409.44
595.311	8426.39
595.67	8351.59
596.029	8466.39
596.387	8511.13
596.746	8479.04
597.104	8463.9
597.463	8457.12
597.822	8507.97
598.18	8459.61
598.538	8449.66
598.897	8489.21
599.255	8490.79
599.613	8577.35
599.972	8460.06
600.33	8530.79
600.688	8486.5
601.046	8526.72
601.404	8525.14
601.762	8532.15
602.12	8580.51
602.478	8628.87
602.836	8564.01
603.194	8586.61
603.552	8595.2
603.91	8542.54
604.268	8508.42
604.625	8621.19
604.983	8601.07
605.341	8554.07
605.698	8594.52
606.056	8605.59
606.413	8645.37
606.771	8682.88
607.128	8635.2
607.485	8600.62
607.843	8618.7
608.2	8635.42
608.557	8700.28
608.914	8589.77
609.272	8716.32
609.629	8738.24
609.986	8774.4
610.343	8669.32
610.7	8757.45
611.057	8703.67
611.414	8733.95
611.771	8661.18
612.127	8799.71
612.484	8762.88
612.841	8853.27
613.198	8735.08
613.554	8740.05
613.911	8831.35
614.267	8780.28
614.624	8766.94
614.98	8800.39
615.337	8837.23
615.693	8884.23
616.05	8856.43
616.406	8884.91
616.762	8830.9
617.118	8813.72
617.475	8861.63
617.831	8910.67
618.187	8849.43
618.543	8914.74
618.899	8943.66
619.255	8979.59
619.611	8890.11
619.967	8895.3
620.323	8944.34
620.678	8995.87
621.034	8947.96
621.39	8906.6
621.746	8886.72
622.101	8955.19
622.457	8907.05
622.812	8941.4
623.168	8931.23
623.523	8937.34
623.879	8977.79
624.234	8921.52
624.589	8973.27
624.945	9035.41
625.3	8947.28
625.655	8918.81
626.01	8948.41
626.365	9052.13
626.72	8953.83
627.075	8886.04
627.43	8985.7
627.785	8960.16
628.14	8953.38
628.495	8916.32
628.85	8889.43
629.205	8902.53
629.559	8911.12
629.914	8902.31
630.269	8896.88
630.623	8939.37
630.978	8794.74
631.332	8923.1
631.687	8915.64
632.041	8857.79
632.396	8875.42
632.75	8817.56
633.104	8820.5
633.459	8766.49
633.813	8782.31
634.167	8794.29
634.521	8781.86
634.875	8762.65
635.229	8801.07
635.583	8763.55
635.937	8773.95
636.291	8791.35
636.645	8717.23
636.999	8735.76
637.352	8687.85
637.706	8664.8
638.06	8760.62
638.413	8673.39
638.767	8709.32
639.121	8704.8
639.474	8653.05
639.828	8616.89
640.181	8639.04
640.534	8601.75
640.888	8590.68
641.241	8538.93
641.594	8576.89
641.947	8579.6
642.301	8585.93
642.654	8551.36
643.007	8635.65
643.36	8599.72
643.713	8571.02
644.066	8577.12
644.419	8546.84
644.771	8498.93
645.124	8471.59
645.477	8473.39
645.83	8416.9
646.182	8298.93
646.535	8323.57
646.888	8281.53
647.24	8265.49
647.593	8330.8
647.945	8301.42
648.298	8271.14
648.65	8221.65
649.002	8274.75
649.355	8256
649.707	8253.96
650.059	8323.34
650.411	8479.49
650.763	8372.15
651.115	8485.82
651.467	8438.37
651.819	8486.73
652.171	8468.87
652.523	8472.72
652.875	8418.03
653.227	8424.81
653.578	8498.93
653.93	8528.53
654.282	8470
654.633	8427.52
654.985	8471.59
655.337	8470.23
655.688	8432.72
656.039	8518.82
656.391	8429.78
656.742	8428.65
657.094	8450.12
657.445	8473.62
657.796	8520.17
658.147	8486.73
658.498	8468.65
658.849	8473.62
659.2	8539.38
659.551	8448.31
659.902	8557.68
660.253	8574.18
660.604	8567.85
660.955	8442.89
661.306	8457.12
661.656	8540.96
662.007	8521.3
662.358	8543.9
662.708	8557.01
663.059	8618.25
663.409	8517.91
663.76	8537.8
664.11	8557.68
664.461	8576.89
664.811	8544.8
665.161	8616.21
665.511	8581.19
665.862	8519.04
666.212	8544.8
666.562	8584.58
666.912	8548.65
667.262	8574.18
667.612	8567.4
667.962	8491.47
668.312	8507.52
668.662	8594.52
669.011	8509.55
669.361	8571.7
669.711	8485.82
670.06	8579.15
670.41	8517.01
670.76	8596.1
671.109	8592.94
671.459	8505.26
671.808	8501.41
672.157	8544.58
672.507	8489.44
672.856	8458.25
673.205	8500.74
673.554	8474.3
673.904	8451.7
674.253	8506.16
674.602	8450.12
674.951	8367.18
675.3	8326.96
675.649	8418.03
675.998	8402.66
676.346	8429.55
676.695	8459.83
677.044	8487.4
677.393	8405.37
677.741	8469.78
678.09	8381.64
678.438	8374.41
678.787	8409.44
679.135	8342.32
679.484	8315.88
679.832	8331.48
680.181	8298.03
680.529	8218.71
680.877	8299.84
681.225	8286.51
681.573	8304.58
681.922	8259.16
682.27	8209.22
682.618	8235.21
682.966	8220.97
683.314	8170.58
683.661	8164.02
684.009	8063.01
684.357	8077.7
684.705	8093.52
685.053	8069.56
685.4	8116.34
685.748	8025.5
686.095	8064.59
686.443	7994.54
686.79	8080.18
687.138	8003.57
687.485	7973.29
687.832	7940.07
688.18	7970.36
688.527	7874.09
688.874	7914.54
689.221	7843.81
689.568	7844.26
689.915	7870.02
690.262	7812.85
690.609	7792.51
690.956	7754.09
691.303	7789.8
691.65	7654.21
691.997	7637.48
692.344	7687.42
692.69	7606.75
693.037	7637.48
693.383	7475.23
693.73	7569.91
694.077	7561.55
694.423	7548.67
694.769	7460.09
695.116	7454.21
695.462	7456.47
695.808	7439.97
696.155	7422.35
696.501	7377.6
696.847	7390.03
697.193	7277.04
697.539	7265.97
697.885	7227.1
698.231	7228.45
698.577	7224.39
698.923	7212.86
699.269	7141.9
699.614	7061.45
699.96	7152.52
700.306	7112.98
700.651	7026.2
700.997	7039.08
701.342	6995.69
701.688	7027.1
702.033	6925.64
702.379	6942.13
702.724	6897.16
703.069	6968.35
703.415	6872.76
703.76	6803.15
704.105	6826.66
704.45	6777.84
704.795	6761.12
705.14	6768.13
705.485	6764.29
705.83	6728.13
706.175	6670.95
706.52	6644.51
706.865	6619.66
707.209	6640.45
707.554	6541.01
707.899	6574.69
708.243	6588.24
708.588	6552.99
708.932	6485.42
709.277	6526.78
709.621	6495.59
709.966	6442.49
710.31	6427.57
710.654	6388.7
710.998	6388.25
711.342	6365.43
711.687	6389.15
712.031	6338.76
712.375	6323.85
712.719	6400
713.063	6313.45
713.407	6362.71
713.75	6307.12
714.094	6333.79
714.438	6316.61
714.782	6313.22
715.125	6263.73
715.469	6287.91
715.812	6226.45
716.156	6167.69
716.499	6265.77
716.843	6215.83
717.186	6193.23
717.53	6223.96
717.873	6230.51
718.216	6141.93
718.559	6114.13
718.902	6121.14
719.246	6159.78
719.589	6149.61
719.932	6044.08
720.275	6130.86
720.617	6099.67
720.96	6059.45
721.303	6094.02
721.646	6084.3
721.989	6031.42
722.331	6100.35
722.674	6064.42
723.016	6033.46
723.359	6050.41
723.701	6014.02
724.044	6002.05
724.386	5988.26
724.729	5996.4
725.071	5979.22
725.413	6006.79
725.755	5999.11
726.097	5974.93
726.439	5959.56
726.782	5981.93
727.124	6010.86
727.465	6024.42
727.807	5976.28
728.149	6009.95
728.491	5961.37
728.833	6010.41
729.175	6002.95
729.516	5962.72
729.858	6005.21
730.199	6004.76
730.541	5977.87
730.882	5977.87
731.224	5987.36
731.565	5946.23
731.906	5976.96
732.248	5946
732.589	5911.88
732.93	5949.17
733.271	5942.84
733.612	5972.89
733.953	6003.18
734.294	5963.18
734.635	5933.12
734.976	5901.03
735.317	5964.76
735.658	5995.72
735.999	5945.78
736.339	5974.25
736.68	6002.72
737.021	6014.25
737.361	6014.93
737.702	6056.73
738.042	5997.75
738.383	5979.67
738.723	6036.17
739.063	5985.32
739.404	6021.93
739.744	6022.16
740.084	6031.88
740.424	6024.87
740.764	6064.87
741.104	6067.13
741.444	6065.09
741.784	6105.09
742.124	6107.81
742.464	6133.57
742.804	6157.3
743.143	6152.78
743.483	6202.72
743.823	6147.13
744.162	6207.92
744.502	6219.22
744.841	6280.91
745.181	6361.58
745.52	6238.65
745.86	6344.18
746.199	6346.22
746.538	6398.65
746.877	6480
747.216	6519.09
747.556	6517.29
747.895	6590.28
748.234	6639.54
748.573	6620.79
748.911	6663.72
749.25	6769.48
749.589	6819.2
749.928	6922.47
750.267	6936.48
750.605	7037.72
750.944	7093.54
751.283	7159.3
751.621	7266.65
751.96	7305.74
752.298	7373.31
752.636	7528.79
752.975	7486.75
753.313	7658.95
753.651	7771.94
753.989	7820.75
754.327	7957.93
754.666	7994.54
755.004	8141.88
755.342	8289.44
755.679	8412.15
756.017	8484.24
756.355	8716.32
756.693	8752.48
757.031	8909.99
757.368	9031.8
757.706	9170.1
758.044	9294.84
758.381	9495.51
758.719	9631.78
759.056	9773.02
759.394	9859.35
759.731	9961.49
760.068	10167.36
760.405	10389.95
760.743	10461.14
761.08	10637.86
761.417	10865.65
761.754	10938.19
762.091	11091.86
762.428	11206.2
762.765	11397.84
763.102	11689.13
763.438	11757.15
763.775	11979.97
764.112	12120.75
764.449	12309.68
764.785	12393.74
765.122	12548.31
765.458	12662.44
765.795	12810.45
766.131	13022.65
766.467	13253.38
766.804	13342.87
767.14	13458.8
767.476	13625.57
767.812	13736.98
768.148	13954.15
768.485	14028.95
768.821	14119.57
769.157	14258.78
769.492	14524.08
769.828	14583.74
770.164	14536.06
770.5	14618.99
770.836	14863.73
771.171	15009.72
771.507	15101.92
771.842	15110.28
772.178	15233.67
772.513	15298.52
772.849	15470.5
773.184	15482.47
773.519	15643.15
773.855	15732.19
774.19	15748.23
774.525	15763.6
774.86	15900.32
775.195	15948
775.53	15910.03
775.865	16035.45
776.2	16000.65
776.535	16006.75
776.87	16109.12
777.205	16172.63
777.539	16210.36
777.874	16388.21
778.209	16267.76
778.543	16397.25
778.878	16294.43
779.212	16364.03
779.547	16386.63
779.881	16531.49
780.215	16465.05
780.55	16554.76
780.884	16471.15
781.218	16667.53
781.552	16667.08
781.886	16511.83
782.22	16505.27
782.554	16575.33
782.888	16503.92
783.222	16607.42
783.556	16510.92
783.889	16525.16
784.223	16440.19
784.557	16470.7
784.89	16654.65
785.224	16549.79
785.557	16483.35
785.891	16550.69
786.224	16516.8
786.558	16583.91
786.891	16360.87
787.224	16411.94
787.557	16402.45
787.891	16484.93
788.224	16467.53
788.557	16413.98
788.89	16494.65
789.223	16459.17
789.556	16411.26
789.888	16373.3
790.221	16403.81
790.554	16225.96
790.887	16294.43
791.219	16236.35
791.552	16197.03
791.884	16156.35
792.217	16152.06
792.549	16181.44
792.882	16048.79
793.214	16019.41
793.546	16114.77
793.879	16054.44
794.211	15920.43
794.543	15993.2
794.875	15976.25
795.207	15977.6
795.539	15949.81
795.871	15893.08
796.203	15866.42
796.535	15749.81
796.867	15797.04
797.198	15748
797.53	15753.43
797.862	15633.43
798.193	15738.06
798.525	15508.91
798.856	15500.55
799.188	15498.07
799.519	15492.64
799.85	15359.77
800.182	15438.18
800.513	15431.63
800.844	15289.71
801.175	15348.92
801.506	15353.66
801.837	15229.37
802.168	15275.02
802.499	15247.68
802.83	15096.95
803.161	15138.98
803.491	15085.2
803.822	15113.44
804.153	15117.96
804.483	14963.62
804.814	14939.21
805.145	14862.38
805.475	14968.14
805.805	14802.27
806.136	14926.56
806.466	14910.29
806.796	14788.71
807.126	14759.1
807.457	14772.21
807.787	14668.03
808.117	14555.49
808.447	14653.8
808.777	14655.6
809.107	14597.3
809.436	14548.04
809.766	14540.35
810.096	14433.91
810.426	14453.35
810.755	14467.13
811.085	14445.89
811.414	14445.44
811.744	14376.51
812.073	14242.51
812.403	14330.64
812.732	14258.1
813.061	14261.72
813.39	14141.49
813.719	14182.17
814.049	14261.26
814.378	14172
814.707	14037.77
815.036	14113.47
815.365	13896.75
815.693	13898.34
816.022	13992.57
816.351	13797.77
816.68	13809.75
817.008	13848.62
817.337	13778.79
817.665	13760.26
817.994	13796.19
818.322	13808.17
818.651	13740.37
818.979	13714.61
819.307	13777.21
819.636	13736.08
819.964	13632.13
820.292	13724.55
820.62	13700.6
820.948	13607.27
821.276	13732.01
821.604	13644.1
821.932	13716.87
822.259	13586.03
822.587	13574.73
822.915	13561.39
823.243	13657.21
823.57	13552.58
823.898	13677.78
824.225	13532.47
824.553	13567.5
824.88	13655.4
825.207	13626.25
825.535	13549.42
825.862	13661.05
826.189	13668.06
826.516	13719.58
826.843	13682.07
827.17	13736.76
827.497	13714.16
827.824	13611.56
828.151	13675.97
828.478	13671.67
828.805	13633.03
829.131	13705.12
829.458	13568.4
829.785	13585.8
830.111	13693.59
830.438	13663.99
830.764	13597.78
831.09	13629.64
831.417	13661.05
831.743	13618.57
832.069	13668.96
832.395	13541.96
832.722	13582.86
833.048	13627.83
833.374	13573.6
833.7	13589.42
834.026	13510.77
834.351	13512.81
834.677	13525.92
835.003	13553.49
835.329	13544.22
835.654	13525.92
835.98	13480.04
836.306	13455.18
836.631	13409.99
836.956	13564.56
837.282	13461.51
837.607	13399.59
837.932	13411.79
838.258	13307.84
838.583	13314.62
838.908	13313.94
839.233	13288.63
839.558	13293.83
839.883	13246.6
840.208	13217.22
840.533	13175.19
840.858	13143.78
841.182	13117.79
841.507	13173.16
841.832	13108.98
842.156	13034.4
842.481	13049.77
842.805	12981.75
843.13	13084.57
843.454	12956.89
843.778	12926.38
844.103	12927.06
844.427	12931.13
844.751	12868.76
845.075	12855.2
845.399	12781.98
845.723	12713.73
846.047	12774.52
846.371	12669.21
846.695	12673.51
847.019	12552.38
847.343	12462.89
847.666	12461.31
847.99	12402.56
848.313	12347.64
848.637	12317.59
848.96	12306.51
849.284	12259.28
849.607	12141.09
849.931	12145.84
850.254	12058.84
850.577	12024.71
850.9	11946.97
851.223	12002.11
851.546	11833.76
851.869	11839.86
852.192	11815.23
852.515	11719.41
852.838	11741.56
853.161	11688.9
853.483	11609.81
853.806	11621.78
854.129	11617.04
854.451	11546.08
854.774	11481
855.096	11415.91
855.419	11378.18
855.741	11391.73
856.063	11329.59
856.385	11305.63
856.708	11294.34
857.03	11275.35
857.352	11210.27
857.674	11152.87
857.996	11178.41
858.318	11115.81
858.64	11094.57
858.961	11039.2
859.283	10960.33
859.605	10950.16
859.926	11031.74
860.248	10904.29
860.57	10928.7
860.891	10808.25
861.212	10815.93
861.534	10763.5
861.855	10796.27
862.176	10797.85
862.498	10780.9
862.819	10814.35
863.14	10737.74
863.461	10748.36
863.782	10681.92
864.103	10707.91
864.424	10658.19
864.745	10656.84
865.065	10610.96
865.386	10580.46
865.707	10517.18
866.027	10523.06
866.348	10500.01
866.668	10469.95
866.989	10486.22
867.309	10412.33
867.63	10411.2
867.95	10444.19
868.27	10393.57
868.59	10323.06
868.91	10349.73
869.23	10353.57
869.55	10295.94
869.87	10401.03
870.19	10336.85
870.51	10364.87
870.83	10307.02
871.15	10224.76
871.469	10228.6
871.789	10363.74
872.109	10241.71
872.428	10163.74
872.748	10234.25
873.067	10174.82
873.386	10156.96
873.706	10147.25
874.025	10122.84
874.344	10031.77
874.663	10052.56
874.982	10055.72
875.301	9985.9
875.62	10039.45
875.939	10002.84
876.258	10075.38
876.577	10008.27
876.896	9980.92
877.214	9957.65
877.533	9964.65
877.852	9935.95
878.17	9888.05
878.489	9827.26
878.807	9920.36
879.125	9857.09
879.444	9849.85
879.762	9805.11
880.08	9806.24
880.398	9779.57
880.716	9757.65
881.034	9759.69
881.352	9745.68
881.67	9675.4
881.988	9752.23
882.306	9607.6
882.624	9590.65
882.941	9563.99
883.259	9564.44
883.577	9602.4
883.894	9531.22
884.212	9531.22
884.529	9481.05
884.846	9506.36
885.164	9467.27
885.481	9374.61
885.798	9496.42
886.115	9381.17
886.432	9433.37
886.75	9347.04
887.067	9369.41
887.383	9294.84
887.7	9281.06
888.017	9253.94
888.334	9334.84
888.651	9261.17
888.967	9235.18
889.284	9172.36
889.6	9129.42
889.917	9107.73
890.233	9100.04
890.55	9013.94
890.866	9030.89
891.182	9040.84
891.498	9009.2
891.815	9007.16
892.131	8916.55
892.447	8919.26
892.763	8816.89
893.079	8830.22
893.395	8833.16
893.71	8831.58
894.026	8778.47
894.342	8768.75
894.657	8701.64
894.973	8705.48
895.289	8739.83
895.604	8623.45
895.92	8594.75
896.235	8536.89
896.55	8587.97
896.865	8483.34
897.181	8496.9
897.496	8622.32
897.811	8487.86
898.126	8401.98
898.441	8391.81
898.756	8325.37
899.071	8306.62
899.386	8296.22
899.7	8202.67
900.015	8178.71
900.33	8122.89
900.644	8143.68
900.959	8136
901.273	8095.78
901.588	8044.7
901.902	8041.09
902.216	8007.87
902.531	8053.52
902.845	7932.84
903.159	7898.94
903.473	7910.02
903.787	7843.13
904.101	7754.99
904.415	7842
904.729	7745.73
905.042	7750.7
905.356	7739.4
905.67	7685.84
905.984	7653.53
906.297	7611.27
906.611	7566.98
906.924	7587.09
907.237	7560.2
907.551	7565.17
907.864	7546.19
908.177	7476.36
908.491	7455.11
908.804	7390.03
909.117	7296.7
909.43	7284.95
909.743	7288.57
910.056	7224.16
910.368	7232.52
910.681	7210.38
910.994	7170.15
911.307	7177.38
911.619	7098.74
911.932	7110.49
912.244	7023.49
912.557	7021.91
912.869	6985.52
913.181	6974
913.494	6952.98
913.806	6935.35
914.118	6839.99
914.43	6866.2
914.742	6845.64
915.054	6821.23
915.366	6809.93
915.678	6755.25
915.99	6698.3
916.302	6636.83
916.613	6644.51
916.925	6627.79
917.236	6600.9
917.548	6581.92
917.859	6570.39
918.171	6506.89
918.482	6483.84
918.794	6430.51
919.105	6432.99
919.416	6450.4
919.727	6391.87
920.038	6418.08
920.349	6302.38
920.66	6272.32
920.971	6327.23
921.282	6292.21
921.593	6239.55
921.903	6261.7
922.214	6141.93
922.525	6188.71
922.835	6163.85
923.146	6080.24
923.456	6120.46
923.767	6126.34
924.077	6068.71
924.387	6031.2
924.697	5942.39
925.008	5968.6
925.318	5902.16
925.628	5936.28
925.938	5901.48
926.248	5892.22
926.558	5844.54
926.867	5855.16
927.177	5819.23
927.487	5789.85
927.796	5750.75
928.106	5675.95
928.416	5741.04
928.725	5692
929.034	5683.64
929.344	5676.4
929.653	5662.39
929.962	5593.24
930.271	5570.87
930.581	5595.73
930.89	5592.34
931.199	5479.8
931.508	5514.83
931.817	5497.88
932.125	5446.35
932.434	5447.71
932.743	5372.68
933.051	5348.96
933.36	5335.85
933.669	5355.96
933.977	5291.33
934.286	5269.86
934.594	5292.91
934.902	5276.64
935.21	5198
935.519	5191.67
935.827	5169.07
936.135	5177.66
936.443	5101.96
936.751	5108.51
937.059	5048.62
937.367	5106.02
937.674	5082.75
937.982	5002.98
938.29	4981.96
938.597	5006.82
938.905	4959.36
939.213	4944.67
939.52	4926.37
939.827	4910.32
940.135	4871
940.442	4832.81
940.749	4843.43
941.056	4847.27
941.363	4819.03
941.67	4796.43
941.977	4765.92
942.284	4707.62
942.591	4733.83
942.898	4722.98
943.205	4690.67
943.511	4672.36
943.818	4659.48
944.125	4607.28
944.431	4574.74
944.738	4586.49
945.044	4562.31
945.35	4560.73
945.657	4506.72
945.963	4504.91
946.269	4438.7
946.575	4524.34
946.881	4429.66
947.187	4431.01
947.493	4409.77
947.799	4403.67
948.105	4386.04
948.41	4307.17
948.716	4344.24
949.022	4289.77
949.327	4315.08
949.633	4281.41
949.938	4255.42
950.244	4255.2
950.549	4252.71
950.854	4252.26
951.16	4144.02
951.465	4169.1
951.77	4187.63
952.075	4137.24
952.38	4118.48
952.685	4084.36
952.99	4067.18
953.294	4115.99
953.599	3975.66
953.904	3995.77
954.209	4029.44
954.513	3988.77
954.818	3957.13
955.122	3958.71
955.426	3917.35
955.731	3952.38
956.035	3894.76
956.339	3885.49
956.643	3850.69
956.948	3867.64
957.252	3811.59
957.556	3791.48
957.86	3843.91
958.163	3767.98
958.467	3768.88
958.771	3804.59
959.075	3766.17
959.378	3728.43
959.682	3755.32
959.985	3694.08
960.289	3703.12
960.592	3685.27
960.896	3680.52
961.199	3658.15
961.502	3622.22
961.805	3644.37
962.108	3595.33
962.411	3581.09
962.714	3556.69
963.017	3560.3
963.32	3537.03
963.623	3545.61
963.926	3519.17
964.228	3497.7
964.531	3474.88
964.833	3469
965.136	3434.43
965.438	3419.51
965.741	3449.34
966.043	3418.38
966.345	3377.93
966.648	3389.91
966.95	3372.06
967.252	3369.35
967.554	3321.89
967.856	3298.16
968.158	3271.04
968.46	3318.73
968.761	3261.78
969.063	3277.15
969.365	3239.63
969.666	3279.63
969.968	3196.92
970.269	3210.93
970.571	3179.07
970.872	3165.06
971.174	3145.85
971.475	3145.17
971.776	3160.99
972.077	3053.65
972.378	3106.08
972.679	3061.78
972.98	3079.64
973.281	3099.75
973.582	3076.7
973.883	3048
974.183	3022.46
974.484	3015.23
974.785	3006.19
975.085	3010.49
975.386	3014.78
975.686	2942.92
975.986	2921.9
976.287	2944.72
976.587	2951.96
976.887	2918.06
977.187	2891.84
977.487	2886.87
977.787	2871.28
978.087	2860.43
978.387	2857.27
978.687	2822.47
978.987	2810.49
979.286	2802.36
979.586	2808.23
979.885	2802.13
980.185	2784.5
980.484	2765.97
980.784	2742.47
981.083	2721.23
981.382	2731.85
981.682	2723.26
981.981	2681.91
982.28	2702.7
982.579	2679.65
982.878	2649.37
983.177	2625.86
983.475	2654.56
983.774	2615.92
984.073	2610.04
984.372	2607.11
984.67	2609.82
984.969	2588.12
985.267	2556.26
985.566	2563.27
985.864	2569.59
986.162	2505.87
986.461	2490.05
986.759	2529.37
987.057	2525.3
987.355	2474.91
987.653	2476.71
987.951	2456.6
988.249	2454.34
988.547	2449.6
988.844	2409.6
989.142	2405.08
989.44	2418.86
989.737	2378.19
990.035	2379.77
990.332	2347
990.63	2375.47
990.927	2360.11
991.224	2326.44
991.521	2302.48
991.819	2347.68
992.116	2328.47
992.413	2304.97
992.71	2304.74
993.006	2276.49
993.303	2262.03
993.6	2263.84
993.897	2268.13
994.193	2206.67
994.49	2215.48
994.787	2222.03
995.083	2226.33
995.379	2195.14
995.676	2234.46
995.972	2184.29
996.268	2156.05
996.565	2157.17
996.861	2141.81
997.157	2122.37
997.453	2137.06
997.749	2125.31
998.044	2114.92
998.34	2058.42
998.636	2089.61
998.932	2091.41
999.227	2061.36
999.523	2066.33
999.818	2037.86
1000.114	2037.18
1000.409	2023.62
1000.704	2030.4
1001	1974.58
1001.295	1951.98
1001.59	1960.34
1001.885	1962.83
1002.18	1927.8
1002.475	1942.94
1002.77	1937.75
1003.065	1928.03
1003.359	1900.91
1003.654	1910.18
1003.949	1897.52
1004.243	1884.87
1004.538	1871.76
1004.832	1874.24
1005.127	1878.76
1005.421	1842.61
1005.715	1831.99
1006.009	1837.41
1006.304	1830.18
1006.598	1823.85
1006.892	1792.66
1007.186	1768.26
1007.48	1773.68
1007.773	1745.66
1008.067	1714.7
1008.361	1741.37
1008.655	1736.62
1008.948	1716.73
1009.242	1738.43
1009.535	1695.49
1009.829	1696.62
1010.122	1696.17
1010.415	1690.97
1010.708	1648.04
1011.001	1649.17
1011.295	1660.24
1011.588	1644.87
1011.881	1624.53
1012.173	1604.65
1012.466	1609.17
1012.759	1586.12
1013.052	1600.81
1013.344	1614.36
1013.637	1553.35
1013.93	1560.13
1014.222	1536.17
1014.514	1530.52
1014.807	1520.58
1015.099	1516.74
1015.391	1529.62
1015.683	1514.71
1015.976	1497.76
1016.268	1476.74
1016.56	1510.64
1016.851	1460.7
1017.143	1441.49
1017.435	1462.05
1017.727	1469.74
1018.018	1440.81
1018.31	1422.05
1018.602	1418.66
1018.893	1412.34
1019.185	1416.4
1019.476	1361.94
1019.767	1389.96
1020.058	1379.12
1020.35	1364.43
1020.641	1341.83
1020.932	1321.26
1021.223	1339.8
1021.514	1312.45
1021.804	1299.8
1022.095	1313.36
1022.386	1337.31
1022.677	1302.96
1022.967	1307.48
1023.258	1282.62
1023.548	1280.36
1023.839	1285.11
1024.129	1268.16
1024.419	1263.87
1024.709	1263.41
1025	1248.27
1025.29	1215.28
1025.58	1222.28
1025.87	1193.81
1026.16	1211.89
1026.449	1196.52
1026.739	1195.62
1027.029	1182.96
1027.319	1191.78
1027.608	1186.58
1027.898	1151.55
1028.187	1127.82
1028.477	1124.66
1028.766	1142.96
1029.055	1120.82
1029.344	1138.44
1029.634	1110.87
1029.923	1130.76
1030.212	1116.52
1030.501	1107.71
1030.79	1087.6
1031.078	1077.43
1031.367	1092.8
1031.656	1082.17
1031.945	1034.94
1032.233	1064.55
1032.522	1046.92
1032.81	1031.78
1033.099	1044.89
1033.387	1034.94
1033.675	1003.08
1033.963	1019.13
1034.251	1021.61
1034.54	999.92
1034.828	973.93
1035.116	981.61
1035.403	965.57
1035.691	996.75
1035.979	965.34
1036.267	957.66
1036.554	959.69
1036.842	950.43
1037.129	938.9
1037.417	964.66
1037.704	938.68
1037.992	921.95
1038.279	918.79
1038.566	909.98
1038.853	909.98
1039.14	909.98
