Data from hue_32_FLMS001491_00097.txt Node
Date: Tue Feb 07 17:24:17 GMT 2017
User: dcchb
Spectrometer: FLMS00149
Trigger mode: 0
Integration Time (sec): 2.000000E-2
Scans to average: 10
Electric dark correction enabled: true
Nonlinearity correction enabled: false
Boxcar width: 0
XAxis mode: Wavelengths
Number of Pixels in Spectrum: 2048
>>>>>Begin Spectral Data<<<<<
341.393	-15.08
341.776	-15.08
342.16	-15.08
342.543	-57.12
342.927	-58.25
343.31	-63.22
343.693	-70.68
344.077	-68.64
344.46	-41.98
344.843	-72.48
345.226	-50.34
345.61	-40.39
345.993	-27.29
346.376	22.43
346.759	7.74
347.142	30.34
347.525	43.45
347.908	64.01
348.291	81.86
348.674	85.48
349.057	99.71
349.44	136.78
349.823	141.52
350.206	150.79
350.588	198.02
350.971	219.26
351.354	263.33
351.737	249.54
352.119	248.19
352.502	256.77
352.884	252.25
353.267	299.26
353.65	299.03
354.032	283.66
354.414	297
354.797	315.08
355.179	312.14
355.562	322.08
355.944	350.56
356.326	328.41
356.709	327.73
357.091	340.39
357.473	363.44
357.855	335.64
358.238	335.87
358.62	339.48
359.002	341.52
359.384	361.63
359.766	345.36
360.148	343.55
360.53	349.88
360.912	336.54
361.294	343.1
361.676	350.33
362.057	345.58
362.439	341.06
362.821	362.53
363.203	338.8
363.584	327.73
363.966	330.22
364.348	313.95
364.729	332.7
365.111	309.88
365.493	322.08
365.874	338.35
366.256	327.51
366.637	323.21
367.019	304.68
367.4	336.77
367.781	312.36
368.163	316.88
368.544	336.54
368.925	323.21
369.306	320.27
369.688	316.43
370.069	313.72
370.45	320.95
370.831	318.47
371.212	304.23
371.593	326.83
371.974	326.15
372.355	342.42
372.736	332.25
373.117	307.85
373.498	333.61
373.879	348.97
374.26	361.85
374.641	316.88
375.021	322.99
375.402	323.89
375.783	338.35
376.163	327.73
376.544	334.51
376.925	316.66
377.305	329.09
377.686	345.58
378.066	342.42
378.447	329.09
378.827	347.39
379.208	334.28
379.588	348.97
379.968	333.61
380.349	316.88
380.729	340.16
381.109	354.4
381.489	351.46
381.87	345.58
382.25	354.85
382.63	342.42
383.01	356.66
383.39	359.14
383.77	353.49
384.15	355.08
384.53	361.4
384.91	323.44
385.29	369.76
385.67	349.43
386.049	352.36
386.429	356.21
386.809	342.65
387.189	365.7
387.568	363.44
387.948	382.42
388.328	362.76
388.707	358.24
389.087	361.85
389.466	373.83
389.846	350.1
390.225	361.18
390.605	377.9
390.984	366.15
391.363	388.52
391.743	380.84
392.122	372.25
392.501	384.91
392.881	374.28
393.26	388.97
393.639	380.39
394.018	393.04
394.397	381.97
394.776	390.1
395.155	378.35
395.534	394.4
395.913	395.07
396.292	399.14
396.671	403.89
397.05	387.16
397.429	393.04
397.808	394.4
398.186	403.21
398.565	390.33
398.944	400.5
399.323	395.75
399.701	402.53
400.08	414.73
400.458	417.45
400.837	403.66
401.215	427.39
401.594	444.34
401.972	432.59
402.351	412.48
402.729	426.49
403.107	410.67
403.486	419.25
403.864	417.45
404.242	414.51
404.62	438.46
404.999	440.72
405.377	422.42
405.755	421.97
406.133	419.03
406.511	445.92
406.889	441.63
407.267	454.06
407.645	442.76
408.023	471
408.401	450.89
408.779	462.87
409.156	457.67
409.534	471
409.912	467.61
410.29	466.94
410.667	462.87
411.045	464
411.422	455.41
411.8	464.68
412.178	476.43
412.555	481.63
412.933	473.04
413.31	491.57
413.687	469.87
414.065	483.89
414.442	513.04
414.819	497.22
415.197	487.05
415.574	492.92
415.951	500.83
416.328	511.23
416.705	518.91
417.082	511.46
417.46	506.03
417.837	523.21
418.214	513.72
418.591	516.88
418.967	524.79
419.344	525.24
419.721	533.6
420.098	547.39
420.475	536.31
420.852	539.7
421.228	543.09
421.605	546.71
421.982	547.84
422.358	559.14
422.735	571.11
423.111	532.7
423.488	591.68
423.864	556.65
424.241	563.21
424.617	566.14
424.994	560.72
425.37	556.2
425.746	589.19
426.123	595.07
426.499	604.33
426.875	589.42
427.251	614.05
427.627	623.99
428.003	612.92
428.379	604.33
428.756	603.2
429.132	617.67
429.507	619.93
429.883	616.09
430.259	635.52
430.635	647.95
431.011	642.75
431.387	642.53
431.763	654.05
432.138	660.38
432.514	654.28
432.89	639.81
433.265	698.8
433.641	674.62
434.016	668.97
434.392	697.89
434.767	708.96
435.143	702.18
435.518	714.16
435.894	696.31
436.269	702.86
436.644	752.35
437.02	700.6
437.395	736.53
437.77	736.53
438.145	732.92
438.52	749.19
438.895	767.95
439.271	756.65
439.646	772.24
440.021	768.62
440.395	770.66
440.77	767.49
441.145	783.09
441.52	781.05
441.895	794.61
442.27	773.14
442.645	818.57
443.019	810.43
443.394	808.85
443.769	817.21
444.143	808.17
444.518	791.22
444.892	818.34
445.267	820.6
445.641	828.28
446.016	833.48
446.39	858.11
446.764	827.61
447.139	849.07
447.513	861.28
447.887	847.94
448.262	852.69
448.636	871.45
449.01	874.38
449.384	866.93
449.758	870.09
450.132	894.95
450.506	908.06
450.88	896.76
451.254	897.21
451.628	903.54
452.002	926.59
452.376	925.68
452.75	914.83
453.123	930.88
453.497	936.76
453.871	947.38
454.244	969.3
454.618	990.76
454.992	1009.07
455.365	990.54
455.739	1007.04
456.112	1020.14
456.486	1014.72
456.859	1028.5
457.232	1029.41
457.606	1059.69
457.979	1059.92
458.352	1075.51
458.725	1092.46
459.099	1099.69
459.472	1107.37
459.845	1112.34
460.218	1113.7
460.591	1114.6
460.964	1157.54
461.337	1162.74
461.71	1166.35
462.083	1188.73
462.456	1217.2
462.829	1218.78
463.201	1218.78
463.574	1228.95
463.947	1255.16
464.32	1279.34
464.692	1270.31
465.065	1282.06
465.438	1310.53
465.81	1355.73
466.183	1345.78
466.555	1381.26
466.928	1337.2
467.3	1361.38
467.672	1414.93
468.045	1449.06
468.417	1444.09
468.789	1428.27
469.161	1448.61
469.534	1490.86
469.906	1509.4
470.278	1525.89
470.65	1566.34
471.022	1586.91
471.394	1608.38
471.766	1639.34
472.138	1666.68
472.51	1685.44
472.882	1741.25
473.253	1724.08
473.625	1787.13
473.997	1838.2
474.369	1845.88
474.74	1863.74
475.112	1895.15
475.484	1901.7
475.855	1978.99
476.227	1971.3
476.598	2056.5
476.97	2087.01
477.341	2122.49
477.713	2185.08
478.084	2159.77
478.455	2293.78
478.827	2305.08
479.198	2349.15
479.569	2385.76
479.94	2449.03
480.311	2477.96
480.682	2555.7
481.053	2643.83
481.424	2705.97
481.795	2746.65
482.166	2837.27
482.537	2853.99
482.908	2922.24
483.279	2959.98
483.65	3060.09
484.021	3162.91
484.391	3184.83
484.762	3224.6
485.133	3313.87
485.503	3346.18
485.874	3470.02
486.244	3516.8
486.615	3624.82
486.985	3663.01
487.356	3778.49
487.726	3818.04
488.097	3945.04
488.467	3982.32
488.837	4077.24
489.207	4187.07
489.578	4229.32
489.948	4308.42
490.318	4391.35
490.688	4437.68
491.058	4540.28
491.428	4607.17
491.798	4688.29
492.168	4823.66
492.538	4898.68
492.908	4986.14
493.278	5112.69
493.648	5088.28
494.017	5175.06
494.387	5313.82
494.757	5353.36
495.126	5413.25
495.496	5462.06
495.866	5508.84
496.235	5679.91
496.605	5697.08
496.974	5815.27
497.344	5832.45
497.713	5909.73
498.082	5970.29
498.452	6051.87
498.821	6070.41
499.19	6169.84
499.559	6244.64
499.928	6296.61
500.298	6407.12
500.667	6450.06
501.036	6470.39
501.405	6586.32
501.774	6588.13
502.143	6671.52
502.512	6776.38
502.88	6814.57
503.249	6799.88
503.618	6884.4
503.987	6915.58
504.356	6983.38
504.724	6993.32
505.093	7085.97
505.462	7118.74
505.83	7198.74
506.199	7215.23
506.567	7358.28
506.936	7333.42
507.304	7449.13
507.672	7518.28
508.041	7523.7
508.409	7613.42
508.777	7639.86
509.145	7681.44
509.514	7710.36
509.882	7826.52
510.25	7819.96
510.618	7912.84
510.986	7913.07
511.354	7974.99
511.722	8059.51
512.09	8120.75
512.458	8172.5
512.826	8229.44
513.193	8280.06
513.561	8273.06
513.929	8359.84
514.297	8446.84
514.664	8512.38
515.032	8535.88
515.4	8539.72
515.767	8583.79
516.135	8636.21
516.502	8621.98
516.869	8721.64
517.237	8751.92
517.604	8738.58
517.972	8839.15
518.339	8945.13
518.706	8933.15
519.073	8911.69
519.44	8967.96
519.808	9099.25
520.175	9064.9
520.542	9249.53
520.909	9211.57
521.276	9189.65
521.643	9244.79
522.009	9372.24
522.376	9379.24
522.743	9465.8
523.11	9542.18
523.477	9588.73
523.843	9629.18
524.21	9763.87
524.577	9884.99
524.943	9809.97
525.31	9929.74
525.676	9983.97
526.043	9999.79
526.409	10032.11
526.776	10182.61
527.142	10205.21
527.508	10255.38
527.874	10334.02
528.241	10383.51
528.607	10444.53
528.973	10475.94
529.339	10441.36
529.705	10590.74
530.071	10728.14
530.437	10705.09
530.803	10746.44
531.169	10835.93
531.535	10791.41
531.901	10925.64
532.267	10942.82
532.632	11037.28
532.998	11008.13
533.364	11089.48
533.73	11123.38
534.095	11209.71
534.461	11283.15
534.826	11306.2
535.192	11395.24
535.557	11417.16
535.923	11470.49
536.288	11483.82
536.653	11555.68
537.019	11546.87
537.384	11616.02
537.749	11692.18
538.114	11645.4
538.479	11665.96
538.845	11750.93
539.21	11835.9
539.575	11819.41
539.94	11871.61
540.305	11992.74
540.67	11982.11
541.034	12037.93
541.399	12082.22
541.764	12136.46
542.129	12156.12
542.494	12263.91
542.858	12345.27
543.223	12311.37
543.587	12417.13
543.952	12379.62
544.316	12463.46
544.681	12406.28
545.045	12618.93
545.41	12691.02
545.774	12666.39
546.138	12652.38
546.503	12746.16
546.867	12790.23
547.231	12863.22
547.595	12906.61
547.959	12908.64
548.324	13017.57
548.688	12969.66
549.052	12979.6
549.416	13076.77
549.779	13097.34
550.143	13241.97
550.507	13248.07
550.871	13325.36
551.235	13311.12
551.599	13408.07
551.962	13498.91
552.326	13449.42
552.689	13549.08
553.053	13476.09
553.417	13513.15
553.78	13656.87
554.143	13710.43
554.507	13720.37
554.87	13759.24
555.234	13813.25
555.597	13856.42
555.96	13867.26
556.323	13949.29
556.686	14012.12
557.05	13986.58
557.413	14128.05
557.776	14159.91
558.139	14210.98
558.502	14271.77
558.865	14236.74
559.228	14377.53
559.59	14391.99
559.953	14392.9
560.316	14571.88
560.679	14509.96
561.041	14674.25
561.404	14687.58
561.767	14783.62
562.129	14751.53
562.492	14967.12
562.854	14892.55
563.217	14847.8
563.579	14915.82
563.941	15021.13
564.304	15037.4
564.666	15129.38
565.028	15121.01
565.39	15231.07
565.753	15308.58
566.115	15362.59
566.477	15399.43
566.839	15458.63
567.201	15517.61
567.563	15593.32
567.925	15612.98
568.287	15658.4
568.648	15732.07
569.01	15819.53
569.372	15884.38
569.734	15834.89
570.095	15901.11
570.457	16092.97
570.819	16105.85
571.18	16186.3
571.542	16224.94
571.903	16317.59
572.265	16370.93
572.626	16431.49
572.987	16487.76
573.349	16640.75
573.71	16656.57
574.071	16713.06
574.432	16875.32
574.794	17041.87
575.155	17034.18
575.516	16953.74
575.877	17188.98
576.238	17262.2
576.599	17428.75
576.96	17485.25
577.32	17567.5
577.681	17739.48
578.042	17797.33
578.403	17906.7
578.763	17988.96
579.124	18150.09
579.485	18284.32
579.845	18429.18
580.206	18564.31
580.566	18641.83
580.927	18857.64
581.287	19119.55
581.648	19084.3
582.008	19404.97
582.368	19514.57
582.728	19766.09
583.089	19875.47
583.449	20036.82
583.809	20262.8
584.169	20515.9
584.529	20696.01
584.889	20993.18
585.249	20999.96
585.609	21231.36
585.969	21495.76
586.329	21684.23
586.688	22019.82
587.048	22246.03
587.408	22315.18
587.768	22665.22
588.127	22797.42
588.487	23035.38
588.846	23331.87
589.206	23467.69
589.565	23722.37
589.925	24125.52
590.284	24282.36
590.643	24708.33
591.003	24847.31
591.362	25150.36
591.721	25370.24
592.08	25712.83
592.44	26075.53
592.799	26221.74
593.158	26497.44
593.517	26772.01
593.876	26981.04
594.235	27237.76
594.593	27418.77
594.952	27829.83
595.311	28036.83
595.67	28341.91
596.029	28738.74
596.387	29062.12
596.746	29397.25
597.104	29341.21
597.463	29624.14
597.822	30039.04
598.18	30182.54
598.538	30318.13
598.897	30705.69
599.255	30741.62
599.613	31564.2
599.972	31496.63
600.33	31825.21
600.688	31978.42
601.046	32192.66
601.404	32661.34
601.762	32703.38
602.12	33144.95
602.478	33355.11
602.836	33422.45
603.194	33577.03
603.552	33839.84
603.91	33814.31
604.268	34324.35
604.625	34358.93
604.983	34772.02
605.341	34865.81
605.698	35084.33
606.056	35419.92
606.413	35450.65
606.771	35731.55
607.128	35933.12
607.485	36051.09
607.843	36162.27
608.2	36509.15
608.557	36731.07
608.914	36811.74
609.272	37137.61
609.629	37320.66
609.986	37455.34
610.343	37605.4
610.7	38074.99
611.057	38071.37
611.414	38192.72
611.771	38337.13
612.127	38594.52
612.484	38766.27
612.841	38960.84
613.198	38911.12
613.554	39036.32
613.911	39459.13
614.267	39429.53
614.624	39432.24
614.98	39692.8
615.337	40166.91
615.693	39912.23
616.05	40062.96
616.406	40409.16
616.762	40307.25
617.118	40454.36
617.475	40634.69
617.831	40876.72
618.187	40925.08
618.543	41072.87
618.899	41267.22
619.255	41355.58
619.611	41231.51
619.967	41590.6
620.323	41772.52
620.678	41754.44
621.034	41652.52
621.39	41681.45
621.746	41784.04
622.101	42258.38
622.457	42039.18
622.812	42180.64
623.168	42393.29
623.523	42432.39
623.879	42559.39
624.234	42339.28
624.589	42501.99
624.945	42655.66
625.3	42750.12
625.655	42648.88
626.01	42756.22
626.365	42897.23
626.72	42848.65
627.075	42849.78
627.43	42874.86
627.785	42727.29
628.14	42873.73
628.495	43086.83
628.85	42936.78
629.205	42938.36
629.559	43214.97
629.914	43094.74
630.269	43137.68
630.623	43203.67
630.978	43026.5
631.332	43227.85
631.687	43384.23
632.041	43266.49
632.396	43390.55
632.75	43231.01
633.104	43391.46
633.459	43186.72
633.813	43166.15
634.167	43200.05
634.521	43203.89
634.875	43236.43
635.229	43090.22
635.583	43109.66
635.937	43162.31
636.291	43183.1
636.645	43263.33
636.999	43120.28
637.352	43294.51
637.706	42881.41
638.06	43300.61
638.413	43217.9
638.767	43020.85
639.121	43183.33
639.474	42863.34
639.828	43055.65
640.181	43059.72
640.534	43120.73
640.888	43005.71
641.241	42822.89
641.594	43028.76
641.947	42973.62
642.301	43037.12
642.654	42968.64
643.007	42934.52
643.36	42999.83
643.713	42897.01
644.066	43107.4
644.419	42721.19
644.771	42529.11
645.124	42377.47
645.477	42190.13
645.83	41920.31
646.182	41791.73
646.535	41664.72
646.888	41838.28
647.24	41573.43
647.593	41763.48
647.945	41673.31
648.298	41441
648.65	41361.45
649.002	41394.67
649.355	41497.5
649.707	41504.95
650.059	41732.29
650.411	42210.92
650.763	42207.99
651.115	42488.2
651.467	42287.08
651.819	42579.05
652.171	42371.15
652.523	42292.28
652.875	42390.35
653.227	42149.91
653.578	42379.06
653.93	42381.32
654.282	42268.1
654.633	42119.85
654.985	42287.31
655.337	42200.3
655.688	42258.83
656.039	42462.67
656.391	42057.48
656.742	42174.09
657.094	42175.22
657.445	42233.3
657.796	42186.07
658.147	42088.67
658.498	42079.63
658.849	42166.86
659.2	42185.84
659.551	42003.92
659.902	42177.93
660.253	42062
660.604	42138.38
660.955	41955.79
661.306	42282.33
661.656	41980.87
662.007	42064.71
662.358	42001.44
662.708	41906.3
663.059	42065.84
663.409	41653.42
663.76	42167.08
664.11	42021.55
664.461	42032.17
664.811	42151.72
665.161	42041.89
665.511	41895.23
665.862	41999.63
666.212	41929.8
666.562	41868.56
666.912	41790.6
667.262	41662.01
667.612	41797.15
667.962	41989.91
668.312	41755.12
668.662	41840.99
669.011	41763.7
669.361	41879.41
669.711	41775.68
670.06	41679.19
670.41	41667.66
670.76	41772.29
671.109	41859.29
671.459	41785.62
671.808	41820.43
672.157	41784.72
672.507	41512.19
672.856	41539.76
673.205	41591.73
673.554	41762.35
673.904	41660.88
674.253	41763.93
674.602	41613.65
674.951	41242.14
675.3	40923.73
675.649	41428.57
675.998	41471.96
676.346	41479.64
676.695	41518.29
677.044	41312.42
677.393	41423.83
677.741	41569.58
678.09	41363.26
678.438	41240.33
678.787	41386.31
679.135	41405.97
679.484	41066.32
679.832	41268.58
680.181	40883.05
680.529	41189.93
680.877	40972.54
681.225	41003.05
681.573	41296.15
681.922	40935.48
682.27	40721.7
682.618	40875.14
682.966	40659.78
683.314	40801.47
683.661	40767.57
684.009	40468.6
684.357	40491.42
684.705	40475.38
685.053	40495.49
685.4	40450.29
685.748	40157.87
686.095	40149.51
686.443	40132.56
686.79	39981.15
687.138	40046.91
687.485	40138.44
687.832	40069.51
688.18	40004.2
688.527	39836.3
688.874	39776.86
689.221	39730.99
689.568	39521.73
689.915	39561.73
690.262	39599.24
690.609	39387.95
690.956	39165.81
691.303	39245.13
691.65	39099.59
691.997	39010.1
692.344	38825.02
692.69	38754.97
693.037	38776.44
693.383	38540.74
693.73	38689.89
694.077	38345.26
694.423	38487.63
694.769	38364.7
695.116	38257.13
695.462	38251.93
695.808	38151.6
696.155	38116.34
696.501	37881.77
696.847	37888.1
697.193	37595
697.539	37728.78
697.885	37552.74
698.231	37397.49
698.577	37444.04
698.923	37305.06
699.269	37069.36
699.614	37075.92
699.96	36974.23
700.306	37018.07
700.651	36877.73
700.997	36723.61
701.342	36588.92
701.688	36506.22
702.033	36577.4
702.379	36433.67
702.724	36298.76
703.069	36508.7
703.415	35957.76
703.76	36090.63
704.105	36015.83
704.45	36000.47
704.795	35829.4
705.14	35706.91
705.485	35751.43
705.83	35529.52
706.175	35539.01
706.52	35314.38
706.865	35356.87
707.209	35351.67
707.554	35294.04
707.899	35340.82
708.243	35032.13
708.588	34977.89
708.932	34837.78
709.277	34796.43
709.621	34888.4
709.966	34488.87
710.31	34656.77
710.654	34377.91
710.998	34347.63
711.342	34485.25
711.687	34380.4
712.031	34252.94
712.375	34066.51
712.719	34111.93
713.063	34131.14
713.407	34172.94
713.75	33874.65
714.094	33889.33
714.438	33741.09
714.782	33853.86
715.125	33617.7
715.469	33708.77
715.812	33473.07
716.156	33269.46
716.499	33328.45
716.843	33367.54
717.186	33055.01
717.53	33384.94
717.873	33176.59
718.216	33293.42
718.559	32958.51
718.902	32851.4
719.246	32867.21
719.589	32803.49
719.932	32571.63
720.275	32727.78
720.617	32724.85
720.96	32591.97
721.303	32574.12
721.646	32695.24
721.989	32352.43
722.331	32527.11
722.674	32384.74
723.016	32502.48
723.359	32365.99
723.701	32301.81
724.044	32056.84
724.386	32031.98
724.729	32066.33
725.071	32098.65
725.413	32053.68
725.755	31983.17
726.097	31818.2
726.439	31623.41
726.782	31624.08
727.124	31818.43
727.465	31634.93
727.807	31568.72
728.149	31621.82
728.491	31512
728.833	31626.8
729.175	31371.66
729.516	31337.09
729.858	31315.84
730.199	31322.17
730.541	31242.62
730.882	31297.54
731.224	31276.75
731.565	31116.53
731.906	31003.54
732.248	31012.12
732.589	30915.63
732.93	30733.71
733.271	30901.39
733.612	30834.73
733.953	30920.37
734.294	30693.26
734.635	30761.51
734.976	30737.1
735.317	30620.04
735.658	30603.55
735.999	30549.31
736.339	30451.46
736.68	30610.55
737.021	30246.04
737.361	30367.17
737.702	30437.9
738.042	30361.74
738.383	30315.87
738.723	30324
739.063	30318.36
739.404	30143.22
739.744	30026.61
740.084	30032.49
740.424	30107.74
740.764	29992.94
741.104	30068.87
741.444	29869.55
741.784	29763.12
742.124	29850.12
742.464	29687.64
742.804	29793.17
743.143	29682.67
743.483	29695.32
743.823	29623.68
744.162	29569.67
744.502	29546.85
744.841	29467.08
745.181	29595.21
745.52	29322.22
745.86	29381.66
746.199	29340.3
746.538	29355.22
746.877	29360.19
747.216	29387.76
747.556	29283.58
747.895	29268.67
748.234	29145.73
748.573	29169.68
748.911	28956.13
749.25	28968.56
749.589	28924.04
749.928	28884.49
750.267	28891.73
750.605	28880.88
750.944	28832.29
751.283	28695.35
751.621	28703.03
751.96	28496.26
752.298	28540.1
752.636	28608.34
752.975	28374.9
753.313	28348.69
753.651	28510.49
753.989	28167
754.327	28265.3
754.666	28154.34
755.004	28100.79
755.342	28184.85
755.679	28096.72
756.017	27854.69
756.355	28005.87
756.693	27749.84
757.031	27986.89
757.368	27791.64
757.706	27647.69
758.044	27661.02
758.381	27677.29
758.719	27584.19
759.056	27568.82
759.394	27475.27
759.731	27326.57
760.068	27217.19
760.405	27127.7
760.743	27064.88
761.08	27144.88
761.417	27074.6
761.754	26787.37
762.091	26894.72
762.428	26752.57
762.765	26644.33
763.102	26687.49
763.438	26553.71
763.775	26420.15
764.112	26464.22
764.449	26516.65
764.785	26330.66
765.122	26152.14
765.458	26092.93
765.795	25953.72
766.131	25937.23
766.467	25838.93
766.804	25796.89
767.14	25685.26
767.476	25641.87
767.812	25599.38
768.148	25471.93
768.485	25446.62
768.821	25282.78
769.157	25302.89
769.492	25087.08
769.828	25191.48
770.164	24930.25
770.5	24853.87
770.836	24923.24
771.171	24634.44
771.507	24670.59
771.842	24507.89
772.178	24594.66
772.513	24541.11
772.849	24297.04
773.184	24282.81
773.519	24198.97
773.855	24077.62
774.19	24083.49
774.525	24036.71
774.86	23896.83
775.195	23858.86
775.53	23710.62
775.865	23625.65
776.2	23455.03
776.535	23415.03
776.87	23301.82
777.205	23162.39
777.539	23172.1
777.874	23123.52
778.209	22890.98
778.543	22987.25
778.878	22731.44
779.212	22728.05
779.547	22577.54
779.881	22675.39
780.215	22481.05
780.55	22474.04
780.884	22390.43
781.218	22434.04
781.552	22366.47
781.886	22141.85
782.22	22028.86
782.554	22035.64
782.888	21814.85
783.222	21737.34
783.556	21627.28
783.889	21655.08
784.223	21324.92
784.557	21418.48
784.89	21317.69
785.224	21265.26
785.557	21115.66
785.891	21044.02
786.224	21037.92
786.558	21030.69
786.891	20883.35
787.224	20793.18
787.557	20642
787.891	20686.07
788.224	20680.42
788.557	20608.78
788.89	20510.25
789.223	20484.04
789.556	20408.33
789.888	20256.7
790.221	20214.89
790.554	20075.46
790.887	20083.82
791.219	20000.21
791.552	19976.25
791.884	19878.86
792.217	19785.98
792.549	19738.75
792.882	19558.41
793.214	19556.38
793.546	19576.49
793.879	19399.32
794.211	19263.5
794.543	19411.3
794.875	19274.58
795.207	19353.9
795.539	19156.39
795.871	19172.66
796.203	18919.79
796.535	18857.64
796.867	18876.62
797.198	18898.54
797.53	18802.95
797.862	18740.13
798.193	18769.05
798.525	18655.84
798.856	18702.62
799.188	18412.45
799.519	18299.69
799.85	18286.81
800.182	18273.47
800.513	18293.81
800.844	18028.51
801.175	18174.04
801.506	18116.19
801.837	18100.15
802.168	17976.98
802.499	17948.51
802.83	17863.54
803.161	17841.17
803.491	17862.86
803.822	17743.77
804.153	17621.74
804.483	17543.1
804.814	17530.89
805.145	17509.65
805.475	17448.86
805.805	17435.76
806.136	17360.96
806.466	17340.62
806.796	17354.18
807.126	17136.78
807.457	17146.5
807.787	17095.2
808.117	17043.9
808.447	17030.12
808.777	17011.13
809.107	16922.32
809.436	16949.22
809.766	16868.77
810.096	16794.87
810.426	16640.75
810.755	16688.21
811.085	16644.59
811.414	16586.06
811.744	16436.01
812.073	16517.59
812.403	16503.13
812.732	16410.7
813.061	16363.69
813.39	16296.58
813.719	16277.82
814.049	16330.25
814.378	16190.37
814.707	16176.58
815.036	16156.02
815.365	15991.73
815.693	15870.6
816.022	15991.5
816.351	15940.88
816.68	15869.47
817.008	15907.43
817.337	15777.27
817.665	15771.62
817.994	15740.43
818.322	15675.8
818.651	15657.05
818.979	15519.65
819.307	15558.52
819.636	15563.72
819.964	15422.48
820.292	15557.39
820.62	15457.73
820.948	15436.03
821.276	15450.5
821.604	15370.95
821.932	15470.38
822.259	15470.16
822.587	15523.04
822.915	15402.14
823.243	15408.01
823.57	15377.05
823.898	15321.91
824.225	15308.58
824.553	15347
824.88	15379.77
825.207	15357.17
825.535	15311.07
825.862	15301.58
826.189	15331.86
826.516	15374.34
826.843	15415.47
827.17	15314.91
827.497	15396.49
827.824	15312.87
828.151	15377.73
828.478	15436.26
828.805	15395.36
829.131	15301.8
829.458	15291.18
829.785	15222.93
830.111	15348.35
830.438	15383.83
830.764	15314.46
831.09	15242.82
831.417	15247.11
831.743	15319.65
832.069	15308.13
832.395	15238.75
832.722	15280.78
833.048	15188.36
833.374	15260.67
833.7	15142.26
834.026	15243.05
834.351	15223.39
834.677	15167.12
835.003	15196.04
835.329	15149.04
835.654	15187.91
835.98	15082.82
836.306	15092.09
836.631	14997.18
836.956	15038.53
837.282	14973.67
837.607	14970.06
837.932	14966.67
838.258	14918.76
838.583	14883.05
838.908	14817.52
839.233	14814.81
839.558	14787.24
839.883	14788.82
840.208	14768.93
840.533	14790.85
840.858	14680.57
841.182	14734.13
841.507	14612.33
841.832	14537.53
842.156	14604.42
842.481	14592.44
842.805	14546.57
843.13	14545.89
843.454	14480.58
843.778	14384.31
844.103	14344.09
844.427	14398.77
844.751	14411.43
845.075	14344.54
845.399	14253.92
845.723	14094.83
846.047	14200.81
846.371	14032.23
846.695	14049.4
847.019	13867.04
847.343	13933.02
847.666	13763.31
847.99	13799.69
848.313	13830.65
848.637	13695.97
848.96	13660.49
849.284	13675.18
849.607	13518.35
849.931	13528.74
850.254	13428.63
850.577	13286.26
850.9	13291.46
851.223	13196.32
851.546	13149.99
851.869	13167.62
852.192	13149.99
852.515	13031.35
852.838	12950
853.161	12966.04
853.483	12862.77
853.806	12822.54
854.129	12780.06
854.451	12721.3
854.774	12757.69
855.096	12711.59
855.419	12632.72
855.741	12620.29
856.063	12532.16
856.385	12465.27
856.708	12492.84
857.03	12390.47
857.352	12409.9
857.674	12362.9
857.996	12348.66
858.318	12248.32
858.64	12264.37
858.961	12212.62
859.283	12273.86
859.605	12066.41
859.926	12235.44
860.248	12109.12
860.57	12089.68
860.891	12106.86
861.212	12067.76
861.534	11948.22
861.855	11943.02
862.176	11987.31
862.498	11907.09
862.819	11878.16
863.14	11797.26
863.461	11837.71
863.782	11720.43
864.103	11750.48
864.424	11771.27
864.745	11788
865.065	11686.75
865.386	11635.68
865.707	11654.89
866.027	11644.04
866.348	11639.3
866.668	11550.94
866.989	11556.59
867.309	11502.8
867.63	11548.45
867.95	11501.45
868.27	11435.46
868.59	11463.71
868.91	11432.75
869.23	11358.4
869.55	11365.63
869.87	11435.91
870.19	11364.05
870.51	11384.39
870.83	11440.66
871.15	11329.25
871.469	11281.57
871.789	11329.25
872.109	11315.92
872.428	11175.81
872.748	11256.03
873.067	11199.54
873.386	11164.06
873.706	11151.85
874.025	11129.48
874.344	11112.98
874.663	11166.99
874.982	11061.46
875.301	11126.09
875.62	11045.87
875.939	11105.75
876.258	11042.7
876.577	10972.88
876.896	10978.75
877.214	10889.49
877.533	10984.85
877.852	10978.52
878.17	10922.71
878.489	10887.23
878.807	10988.92
879.125	10866.44
879.444	10868.47
879.762	10830.96
880.08	10827.12
880.398	10823.73
880.716	10783.73
881.034	10728.81
881.352	10722.49
881.67	10612.88
881.988	10654.47
882.306	10634.81
882.624	10639.32
882.941	10618.53
883.259	10548.71
883.577	10545.09
883.894	10501.48
884.212	10519.55
884.529	10451.53
884.846	10405.88
885.164	10437.97
885.481	10315.27
885.798	10370.41
886.115	10270.29
886.432	10291.99
886.75	10319.56
887.067	10323.85
887.383	10262.39
887.7	10257.64
888.017	10140.13
888.334	10203.63
888.651	10114.14
888.967	10127.47
889.284	10045.89
889.6	10136.51
889.917	10064.65
890.233	10035.27
890.55	9995.5
890.866	9899.91
891.182	9928.16
891.498	9870.08
891.815	9870.76
892.131	9832.34
892.447	9783.08
892.763	9797.54
893.079	9775.17
893.395	9723.87
893.71	9670.54
894.026	9691.78
894.342	9619.46
894.657	9608.39
894.973	9579.69
895.289	9525.23
895.604	9530.88
895.92	9523.42
896.235	9470.09
896.55	9394.39
896.865	9381.05
897.181	9394.39
897.496	9395.06
897.811	9345.57
898.126	9321.85
898.441	9267.38
898.756	9282.75
899.071	9154.17
899.386	9173.37
899.7	9081.85
900.015	9049.08
900.33	8938.58
900.644	9043.43
900.959	9036.43
901.273	8897.45
901.588	8895.87
901.902	8819.26
902.216	8857.9
902.531	8857.45
902.845	8834.85
903.159	8760.96
903.473	8723.44
903.787	8666.04
904.101	8644.57
904.415	8643.22
904.729	8613.84
905.042	8555.99
905.356	8539.72
905.67	8492.94
905.984	8523.67
906.297	8409.78
906.611	8396.9
906.924	8367.97
907.237	8363
907.551	8371.36
907.864	8308.54
908.177	8258.82
908.491	8190.35
908.804	8196.68
909.117	8168.2
909.43	8050.01
909.743	8064.25
910.056	8046.62
910.368	8010.92
910.681	7995.55
910.994	7965.72
911.307	7921.43
911.619	7840.53
911.932	7855.22
912.244	7821.32
912.557	7818.83
912.869	7733.86
913.181	7689.57
913.494	7719.85
913.806	7640.31
914.118	7649.8
914.43	7536.81
914.742	7621.78
915.054	7506.98
915.366	7497.49
915.678	7470.37
915.99	7439.18
916.302	7383.59
916.613	7335.91
916.925	7344.04
917.236	7312.63
917.548	7320.99
917.859	7300.2
918.171	7294.78
918.482	7168.23
918.794	7163.03
919.105	7168
919.416	7186.76
919.727	7064.05
920.038	7058.18
920.349	7042.13
920.66	6977.05
920.971	6964.85
921.282	6877.62
921.593	6884.85
921.903	6873.55
922.214	6808.47
922.525	6844.17
922.835	6775.92
923.146	6809.37
923.456	6719.2
923.767	6659.99
924.077	6706.77
924.387	6661.12
924.697	6604.63
925.008	6533.9
925.318	6525.08
925.628	6511.3
925.938	6467.01
926.248	6439.66
926.558	6427.46
926.867	6439.66
927.177	6409.83
927.487	6383.39
927.796	6269.5
928.106	6271.53
928.416	6304.52
928.725	6248.03
929.034	6218.65
929.344	6205.09
929.653	6220.01
929.962	6134.58
930.271	6102.27
930.581	6090.07
930.89	6046.9
931.199	6088.26
931.508	6018.66
931.817	5993.35
932.125	5957.41
932.434	5968.49
932.743	5895.95
933.051	5888.72
933.36	5869.51
933.669	5803.07
933.977	5832.22
934.286	5777.31
934.594	5824.31
934.902	5664.99
935.21	5688.72
935.519	5688.72
935.827	5660.47
936.135	5597.65
936.443	5555.16
936.751	5575.05
937.059	5584.32
937.367	5573.02
937.674	5543.41
937.982	5513.13
938.29	5486.92
938.597	5472.23
938.905	5455.51
939.213	5403.3
939.52	5366.92
939.827	5368.95
940.135	5303.42
940.442	5267.94
940.749	5260.03
941.056	5302.52
941.363	5224.33
941.67	5203.54
941.977	5167.83
942.284	5151.11
942.591	5114.5
942.898	5138.68
943.205	5196.53
943.511	5053.93
943.818	5084.44
944.125	4988.63
944.431	4982.98
944.738	4995.86
945.044	4928.51
945.35	4982.75
945.657	4913.15
945.963	4898.46
946.269	4850.55
946.575	4873.83
946.881	4835.18
947.187	4842.87
947.493	4774.17
947.799	4846.03
948.105	4793.83
948.41	4754.73
948.716	4782.76
949.022	4660.72
949.327	4692.81
949.633	4657.34
949.938	4660.05
950.244	4662.53
950.549	4592.93
950.854	4560.39
951.16	4588.86
951.465	4529.65
951.77	4523.33
952.075	4488.3
952.38	4484.46
952.685	4510.45
952.99	4466.61
953.294	4399.94
953.599	4407.17
953.904	4393.16
954.209	4382.99
954.513	4349.77
954.818	4354.07
955.122	4305.48
955.426	4289.21
955.731	4304.8
956.035	4292.82
956.339	4213.96
956.643	4227.52
956.948	4182.09
957.252	4211.25
957.556	4188.65
957.86	4138.25
958.163	4151.36
958.467	4112.49
958.771	4083.34
959.075	4078.59
959.378	4065.71
959.682	4029.78
959.985	4024.81
960.289	3991.14
960.592	4000.63
960.896	3966.28
961.199	3993.62
961.502	3960.4
961.805	3924.25
962.108	3879.28
962.411	3855.77
962.714	3907.3
963.017	3875.89
963.32	3847.64
963.623	3870.24
963.926	3833.18
964.228	3793.86
964.531	3772.61
964.833	3779.62
965.136	3726.29
965.438	3726.74
965.741	3668.21
966.043	3761.99
966.345	3720.41
966.648	3646.97
966.95	3660.07
967.252	3609.68
967.554	3612.39
967.856	3552.28
968.158	3562.9
968.46	3547.99
968.761	3546.18
969.063	3558.61
969.365	3530.13
969.666	3496.24
969.968	3466.63
970.269	3436.8
970.571	3422.11
970.872	3452.62
971.174	3392.51
971.475	3395
971.776	3424.37
972.077	3374.21
972.378	3364.26
972.679	3347.31
972.98	3361.78
973.281	3324.71
973.582	3318.61
973.883	3306.18
974.183	3321.78
974.484	3258.95
974.785	3266.64
975.085	3216.92
975.386	3229.12
975.686	3205.17
975.986	3184.83
976.287	3193.87
976.587	3203.36
976.887	3147.77
977.187	3124.95
977.487	3143.48
977.787	3111.84
978.087	3108.68
978.387	3082.24
978.687	3077.72
978.987	3051.73
979.286	3031.16
979.586	3050.15
979.885	3017.6
980.185	3020.32
980.484	2970.83
980.784	3004.5
981.083	2926.08
981.382	2954.33
981.682	2959.98
981.981	2943.26
982.28	2924.27
982.579	2889.02
982.878	2889.02
983.177	2891.28
983.475	2869.13
983.774	2848.57
984.073	2798.85
984.372	2812.86
984.67	2791.85
984.969	2771.28
985.267	2793.43
985.566	2721.79
985.864	2698.29
986.162	2709.14
986.461	2715.24
986.759	2707.78
987.057	2689.48
987.355	2735.35
987.653	2694.45
987.951	2661.91
988.249	2666.88
988.547	2665.3
988.844	2627.11
989.142	2650.83
989.44	2603.83
989.737	2606.99
990.035	2550.95
990.332	2562.47
990.63	2577.84
990.927	2542.59
991.224	2526.32
991.521	2536.94
991.819	2511.18
992.116	2474.57
992.413	2484.28
992.71	2513.66
993.006	2472.53
993.303	2472.31
993.6	2432.31
993.897	2428.69
994.193	2440.44
994.49	2441.57
994.787	2399.77
995.083	2389.37
995.379	2379.2
995.676	2381.24
995.972	2303.72
996.268	2369.03
996.565	2333.55
996.861	2332.42
997.157	2342.37
997.453	2288.58
997.749	2273.44
998.044	2281.35
998.34	2253.33
998.636	2222.6
998.932	2237.06
999.227	2234.8
999.523	2247
999.818	2218.08
1000.114	2174.91
1000.409	2221.02
1000.704	2167.91
1001	2143.95
1001.295	2144.63
1001.59	2152.32
1001.885	2133.33
1002.18	2137.4
1002.475	2088.82
1002.77	2079.32
1003.065	2052.21
1003.359	2063.51
1003.654	2062.38
1003.949	2050.4
1004.243	2007.46
1004.538	2037.52
1004.832	2014.47
1005.127	2025.09
1005.421	2005.88
1005.715	2000.46
1006.009	1988.7
1006.304	1993.22
1006.598	1954.13
1006.892	1966.33
1007.186	1940.8
1007.48	1948.71
1007.773	1914.13
1008.067	1935.6
1008.361	1869.61
1008.655	1865.77
1008.948	1846.11
1009.242	1853.34
1009.535	1861.48
1009.829	1813.34
1010.122	1800.91
1010.415	1808.37
1010.708	1817.86
1011.001	1778.99
1011.295	1786
1011.588	1783.06
1011.881	1755.94
1012.173	1755.04
1012.466	1708.71
1012.759	1715.27
1013.052	1740.35
1013.344	1699.67
1013.637	1698.99
1013.93	1662.84
1014.222	1680.69
1014.514	1702.38
1014.807	1669.62
1015.099	1628.49
1015.391	1631.2
1015.683	1636.17
1015.976	1605.21
1016.268	1626.91
1016.56	1603.18
1016.851	1602.05
1017.143	1559.34
1017.435	1590.75
1017.727	1577.64
1018.018	1558.43
1018.31	1576.96
1018.602	1543.29
1018.893	1548.26
1019.185	1559.79
1019.476	1520.69
1019.767	1503.29
1020.058	1499.23
1020.35	1461.49
1020.641	1482.05
1020.932	1453.35
1021.223	1447.25
1021.514	1423.07
1021.804	1430.75
1022.095	1402.51
1022.386	1419.45
1022.677	1408.61
1022.967	1408.38
1023.258	1361.38
1023.548	1389.17
1023.839	1372
1024.129	1363.18
1024.419	1356.86
1024.709	1343.07
1025	1345.56
1025.29	1328.61
1025.58	1339.23
1025.87	1296.29
1026.16	1329.51
1026.449	1278.21
1026.739	1266.01
1027.029	1269.18
1027.319	1256.75
1027.608	1261.72
1027.898	1260.81
1028.187	1247.48
1028.477	1232.11
1028.766	1231.66
1029.055	1221.72
1029.344	1205.9
1029.634	1209.74
1029.923	1214.04
1030.212	1203.41
1030.501	1183.3
1030.79	1154.6
1031.078	1153.47
1031.367	1173.36
1031.656	1141.95
1031.945	1125.22
1032.233	1113.25
1032.522	1132.23
1032.81	1143.98
1033.099	1123.64
1033.387	1143.3
1033.675	1099.91
1033.963	1095.85
1034.251	1100.37
1034.54	1042.06
1034.828	1068.28
1035.116	1053.81
1035.403	1054.94
1035.691	1044.1
1035.979	1050.2
1036.267	1035.96
1036.554	1015.4
1036.842	1011.78
1037.129	1022.18
1037.417	1007.26
1037.704	986.7
1037.992	993.02
1038.279	993.25
1038.566	979.01
1038.853	979.01
1039.14	979.01
