Data from hue_170_FLMS001491_00026.txt Node
Date: Tue Feb 07 16:48:28 GMT 2017
User: dcchb
Spectrometer: FLMS00149
Trigger mode: 0
Integration Time (sec): 2.000000E-2
Scans to average: 10
Electric dark correction enabled: true
Nonlinearity correction enabled: false
Boxcar width: 0
XAxis mode: Wavelengths
Number of Pixels in Spectrum: 2048
>>>>>Begin Spectral Data<<<<<
341.393	-0.88
341.776	-0.88
342.16	-0.88
342.543	-60.31
342.927	-72.06
343.31	-74.55
343.693	-58.5
344.077	-51.72
344.46	-48.78
344.843	-60.08
345.226	-52.4
345.61	-31.84
345.993	-44.04
346.376	5.9
346.759	4.55
347.142	24.43
347.525	24.43
347.908	80.03
348.291	78.22
348.674	98.33
349.057	106.01
349.44	123.87
349.823	139.69
350.206	186.69
350.588	192.79
350.971	200.93
351.354	222.62
351.737	235.5
352.119	253.58
352.502	264.88
352.884	281.15
353.267	271.43
353.65	283.64
354.032	300.36
354.414	296.29
354.797	306.01
355.179	306.23
355.562	334.71
355.944	324.09
356.326	315.95
356.709	320.92
357.091	335.61
357.473	355.95
357.855	334.93
358.238	367.25
358.62	341.94
359.002	361.37
359.384	341.04
359.766	344.65
360.148	331.09
360.53	323.86
360.912	331.54
361.294	338.55
361.676	331.54
362.057	334.26
362.439	316.63
362.821	314.14
363.203	326.12
363.584	325.44
363.966	329.96
364.348	317.76
364.729	307.59
365.111	317.53
365.493	306.23
365.874	329.29
366.256	312.34
366.637	322.73
367.019	321.38
367.4	329.74
367.781	308.72
368.163	320.47
368.544	324.54
368.925	304.65
369.306	306.91
369.688	309.85
370.069	313.24
370.45	320.92
370.831	322.96
371.212	314.82
371.593	301.49
371.974	323.86
372.355	321.38
372.736	332.45
373.117	304.88
373.498	326.12
373.879	330.19
374.26	338.1
374.641	324.31
375.021	341.94
375.402	310.3
375.783	345.1
376.163	301.49
376.544	322.73
376.925	301.72
377.305	331.77
377.686	336.74
378.066	327.48
378.447	324.09
378.827	322.73
379.208	336.29
379.588	345.56
379.968	321.38
380.349	344.88
380.729	325.67
381.109	334.71
381.489	329.06
381.87	322.96
382.25	332.22
382.63	350.08
383.01	332.22
383.39	336.74
383.77	363.18
384.15	329.51
384.53	344.65
384.91	330.64
385.29	356.63
385.67	363.41
386.049	369.74
386.429	349.85
386.809	361.6
387.189	362.96
387.568	350.53
387.948	331.09
388.328	380.13
388.707	353.01
389.087	356.18
389.466	374.93
389.846	352.56
390.225	371.09
390.605	361.37
390.984	357.76
391.363	361.37
391.743	364.31
392.122	363.41
392.501	403.63
392.881	371.32
393.26	386.01
393.639	362.05
394.018	368.15
394.397	360.92
394.776	368.38
395.155	398.21
395.534	377.42
395.913	392.11
396.292	392.56
396.671	390.98
397.05	378.55
397.429	396.63
397.808	379.45
398.186	395.05
398.565	391.88
398.944	397.31
399.323	385.33
399.701	401.15
400.08	398.44
400.458	386.23
400.837	398.44
401.215	410.19
401.594	417.64
401.972	423.52
402.351	426.68
402.729	419.23
403.107	420.81
403.486	430.53
403.864	401.15
404.242	440.47
404.62	422.39
404.999	468.26
405.377	431.2
405.755	447.02
406.133	446.34
406.511	444.99
406.889	479.34
407.267	462.61
407.645	450.86
408.023	447.25
408.401	443.18
408.779	477.76
409.156	459.68
409.534	472.33
409.912	474.82
410.29	457.19
410.667	468.04
411.045	490.64
411.422	485.44
411.8	498.32
412.178	498.09
412.555	524.53
412.933	489.96
413.31	515.04
413.687	533.57
414.065	527.25
414.442	538.09
414.819	532.22
415.197	525.89
415.574	548.26
415.951	520.69
416.328	535.16
416.705	562.73
417.082	582.84
417.46	577.87
417.837	575.15
418.214	583.74
418.591	583.74
418.967	583.29
419.344	604.76
419.721	604.98
420.098	602.5
420.475	606.79
420.852	610.41
421.228	606.79
421.605	654.25
421.982	615.15
422.358	632.1
422.735	629.62
423.111	634.14
423.488	649.5
423.864	691.31
424.241	665.55
424.617	664.19
424.994	694.7
425.37	684.08
425.746	698.09
426.123	707.58
426.499	712.78
426.875	722.27
427.251	727.69
427.627	727.47
428.003	748.03
428.379	731.99
428.756	757.75
429.132	731.76
429.507	756.84
429.883	793.23
430.259	793.91
430.635	775.6
431.011	813.79
431.387	814.47
431.763	802.04
432.138	828.71
432.514	833.68
432.89	855.37
433.265	876.62
433.641	861.02
434.016	873.23
434.392	888.82
434.767	892.89
435.143	871.64
435.518	910.06
435.894	927.24
436.269	937.86
436.644	946.22
437.02	975.82
437.395	972.66
437.77	984.41
438.145	985.54
438.52	1015.82
438.895	1017.18
439.271	1011.3
439.646	1034.35
440.021	1039.32
440.395	1063.05
440.77	1042.94
441.145	1065.31
441.52	1083.84
441.895	1085.88
442.27	1094.46
442.645	1101.92
443.019	1123.84
443.394	1122.94
443.769	1108.25
444.143	1134.01
444.518	1148.25
444.892	1138.98
445.267	1174.91
445.641	1168.81
446.016	1176.27
446.39	1171.3
446.764	1184.4
447.139	1177.62
447.513	1232.09
447.887	1222.14
448.262	1227.11
448.636	1227.34
449.01	1250.16
449.384	1265.31
449.758	1275.47
450.132	1271.41
450.506	1268.02
450.88	1307.56
451.254	1306.66
451.628	1339.2
452.002	1338.3
452.376	1367
452.75	1340.56
453.123	1344.63
453.497	1403.61
453.871	1440.22
454.244	1422.14
454.618	1435.47
454.992	1470.05
455.365	1460.33
455.739	1487.22
456.112	1526.99
456.486	1523.83
456.859	1547.33
457.232	1564.28
457.606	1588.46
457.979	1606.54
458.352	1644.73
458.725	1633.43
459.099	1662.36
459.472	1707.55
459.845	1684.73
460.218	1716.59
460.591	1751.17
460.964	1760.89
461.337	1792.07
461.71	1821.9
462.083	1852.86
462.456	1876.82
462.829	1862.35
463.201	1905.51
463.574	1898.06
463.947	1965.4
464.32	2032.07
464.692	1992.07
465.065	2024.38
465.438	2054.89
465.81	2082.69
466.183	2112.97
466.555	2184.83
466.928	2172.4
467.3	2225.28
467.672	2257.6
468.045	2319.74
468.417	2307.31
468.789	2349.57
469.161	2373.98
469.534	2431.6
469.906	2513.63
470.278	2512.73
470.65	2585.05
471.022	2608.1
471.394	2646.96
471.766	2678.83
472.138	2738.94
472.51	2776.45
472.882	2828.43
473.253	2875.66
473.625	2899.61
473.997	3018.93
474.369	3071.13
474.74	3092.15
475.112	3147.74
475.484	3254.41
475.855	3340.05
476.227	3341.41
476.598	3491.69
476.97	3480.84
477.341	3632.02
477.713	3675.86
478.084	3774.84
478.455	3854.84
478.827	3925.12
479.198	4022.97
479.569	4092.12
479.94	4185
480.311	4263.64
480.682	4392.91
481.053	4533.24
481.424	4633.35
481.795	4703.86
482.166	4797.42
482.537	4870.63
482.908	5016.85
483.279	5092.32
483.65	5223.17
484.021	5361.02
484.391	5452.31
484.762	5575.02
485.133	5615.93
485.503	5754
485.874	5888.91
486.244	5998.29
486.615	6111.96
486.985	6193.99
487.356	6381.78
487.726	6465.85
488.097	6649.34
488.467	6693.86
488.837	6831.71
489.207	7006.17
489.578	7133.4
489.948	7237.8
490.318	7362.32
490.688	7481.87
491.058	7619.04
491.428	7752.37
491.798	7857
492.168	8062.42
492.538	8095.41
492.908	8253.14
493.278	8320.26
493.648	8478.22
494.017	8553.7
494.387	8665.11
494.757	8746.92
495.126	8877.08
495.496	9012.45
495.866	9070.52
496.235	9157.08
496.605	9176.51
496.974	9327.01
497.344	9495.6
497.713	9570.62
498.082	9592.77
498.452	9782.82
498.821	9828.47
499.19	9850.39
499.559	9875.02
499.928	10039.99
500.298	10042.7
500.667	10171.51
501.036	10207.9
501.405	10375.57
501.774	10313.88
502.143	10426.42
502.512	10464.39
502.88	10620.09
503.249	10666.19
503.618	10694.21
503.987	10735.11
504.356	10794.09
504.724	10919.06
505.093	10954.99
505.462	11008.1
505.83	11034.77
506.199	11167.64
506.567	11276.34
506.936	11273.18
507.304	11347.53
507.672	11343.91
508.041	11475.43
508.409	11493.74
508.777	11568.54
509.145	11590.46
509.514	11648.76
509.882	11677.46
510.25	11691.25
510.618	11752.26
510.986	11805.14
511.354	11878.81
511.722	11980.96
512.09	11997.23
512.458	11999.71
512.826	12118.81
513.193	12060.95
513.561	12112.48
513.929	12204
514.297	12218.69
514.664	12321.74
515.032	12332.59
515.4	12381.17
515.767	12418.01
516.135	12415.3
516.502	12301.4
516.869	12481.51
517.237	12493.49
517.604	12472.92
517.972	12533.48
518.339	12589.08
518.706	12552.92
519.073	12576.19
519.44	12608.51
519.808	12784.78
520.175	12636.98
520.542	12854.15
520.909	12752.24
521.276	12635.63
521.643	12869.97
522.009	12926.02
522.376	12850.31
522.743	12945.68
523.11	13006.01
523.477	13059.35
523.843	13125.11
524.21	13175.28
524.577	13196.74
524.943	13216.63
525.31	13182.05
525.676	13265.89
526.043	13257.53
526.409	13269.96
526.776	13309.51
527.142	13331.88
527.508	13410.3
527.874	13455.04
528.241	13397.42
528.607	13387.02
528.973	13419.34
529.339	13355.16
529.705	13432.44
530.071	13439.9
530.437	13356.51
530.803	13500.92
531.169	13487.58
531.535	13385.66
531.901	13414.82
532.267	13385.21
532.632	13431.54
532.998	13379.79
533.364	13406.68
533.73	13362.84
534.095	13519.45
534.461	13420.92
534.826	13427.25
535.192	13460.69
535.557	13362.61
535.923	13309.96
536.288	13323.97
536.653	13358.55
537.019	13229.06
537.384	13244.2
537.749	13230.64
538.114	13202.62
538.479	13153.58
538.845	13151.55
539.21	13105.45
539.575	13094.6
539.94	13071.55
540.305	13058.89
540.67	12995.62
541.034	13005.56
541.399	12974.38
541.764	12962.85
542.129	12935.73
542.494	12879.92
542.858	12897.54
543.223	12804.21
543.587	12866.58
543.952	12759.69
544.316	12659.81
544.681	12611.22
545.045	12692.58
545.41	12662.97
545.774	12583.2
546.138	12523.77
546.503	12550.43
546.867	12474.28
547.231	12490.55
547.595	12446.03
547.959	12430.44
548.324	12341.4
548.688	12322.42
549.052	12347.73
549.416	12328.74
549.779	12266.6
550.143	12248.07
550.507	12248.75
550.871	12221.85
551.235	12098.24
551.599	12191.57
551.962	12091.01
552.326	12134.17
552.689	12129.43
553.053	12007.62
553.417	11980.28
553.78	12053.5
554.143	11990.45
554.507	12005.14
554.87	11946.38
555.234	11985.93
555.597	11879.04
555.96	11855.54
556.323	11824.8
556.686	11831.81
557.05	11822.09
557.413	11762.43
557.776	11792.94
558.139	11872.94
558.502	11794.07
558.865	11727.63
559.228	11822.77
559.59	11803.33
559.953	11796.55
560.316	11877
560.679	11782.09
561.041	11823.22
561.404	11743.67
561.767	11822.99
562.129	11703.22
562.492	11808.98
562.854	11731.7
563.217	11749.32
563.579	11793.62
563.941	11818.93
564.304	11851.24
564.666	11897.34
565.028	11803.11
565.39	11845.14
565.753	11872.26
566.115	11807.4
566.477	11807.63
566.839	11817.34
567.201	11949.09
567.563	11848.98
567.925	11952.93
568.287	11848.76
568.648	11925.14
569.01	11944.12
569.372	12018.24
569.734	11962.43
570.095	11940.73
570.457	11964.69
570.819	11984.35
571.18	12030.9
571.542	12083.33
571.903	11973.5
572.265	11914.52
572.626	12024.34
572.987	12045.81
573.349	12046.49
573.71	12093.95
574.071	12059.15
574.432	12044.01
574.794	12136.88
575.155	12112.48
575.516	12010.33
575.877	12019.15
576.238	12167.39
576.599	12177.11
576.96	12068.19
577.32	12114.51
577.681	12206.94
578.042	12145.47
578.403	12115.19
578.763	12145.47
579.124	12115.64
579.485	12200.16
579.845	12191.8
580.206	12074.96
580.566	12193.38
580.927	12103.21
581.287	12213.04
581.648	12069.32
582.008	12240.84
582.368	12128.3
582.728	12093.72
583.089	12137.56
583.449	12114.74
583.809	12100.28
584.169	12170.78
584.529	12088.3
584.889	12166.26
585.249	12043.55
585.609	12011.92
585.969	12155.19
586.329	12012.14
586.688	12080.16
587.048	11974.85
587.408	12013.27
587.768	11990.45
588.127	12007.85
588.487	11940.51
588.846	12041.29
589.206	11968.3
589.565	11924.91
589.925	12016.66
590.284	11908.19
590.643	11947.74
591.003	11955.19
591.362	11964.91
591.721	11890.56
592.08	11897.79
592.44	11860.73
592.799	11997.45
593.158	11890.11
593.517	11936.89
593.876	11872.03
594.235	11861.64
594.593	11851.02
594.952	11910.22
595.311	11763.11
595.67	11850.34
596.029	11948.19
596.387	11924.69
596.746	11939.38
597.104	11881.98
597.463	11811.02
597.822	11898.25
598.18	11766.5
598.538	11838.59
598.897	11904.35
599.255	11790.68
599.613	11945.25
599.972	11809.89
600.33	11834.97
600.688	11773.05
601.046	11876.33
601.404	11863.45
601.762	11846.27
602.12	11877.23
602.478	11846.95
602.836	11824.58
603.194	11745.26
603.552	11743.67
603.91	11744.35
604.268	11834.97
604.625	11735.31
604.983	11831.36
605.341	11783
605.698	11762.88
606.056	11834.97
606.413	11782.32
606.771	11854.86
607.128	11811.02
607.485	11729.89
607.843	11852.37
608.2	11847.85
608.557	11933.27
608.914	11828.42
609.272	11865.03
609.629	11919.26
609.986	11905.7
610.343	11887.85
610.7	12009.66
611.057	12007.4
611.414	11956.55
611.771	11978.24
612.127	11883.33
612.484	11992.26
612.841	11976.89
613.198	11917.46
613.554	11968.53
613.911	11956.78
614.267	11995.42
614.624	12010.79
614.98	12082.87
615.337	12058.02
615.693	12029.32
616.05	11994.06
616.406	12130.78
616.762	11997.9
617.118	12128.07
617.475	12075.19
617.831	12095.53
618.187	12140.95
618.543	12081.52
618.899	12119.94
619.255	12186.83
619.611	12107.51
619.967	12217.33
620.323	12187.28
620.678	12229.76
621.034	12107.05
621.39	12125.59
621.746	12061.86
622.101	12294.62
622.457	12197.9
622.812	12152.48
623.168	12150.9
623.523	12165.58
623.879	12095.76
624.234	12084.23
624.589	12149.54
624.945	12063.67
625.3	12147.96
625.655	12039.94
626.01	12156.32
626.365	12151.57
626.72	12185.47
627.075	12094.4
627.43	12127.39
627.785	12096.66
628.14	12128.52
628.495	12112.48
628.85	12033.16
629.205	12025.7
629.559	12077.22
629.914	12074.29
630.269	12059.82
630.623	12054.17
630.978	12010.11
631.332	12072.71
631.687	12059.6
632.041	11993.16
632.396	12041.07
632.75	11884.46
633.104	11959.49
633.459	11913.61
633.813	11828.87
634.167	11923.78
634.521	11874.97
634.875	11926.49
635.229	11901.86
635.583	11820.96
635.937	11847.63
636.291	11861.41
636.645	11859.83
636.999	11763.56
637.352	11802.66
637.706	11722.21
638.06	11825.48
638.413	11705.03
638.767	11777.8
639.121	11691.25
639.474	11642.66
639.828	11636.11
640.181	11681.08
640.534	11662.77
640.888	11696.67
641.241	11568.99
641.594	11653.51
641.947	11667.97
642.301	11660.06
642.654	11574.87
643.007	11596.79
643.36	11583.68
643.713	11561.53
644.066	11578.25
644.419	11470.01
644.771	11468.65
645.124	11357.92
645.477	11383.91
645.83	11316.34
646.182	11247.64
646.535	11189.34
646.888	11190.69
647.24	11128.78
647.593	11186.4
647.945	11231.15
648.298	11186.85
648.65	11061.43
649.002	11109.34
649.355	11205.84
649.707	11162.9
650.059	11182.33
650.411	11333.97
650.763	11384.81
651.115	11486.73
651.467	11456.68
651.819	11528.31
652.171	11435.89
652.523	11344.59
652.875	11404.7
653.227	11341.42
653.578	11361.09
653.93	11414.87
654.282	11375.77
654.633	11360.63
654.985	11445.6
655.337	11464.81
655.688	11432.27
656.039	11407.41
656.391	11250.58
656.742	11382.1
657.094	11488.99
657.445	11500.97
657.796	11445.83
658.147	11405.6
658.498	11391.37
658.849	11372.16
659.2	11509.56
659.551	11433.17
659.902	11435.43
660.253	11472.27
660.604	11430.46
660.955	11423.91
661.306	11530.35
661.656	11471.59
662.007	11486.73
662.358	11474.53
662.708	11499.84
663.059	11442.89
663.409	11413.74
663.76	11429.11
664.11	11490.8
664.461	11512.95
664.811	11479.73
665.161	11464.59
665.511	11482.21
665.862	11461.2
666.212	11531.7
666.562	11492.16
666.912	11442.44
667.262	11460.29
667.612	11521.53
667.962	11495.55
668.312	11537.35
668.662	11477.01
669.011	11518.14
669.361	11402.21
669.711	11451.48
670.06	11447.64
670.41	11420.07
670.76	11469.56
671.109	11453.96
671.459	11417.36
671.808	11404.47
672.157	11471.59
672.507	11300.97
672.856	11336.68
673.205	11470.46
673.554	11428.43
673.904	11365.38
674.253	11409.45
674.602	11401.08
674.951	11197.47
675.3	11177.59
675.649	11424.59
675.998	11319.73
676.346	11363.12
676.695	11399.05
677.044	11174.88
677.393	11309.79
677.741	11327.64
678.09	11231.15
678.438	11298.26
678.787	11225.95
679.135	11216.46
679.484	11240.41
679.832	11199.73
680.181	11092.84
680.529	11202.9
680.877	11147.08
681.225	11119.74
681.573	11143.92
681.922	11081.32
682.27	11058.95
682.618	11035.44
682.966	11027.53
683.314	11070.02
683.661	10965.84
684.009	10897.59
684.357	10978.95
684.705	10910.7
685.053	10957.48
685.4	10876.13
685.748	10831.61
686.095	10826.64
686.443	10863.47
686.79	10784.6
687.138	10783.47
687.485	10810.59
687.832	10659.86
688.18	10678.17
688.527	10718.62
688.874	10585.29
689.221	10644.95
689.568	10599.3
689.915	10607.88
690.262	10571.05
690.609	10481.11
690.956	10447.44
691.303	10434.56
691.65	10357.95
691.997	10340.32
692.344	10294.9
692.69	10292.41
693.037	10305.07
693.383	10195.47
693.73	10189.82
694.077	10086.99
694.423	10126.77
694.769	10121.12
695.116	10075.7
695.462	10061.68
695.808	10000.22
696.155	9991.4
696.501	9906.21
696.847	9899.65
697.193	9773.78
697.539	9852.42
697.885	9747.34
698.231	9719.32
698.577	9800.9
698.923	9691.52
699.269	9619.44
699.614	9585.76
699.96	9588.02
700.306	9616.05
700.651	9579.44
700.997	9453.34
701.342	9397.75
701.688	9471.19
702.033	9408.14
702.379	9375.15
702.724	9326.34
703.069	9380.57
703.415	9322.95
703.76	9231.65
704.105	9242.27
704.45	9261.93
704.795	9134.48
705.14	9154.59
705.485	9097.19
705.83	9076.17
706.175	9080.02
706.52	8988.94
706.865	8976.52
707.209	8960.24
707.554	8865.78
707.899	8970.41
708.243	8821.94
708.588	8843.19
708.932	8795.28
709.277	8771.1
709.621	8810.19
709.966	8704.43
710.31	8734.49
710.654	8709.86
710.998	8734.49
711.342	8648.16
711.687	8666.92
712.031	8580.14
712.375	8583.31
712.719	8610.88
713.063	8597.54
713.407	8539.92
713.75	8488.39
714.094	8496.3
714.438	8442.52
714.782	8474.83
715.125	8375.18
715.469	8458.34
715.812	8392.58
716.156	8383.99
716.499	8376.98
716.843	8405
717.186	8306.7
717.53	8354.16
717.873	8355.51
718.216	8350.54
718.559	8332.69
718.902	8240.26
719.246	8256.53
719.589	8190.77
719.932	8206.14
720.275	8226.7
720.617	8244.56
720.96	8220.83
721.303	8220.83
721.646	8261.51
721.989	8227.83
722.331	8176.54
722.674	8110.1
723.016	8072.13
723.359	8203.2
723.701	8120.72
724.044	8096.54
724.386	8098.12
724.729	8142.64
725.071	8122.53
725.413	8122.07
725.755	8063.09
726.097	8073.26
726.439	8026.03
726.782	8078.01
727.124	8046.82
727.465	8028.07
727.807	8053.6
728.149	8058.57
728.491	8034.39
728.833	8102.87
729.175	8024.9
729.516	8036.2
729.858	8004.79
730.199	8072.58
730.541	8062.42
730.882	7995.3
731.224	8065.58
731.565	7961.4
731.906	7939.93
732.248	8006.37
732.589	7972.93
732.93	7948.75
733.271	7975.86
733.612	7938.8
733.953	7940.38
734.294	7924.79
734.635	7919.59
734.976	8023.09
735.317	7955.07
735.658	7950.1
735.999	7914.4
736.339	8000.27
736.68	7987.39
737.021	7950.1
737.361	8000.72
737.702	7986.94
738.042	8005.24
738.383	8030.1
738.723	7997.33
739.063	8005.47
739.404	8039.82
739.744	8034.62
740.084	8072.81
740.424	8060.61
740.764	8007.28
741.104	8105.35
741.444	8112.58
741.784	8083.43
742.124	8118.46
742.464	8156.65
742.804	8152.58
743.143	8113.94
743.483	8169.08
743.823	8168.85
744.162	8190.32
744.502	8280.49
744.841	8246.59
745.181	8326.59
745.52	8280.94
745.86	8396.64
746.199	8430.99
746.538	8427.15
746.877	8547.37
747.216	8464.66
747.556	8544.44
747.895	8696.3
748.234	8634.6
748.573	8727.03
748.911	8820.59
749.25	8861.49
749.589	8863.52
749.928	9025.1
750.267	9021.26
750.605	9071.88
750.944	9140.35
751.283	9240.46
751.621	9325.88
751.96	9279.56
752.298	9451.98
752.636	9506.9
752.975	9600.68
753.313	9664.41
753.651	9795.48
753.989	9858.07
754.327	9963.38
754.666	10080.44
755.004	10185.75
755.342	10320.89
755.679	10468
756.017	10546.64
756.355	10692.18
756.693	10801.55
757.031	10989.57
757.368	11073.86
757.706	11182.79
758.044	11298.71
758.381	11485.38
758.719	11643.11
759.056	11789.1
759.394	11945.93
759.731	12097.79
760.068	12281.97
760.405	12358.35
760.743	12504.56
761.08	12658.45
761.417	12781.84
761.754	12945.45
762.091	13118.1
762.428	13270.64
762.765	13452.78
763.102	13616.17
763.438	13747.24
763.775	13833.11
764.112	14084.63
764.449	14309.26
764.785	14330.72
765.122	14495.24
765.458	14665.41
765.795	14728.91
766.131	15000.09
766.467	15021.1
766.804	15201.44
767.14	15266.07
767.476	15406.4
767.812	15504.03
768.148	15735.66
768.485	15808.88
768.821	15914.64
769.157	16097.91
769.492	16046.16
769.828	16363.67
770.164	16309.88
770.5	16398.24
770.836	16492.02
771.171	16681.85
771.507	16730.66
771.842	16628.97
772.178	16836.2
772.513	16871.68
772.849	17060.37
773.184	17039.58
773.519	17185.57
773.855	17203.19
774.19	17328.61
774.525	17233.25
774.86	17466.46
775.195	17581.71
775.53	17553.47
775.865	17560.92
776.2	17528.83
776.535	17512.56
776.87	17663.29
777.205	17644.08
777.539	17663.74
777.874	17787.58
778.209	17647.93
778.543	17687.7
778.878	17730.86
779.212	17836.4
779.547	17808.15
779.881	17928.6
780.215	17914.81
780.55	17980.57
780.884	17842.5
781.218	17858.54
781.552	18000.23
781.886	17899.44
782.22	17880.91
782.554	17950.29
782.888	17847.02
783.222	17880.24
783.556	17719.79
783.889	17819.45
784.223	17664.87
784.557	17818.77
784.89	17828.94
785.224	17749.17
785.557	17743.52
785.891	17656.06
786.224	17543.3
786.558	17740.58
786.891	17632.78
787.224	17592.11
787.557	17565.89
787.891	17552.79
788.224	17564.54
788.557	17652.67
788.89	17626.91
789.223	17604.09
789.556	17483.64
789.888	17463.75
790.221	17531.77
790.554	17309.18
790.887	17408.84
791.219	17241.61
791.552	17271.21
791.884	17345.56
792.217	17295.84
792.549	17225.56
792.882	17135.62
793.214	17064.66
793.546	17084.1
793.879	17034.83
794.211	16942.18
794.543	17055.4
794.875	17022.63
795.207	17045.46
795.539	16933.37
795.871	17007.94
796.203	16765.69
796.535	16779.47
796.867	16671.68
797.198	16688.85
797.53	16742.19
797.862	16542.87
798.193	16699.02
798.525	16518.01
798.856	16640.49
799.188	16404.12
799.519	16335.87
799.85	16366.15
800.182	16341.07
800.513	16276.44
800.844	16243.22
801.175	16248.64
801.506	16261.3
801.837	16155.31
802.168	16184.91
802.499	16152.6
802.83	16003.22
803.161	15948.76
803.491	16010.45
803.822	15984.47
804.153	15919.61
804.483	15751.93
804.814	15809.56
805.145	15781.31
805.475	15770.69
805.805	15690.92
806.136	15698.15
806.466	15678.49
806.796	15705.83
807.126	15552.61
807.457	15551.03
807.787	15605.27
808.117	15436.46
808.447	15431.26
808.777	15454.31
809.107	15326.86
809.436	15406.63
809.766	15335.9
810.096	15306.97
810.426	15311.94
810.755	15261.77
811.085	15221.55
811.414	15266.29
811.744	15109.24
812.073	15111.04
812.403	15028.79
812.732	15045.28
813.061	15066.07
813.39	14995.79
813.719	14910.82
814.049	14986.3
814.378	14966.41
814.707	14847.1
815.036	14800.32
815.365	14805.97
815.693	14692.52
816.022	14675.8
816.351	14709.92
816.68	14641.23
817.008	14664.95
817.337	14489.14
817.665	14476.71
817.994	14577.72
818.322	14487.78
818.651	14396.03
818.979	14345.64
819.307	14490.72
819.636	14369.59
819.964	14351.52
820.292	14412.98
820.62	14410.04
820.948	14340.22
821.276	14343.38
821.604	14355.81
821.932	14365.3
822.259	14376.37
822.587	14400.55
822.915	14283.95
823.243	14302.25
823.57	14261.57
823.898	14321.69
824.225	14322.36
824.553	14329.82
824.88	14345.87
825.207	14307.45
825.535	14310.61
825.862	14457.28
826.189	14333.44
826.516	14435.58
826.843	14419.76
827.17	14372.98
827.497	14357.16
827.824	14420.67
828.151	14447.11
828.478	14387.45
828.805	14391.06
829.131	14382.7
829.458	14373.89
829.785	14304.74
830.111	14339.99
830.438	14450.72
830.764	14377.28
831.09	14447.78
831.417	14236.26
831.743	14244.17
832.069	14443.72
832.395	14268.13
832.722	14341.57
833.048	14154.91
833.374	14235.81
833.7	14148.13
834.026	14241.91
834.351	14200.56
834.677	14248.02
835.003	14288.01
835.329	14315.58
835.654	14123.05
835.98	14141.8
836.306	14100.67
836.631	14112.2
836.956	14165.98
837.282	14126.89
837.607	14082.82
837.932	14114.23
838.258	14000.34
838.583	14071.75
838.908	14010.28
839.233	14027.68
839.558	13956.5
839.883	13887.35
840.208	13748.82
840.533	13810.51
840.858	13827.46
841.182	13844.41
841.507	13830.63
841.832	13728.93
842.156	13739.33
842.481	13695.71
842.805	13629.73
843.13	13621.59
843.454	13627.01
843.778	13577.98
844.103	13604.87
844.427	13434.7
844.751	13431.09
845.075	13386.57
845.399	13432.9
845.723	13311.99
846.047	13355.61
846.371	13294.37
846.695	13272.9
847.019	13230.87
847.343	13125.11
847.666	13049.63
847.99	12943.64
848.313	13025.45
848.637	12919.24
848.96	12874.27
849.284	12892.12
849.607	12765.57
849.931	12735.74
850.254	12623.2
850.577	12564.67
850.9	12504.78
851.223	12508.63
851.546	12494.39
851.869	12410.55
852.192	12494.16
852.515	12300.27
852.838	12225.92
853.161	12253.04
853.483	12171.23
853.806	12121.97
854.129	12059.82
854.451	12104.79
854.774	11994.74
855.096	11994.52
855.419	11942.09
855.741	11942.99
856.063	11877.91
856.385	11914.29
856.708	11768.76
857.03	11744.58
857.352	11797.68
857.674	11773.96
857.996	11742.09
858.318	11577.8
858.64	11666.84
858.961	11601.31
859.283	11557.24
859.605	11442.21
859.926	11484.7
860.248	11491.03
860.57	11445.38
860.891	11465.49
861.212	11361.31
861.534	11295.55
861.855	11306.62
862.176	11256.91
862.498	11298.71
862.819	11247.42
863.14	11157.25
863.461	11240.64
863.782	11143.46
864.103	11208.32
864.424	11129.68
864.745	11168.32
865.065	11044.03
865.386	11077.93
865.707	11028.44
866.027	11058.04
866.348	11091.49
866.668	11022.56
866.989	10990.02
867.309	10885.39
867.63	10996.35
867.95	10912.06
868.27	10853.98
868.59	10918.84
868.91	10861.44
869.23	10830.93
869.55	10777.15
869.87	10868.9
870.19	10727.66
870.51	10811.72
870.83	10827.77
871.15	10758.62
871.469	10734.89
871.789	10779.41
872.109	10707.32
872.428	10644.49
872.748	10665.74
873.067	10668.67
873.386	10716.58
873.706	10690.37
874.025	10551.39
874.344	10530.37
874.663	10542.12
874.982	10491.73
875.301	10511.16
875.62	10486.76
875.939	10509.58
876.258	10501
876.577	10435.69
876.896	10348.46
877.214	10358.4
877.533	10459.64
877.852	10402.01
878.17	10349.36
878.489	10383.94
878.807	10305.29
879.125	10357.5
879.444	10314.33
879.762	10276.14
880.08	10264.39
880.398	10248.57
880.716	10242.24
881.034	10211.96
881.352	10168.8
881.67	10152.08
881.988	10118.18
882.306	10107.56
882.624	10114.34
882.941	10045.19
883.259	10004.96
883.577	9983.95
883.894	10007.67
884.212	9971.07
884.529	9986.66
884.846	9932.2
885.164	9967.22
885.481	9887
885.798	9917.51
886.115	9807.23
886.432	9777.4
886.75	9797.96
887.067	9770.62
887.383	9779.88
887.7	9773.33
888.017	9781.47
888.334	9724.74
888.651	9646.1
888.967	9682.26
889.284	9630.28
889.6	9559.32
889.917	9509.16
890.233	9559.1
890.55	9514.13
890.866	9587.57
891.182	9447.46
891.498	9412.21
891.815	9430.29
892.131	9409.27
892.447	9365.88
892.763	9310.74
893.079	9275.72
893.395	9280.91
893.71	9260.12
894.026	9231.42
894.342	9190.97
894.657	9105.55
894.973	9127.47
895.289	9147.36
895.604	9026.01
895.92	9010.64
896.235	8973.35
896.55	8932.22
896.865	8899.68
897.181	8908.95
897.496	8881.6
897.811	8866.91
898.126	8767.26
898.441	8825.78
898.756	8741.49
899.071	8677.99
899.386	8637.32
899.7	8647.26
900.015	8545.57
900.33	8562.06
900.644	8544.89
900.959	8501.05
901.273	8486.13
901.588	8408.39
901.902	8505.57
902.216	8359.36
902.531	8323.43
902.845	8384.21
903.159	8322.52
903.473	8182.19
903.787	8182.64
904.101	8160.49
904.415	8172.92
904.729	8150.1
905.042	8086.82
905.356	8061.96
905.67	8137.89
905.984	8057.9
906.297	7988.52
906.611	7942.64
906.924	7955.98
907.237	7940.38
907.551	7874.4
907.864	7849.09
908.177	7819.48
908.491	7803.21
908.804	7750.78
909.117	7682.76
909.43	7658.13
909.743	7581.98
910.056	7538.14
910.368	7563.9
910.681	7500.85
910.994	7518.7
911.307	7529.55
911.619	7433.51
911.932	7413.62
912.244	7299.05
912.557	7364.35
912.869	7312.83
913.181	7400.29
913.494	7301.98
913.806	7182.89
914.118	7225.37
914.43	7150.57
914.742	7181.99
915.054	7109.22
915.366	7099.73
915.678	7067.64
915.99	6996.23
916.302	6948.55
916.613	6919.39
916.925	6934.99
917.236	6917.13
917.548	6845.27
917.859	6862.22
918.171	6843.69
918.482	6805.73
918.794	6844.82
919.105	6698.61
919.416	6709
919.727	6705.39
920.038	6714.88
920.349	6583.81
920.66	6619.29
920.971	6631.72
921.282	6591.04
921.593	6582.45
921.903	6487.54
922.214	6482.34
922.525	6450.48
922.835	6463.59
923.146	6389.24
923.456	6393.08
923.767	6380.2
924.077	6344.04
924.387	6320.31
924.697	6297.72
925.008	6311.5
925.318	6226.98
925.628	6227.89
925.938	6221.33
926.248	6107.44
926.558	6174.1
926.867	6098.85
927.177	6084.84
927.487	6038.97
927.796	5959.19
928.106	5974.56
928.416	5963.04
928.725	5974.11
929.034	5925.07
929.344	5887.33
929.653	5895.47
929.962	5846.2
930.271	5766.2
930.581	5749.26
930.89	5707.45
931.199	5742.7
931.508	5772.76
931.817	5692.08
932.125	5709.93
932.434	5676.04
932.743	5595.14
933.051	5564.4
933.36	5571.41
933.669	5590.84
933.977	5560.56
934.286	5547.9
934.594	5564.63
934.902	5516.27
935.21	5428.13
935.519	5409.6
935.827	5398.53
936.135	5346.55
936.443	5405.08
936.751	5286.44
937.059	5368.47
937.367	5303.62
937.674	5277.18
937.982	5276.73
938.29	5243.28
938.597	5236.05
938.905	5210.06
939.213	5196.28
939.52	5190.63
939.827	5125.32
940.135	5071.76
940.442	5097.52
940.749	5089.84
941.056	5082.83
941.363	5026.79
941.67	5012.33
941.977	4961.25
942.284	4957.19
942.591	4925.77
942.898	4889.62
943.205	4892.55
943.511	4874.48
943.818	4858.88
944.125	4838.55
944.431	4810.52
944.738	4778.66
945.044	4763.07
945.35	4756.97
945.657	4682.62
945.963	4701.83
946.269	4664.09
946.575	4721.94
946.881	4620.25
947.187	4653.01
947.493	4619.34
947.799	4617.99
948.105	4572.79
948.41	4513.58
948.716	4533.24
949.022	4515.62
949.327	4475.16
949.633	4487.37
949.938	4484.43
950.244	4408.27
950.549	4379.12
950.854	4402.4
951.16	4375.28
951.465	4366.69
951.77	4346.58
952.075	4332.8
952.38	4345.45
952.685	4282.18
952.99	4309.29
953.294	4222.74
953.599	4270.88
953.904	4214.83
954.209	4219.13
954.513	4210.54
954.818	4142.97
955.122	4137.77
955.426	4121.73
955.731	4117.21
956.035	4092.12
956.339	4067.04
956.643	4066.81
956.948	3989.53
957.252	4014.61
957.556	3967.16
957.86	3975.97
958.163	3982.07
958.467	3925.57
958.771	3918.12
959.075	3935.74
959.378	3916.08
959.682	3879.25
959.985	3864.11
960.289	3850.32
960.592	3841.28
960.896	3838.57
961.199	3769.19
961.502	3821.85
961.805	3753.15
962.108	3726.26
962.411	3713.38
962.714	3688.97
963.017	3674.06
963.32	3738.46
963.623	3680.38
963.926	3636.99
964.228	3637.22
964.531	3648.29
964.833	3603.1
965.136	3610.33
965.438	3566.04
965.741	3577.56
966.043	3520.39
966.345	3548.86
966.648	3490.78
966.95	3511.12
967.252	3495.98
967.554	3481.74
967.856	3430.67
968.158	3430.45
968.46	3399.71
968.761	3402.88
969.063	3443.55
969.365	3344.57
969.666	3387.74
969.968	3360.62
970.269	3344.57
970.571	3333.73
970.872	3305.25
971.174	3290.34
971.475	3288.53
971.776	3276.55
972.077	3213.96
972.378	3248.08
972.679	3240.62
972.98	3219.38
973.281	3220.28
973.582	3195.2
973.883	3176.89
974.183	3152.49
974.484	3152.94
974.785	3150.23
975.085	3128.31
975.386	3108.87
975.686	3139.83
975.986	3093.73
976.287	3060.96
976.587	3043.79
976.887	3044.92
977.187	3066.84
977.487	2991.81
977.787	2984.36
978.087	2983.9
978.387	2997.24
978.687	2968.99
978.987	2971.48
979.286	2924.02
979.586	2888.54
979.885	2937.13
980.185	2870.69
980.484	2857.81
980.784	2822.1
981.083	2877.47
981.382	2826.62
981.682	2826.39
981.981	2825.94
982.28	2802.21
982.579	2791.14
982.878	2774.19
983.177	2761.31
983.475	2771.93
983.774	2743.01
984.073	2706.85
984.372	2724.48
984.67	2738.26
984.969	2700.52
985.267	2689.22
985.566	2636.12
985.864	2666.17
986.162	2652.61
986.461	2613.29
986.759	2603.8
987.057	2593.41
987.355	2581.43
987.653	2604.71
987.951	2581.66
988.249	2578.27
988.547	2574.42
988.844	2529.23
989.142	2552.28
989.44	2498.72
989.737	2482
990.035	2482.45
990.332	2449.68
990.63	2464.37
990.927	2472.73
991.224	2418.27
991.521	2433.41
991.819	2423.92
992.116	2430.25
992.413	2389.57
992.71	2387.31
993.006	2350.93
993.303	2380.08
993.6	2399.06
993.897	2337.37
994.193	2324.94
994.49	2315.9
994.787	2300.98
995.083	2338.5
995.379	2275.22
995.676	2267.77
995.972	2270.93
996.268	2246.52
996.565	2230.25
996.861	2241.55
997.157	2211.95
997.453	2192.74
997.749	2230.7
998.044	2203.59
998.34	2208.78
998.636	2145.73
998.932	2166.3
999.227	2155.9
999.523	2128.56
999.818	2133.76
1000.114	2144.15
1000.409	2114.32
1000.704	2070.48
1001	2056.02
1001.295	2070.26
1001.59	2084.04
1001.885	2037.94
1002.18	2034.1
1002.475	2011.05
1002.77	2024.61
1003.065	2017.15
1003.359	2009.01
1003.654	1993.87
1003.949	1992.29
1004.243	1961.11
1004.538	1939.64
1004.832	1924.27
1005.127	1932.18
1005.421	1933.76
1005.715	1934.89
1006.009	1881.56
1006.304	1874.33
1006.598	1866.19
1006.892	1878.17
1007.186	1841.34
1007.48	1847.66
1007.773	1847.44
1008.067	1827.32
1008.361	1812.41
1008.655	1788.91
1008.948	1773.77
1009.242	1785.52
1009.535	1765.18
1009.829	1766.99
1010.122	1752.75
1010.415	1725.63
1010.708	1733.32
1011.001	1712.98
1011.295	1698.74
1011.588	1688.57
1011.881	1690.83
1012.173	1684.73
1012.466	1676.82
1012.759	1647.22
1013.052	1665.07
1013.344	1631.4
1013.637	1615.35
1013.93	1623.94
1014.222	1639.31
1014.514	1599.99
1014.807	1605.86
1015.099	1572.19
1015.391	1602.47
1015.683	1574.9
1015.976	1568.12
1016.268	1533.55
1016.56	1561.8
1016.851	1529.71
1017.143	1533.77
1017.435	1493.77
1017.727	1491.74
1018.018	1485.19
1018.31	1510.05
1018.602	1485.64
1018.893	1475.24
1019.185	1470.95
1019.476	1442.93
1019.767	1470.5
1020.058	1404.51
1020.35	1421.91
1020.641	1398.18
1020.932	1404.29
1021.223	1388.92
1021.514	1369.71
1021.804	1362.03
1022.095	1395.02
1022.386	1357.28
1022.677	1360.22
1022.967	1341.46
1023.258	1317.51
1023.548	1297.85
1023.839	1343.04
1024.129	1320.22
1024.419	1322.71
1024.709	1275.02
1025	1276.6
1025.29	1294.91
1025.58	1263.5
1025.87	1264.4
1026.16	1256.27
1026.449	1251.07
1026.739	1236.38
1027.029	1241.58
1027.319	1191.18
1027.608	1209.04
1027.898	1222.14
1028.187	1188.02
1028.477	1176.72
1028.766	1199.32
1029.055	1146.66
1029.344	1155.03
1029.634	1166.55
1029.923	1147.57
1030.212	1132.43
1030.501	1146.66
1030.79	1103.73
1031.078	1128.36
1031.367	1127
1031.656	1094.01
1031.945	1100.34
1032.233	1099.66
1032.522	1086.33
1032.81	1071.41
1033.099	1064.86
1033.387	1057.85
1033.675	1066.44
1033.963	1068.7
1034.251	1030.06
1034.54	1039.55
1034.828	1051.07
1035.116	1007.69
1035.403	1023.05
1035.691	1015.14
1035.979	1030.28
1036.267	1024.63
1036.554	1011.08
1036.842	981.7
1037.129	970.4
1037.417	966.78
1037.704	990.06
1037.992	1001.36
1038.279	956.39
1038.566	941.25
1038.853	941.25
1039.14	941.25
