Data from hue_40_FLMS001491_86.txt Node
Date: Mon Feb 06 15:08:41 GMT 2017
User: dcchb
Spectrometer: FLMS00149
Trigger mode: 0
Integration Time (sec): 2.000000E-2
Scans to average: 10
Electric dark correction enabled: true
Nonlinearity correction enabled: false
Boxcar width: 0
XAxis mode: Wavelengths
Number of Pixels in Spectrum: 2048
>>>>>Begin Spectral Data<<<<<
341.393	-28.45
341.776	-28.45
342.16	-28.45
342.543	-72.06
342.927	-66.18
343.31	-73.19
343.693	-70.93
344.077	-64.38
344.46	-52.85
344.843	-48.56
345.226	-42.68
345.61	-19.63
345.993	-38.61
346.376	2.51
346.759	-2.01
347.142	19.46
347.525	46.13
347.908	80.48
348.291	76.41
348.674	84.77
349.057	103.08
349.44	114.15
349.823	139.01
350.206	159.57
350.588	194.37
350.971	199.35
351.354	219.23
351.737	231.66
352.119	242.73
352.502	259.23
352.884	269.63
353.267	276.63
353.65	305.78
354.032	292
354.414	316.63
354.797	311.21
355.179	340.13
355.562	322.73
355.944	314.14
356.326	316.4
356.709	345.56
357.091	350.3
357.473	337.42
357.855	335.39
358.238	332
358.62	332.45
359.002	348.04
359.384	321.83
359.766	364.54
360.148	327.7
360.53	337.87
360.912	350.3
361.294	340.58
361.676	345.1
362.057	347.82
362.439	344.88
362.821	328.16
363.203	320.7
363.584	329.51
363.966	346.69
364.348	324.54
364.729	333.58
365.111	305.56
365.493	334.71
365.874	315.95
366.256	319.12
366.637	308.27
367.019	311.66
367.4	319.79
367.781	299.68
368.163	324.77
368.544	314.37
368.925	321.38
369.306	324.09
369.688	317.76
370.069	318.44
370.45	299.68
370.831	329.51
371.212	331.77
371.593	314.37
371.974	329.74
372.355	327.93
372.736	315.95
373.117	322.96
373.498	326.12
373.879	316.4
374.26	314.82
374.641	325.67
375.021	318.66
375.402	329.51
375.783	332.22
376.163	318.44
376.544	321.6
376.925	356.86
377.305	318.44
377.686	306.91
378.066	329.51
378.447	329.96
378.827	335.61
379.208	341.49
379.588	324.99
379.968	335.84
380.349	348.95
380.729	329.06
381.109	326.35
381.489	349.62
381.87	320.7
382.25	349.17
382.63	332.45
383.01	353.69
383.39	336.52
383.77	348.95
384.15	352.56
384.53	336.74
384.91	345.78
385.29	365.22
385.67	354.14
386.049	369.28
386.429	367.02
386.809	361.15
387.189	365.67
387.568	366.12
387.948	364.54
388.328	366.12
388.707	352.11
389.087	369.51
389.466	364.99
389.846	360.24
390.225	349.85
390.605	354.82
390.984	373.13
391.363	376.74
391.743	356.86
392.122	384.2
392.501	392.79
392.881	375.61
393.26	369.06
393.639	379.45
394.018	366.57
394.397	397.53
394.776	401.6
395.155	386.91
395.534	369.06
395.913	376.74
396.292	391.88
396.671	390.75
397.05	391.66
397.429	372.67
397.808	404.99
398.186	388.04
398.565	406.8
398.944	392.33
399.323	396.4
399.701	395.5
400.08	395.95
400.458	406.35
400.837	410.86
401.215	428.94
401.594	391.88
401.972	402.73
402.351	411.09
402.729	429.62
403.107	419.23
403.486	414.25
403.864	399.79
404.242	424.65
404.62	414.25
404.999	430.98
405.377	427.81
405.755	425.33
406.133	438.89
406.511	430.07
406.889	430.3
407.267	430.98
407.645	437.08
408.023	426.46
408.401	461.26
408.779	439.56
409.156	453.58
409.534	454.03
409.912	469.85
410.29	448.15
410.667	459.68
411.045	468.26
411.422	463.74
411.8	469.39
412.178	476.17
412.555	464.42
412.933	478.89
413.31	491.99
413.687	487.93
414.065	489.51
414.442	498.55
414.819	499.68
415.197	483.41
415.574	513.91
415.951	491.77
416.328	512.11
416.705	527.7
417.082	485.44
417.46	521.37
417.837	497.42
418.214	505.1
418.591	517.75
418.967	531.99
419.344	531.54
419.721	550.07
420.098	528.83
420.475	544.65
420.852	524.31
421.228	561.14
421.605	552.56
421.982	535.38
422.358	555.04
422.735	569.96
423.111	548.04
423.488	578.54
423.864	557.98
424.241	568.15
424.617	586.23
424.994	574.93
425.37	589.62
425.746	590.3
426.123	578.32
426.499	601.14
426.875	571.54
427.251	585.78
427.627	588.04
428.003	608.37
428.379	619
428.756	629.39
429.132	614.48
429.507	623.74
429.883	633.68
430.259	600.24
430.635	646.79
431.011	642.72
431.387	666.45
431.763	655.6
432.138	658.99
432.514	639.56
432.89	670.52
433.265	686.11
433.641	667.58
434.016	700.8
434.392	701.48
434.767	700.12
435.143	699.22
435.518	698.77
435.894	720.24
436.269	728.6
436.644	720.91
437.02	742.61
437.395	732.21
437.77	734.92
438.145	752.55
438.52	759.78
438.895	758.2
439.271	759.1
439.646	772.44
440.021	788.71
440.395	765.88
440.77	778.31
441.145	771.76
441.52	823.74
441.895	775.83
442.27	797.97
442.645	788.93
443.019	787.13
443.394	832.55
443.769	804.3
444.143	806.79
444.518	839.1
444.892	841.36
445.267	836.62
445.641	836.84
446.016	849.5
446.39	857.63
446.764	869.38
447.139	847.01
447.513	861.93
447.887	891.98
448.262	871.42
448.636	887.46
449.01	895.6
449.384	869.61
449.758	908.7
450.132	888.14
450.506	892.43
450.88	907.8
451.254	924.07
451.628	914.81
452.002	949.38
452.376	939.66
452.75	941.02
453.123	951.19
453.497	971.08
453.871	955.26
454.244	995.03
454.618	1019.66
454.992	1015.82
455.365	1003.39
455.739	1031.87
456.112	1033
456.486	1051.07
456.859	1053.11
457.232	1085.88
457.606	1061.92
457.979	1083.16
458.352	1105.99
458.725	1105.08
459.099	1119.32
459.472	1111.86
459.845	1122.26
460.218	1124.74
460.591	1177.85
460.964	1189.83
461.337	1172.65
461.71	1229.37
462.083	1223.05
462.456	1227.34
462.829	1230.73
463.201	1243.16
463.574	1246.55
463.947	1258.98
464.32	1319.54
464.692	1307.56
465.065	1319.99
465.438	1356.15
465.81	1356.15
466.183	1388.01
466.555	1387.56
466.928	1415.58
467.3	1405.87
467.672	1437.5
468.045	1465.53
468.417	1483.61
468.789	1494.9
469.161	1527.67
469.534	1544.17
469.906	1573.55
470.278	1594.56
470.65	1614.22
471.022	1667.56
471.394	1682.7
471.766	1714.79
472.138	1769.93
472.51	1766.08
472.882	1817.61
473.253	1837.95
473.625	1837.95
473.997	1929.47
474.369	1905.51
474.74	1948
475.112	1993.65
475.484	2045.17
475.855	2081.78
476.227	2108.9
476.598	2193.19
476.97	2220.76
477.341	2269.35
477.713	2330.59
478.084	2363.13
478.455	2429.12
478.827	2476.12
479.198	2537.59
479.569	2573.29
479.94	2632.73
480.311	2734.87
480.682	2801.76
481.053	2888.09
481.424	2945.04
481.795	3017.58
482.166	3070.23
482.537	3110
482.908	3189.1
483.279	3294.63
483.65	3375.98
484.021	3474.51
484.391	3554.96
484.762	3584.11
485.133	3653.27
485.503	3733.94
485.874	3868.63
486.244	3953.6
486.615	4062.75
486.985	4156.98
487.356	4228.39
487.726	4316.98
488.097	4474.03
488.467	4480.36
488.837	4649.85
489.207	4740.92
489.578	4838.55
489.948	4894.81
490.318	5041.03
490.688	5135.49
491.058	5247.8
491.428	5330.51
491.798	5418.64
492.168	5623.84
492.538	5654.34
492.908	5730.5
493.278	5840.78
493.648	5938.63
494.017	6072.64
494.387	6186.08
494.757	6242.12
495.126	6398.73
495.496	6480.99
495.866	6584.26
496.235	6647.99
496.605	6773.18
496.974	6845.05
497.344	6948.55
497.713	7014.08
498.082	7138.6
498.452	7266.5
498.821	7362.32
499.19	7417.01
499.559	7469.21
499.928	7585.82
500.298	7671.92
500.667	7734.97
501.036	7849.09
501.405	7934.06
501.774	8041.17
502.143	8080.49
502.512	8166.82
502.88	8298.12
503.249	8388.06
503.618	8433.25
503.987	8549.63
504.356	8604.1
504.724	8708.05
505.093	8741.72
505.462	8786.92
505.83	8859.68
506.199	9002.73
506.567	9144.65
506.936	9240.92
507.304	9236.62
507.672	9345.77
508.041	9429.84
508.409	9464.86
508.777	9543.96
509.145	9645.88
509.514	9671.41
509.882	9720.9
510.25	9819.66
510.618	9983.27
510.986	9961.8
511.354	10088.35
511.722	10157.95
512.09	10252.87
512.458	10228.23
512.826	10363.37
513.193	10451.96
513.561	10507.77
513.929	10628
514.297	10669.58
514.664	10829.57
515.032	10846.75
515.4	10857.14
515.767	10923.81
516.135	10987.99
516.502	10935.56
516.869	11220.52
517.237	11221.65
517.604	11130.81
517.972	11381.42
518.339	11415.32
518.706	11435.43
519.073	11429.11
519.44	11615.99
519.808	11748.87
520.175	11747.29
520.542	11875.87
520.909	11978.02
521.276	12006.04
521.643	12129.43
522.009	12133.49
522.376	12260.5
522.743	12244
523.11	12463.66
523.477	12573.03
523.843	12593.14
524.21	12741.39
524.577	12804.66
524.943	12887.82
525.31	12988.39
525.676	13026.8
526.043	13180.47
526.409	13159.91
526.776	13257.76
527.142	13350.19
527.508	13402.84
527.874	13522.38
528.241	13614.36
528.607	13525.32
528.973	13741.81
529.339	13756.95
529.705	13960.11
530.071	14017.96
530.437	14049.15
530.803	14210.73
531.169	14281.23
531.535	14194.01
531.901	14337.73
532.267	14421.8
532.632	14462.47
532.998	14568.46
533.364	14619.76
533.73	14666.76
534.095	14818.17
534.461	14865.63
534.826	14915.12
535.192	14901.33
535.557	15042.8
535.923	15073.08
536.288	15203.24
536.653	15180.87
537.019	15111.95
537.384	15317.59
537.749	15418.61
538.114	15437.59
538.479	15455.89
538.845	15571.14
539.21	15507.87
539.575	15596.91
539.94	15693.4
540.305	15775.66
540.67	15752.61
541.034	15867.18
541.399	15965.03
541.764	15955.99
542.129	16034.86
542.494	16121.86
542.858	16157.8
543.223	16175.2
543.587	16304.01
543.952	16368.86
544.316	16333.38
544.681	16362.99
545.045	16460.84
545.41	16566.15
545.774	16553.04
546.138	16698.8
546.503	16716.65
546.867	16739.02
547.231	16888.17
547.595	16949.41
547.959	16972.24
548.324	17060.82
548.688	17140.82
549.052	17123.65
549.416	17178.11
549.779	17266.24
550.143	17249.52
550.507	17433.47
550.871	17491.09
551.235	17493.35
551.599	17563.63
551.962	17677.53
552.326	17625.55
552.689	17787.58
553.053	17681.37
553.417	17739
553.78	17907.81
554.143	17907.35
554.507	18036.84
554.87	18044.75
555.234	18183.73
555.597	18125.43
555.96	18185.09
556.323	18361.35
556.686	18461.46
557.05	18458.53
557.413	18513.44
557.776	18552.31
558.139	18703.72
558.502	18773.09
558.865	18759.76
559.228	18933.32
559.59	18952.52
559.953	18956.82
560.316	19274.1
560.679	19208.56
561.041	19270.93
561.404	19370.14
561.767	19467.76
562.129	19419.4
562.492	19706.85
562.854	19650.81
563.217	19626.18
563.579	19706.4
563.941	19820.98
564.304	19840.64
564.666	20021.2
565.028	20000.63
565.39	20000.86
565.753	20086.96
566.115	20311.36
566.477	20392.26
566.839	20422.32
567.201	20532.14
567.563	20522.2
567.925	20763.55
568.287	20749.09
568.648	20795.41
569.01	20952.47
569.372	21079.7
569.734	20927.39
570.095	21133.03
570.457	21227.72
570.819	21320.37
571.18	21349.52
571.542	21464.1
571.903	21492.8
572.265	21635.17
572.626	21613.02
572.987	21719.23
573.349	21920.36
573.71	21870.64
574.071	22063.63
574.432	22149.73
574.794	22341.81
575.155	22346.11
575.516	22338.88
575.877	22480.12
576.238	22622.94
576.599	22648.92
576.96	22775.7
577.32	22909.71
577.681	23027.9
578.042	23107.22
578.403	23201.23
578.763	23284.39
579.124	23381.33
579.485	23602.8
579.845	23794.66
580.206	23830.59
580.566	23968.21
580.927	24148.32
581.287	24374.75
581.648	24410.91
582.008	24568.65
582.368	24702.66
582.728	24922.31
583.089	25060.39
583.449	25089.54
583.809	25274.62
584.169	25375.63
584.529	25633.48
584.889	25978.33
585.249	25991.66
585.609	26019.23
585.969	26370.86
586.329	26445.66
586.688	26547.13
587.048	26757.29
587.408	26839.1
587.768	27106.89
588.127	27314.79
588.487	27333.55
588.846	27778.28
589.206	27750.03
589.565	27943.7
589.925	28225.95
590.284	28271.83
590.643	28531.71
591.003	28786.84
591.362	28885.37
591.721	29089.43
592.08	29315.87
592.44	29488.52
592.799	29728.29
593.158	29782.97
593.517	30030.88
593.876	30141.61
594.235	30274.03
594.593	30396.29
594.952	30757.86
595.311	30720.12
595.67	31092.09
596.029	31409.82
596.387	31448.47
596.746	31599.65
597.104	31611.17
597.463	31806.88
597.822	32085.96
598.18	32198.05
598.538	32209.58
598.897	32600.98
599.255	32495.9
599.613	33132.04
599.972	32998.03
600.33	33210.45
600.688	33191.92
601.046	33562.54
601.404	33693.83
601.762	33730.67
602.12	34019.02
602.478	34144.22
602.836	34213.82
603.194	34274.16
603.552	34424.89
603.91	34314.61
604.268	34695.16
604.625	34738.32
604.983	34983.52
605.341	34961.59
605.698	35182.61
606.056	35440.9
606.413	35486.78
606.771	35735.13
607.128	35764.29
607.485	35595.7
607.843	35911.4
608.2	36114.56
608.557	36225.52
608.914	36198.17
609.272	36589.35
609.629	36640.19
609.986	36764.49
610.343	36779.63
610.7	37125.61
611.057	37056.23
611.414	37063.69
611.771	37232.72
612.127	37329.22
612.484	37626.61
612.841	37615.54
613.198	37604.46
613.554	37686.04
613.911	37966.71
614.267	37876.77
614.624	37992.25
614.98	38147.73
615.337	38251.45
615.693	38216.2
616.05	38286.71
616.406	38632.23
616.762	38688.28
617.118	38592.91
617.475	38618.22
617.831	38824.54
618.187	38859.8
618.543	39025.67
618.899	39349.5
619.255	39253.23
619.611	39257.53
619.967	39389.5
620.323	39387.92
620.678	39313.57
621.034	39323.06
621.39	39313.34
621.746	39314.93
622.101	39842.14
622.457	39560.12
622.812	39687.57
623.168	39768.25
623.523	39851.18
623.879	39954.68
624.234	39734.12
624.589	39947
624.945	39950.62
625.3	39957.17
625.655	39977.73
626.01	39981.35
626.365	40119.2
626.72	40043.27
627.075	40048.69
627.43	39912.88
627.785	39981.35
628.14	40137.96
628.495	40156.03
628.85	40167.79
629.205	40078.3
629.559	40328.69
629.914	40151.29
630.269	40158.29
630.623	40059.54
630.978	40183.38
631.332	40296.6
631.687	40335.92
632.041	40243.04
632.396	40300.21
632.75	39949.94
633.104	40097.05
633.459	40115.36
633.813	40079.2
634.167	40072.65
634.521	39889.37
634.875	40114
635.229	40009.82
635.583	39825.2
635.937	39902.71
636.291	39962.14
636.645	39951.07
636.999	39966.66
637.352	39930.05
637.706	39798.3
638.06	39876.27
638.413	39746.33
638.767	39781.36
639.121	39884.86
639.474	39533.45
639.828	39627.23
640.181	39804.41
640.534	39798.53
640.888	39565.32
641.241	39445.54
641.594	39707.23
641.947	39808.02
642.301	39503.4
642.654	39634.92
643.007	39456.39
643.36	39496.62
643.713	39536.62
644.066	39587.24
644.419	39332.78
644.771	39149.73
645.124	38837.2
645.477	38732.8
645.83	38626.58
646.182	38354.27
646.535	38181.17
646.888	38321.05
647.24	38097.33
647.593	38336.42
647.945	38331.45
648.298	38074.06
648.65	38032.7
649.002	37977.11
649.355	38023.66
649.707	37925.13
650.059	38124.9
650.411	38595.85
650.763	38588.62
651.115	39058.21
651.467	38908.38
651.819	38876.29
652.171	38777.31
652.523	38726.02
652.875	38761.49
653.227	38485.34
653.578	38884.43
653.93	38732.57
654.282	38509.75
654.633	38514.95
654.985	38696.41
655.337	38555.85
655.688	38499.58
656.039	38794.49
656.391	38307.5
656.742	38597.66
657.094	38463.2
657.445	38557.88
657.796	38314.73
658.147	38357.21
658.498	38317.89
658.849	38544.33
659.2	38476.76
659.551	38436.53
659.902	38497.55
660.253	38417.55
660.604	38413.71
660.955	38212.13
661.306	38493.93
661.656	38213.94
662.007	38335.52
662.358	38377.78
662.708	38326.48
663.059	38292.13
663.409	38059.82
663.76	38349.98
664.11	38232.24
664.461	38286.71
664.811	38236.54
665.161	38377.55
665.511	38108.63
665.862	38236.31
666.212	38315.18
666.562	38277.67
666.912	37975.07
667.262	38164.9
667.612	38079.93
667.962	38103.21
668.312	38080.38
668.662	38343.88
669.011	38190.89
669.361	38115.41
669.711	38004.68
670.06	38056.2
670.41	37998.8
670.76	37839.26
671.109	38091.68
671.459	38034.06
671.808	37924
672.157	37978.46
672.507	37855.98
672.856	37838.13
673.205	37987.05
673.554	37853.04
673.904	37718.13
674.253	38050.33
674.602	37828.86
674.951	37354.53
675.3	37033.18
675.649	37818.69
675.998	37678.81
676.346	37726.27
676.695	37777.79
677.044	37474.3
677.393	37668.64
677.741	37580.28
678.09	37601.53
678.438	37314.53
678.787	37500.51
679.135	37618.7
679.484	37200.41
679.832	37396.11
680.181	37177.58
680.529	37498.93
680.877	37297.8
681.225	37108.66
681.573	37409.21
681.922	37095.78
682.27	36955.44
682.618	37109.56
682.966	36861.88
683.314	37063.46
683.661	36874.09
684.009	36562.68
684.357	36603.36
684.705	36593.42
685.053	36663.47
685.4	36573.76
685.748	36404.95
686.095	36442.01
686.443	36202.47
686.79	36245.18
687.138	36308.68
687.485	36199.53
687.832	36194.56
688.18	36152.3
688.527	35978.74
688.874	36011.74
689.221	35829.14
689.568	35899.88
689.915	35754.34
690.262	35842.93
690.609	35682.25
690.956	35628.24
691.303	35408.14
691.65	35280.68
691.997	35338.08
692.344	35207.92
692.69	35049.28
693.037	35205.88
693.383	34936.28
693.73	34988.26
694.077	34754.82
694.423	34671.66
694.769	34717.99
695.116	34513.92
695.462	34615.84
695.808	34485.68
696.155	34533.81
696.501	34207.49
696.847	34156.64
697.193	33749.2
697.539	34068.74
697.885	33886.59
698.231	33697.67
698.577	33727.73
698.923	33678.92
699.269	33489.77
699.614	33366.61
699.96	33404.12
700.306	33316.89
700.651	33311.69
700.997	32918.26
701.342	32999.61
701.688	33031.7
702.033	32882.33
702.379	32892.95
702.724	32710.35
703.069	32785.61
703.415	32463.13
703.76	32506.97
704.105	32366.63
704.45	32504.26
704.795	32280.08
705.14	32105.17
705.485	32042.12
705.83	31999.86
706.175	31963.03
706.52	31881.22
706.865	31799.64
707.209	31748.12
707.554	31561.46
707.899	31719.87
708.243	31588.8
708.588	31514.45
708.932	31268.58
709.277	31302.71
709.621	31234.46
709.966	31082.83
710.31	31170.06
710.654	30844.64
710.998	30989.72
711.342	31017.74
711.687	30827.92
712.031	30827.01
712.375	30602.39
712.719	30584.99
713.063	30605.78
713.407	30618.66
713.75	30445.78
714.094	30354.71
714.438	30333.92
714.782	30323.75
715.125	30159.24
715.469	30256.41
715.812	30068.39
716.156	29999.92
716.499	29881.73
716.843	30047.37
717.186	29842.41
717.53	29925.8
717.873	29868.17
718.216	29826.14
718.559	29681.28
718.902	29530.33
719.246	29541.17
719.589	29520.38
719.932	29364.91
720.275	29410.78
720.617	29490.78
720.96	29312.93
721.303	29140.28
721.646	29305.47
721.989	28950.45
722.331	29113.61
722.674	29017.12
723.016	29134.63
723.359	28914.3
723.701	29013.05
724.044	28796.33
724.386	28747.29
724.729	28869.78
725.071	28734.64
725.413	28712.04
725.755	28673.4
726.097	28507.53
726.439	28364.93
726.782	28443.57
727.124	28577.58
727.465	28288.32
727.807	28334.65
728.149	28305.27
728.491	28161.77
728.833	28340.98
729.175	28243.58
729.516	28211.94
729.858	28158.16
730.199	28022.57
730.541	28050.36
730.882	27968.78
731.224	28034.77
731.565	27827.09
731.906	27863.7
732.248	27909.12
732.589	27715.91
732.93	27699.41
733.271	27598.4
733.612	27691.05
733.953	27705.29
734.294	27563.6
734.635	27485.63
734.976	27536.03
735.317	27340.55
735.658	27415.8
735.999	27325.64
736.339	27330.61
736.68	27294.68
737.021	27307.56
737.361	27070.05
737.702	27152.08
738.042	27185.3
738.383	27087.45
738.723	27086.1
739.063	27008.81
739.404	26918.19
739.744	26930.17
740.084	26841.13
740.424	26877.06
740.764	26759.1
741.104	26897.17
741.444	26587.13
741.784	26618.31
742.124	26600.01
742.464	26597.3
742.804	26640.23
743.143	26498.77
743.483	26534.47
743.823	26422.16
744.162	26426.23
744.502	26288.38
744.841	26175.61
745.181	26418.77
745.52	26290.86
745.86	26393.46
746.199	26194.37
746.538	26250.19
746.877	26147.14
747.216	26323.63
747.556	26124.31
747.895	26125.22
748.234	25901.27
748.573	25888.84
748.911	25959.12
749.25	25995.73
749.589	25760.25
749.928	25767.94
750.267	25839.8
750.605	25638
750.944	25611.78
751.283	25568.62
751.621	25598.45
751.96	25507.15
752.298	25511.67
752.636	25526.14
752.975	25240.49
753.313	25229.42
753.651	25277.1
753.989	25217.67
754.327	25219.93
754.666	25017
755.004	25201.63
755.342	25060.16
755.679	25013.16
756.017	24819.49
756.355	24915.98
756.693	24749.89
757.031	24792.6
757.368	24651.36
757.706	24649.55
758.044	24567.52
758.381	24517.35
758.719	24415.43
759.056	24401.19
759.394	24270.58
759.731	24195.32
760.068	24203.46
760.405	24063.8
760.743	24096.12
761.08	24021.77
761.417	23903.13
761.754	23879.4
762.091	23796.92
762.428	23714.21
762.765	23638.28
763.102	23702.46
763.438	23599.41
763.775	23470.37
764.112	23502.24
764.449	23463.82
764.785	23290.26
765.122	23158.06
765.458	23088.01
765.795	23048.91
766.131	22993.1
766.467	22972.31
766.804	22868.81
767.14	22683.05
767.476	22808.47
767.812	22530.51
768.148	22689.6
768.485	22538.42
768.821	22446.9
769.157	22314.47
769.492	22388.59
769.828	22344.07
770.164	22082.61
770.5	22006.46
770.836	22032.22
771.171	21883.29
771.507	21863.18
771.842	21765.11
772.178	21735.95
772.513	21659.57
772.849	21611.66
773.184	21420.26
773.519	21371.9
773.855	21393.14
774.19	21180.94
774.525	21148.17
774.86	21203.99
775.195	21064.79
775.53	21035.86
775.865	20903.89
776.2	20747.28
776.535	20545.7
776.87	20676.09
777.205	20543.67
777.539	20481.98
777.874	20550.45
778.209	20306.61
778.543	20237.91
778.878	20157.46
779.212	20198.14
779.547	20021.42
779.881	20059.61
780.215	19980.52
780.55	19902.78
780.884	19701.66
781.218	19691.26
781.552	19860.75
781.886	19658.04
782.22	19510.48
782.554	19419.86
782.888	19247.43
783.222	19233.65
783.556	19165.17
783.889	19100.54
784.223	18962.92
784.557	18935.12
784.89	19018.06
785.224	18808.8
785.557	18758.86
785.891	18739.65
786.224	18682.47
786.558	18654.68
786.891	18549.82
787.224	18470.96
787.557	18416.27
787.891	18320.9
788.224	18270.06
788.557	18306.67
788.89	18232.54
789.223	18027.58
789.556	17944.19
789.888	17977.86
790.221	17867.13
790.554	17766.79
790.887	17738.77
791.219	17768.37
791.552	17566.35
791.884	17534.26
792.217	17472.56
792.549	17372.9
792.882	17271.21
793.214	17221.95
793.546	17318.44
793.879	17237.09
794.211	17098.11
794.543	17138.79
794.875	16998
795.207	17134.94
795.539	16980.82
795.871	16973.14
796.203	16853.37
796.535	16694.73
796.867	16711.68
797.198	16701.51
797.53	16602.3
797.862	16490.44
798.193	16605.02
798.525	16438.92
798.856	16460.16
799.188	16243.22
799.519	16208.87
799.85	16127.74
800.182	16081.19
800.513	16171.35
800.844	16000.51
801.175	16138.81
801.506	16040.06
801.837	15955.31
802.168	15956.9
802.499	15829.67
802.83	15765.04
803.161	15777.92
803.491	15732.27
803.822	15691.14
804.153	15587.87
804.483	15539.73
804.814	15499.28
805.145	15487.08
805.475	15423.8
805.805	15317.59
806.136	15335.9
806.466	15330.25
806.796	15366.63
807.126	15201.44
807.457	15153.08
807.787	15156.01
808.117	15040.99
808.447	14989.01
808.777	15056.81
809.107	14992.4
809.436	14939.75
809.766	14937.94
810.096	14857.72
810.426	14795.8
810.755	14833.54
811.085	14714.22
811.414	14729.58
811.744	14570.27
812.073	14579.53
812.403	14535.47
812.732	14455.24
813.061	14395.36
813.39	14434.45
813.719	14347.45
814.049	14473.32
814.378	14323.27
814.707	14328.01
815.036	14230.84
815.365	14158.98
815.693	14076.27
816.022	14122.59
816.351	14036.72
816.68	13990.39
817.008	14022.48
817.337	13857.52
817.665	13845.54
817.994	13850.74
818.322	13809.83
818.651	13798.54
818.979	13791.76
819.307	13823.62
819.636	13789.5
819.964	13591.08
820.292	13680.57
820.62	13690.97
820.948	13626.79
821.276	13656.17
821.604	13615.26
821.932	13660.01
822.259	13625.88
822.587	13599.22
822.915	13566
823.243	13616.39
823.57	13535.94
823.898	13571.42
824.225	13525.55
824.553	13470.41
824.88	13569.39
825.207	13622.49
825.535	13451.43
825.862	13580.46
826.189	13460.01
826.516	13572.55
826.843	13591.31
827.17	13575.04
827.497	13552.21
827.824	13555.6
828.151	13587.24
828.478	13518.99
828.805	13533.68
829.131	13525.1
829.458	13459.34
829.785	13365.55
830.111	13528.49
830.438	13606.68
830.764	13524.42
831.09	13501.82
831.417	13461.14
831.743	13485.55
832.069	13548.15
832.395	13379.11
832.722	13492.78
833.048	13429.73
833.374	13429.28
833.7	13338.21
834.026	13383.86
834.351	13417.08
834.677	13358.55
835.003	13289.4
835.329	13418.66
835.654	13371.43
835.98	13162.62
836.306	13272.9
836.631	13165.11
836.956	13267.25
837.282	13271.09
837.607	13180.02
837.932	13155.84
838.258	13169.63
838.583	13140.25
838.908	13029.97
839.233	13134.15
839.558	13039.69
839.883	12967.14
840.208	12984.77
840.533	12988.39
840.858	12957.65
841.182	12976.41
841.507	12905.68
841.832	12822.52
842.156	12909.75
842.481	12859.35
842.805	12799.69
843.13	12775.74
843.454	12798.34
843.778	12674.5
844.103	12692.58
844.427	12665.68
844.751	12645.35
845.075	12531.68
845.399	12542.07
845.723	12477.67
846.047	12542.98
846.371	12406.48
846.695	12434.5
847.019	12342.53
847.343	12284.45
847.666	12267.28
847.99	12167.62
848.313	12100.5
848.637	12185.7
848.96	12041.52
849.284	12041.29
849.607	11911.13
849.931	11917.91
850.254	11805.37
850.577	11798.81
850.9	11680.4
851.223	11703.9
851.546	11556.79
851.869	11568.99
852.192	11536.22
852.515	11460.07
852.838	11365.83
853.161	11392.95
853.483	11394.3
853.806	11356.11
854.129	11292.39
854.451	11237.02
854.774	11204.93
855.096	11208.55
855.419	11147.08
855.741	11157.25
856.063	10991.15
856.385	11055.78
856.708	10965.62
857.03	10898.72
857.352	10926.97
857.674	10886.97
857.996	10898.72
858.318	10832.29
858.64	10764.04
858.961	10808.78
859.283	10708.67
859.605	10701.44
859.926	10697.6
860.248	10721.78
860.57	10592.74
860.891	10643.82
861.212	10524.95
861.534	10494.89
861.855	10480.2
862.176	10510.03
862.498	10408.57
862.819	10464.39
863.14	10500.32
863.461	10386.87
863.782	10430.26
864.103	10366.76
864.424	10430.71
864.745	10422.58
865.065	10307.33
865.386	10289.93
865.707	10249.48
866.027	10272.98
866.348	10271.85
866.668	10279.08
866.989	10235.47
867.309	10134.23
867.63	10152.98
867.95	10205.64
868.27	10159.76
868.59	10064.4
868.91	10075.02
869.23	10072.31
869.55	10088.58
869.87	10086.77
870.19	10034.11
870.51	10018.07
870.83	10051.74
871.15	10002.03
871.469	9946.66
871.789	10023.95
872.109	9914.8
872.428	9969.03
872.748	9918.19
873.067	9919.09
873.386	9890.62
873.706	9870.5
874.025	9797.51
874.344	9811.3
874.663	9817.4
874.982	9863.05
875.301	9806.32
875.62	9712.99
875.939	9708.47
876.258	9743.95
876.577	9771.97
876.896	9682.71
877.214	9621.92
877.533	9652.88
877.852	9654.01
878.17	9595.48
878.489	9615.37
878.807	9587.12
879.125	9602.71
879.444	9624.63
879.762	9564.75
880.08	9518.87
880.398	9552.32
880.716	9513.45
881.034	9450.85
881.352	9446.56
881.67	9443.85
881.988	9526.33
882.306	9414.7
882.624	9370.86
882.941	9319.78
883.259	9343.74
883.577	9335.83
883.894	9321.59
884.212	9323.85
884.529	9283.4
884.846	9249.5
885.164	9283.85
885.481	9216.74
885.798	9197.3
886.115	9179.22
886.432	9131.09
886.75	9125.21
887.067	9144.65
887.383	9022.39
887.7	9086.79
888.017	8981.49
888.334	8992.56
888.651	8992.56
888.967	8940.58
889.284	8898.33
889.6	8924.54
889.917	8835.28
890.233	8840.25
890.55	8840.93
890.866	8788.27
891.182	8763.87
891.498	8766.58
891.815	8745.11
892.131	8774.03
892.447	8714.83
892.763	8663.76
893.079	8642.06
893.395	8605.45
893.71	8633.02
894.026	8564.77
894.342	8528.17
894.657	8496.75
894.973	8487.71
895.289	8423.54
895.604	8407.49
895.92	8413.37
896.235	8360.03
896.55	8318
896.865	8265.35
897.181	8274.61
897.496	8253.6
897.811	8239.13
898.126	8238.68
898.441	8182.41
898.756	8169.76
899.071	8112.81
899.386	8119.59
899.7	8024.45
900.015	8048.86
900.33	7999.59
900.644	7973.83
900.959	7970.67
901.273	7950.33
901.588	7930.67
901.902	7838.47
902.216	7874.17
902.531	7840.27
902.845	7798.69
903.159	7739.03
903.473	7663.78
903.787	7631.01
904.101	7663.78
904.415	7574.97
904.729	7629.43
905.042	7515.76
905.356	7526.16
905.67	7501.3
905.984	7470.57
906.297	7468.98
906.611	7383.34
906.924	7399.61
907.237	7345.82
907.551	7351.93
907.864	7322.55
908.177	7322.1
908.491	7246.39
908.804	7244.13
909.117	7196.22
909.43	7174.75
909.743	7163.91
910.056	7060.41
910.368	7138.37
910.681	7069.45
910.994	6983.8
911.307	6977.02
911.619	6992.39
911.932	7020.41
912.244	6941.99
912.557	6831.94
912.869	6833.97
913.181	6871.71
913.494	6799.62
913.806	6711.49
914.118	6758.27
914.43	6695.9
914.742	6642.11
915.054	6649.34
915.366	6672.85
915.678	6642.57
915.99	6599.63
916.302	6514.66
916.613	6494.32
916.925	6555.79
917.236	6505.17
917.548	6469.69
917.859	6472.17
918.171	6359.86
918.482	6366.87
918.794	6366.19
919.105	6331.61
919.416	6217.49
919.727	6271.95
920.038	6258.39
920.349	6217.27
920.66	6161
920.971	6164.16
921.282	6163.03
921.593	6111.51
921.903	6033.54
922.214	6049.81
922.525	6025.41
922.835	5983.37
923.146	6014.56
923.456	5912.87
923.767	5915.58
924.077	5940.89
924.387	5889.14
924.697	5890.27
925.008	5845.75
925.318	5814.11
925.628	5775.7
925.938	5744.06
926.248	5697.96
926.558	5683.49
926.867	5687.79
927.177	5707.9
927.487	5633.33
927.796	5580.9
928.106	5573.89
928.416	5575.47
928.725	5538.19
929.034	5532.09
929.344	5524.85
929.653	5470.39
929.962	5416.16
930.271	5392.65
930.581	5370.51
930.89	5370.51
931.199	5309.27
931.508	5318.98
931.817	5304.75
932.125	5285.54
932.434	5266.78
932.743	5218.65
933.051	5210.51
933.36	5135.94
933.669	5171.42
933.977	5136.39
934.286	5164.86
934.594	5114.02
934.902	5121.7
935.21	5068.6
935.519	5029.95
935.827	5087.8
936.135	4974.59
936.443	5017.52
936.751	4935.49
937.059	4929.16
937.367	4900.92
937.674	4928.94
937.982	4876.74
938.29	4821.82
938.597	4830.18
938.905	4796.29
939.213	4808.04
939.52	4765.55
939.827	4785.21
940.135	4746.12
940.442	4695.05
940.749	4688.94
941.056	4719.68
941.363	4601.72
941.67	4672.45
941.977	4601.26
942.284	4541.15
942.591	4565.11
942.898	4502.73
943.205	4579.79
943.511	4527.14
943.818	4490.31
944.125	4429.97
944.431	4461.38
944.738	4418.22
945.044	4407.82
945.35	4376.41
945.657	4354.49
945.963	4356.98
946.269	4382.51
946.575	4279.69
946.881	4281.27
947.187	4295.28
947.493	4278.56
947.799	4266.13
948.105	4258.45
948.41	4228.17
948.716	4220.26
949.022	4187.71
949.327	4218.22
949.633	4145.68
949.938	4158.56
950.244	4155.17
950.549	4090.77
950.854	4070.43
951.16	4043.31
951.465	4029.3
951.77	3988.85
952.075	3954.95
952.38	3965.35
952.685	3980.04
952.99	3948.4
953.294	3910.89
953.599	3928.96
953.904	3879.02
954.209	3876.54
954.513	3877.89
954.818	3854.39
955.122	3854.39
955.426	3835.86
955.731	3779.36
956.035	3779.14
956.339	3747.05
956.643	3773.04
956.948	3734.17
957.252	3700.72
957.556	3706.37
957.86	3660.05
958.163	3674.28
958.467	3681.74
958.771	3675.41
959.075	3627.96
959.378	3615.3
959.682	3604
959.985	3578.69
960.289	3551.35
960.592	3548.41
960.896	3521.07
961.199	3521.97
961.502	3504.57
961.805	3479.94
962.108	3465.47
962.411	3488.98
962.714	3428.64
963.017	3439.49
963.32	3429.77
963.623	3427.73
963.926	3410.56
964.228	3351.35
964.531	3373.27
964.833	3368.53
965.136	3352.26
965.438	3354.29
965.741	3297.57
966.043	3244.01
966.345	3272.94
966.648	3222.32
966.95	3233.84
967.252	3234.52
967.554	3212.15
967.856	3182.09
968.158	3138.25
968.46	3182.54
968.761	3171.24
969.063	3131.25
969.365	3171.92
969.666	3112.26
969.968	3079.95
970.269	3082.66
970.571	3070.46
970.872	3081.98
971.174	3034.07
971.475	3071.36
971.776	3037.01
972.077	3023.45
972.378	3012.15
972.679	2997.01
972.98	2999.05
973.281	2948.65
973.582	2939.16
973.883	2927.63
974.183	2957.24
974.484	2928.31
974.785	2900.52
975.085	2902.1
975.386	2901.42
975.686	2880.4
975.986	2863.23
976.287	2851.48
976.587	2842.89
976.887	2802.67
977.187	2838.37
977.487	2776.45
977.787	2757.02
978.087	2757.24
978.387	2748.43
978.687	2779.62
978.987	2715.21
979.286	2706.85
979.586	2737.36
979.885	2668.88
980.185	2666.4
980.484	2672.27
980.784	2624.82
981.083	2642.9
981.382	2637.47
981.682	2589.11
981.981	2608.77
982.28	2621.43
982.579	2566.51
982.878	2586.63
983.177	2582.79
983.475	2573.29
983.774	2557.93
984.073	2506.85
984.372	2511.83
984.67	2510.7
984.969	2491.94
985.267	2474.31
985.566	2496.91
985.864	2470.7
986.162	2450.13
986.461	2446.97
986.759	2404.94
987.057	2414.65
987.355	2413.98
987.653	2439.51
987.951	2418.27
988.249	2372.62
988.547	2356.12
988.844	2374.2
989.142	2326.52
989.44	2345.5
989.737	2356.58
990.035	2312.06
990.332	2281.1
990.63	2316.13
990.927	2291.27
991.224	2251.27
991.521	2236.13
991.819	2219.4
992.116	2249.01
992.413	2272.28
992.71	2212.85
993.006	2228.22
993.303	2223.25
993.6	2207.43
993.897	2173.3
994.193	2209.24
994.49	2149.8
994.787	2167.2
995.083	2131.5
995.379	2143.7
995.676	2132.63
995.972	2105.28
996.268	2119.07
996.565	2090.14
996.861	2064.15
997.157	2086.75
997.453	2061.67
997.749	2066.64
998.044	2041.33
998.34	2038.17
998.636	2014.66
998.932	2011.95
999.227	1990.94
999.523	1996.13
999.818	1990.03
1000.114	1966.76
1000.409	1951.16
1000.704	1937.38
1001	1933.08
1001.295	1933.99
1001.59	1910.71
1001.885	1908.68
1002.18	1882.46
1002.475	1890.37
1002.77	1894.67
1003.065	1867.32
1003.359	1858.74
1003.654	1844.5
1003.949	1829.81
1004.243	1852.63
1004.538	1837.72
1004.832	1832.07
1005.127	1791.85
1005.421	1809.02
1005.715	1765.86
1006.009	1779.19
1006.304	1748.23
1006.598	1770.38
1006.892	1750.49
1007.186	1753.2
1007.48	1745.97
1007.773	1693.32
1008.067	1701.45
1008.361	1699.64
1008.655	1704.62
1008.948	1687.44
1009.242	1670.72
1009.535	1641.57
1009.829	1623.26
1010.122	1653.09
1010.415	1633.21
1010.708	1611.74
1011.001	1592.98
1011.295	1595.24
1011.588	1585.52
1011.881	1568.35
1012.173	1581
1012.466	1589.36
1012.759	1582.81
1013.052	1564.05
1013.344	1527.67
1013.637	1532.87
1013.93	1532.42
1014.222	1527.67
1014.514	1536.26
1014.807	1490.16
1015.099	1500.78
1015.391	1487.67
1015.683	1462.36
1015.976	1471.18
1016.268	1453.32
1016.56	1462.81
1016.851	1419.65
1017.143	1438.18
1017.435	1432.98
1017.727	1418.52
1018.018	1420.33
1018.31	1414.68
1018.602	1394.34
1018.893	1368.58
1019.185	1367.9
1019.476	1374.46
1019.767	1355.47
1020.058	1356.83
1020.35	1344.85
1020.641	1320.9
1020.932	1329.26
1021.223	1320.22
1021.514	1326.1
1021.804	1268.24
1022.095	1293.1
1022.386	1311.18
1022.677	1272.09
1022.967	1267.11
1023.258	1253.1
1023.548	1280.45
1023.839	1257.17
1024.129	1245.19
1024.419	1212.65
1024.709	1228.02
1025	1209.49
1025.29	1190.05
1025.58	1188.7
1025.87	1179.88
1026.16	1178.53
1026.449	1175.59
1026.739	1172.43
1027.029	1171.97
1027.319	1143.73
1027.608	1135.37
1027.898	1124.97
1028.187	1145.53
1028.477	1130.17
1028.766	1120.68
1029.055	1108.7
1029.344	1111.41
1029.634	1079.77
1029.923	1090.17
1030.212	1077.74
1030.501	1085.2
1030.79	1080.9
1031.078	1041.81
1031.367	1056.95
1031.656	1038.87
1031.945	1055.14
1032.233	1034.13
1032.522	1032.32
1032.81	1028.02
1033.099	1008.36
1033.387	1011.98
1033.675	990.74
1033.963	997.74
1034.251	1005.43
1034.54	957.97
1034.828	966.33
1035.116	964.97
1035.403	950.96
1035.691	955.94
1035.979	953.22
1036.267	925.43
1036.554	922.49
1036.842	949.38
1037.129	923.85
1037.417	910.29
1037.704	929.72
1037.992	930.4
1038.279	925.2
1038.566	913.45
1038.853	913.45
1039.14	913.45
