Data from hue_40_FLMS001491_55.txt Node
Date: Mon Feb 06 15:08:06 GMT 2017
User: dcchb
Spectrometer: FLMS00149
Trigger mode: 0
Integration Time (sec): 2.000000E-2
Scans to average: 10
Electric dark correction enabled: true
Nonlinearity correction enabled: false
Boxcar width: 0
XAxis mode: Wavelengths
Number of Pixels in Spectrum: 2048
>>>>>Begin Spectral Data<<<<<
341.393	-10.21
341.776	-10.21
342.16	-10.21
342.543	-66.48
342.927	-85.92
343.31	-63.54
343.693	-67.39
344.077	-70.55
344.46	-63.09
344.843	-46.37
345.226	-42.53
345.61	-26.93
345.993	-35.3
346.376	-9.53
346.759	20.75
347.142	32.05
347.525	22.33
347.908	76.57
348.291	71.37
348.674	98.94
349.057	103.23
349.44	121.54
349.823	141.65
350.206	166.05
350.588	207.64
350.971	218.93
351.354	228.2
351.737	243.57
352.119	250.35
352.502	280.18
352.884	270.23
353.267	278.14
353.65	300.06
354.032	306.39
354.414	306.62
354.797	314.98
355.179	322.44
355.562	330.34
355.944	317.01
356.326	326.5
356.709	341.19
357.091	343.68
357.473	348.42
357.855	355.2
358.238	344.58
358.62	333.96
359.002	341.87
359.384	346.62
359.766	342.32
360.148	348.2
360.53	347.29
360.912	353.39
361.294	317.24
361.676	341.42
362.057	359.72
362.439	335.32
362.821	321.76
363.203	317.69
363.584	314.75
363.966	321.98
364.348	322.44
364.729	303.68
365.111	322.21
365.493	319.05
365.874	344.58
366.256	309.1
366.637	311.36
367.019	314.07
367.4	323.79
367.781	296.67
368.163	328.76
368.544	334.41
368.925	303.45
369.306	323.34
369.688	318.82
370.069	350.68
370.45	303.23
370.831	325.37
371.212	330.57
371.593	318.59
371.974	331.93
372.355	316.56
372.736	304.36
373.117	308.88
373.498	327.41
373.879	324.69
374.26	318.37
374.641	339.84
375.021	322.21
375.402	324.69
375.783	321.53
376.163	323.34
376.544	291.7
376.925	340.97
377.305	330.34
377.686	320.4
378.066	321.98
378.447	342.32
378.827	331.93
379.208	332.38
379.588	326.05
379.968	339.38
380.349	345.03
380.729	334.41
381.109	349.55
381.489	316.79
381.87	326.73
382.25	333.06
382.63	347.07
383.01	366.73
383.39	341.42
383.77	346.16
384.15	368.54
384.53	367.18
384.91	348.42
385.29	354.75
385.67	361.76
386.049	378.03
386.429	357.91
386.809	359.5
387.189	370.8
387.568	360.63
387.948	349.78
388.328	383
388.707	380.96
389.087	339.61
389.466	363.56
389.846	345.94
390.225	385.48
390.605	365.37
390.984	363.79
391.363	380.29
391.743	365.37
392.122	368.31
392.501	357.46
392.881	364.69
393.26	389.55
393.639	387.52
394.018	377.35
394.397	375.31
394.776	362.43
395.155	376.44
395.534	394.52
395.913	383.68
396.292	405.14
396.671	396.33
397.05	389.55
397.429	396.11
397.808	384.58
398.186	400.63
398.565	402.88
398.944	397.24
399.323	418.7
399.701	401.08
400.08	386.84
400.458	392.26
400.837	402.88
401.215	401.08
401.594	411.25
401.972	426.84
402.351	412.6
402.729	401.53
403.107	429.1
403.486	418.48
403.864	413.73
404.242	431.58
404.62	429.1
404.999	415.77
405.377	408.99
405.755	426.61
406.133	420.74
406.511	412.38
406.889	441.53
407.267	444.24
407.645	423.45
408.023	449.66
408.401	433.39
408.779	443.11
409.156	446.95
409.534	423.22
409.912	446.5
410.29	463.22
410.667	470.23
411.045	460.74
411.422	456.44
411.8	459.61
412.178	462.77
412.555	482.88
412.933	483.79
413.31	485.59
413.687	470.45
414.065	496.44
414.442	493.05
414.819	475.65
415.197	488.08
415.574	480.85
415.951	512.71
416.328	501.64
416.705	507.06
417.082	481.98
417.46	501.19
417.837	513.62
418.214	500.96
418.591	543.67
418.967	510.68
419.344	545.25
419.721	532.37
420.098	537.12
420.475	530.79
420.852	544.35
421.228	557.91
421.605	524.01
421.982	554.29
422.358	542.32
422.735	567.4
423.111	549.77
423.488	532.15
423.864	579.83
424.241	581.19
424.617	586.61
424.994	581.64
425.37	560.85
425.746	582.09
426.123	595.87
426.499	590.22
426.875	582.09
427.251	587.74
427.627	606.95
428.003	593.39
428.379	612.14
428.756	601.52
429.132	611.69
429.507	604.69
429.883	619.6
430.259	639.49
430.635	615.76
431.011	645.82
431.387	651.24
431.763	661.41
432.138	673.61
432.514	673.16
432.89	678.58
433.265	644.46
433.641	681.97
434.016	682.43
434.392	694.85
434.767	707.28
435.143	714.97
435.518	719.94
435.894	695.53
436.269	699.15
436.644	717.23
437.02	732.14
437.395	735.08
437.77	749.09
438.145	717.23
438.52	760.39
438.895	740.05
439.271	756.1
439.646	743.44
440.021	779.6
440.395	748.64
440.77	761.75
441.145	783.21
441.52	773.04
441.895	771.24
442.27	787.96
442.645	798.81
443.019	794.06
443.394	801.29
443.769	810.11
444.143	792.25
444.518	826.15
444.892	808.07
445.267	831.57
445.641	832.25
446.016	850.78
446.39	810.78
446.764	863.21
447.139	835.64
447.513	821.18
447.887	867.96
448.262	871.57
448.636	855.3
449.01	875.19
449.384	893.04
449.758	889.88
450.132	899.82
450.506	894.62
450.88	907.05
451.254	900.5
451.628	933.49
452.002	907.5
452.376	942.31
452.75	931.46
453.123	933.04
453.497	942.76
453.871	953.38
454.244	974.62
454.618	954.96
454.992	974.17
455.365	992.25
455.739	986.15
456.112	1028.41
456.486	1021.17
456.859	1029.76
457.232	1011.46
457.606	1050.1
457.979	1082.19
458.352	1086.26
458.725	1112.92
459.099	1100.04
459.472	1102.53
459.845	1151.57
460.218	1134.39
460.591	1131.91
460.964	1155.86
461.337	1166.25
461.71	1191.34
462.083	1204.67
462.456	1213.94
462.829	1218.91
463.201	1220.72
463.574	1218
463.947	1236.54
464.32	1278.12
464.692	1266.37
465.065	1297.78
465.438	1323.09
465.81	1345.01
466.183	1358.57
466.555	1366.93
466.928	1381.62
467.3	1382.29
467.672	1441.73
468.045	1445.57
468.417	1448.96
468.789	1467.04
469.161	1495.29
469.534	1527.83
469.906	1577.09
470.278	1578.67
470.65	1616.41
471.022	1650.54
471.394	1672.46
471.766	1707.94
472.138	1705.68
472.51	1742.28
472.882	1756.3
473.253	1801.27
473.625	1840.59
473.997	1878.33
474.369	1919.68
474.74	1932.11
475.112	2020.24
475.484	2031.32
475.855	2075.16
476.227	2117.19
476.598	2161.03
476.97	2224.98
477.341	2286
477.713	2325.09
478.084	2350.4
478.455	2448.03
478.827	2495.26
479.198	2580
479.569	2583.62
479.94	2712.43
480.311	2772.77
480.682	2818.19
481.053	2928.69
481.424	2939.77
481.795	3074.45
482.166	3170.5
482.537	3207.1
482.908	3305.41
483.279	3369.81
483.65	3448.45
484.021	3603.7
484.391	3629.47
484.762	3709.69
485.133	3746.07
485.503	3903.36
485.874	4020.64
486.244	4057.48
486.615	4179.51
486.985	4308.77
487.356	4478.48
487.726	4490.24
488.097	4648.2
488.467	4674.86
488.837	4776.33
489.207	4942.88
489.578	5055.87
489.948	5146.94
490.318	5261.29
490.688	5365.47
491.058	5510.77
491.428	5635.52
491.798	5714.61
492.168	5855.62
492.538	5914.6
492.908	6074.37
493.278	6182.39
493.648	6256.06
494.017	6398.43
494.387	6485.66
494.757	6605.43
495.126	6717.75
495.496	6798.65
495.866	6879.55
496.235	7014.01
496.605	7199.54
496.974	7202.93
497.344	7333.55
497.713	7437.5
498.082	7528.35
498.452	7646.08
498.821	7671.62
499.19	7835.68
499.559	7952.29
499.928	7991.39
500.298	8152.96
500.667	8242.23
501.036	8278.61
501.405	8476.12
501.774	8518.38
502.143	8593.18
502.512	8681.31
502.88	8745.94
503.249	8861.42
503.618	8884.02
503.987	9097.35
504.356	9107.74
504.724	9178.93
505.093	9246.49
505.462	9338.47
505.83	9459.37
506.199	9545.92
506.567	9676.77
506.936	9670.66
507.304	9766.48
507.672	9800.6
508.041	9979.58
508.409	10051.67
508.777	10092.12
509.145	10270.2
509.514	10290.76
509.882	10368.5
510.25	10395.62
510.618	10482.39
510.986	10568.04
511.354	10668.83
511.722	10769.17
512.09	10916.05
512.458	10942.04
512.826	10971.19
513.193	11078.99
513.561	11161.02
513.929	11256.38
514.297	11320.11
514.664	11428.13
515.032	11514.01
515.4	11578.41
515.767	11591.97
516.135	11622.93
516.502	11654.79
516.869	11894.33
517.237	11930.49
517.604	11876.71
517.972	12035.12
518.339	12064.05
518.706	12198.96
519.073	12232.18
519.44	12220.43
519.808	12400.31
520.175	12400.99
520.542	12574.32
520.909	12642.34
521.276	12698.61
521.643	12802.11
522.009	12794.65
522.376	12917.81
522.743	13051.37
523.11	13109.22
523.477	13278.03
523.843	13352.15
524.21	13459.94
524.577	13517.79
524.943	13587.4
525.31	13717.79
525.676	13792.59
526.043	13944.22
526.409	13941.96
526.776	14099.02
527.142	14100.83
527.508	14253.59
527.874	14410.2
528.241	14399.8
528.607	14413.14
528.973	14538.56
529.339	14586.01
529.705	14663.07
530.071	14899.45
530.437	14955.04
530.803	15024.42
531.169	15124.98
531.535	14993.46
531.901	15151.42
532.267	15195.49
532.632	15366.11
532.998	15371.53
533.364	15503.05
533.73	15513.67
534.095	15650.85
534.461	15715.25
534.826	15771.75
535.192	15820.33
535.557	15961.8
535.923	15955.47
536.288	15979.88
536.653	16093.55
537.019	16093.55
537.384	16154.56
537.749	16244.95
538.114	16249.7
538.479	16289.92
538.845	16474.78
539.21	16431.62
539.575	16527.43
539.94	16618.28
540.305	16711.83
540.67	16584.15
541.034	16771.49
541.399	16882.9
541.764	16921.77
542.129	17000.64
542.494	17043.35
542.858	17133.52
543.223	17239.73
543.587	17268.43
543.952	17294.64
544.316	17390.69
544.681	17370.12
545.045	17438.82
545.41	17501.19
545.774	17678.14
546.138	17606.95
546.503	17678.36
546.867	17740.28
547.231	17893.95
547.595	17900.73
547.959	17939.15
548.324	18052.36
548.688	18089.65
549.052	18172.59
549.416	18114.51
549.779	18213.26
550.143	18393.15
550.507	18462.3
550.871	18384.78
551.235	18542.29
551.599	18687.83
551.962	18575.51
552.326	18649.86
552.689	18777.32
553.053	18716.75
553.417	18785.23
553.78	18992.23
554.143	18936.41
554.507	19089.63
554.87	19173.92
555.234	19297.98
555.597	19160.58
555.96	19295.27
556.323	19356.06
556.686	19471.99
557.05	19521.48
557.413	19643.51
557.776	19572.55
558.139	19797.86
558.502	19784.52
558.865	19888.93
559.228	19922.6
559.59	19966.44
559.953	20094.8
560.316	20325.3
560.679	20268.35
561.041	20434
561.404	20487.33
561.767	20554.67
562.129	20418.86
562.492	20687.55
562.854	20817.94
563.217	20817.04
563.579	20784.04
563.941	20962.8
564.304	21021.1
564.666	21123.02
565.028	21267.87
565.39	21266.74
565.753	21356.46
566.115	21504.25
566.477	21437.13
566.839	21642.33
567.201	21713.29
567.563	21714.41
567.925	21879.83
568.287	21850.68
568.648	21952.83
569.01	22023.11
569.372	22273.04
569.734	22203.89
570.095	22311.46
570.457	22440.05
570.819	22482.76
571.18	22588.29
571.542	22579.93
571.903	22671.68
572.265	22866.02
572.626	23047.49
572.987	22961.16
573.349	23099.69
573.71	23313.92
574.071	23248.16
574.432	23387.37
574.794	23631.65
575.155	23624.42
575.516	23496.06
575.877	23749.16
576.238	23798.2
576.599	23988.25
576.96	23999.33
577.32	24154.58
577.681	24293.78
578.042	24394.34
578.403	24471.86
578.763	24715.24
579.124	24809.93
579.485	24981.67
579.845	25307.77
580.206	25277.26
580.566	25320.65
580.927	25444.94
581.287	25643.13
581.648	25754.53
582.008	25891.71
582.368	26128.31
582.728	26288.08
583.089	26417.12
583.449	26568.52
583.809	26594.06
584.169	26843.77
584.529	26991.79
584.889	27406.47
585.249	27322.86
585.609	27427.03
585.969	27796.29
586.329	27954.93
586.688	28142.72
587.048	28175.71
587.408	28355.82
587.768	28564.63
588.127	28733.67
588.487	28956.48
588.846	29281.22
589.206	29233.77
589.565	29495.68
589.925	29699.29
590.284	29843.92
590.643	30183.34
591.003	30376.33
591.362	30590.34
591.721	30739.49
592.08	30921.18
592.44	31174.96
592.799	31320.04
593.158	31441.84
593.517	31585.12
593.876	31926.12
594.235	31998.89
594.593	32157.08
594.952	32409.73
595.311	32545.99
595.67	32811.07
596.029	33048.35
596.387	33284.05
596.746	33453.77
597.104	33397.27
597.463	33491.51
597.822	33922.68
598.18	33946.64
598.538	33953.64
598.897	34531.48
599.255	34390.69
599.613	34998.13
599.972	34858.48
600.33	35184.34
600.688	35054.18
601.046	35501.4
601.404	35547.27
601.762	35739.58
602.12	35908.84
602.478	36166.46
602.836	36197.88
603.194	36210.76
603.552	36264.77
603.91	36356.97
604.268	36697.75
604.625	36714.92
604.983	36966.22
605.341	36849.61
605.698	37103.84
606.056	37323.04
606.413	37416.6
606.771	37581.79
607.128	37662.47
607.485	37652.3
607.843	37779.53
608.2	38114.21
608.557	38368.21
608.914	38268.1
609.272	38576.57
609.629	38692.95
609.986	38902.66
610.343	38817.47
610.7	39195.76
611.057	39211.58
611.414	39299.49
611.771	39404.57
612.127	39493.83
612.484	39473.27
612.841	39818.57
613.198	39733.15
613.554	39812.02
613.911	40111.67
614.267	40107.15
614.624	40130.65
614.98	40392.57
615.337	40741.26
615.693	40561.83
616.05	40513.47
616.406	40878.43
616.762	40613.58
617.118	40719.34
617.475	40879.11
617.831	41101.25
618.187	41112.55
618.543	41174.24
618.899	41372.2
619.255	41472.09
619.611	41374.24
619.967	41758.18
620.323	41694.91
620.678	41569.49
621.034	41590.5
621.39	41692.65
621.746	41613.55
622.101	42208.79
622.457	41692.87
622.812	41958.4
623.168	42153.88
623.523	42230.71
623.879	42283.82
624.234	41970.15
624.589	42239.98
624.945	42236.36
625.3	42375.11
625.655	42334.21
626.01	42539.4
626.365	42534.43
626.72	42396.81
627.075	42517.94
627.43	42399.97
627.785	42562
628.14	42666.86
628.495	42549.8
628.85	42576.92
629.205	42720.19
629.559	42729.46
629.914	42659.63
630.269	42799.06
630.623	42622.57
630.978	42555.9
631.332	42814.65
631.687	42914.99
632.041	42523.81
632.396	42712.73
632.75	42493.3
633.104	42725.61
633.459	42455.11
633.813	42581.21
634.167	42487.65
634.521	42518.39
634.875	42705.5
635.229	42673.41
635.583	42474.1
635.937	42363.36
636.291	42442.46
636.645	42520.42
636.999	42359.97
637.352	42483.13
637.706	42258.73
638.06	42475.9
638.413	42366.98
638.767	42332.63
639.121	42323.14
639.474	42102.35
639.828	42050.38
640.181	42347.54
640.534	42196.36
640.888	42027.55
641.241	41908.91
641.594	41994.56
641.947	42151.39
642.301	42093.77
642.654	42126.31
643.007	42124.95
643.36	42012.86
643.713	42052.64
644.066	42063.94
644.419	41864.39
644.771	41671.4
645.124	41265.77
645.477	41282.49
645.83	41083.4
646.182	40782.61
646.535	40751.2
646.888	40971.54
647.24	40564.09
647.593	40749.39
647.945	40703.07
648.298	40469.4
648.65	40381.95
649.002	40540.13
649.355	40567.7
649.707	40595.95
650.059	40758.21
650.411	41148.03
650.763	41323.39
651.115	41597.96
651.467	41386.89
651.819	41472.77
652.171	41309.83
652.523	41287.69
652.875	41158.2
653.227	41177.41
653.578	41425.76
653.93	41260.34
654.282	41076.17
654.633	41037.3
654.985	41120.01
655.337	41184.41
655.688	41162.27
656.039	41206.78
656.391	41023.06
656.742	41026.9
657.094	41013.79
657.445	41212.21
657.796	41096.96
658.147	41033.91
658.498	40993
658.849	41072.32
659.2	40989.84
659.551	40929.28
659.902	41103.74
660.253	40891.31
660.604	41135.15
660.955	40817.42
661.306	41155.26
661.656	40864.42
662.007	40957.98
662.358	40940.12
662.708	40994.36
663.059	40914.36
663.409	40626.01
663.76	40942.16
664.11	40923.18
664.461	40932.44
664.811	40840.01
665.161	40779.68
665.511	40574.26
665.862	40694.25
666.212	40845.89
666.562	40846.12
666.912	40808.6
667.262	40717.98
667.612	40643.18
667.962	40679.57
668.312	40615.16
668.662	40795.5
669.011	40703.07
669.361	40680.02
669.711	40717.08
670.06	40656.06
670.41	40597.08
670.76	40456.97
671.109	40689.96
671.459	40595.27
671.808	40640.92
672.157	40574.26
672.507	40493.36
672.856	40528.84
673.205	40439.35
673.554	40591.21
673.904	40484.54
674.253	40676.18
674.602	40614.93
674.951	39858.34
675.3	39752.58
675.649	40319.58
675.998	40287.49
676.346	40392.12
676.695	40431.44
677.044	40150.99
677.393	40210.65
677.741	40232.12
678.09	40117.55
678.438	40092.69
678.787	40206.36
679.135	40254.27
679.484	39903.99
679.832	40107.38
680.181	39928.17
680.529	40154.83
680.877	39798.91
681.225	39921.39
681.573	40080.26
681.922	39809.08
682.27	39600.5
682.618	39603.21
682.966	39601.85
683.314	39659.25
683.661	39460.39
684.009	39343.56
684.357	39337.45
684.705	39347.17
685.053	39313.95
685.4	39188.98
685.748	39013.62
686.095	39113.96
686.443	38943.11
686.79	38921.19
687.138	38972.72
687.485	38987.41
687.832	38589.9
688.18	38735.66
688.527	38653.18
688.874	38585.16
689.221	38461.77
689.568	38403.69
689.915	38222.23
690.262	38161.89
690.609	38204.38
690.956	38021.1
691.303	38102.46
691.65	37925.06
691.997	37944.72
692.344	37618.63
692.69	37672.41
693.037	37681.9
693.383	37371.63
693.73	37540.44
694.077	37321.01
694.423	37333.44
694.769	37179.32
695.116	37115.37
695.462	37101.81
695.808	36908.59
696.155	37030.62
696.501	36658.2
696.847	36651.65
697.193	36418.89
697.539	36613.23
697.885	36330.53
698.231	36317.19
698.577	36305.9
698.923	36165.56
699.269	36011.67
699.614	35853.93
699.96	35795.85
700.306	35909.97
700.651	35686.48
700.997	35500.27
701.342	35515.86
701.688	35512.92
702.033	35318.13
702.379	35383.43
702.724	35162.87
703.069	35352.02
703.415	35012.82
703.76	34839.49
704.105	34999.94
704.45	34803.79
704.795	34669.55
705.14	34461.65
705.485	34646.05
705.83	34356.57
706.175	34371.48
706.52	34263.46
706.865	34134.65
707.209	34003.58
707.554	33955.22
707.899	34161.77
708.243	33818.5
708.588	33890.14
708.932	33697.15
709.277	33562.92
709.621	33652.41
709.966	33454.9
710.31	33519.3
710.654	33338.74
710.998	33292.19
711.342	33192.98
711.687	33188.24
712.031	33022.59
712.375	32983.95
712.719	32872.31
713.063	32937.4
713.407	33012.2
713.75	32628.03
714.094	32778.98
714.438	32686.56
714.782	32610.17
715.125	32511.19
715.469	32562.27
715.812	32350.07
716.156	32173.57
716.499	32348.49
716.843	32326.11
717.186	32075.05
717.53	32194.37
717.873	32139.9
718.216	31999.12
718.559	31878.44
718.902	31672.35
719.246	31864.88
719.589	31571.33
719.932	31675.73
720.275	31586.47
720.617	31594.83
720.96	31450.2
721.303	31341.28
721.646	31454.27
721.989	31315.52
722.331	31374.73
722.674	31282.52
723.016	31224.9
723.359	31197.1
723.701	31115.07
724.044	30992.14
724.386	30868.3
724.729	31081.63
725.071	30883.67
725.413	31026.03
725.755	30802.76
726.097	30689.77
726.439	30564.35
726.782	30695.2
727.124	30657.91
727.465	30499.72
727.807	30533.84
728.149	30451.13
728.491	30353.51
728.833	30454.98
729.175	30314.19
729.516	30206.17
729.858	30157.81
730.199	30240.07
730.541	30162.55
730.882	30081.43
731.224	30182.89
731.565	30005.95
731.906	30104.25
732.248	30040.75
732.589	29817.48
732.93	29746.52
733.271	29722.57
733.612	29725.73
733.953	29823.13
734.294	29615.9
734.635	29463.82
734.976	29598.73
735.317	29429.69
735.658	29374.33
735.999	29387.89
736.339	29388.34
736.68	29400.77
737.021	29235.35
737.361	29292.52
737.702	29330.26
738.042	29165.97
738.383	29309.47
738.723	29293.42
739.063	29054.33
739.404	29136.14
739.744	29027.67
740.084	28903.6
740.424	28959.42
740.764	28927.11
741.104	28992.64
741.444	28726.66
741.784	28743.16
742.124	28782.7
742.464	28685.98
742.804	28646.89
743.143	28505.42
743.483	28600.56
743.823	28499.32
744.162	28465.42
744.502	28465.88
744.841	28380.68
745.181	28478.3
745.52	28238.09
745.86	28264.3
746.199	28132.78
746.538	28214.36
746.877	28250.29
747.216	28198.54
747.556	28163.51
747.895	28172.32
748.234	27943.4
748.573	27846.91
748.911	27817.53
749.25	27813.92
749.589	27774.82
749.928	27750.64
750.267	27770.07
750.605	27715.16
750.944	27682.85
751.283	27546.58
751.621	27691.66
751.96	27446.47
752.298	27485.11
752.636	27395.62
752.975	27225.91
753.313	27171.45
753.651	27303.87
753.989	27138
754.327	27256.19
754.666	27058
755.004	27002.86
755.342	27088.28
755.679	27003.77
756.017	26882.19
756.355	26847.16
756.693	26662.08
757.031	26719.03
757.368	26541.63
757.706	26544.8
758.044	26534.4
758.381	26599.94
758.719	26455.53
759.056	26568.75
759.394	26313.39
759.731	26236.56
760.068	26189.1
760.405	26063
760.743	26037.69
761.08	26035.88
761.417	25933.06
761.754	25862.55
762.091	25786.85
762.428	25680.64
762.765	25524.94
763.102	25550.47
763.438	25423.47
763.775	25401.1
764.112	25464.6
764.449	25344.38
764.785	25248.11
765.122	25124.95
765.458	24927.89
765.795	24905.97
766.131	24805.86
766.467	24863.94
766.804	24668.24
767.14	24636.82
767.476	24637.95
767.812	24410.62
768.148	24487
768.485	24239.77
768.821	24244.52
769.157	24160
769.492	24084.75
769.828	24118.87
770.164	23893.11
770.5	23821.25
770.836	23807.69
771.171	23678.43
771.507	23634.59
771.842	23466.46
772.178	23480.7
772.513	23389.85
772.849	23367.25
773.184	23195.28
773.519	23201.16
773.855	23170.65
774.19	22869.86
774.525	22815.18
774.86	22703.09
775.195	22840.04
775.53	22628.74
775.865	22592.81
776.2	22503.55
776.535	22307.39
776.87	22352.36
777.205	22213.16
777.539	22069.66
777.874	22158.02
778.209	22021.75
778.543	21904.92
778.878	21817.69
779.212	21923
779.547	21611.37
779.881	21738.37
780.215	21506.96
780.55	21577.02
780.884	21367.31
781.218	21347.19
781.552	21334.99
781.886	21237.82
782.22	21081.66
782.554	21029.01
782.888	20833.08
783.222	20782.69
783.556	20609.81
783.889	20666.98
784.223	20516.48
784.557	20459.31
784.89	20487.1
785.224	20404.84
785.557	20339.54
785.891	20365.75
786.224	20156.72
786.558	20190.39
786.891	20002.82
787.224	19965.76
787.557	19857.29
787.891	19917.63
788.224	19774.35
788.557	19732.55
788.89	19716.28
789.223	19568.93
789.556	19515.15
789.888	19416.4
790.221	19368.71
790.554	19216.4
790.887	19246.23
791.219	19180.24
791.552	19041.72
791.884	19032.68
792.217	18886.24
792.549	18832.91
792.882	18697.77
793.214	18702.97
793.546	18747.04
793.879	18545.46
794.211	18502.07
794.543	18497.32
794.875	18426.59
795.207	18467.04
795.539	18362.19
795.871	18349.31
796.203	18142.98
796.535	18070.22
796.867	18014.4
797.198	18014.63
797.53	17945.7
797.862	17916.77
798.193	17885.82
798.525	17758.59
798.856	17940.95
799.188	17636.33
799.519	17533.73
799.85	17482.44
800.182	17533.51
800.513	17524.24
800.844	17325.15
801.175	17468.88
801.506	17351.59
801.837	17227.75
802.168	17218.49
802.499	17198.38
802.83	16939.17
803.161	17015.56
803.491	16931.94
803.822	17027.31
804.153	16915.67
804.483	16733.98
804.814	16712.51
805.145	16707.77
805.475	16671.61
805.805	16547.77
806.136	16565.17
806.466	16583.48
806.796	16517.26
807.126	16474.78
807.457	16324.27
807.787	16368.79
808.117	16288.79
808.447	16289.25
808.777	16307.78
809.107	16150.72
809.436	16153.21
809.766	16093.09
810.096	16050.84
810.426	15989.14
810.755	15965.87
811.085	15953.89
811.414	15954.79
811.744	15856.26
812.073	15784.18
812.403	15825.98
812.732	15684.07
813.061	15635.03
813.39	15630.51
813.719	15422.38
814.049	15562.71
814.378	15491.08
814.707	15446.56
815.036	15444.75
815.365	15378.76
815.693	15158.2
816.022	15323.85
816.351	15211.99
816.68	15142.16
817.008	15066.23
817.337	15002.5
817.665	14970.86
817.994	15007.7
818.322	15021.71
818.651	14949.62
818.979	14869.4
819.307	14965.21
819.636	14908.49
819.964	14701.49
820.292	14756.18
820.62	14813.81
820.948	14650.42
821.276	14823.52
821.604	14685.45
821.932	14782.62
822.259	14771.55
822.587	14750.53
822.915	14682.06
823.243	14753.69
823.57	14591.66
823.898	14602.29
824.225	14562.29
824.553	14593.25
824.88	14617.43
825.207	14740.59
825.535	14607.71
825.862	14660.36
826.189	14600.7
826.516	14734.94
826.843	14686.58
827.17	14769.06
827.497	14696.75
827.824	14674.6
828.151	14656.75
828.478	14685.22
828.805	14663.98
829.131	14672.34
829.458	14668.5
829.785	14550.99
830.111	14556.19
830.438	14654.71
830.764	14594.15
831.09	14623.98
831.417	14558.44
831.743	14624.43
832.069	14597.77
832.395	14492.01
832.722	14511.21
833.048	14480.03
833.374	14512.34
833.7	14428.28
834.026	14460.14
834.351	14525.45
834.677	14471.67
835.003	14512.34
835.329	14436.87
835.654	14396.64
835.98	14322.52
836.306	14356.42
836.631	14281.16
836.956	14343.08
837.282	14257.66
837.607	14294.95
837.932	14236.19
838.258	14270.77
838.583	14259.92
838.908	14079.14
839.233	14103.09
839.558	14173.14
839.883	14091.56
840.208	14020.61
840.533	14045.24
840.858	14062.64
841.182	13989.65
841.507	14000.04
841.832	13951.23
842.156	13861.51
842.481	13898.8
842.805	13815.64
843.13	13836.88
843.454	13826.94
843.778	13724.57
844.103	13696.55
844.427	13718.69
844.751	13687.06
845.075	13677.11
845.399	13595.08
845.723	13528.42
846.047	13503.11
846.371	13426.05
846.695	13438.25
847.019	13287.97
847.343	13283.45
847.666	13146.28
847.99	13192.38
848.313	13159.16
848.637	13042.78
848.96	13032.61
849.284	13026.28
849.607	12904.03
849.931	12865.16
850.254	12781.77
850.577	12711.04
850.9	12627.2
851.223	12614.99
851.546	12625.84
851.869	12437.6
852.192	12506.3
852.515	12414.32
852.838	12438.95
853.161	12405.06
853.483	12341.33
853.806	12291.39
854.129	12255.91
854.451	12180.65
854.774	12126.19
855.096	12065.4
855.419	12048
855.741	12012.75
856.063	11969.13
856.385	11954.45
856.708	11868.12
857.03	11887.33
857.352	11818.86
857.674	11793.09
857.996	11778.86
858.318	11671.06
858.64	11709.25
858.961	11691.18
859.283	11634.68
859.605	11593.33
859.926	11572.53
860.248	11591.97
860.57	11467.9
860.891	11494.12
861.212	11384.52
861.534	11446.21
861.855	11311.07
862.176	11400.11
862.498	11344.52
862.819	11399.88
863.14	11299.55
863.461	11290.51
863.782	11186.56
864.103	11248.02
864.424	11123.73
864.745	11223.62
865.065	11115.15
865.386	11127.35
865.707	11081.47
866.027	11097.52
866.348	11028.59
866.668	10966.22
866.989	10961.7
867.309	10984.75
867.63	11011.42
867.95	10940.91
868.27	10954.25
868.59	10991.31
868.91	10940.69
869.23	10937.3
869.55	10831.31
869.87	10869.5
870.19	10895.72
870.51	10881.71
870.83	10847.58
871.15	10732.33
871.469	10788.83
871.789	10785.66
872.109	10820.46
872.428	10721.94
872.748	10747.92
873.067	10658.66
873.386	10652.56
873.706	10715.16
874.025	10666.12
874.344	10657.76
874.663	10649.17
874.982	10571.88
875.301	10664.76
875.62	10555.84
875.939	10552.22
876.258	10546.8
876.577	10519.91
876.896	10499.34
877.214	10445.33
877.533	10461.83
877.852	10444.65
878.17	10453.69
878.489	10433.36
878.807	10389.74
879.125	10323.75
879.444	10376.18
879.762	10309.97
880.08	10250.08
880.398	10295.05
880.716	10300.03
881.034	10217.77
881.352	10257.09
881.67	10155.62
881.988	10241.27
882.306	10215.51
882.624	10202.85
882.941	10110.65
883.259	10051.67
883.577	10080.37
883.894	10029.07
884.212	10052.35
884.529	10026.13
884.846	10004.21
885.164	9924.89
885.481	9905.23
885.798	9883.31
886.115	9903.65
886.432	9899.13
886.75	9828.63
887.067	9805.35
887.383	9839.92
887.7	9781.85
888.017	9736.88
888.334	9786.82
888.651	9625.24
888.967	9689.65
889.284	9627.73
889.6	9599.03
889.917	9503.44
890.233	9565.58
890.55	9489.43
890.866	9535.75
891.182	9518.58
891.498	9414.85
891.815	9404
892.131	9286.95
892.447	9331.46
892.763	9295.31
893.079	9293.27
893.395	9317
893.71	9227.29
894.026	9192.26
894.342	9221.86
894.657	9170.56
894.973	9200.85
895.289	9084.24
895.604	9076.1
895.92	9041.75
896.235	8980.96
896.55	8991.81
896.865	8977.8
897.181	8965.82
897.496	8944.13
897.811	8932.83
898.126	8902.32
898.441	8898.71
898.756	8832.95
899.071	8806.28
899.386	8719.05
899.7	8736.68
900.015	8643.35
900.33	8621.65
900.644	8593.86
900.959	8624.59
901.273	8525.16
901.588	8463.69
901.902	8487.42
902.216	8423.46
902.531	8406.06
902.845	8444.93
903.159	8335.33
903.473	8276.58
903.787	8263.92
904.101	8263.02
904.415	8191.15
904.729	8206.07
905.042	8149.12
905.356	8135.11
905.67	8144.38
905.984	8095.34
906.297	8095.79
906.611	8040.42
906.924	7951.16
907.237	7974.66
907.551	7925.17
907.864	7878.39
908.177	7916.36
908.491	7830.71
908.804	7820.99
909.117	7688.8
909.43	7729.7
909.743	7753.88
910.056	7708.23
910.368	7662.81
910.681	7618.51
910.994	7578.52
911.307	7536.48
911.619	7497.61
911.932	7497.61
912.244	7458.74
912.557	7447.67
912.869	7390.5
913.181	7362.02
913.494	7368.8
913.806	7296.04
914.118	7227.79
914.43	7244.51
914.742	7207.9
915.054	7180.33
915.366	7148.7
915.678	7129.71
915.99	7040.9
916.302	7031.86
916.613	7016.5
916.925	6953.9
917.236	6963.84
917.548	6933.79
917.859	6953.45
918.171	6918.42
918.482	6832.09
918.794	6833.22
919.105	6854.01
919.416	6730.4
919.727	6757.75
920.038	6777.63
920.349	6711.42
920.66	6615.38
920.971	6671.87
921.282	6621.25
921.593	6579.22
921.903	6514.14
922.214	6595.94
922.525	6476.62
922.835	6518.43
923.146	6453.8
923.456	6421.71
923.767	6441.6
924.077	6362.95
924.387	6351.43
924.697	6347.81
925.008	6340.81
925.318	6278.66
925.628	6292.67
925.938	6188.95
926.248	6221.26
926.558	6142.17
926.867	6138.55
927.177	6070.76
927.487	6094.71
927.796	6040.02
928.106	6020.36
928.416	6035.05
928.725	6006.13
929.034	5950.54
929.344	5910.31
929.653	5937.65
929.962	5878.9
930.271	5864.89
930.581	5822.18
930.89	5781.95
931.199	5734.72
931.508	5734.72
931.817	5717.32
932.125	5696.53
932.434	5686.14
932.743	5646.36
933.051	5655.85
933.36	5572.24
933.669	5575.18
933.977	5519.81
934.286	5480.04
934.594	5507.16
934.902	5461.73
935.21	5423.09
935.519	5434.39
935.827	5361.4
936.135	5388.74
936.443	5345.13
936.751	5304
937.059	5306.71
937.367	5336.09
937.674	5292.7
937.982	5283.43
938.29	5240.72
938.597	5254.06
938.905	5167.05
939.213	5215.41
939.52	5187.62
939.827	5150.56
940.135	5068.3
940.442	5017.45
940.749	5089.09
941.056	5078.24
941.363	5017.45
941.67	4960.05
941.977	4974.29
942.284	4950.79
942.591	4911.92
942.898	4909.66
943.205	4938.81
943.511	4907.4
943.818	4844.8
944.125	4804.35
944.431	4806.16
944.738	4756.22
945.044	4750.12
945.35	4719.16
945.657	4725.94
945.963	4699.04
946.269	4653.85
946.575	4623.34
946.881	4650.46
947.187	4622.43
947.493	4610.46
947.799	4576.56
948.105	4547.18
948.41	4565.94
948.716	4501.53
949.022	4527.52
949.327	4483.68
949.633	4439.16
949.938	4465.15
950.244	4469.9
950.549	4457.92
950.854	4386.96
951.16	4341.99
951.465	4289.56
951.77	4307.19
952.075	4317.81
952.38	4256.57
952.685	4318.04
952.99	4257.25
953.294	4189.68
953.599	4238.26
953.904	4193.52
954.209	4177.7
954.513	4216.12
954.818	4111.26
955.122	4133.41
955.426	4084.37
955.731	4100.41
956.035	4040.53
956.339	4053.18
956.643	4010.7
956.948	4033.52
957.252	4030.81
957.556	4005.28
957.86	3964.6
958.163	3964.37
958.467	3973.86
958.771	3926.86
959.075	3900.42
959.378	3892.74
959.682	3881.44
959.985	3777.94
960.289	3789.91
960.592	3821.78
960.896	3831.5
961.199	3803.25
961.502	3795.11
961.805	3743.59
962.108	3717.6
962.411	3706.98
962.714	3670.14
963.017	3670.37
963.32	3688.67
963.623	3584.72
963.926	3610.48
964.228	3568.68
964.531	3657.94
964.833	3618.85
965.136	3545.4
965.438	3562.12
965.741	3534.1
966.043	3549.47
966.345	3522.8
966.648	3447.55
966.95	3501.56
967.252	3438.06
967.554	3463.14
967.856	3459.98
968.158	3396.48
968.46	3416.14
968.761	3409.81
969.063	3390.15
969.365	3344.73
969.666	3346.08
969.968	3368.23
970.269	3323.26
970.571	3293.2
970.872	3277.84
971.174	3289.81
971.475	3265.63
971.776	3233.54
972.077	3200.33
972.378	3218.63
972.679	3169.14
972.98	3211.17
973.281	3160.33
973.582	3202.59
973.883	3131.85
974.183	3121.01
974.484	3173.21
974.785	3102.7
975.085	3068.35
975.386	3101.8
975.686	3029.93
975.986	3063.83
976.287	3044.85
976.587	3031.97
976.887	2975.47
977.187	3034.45
977.487	3025.87
977.787	2941.8
978.087	2981.12
978.387	2937.73
978.687	2913.33
978.987	2933.21
979.286	2895.02
979.586	2878.98
979.885	2842.82
980.185	2876.27
980.484	2818.64
980.784	2825.65
981.083	2851.86
981.382	2791.97
981.682	2786.1
981.981	2794.01
982.28	2754.24
982.579	2760.56
982.878	2728.02
983.177	2740.45
983.475	2721.02
983.774	2716.72
984.073	2718.76
984.372	2730.06
984.67	2716.72
984.969	2672.43
985.267	2631.3
985.566	2641.7
985.864	2631.53
986.162	2620.91
986.461	2582.94
986.759	2577.29
987.057	2587.69
987.355	2573
987.653	2557.63
987.951	2556.27
988.249	2520.34
988.547	2548.14
988.844	2548.82
989.142	2504.07
989.44	2464.53
989.737	2497.29
990.035	2504.07
990.332	2489.84
990.63	2458.2
990.927	2409.84
991.224	2430.63
991.521	2420.46
991.819	2429.05
992.116	2384.98
992.413	2368.48
992.71	2359.67
993.006	2371.42
993.303	2347.47
993.6	2361.25
993.897	2322.61
994.193	2339.11
994.49	2293.91
994.787	2322.38
995.083	2306.79
995.379	2284.42
995.676	2261.14
995.972	2274.25
996.268	2224.08
996.565	2220.46
996.861	2233.12
997.157	2213.91
997.453	2202.16
997.749	2184.76
998.044	2128.04
998.34	2188.6
998.636	2165.32
998.932	2149.51
999.227	2116.74
999.523	2138.66
999.818	2090.07
1000.114	2099.11
1000.409	2102.95
1000.704	2081.94
1001	2049.17
1001.295	2032.22
1001.59	2049.4
1001.885	2019.79
1002.18	2006.01
1002.475	2024.76
1002.77	2005.55
1003.065	1982.73
1003.359	1992.22
1003.654	2001.49
1003.949	1963.52
1004.243	1913.13
1004.538	1921.26
1004.832	1947.03
1005.127	1936.63
1005.421	1889.85
1005.715	1899.12
1006.009	1886.91
1006.304	1868.61
1006.598	1845.78
1006.892	1881.49
1007.186	1828.16
1007.48	1837.88
1007.773	1843.3
1008.067	1814.15
1008.361	1825.9
1008.655	1801.49
1008.948	1796.75
1009.242	1787.71
1009.535	1757.43
1009.829	1747.26
1010.122	1720.59
1010.415	1752.45
1010.708	1748.16
1011.001	1724.43
1011.295	1674.26
1011.588	1699.35
1011.881	1675.17
1012.173	1685.79
1012.466	1661.38
1012.759	1657.77
1013.052	1639.24
1013.344	1625.68
1013.637	1641.72
1013.93	1622.74
1014.222	1620.93
1014.514	1575.96
1014.807	1597.88
1015.099	1557.2
1015.391	1574.83
1015.683	1575.28
1015.976	1566.7
1016.268	1556.75
1016.56	1521.5
1016.851	1513.14
1017.143	1533.93
1017.435	1511.56
1017.727	1540.71
1018.018	1509.97
1018.31	1478.34
1018.602	1450.09
1018.893	1442.63
1019.185	1475.85
1019.476	1433.59
1019.767	1446.7
1020.058	1414.84
1020.35	1426.59
1020.641	1415.74
1020.932	1403.08
1021.223	1385.68
1021.514	1386.59
1021.804	1359.24
1022.095	1351.33
1022.386	1373.48
1022.677	1355.85
1022.967	1332.8
1023.258	1315.4
1023.548	1319.92
1023.839	1317.44
1024.129	1314.73
1024.419	1270.88
1024.709	1280.15
1025	1268.4
1025.29	1257.33
1025.58	1258.91
1025.87	1223.2
1026.16	1252.81
1026.449	1233.82
1026.739	1217.78
1027.029	1219.13
1027.319	1207.61
1027.608	1210.55
1027.898	1206.48
1028.187	1190.43
1028.477	1155.18
1028.766	1201.28
1029.055	1160.83
1029.344	1151.57
1029.634	1153.15
1029.923	1143.66
1030.212	1143.43
1030.501	1124.67
1030.79	1129.65
1031.078	1111.11
1031.367	1105.69
1031.656	1106.37
1031.945	1094.17
1032.233	1084.22
1032.522	1086.48
1032.81	1077.22
1033.099	1109.98
1033.387	1052.36
1033.675	1055.3
1033.963	1044.45
1034.251	1066.6
1034.54	1011.91
1034.828	1019.37
1035.116	1006.71
1035.403	1013.04
1035.691	1038.57
1035.979	993.6
1036.267	1002.42
1036.554	1004.23
1036.842	994.28
1037.129	952.25
1037.417	974.17
1037.704	965.36
1037.992	965.58
1038.279	949.76
1038.566	948.41
1038.853	948.41
1039.14	948.41
