Data from hue_90_FLMS001491_59.txt Node
Date: Mon Feb 06 15:25:20 GMT 2017
User: dcchb
Spectrometer: FLMS00149
Trigger mode: 0
Integration Time (sec): 2.000000E-2
Scans to average: 10
Electric dark correction enabled: true
Nonlinearity correction enabled: false
Boxcar width: 0
XAxis mode: Wavelengths
Number of Pixels in Spectrum: 2048
>>>>>Begin Spectral Data<<<<<
341.393	-15.56
341.776	-15.56
342.16	-15.56
342.543	-64.38
342.927	-59.86
343.31	-54.66
343.693	-73.19
344.077	-39.52
344.46	-62.79
344.843	-60.08
345.226	-51.95
345.61	-29.8
345.993	-5.17
346.376	-12.63
346.759	-0.2
347.142	39.8
347.525	31.21
347.908	59.01
348.291	75.28
348.674	99.69
349.057	85
349.44	151.44
349.823	150.98
350.206	165.45
350.588	191.44
350.971	194.15
351.354	220.14
351.737	251.32
352.119	230.98
352.502	277.76
352.884	261.94
353.267	255.61
353.65	287.93
354.032	286.35
354.414	285.67
354.797	302.17
355.179	323.18
355.562	309.62
355.944	321.6
356.326	321.15
356.709	301.94
357.091	334.48
357.473	357.98
357.855	324.09
358.238	312.79
358.62	323.41
359.002	354.82
359.384	335.84
359.766	336.06
360.148	319.12
360.53	345.33
360.912	325.44
361.294	309.62
361.676	324.99
362.057	308.27
362.439	311.21
362.821	339.45
363.203	346.23
363.584	319.12
363.966	307.14
364.348	322.51
364.729	321.83
365.111	312.56
365.493	298.33
365.874	310.53
366.256	321.6
366.637	301.72
367.019	309.62
367.4	297.65
367.781	294.48
368.163	290.87
368.544	304.43
368.925	310.75
369.306	306.91
369.688	313.01
370.069	294.48
370.45	304.88
370.831	307.36
371.212	328.83
371.593	309.4
371.974	289.74
372.355	302.85
372.736	316.4
373.117	299
373.498	307.59
373.879	312.79
374.26	304.43
374.641	300.81
375.021	326.8
375.402	301.72
375.783	313.47
376.163	316.18
376.544	308.27
376.925	321.15
377.305	297.65
377.686	306.91
378.066	311.66
378.447	306.69
378.827	313.24
379.208	312.34
379.588	313.01
379.968	313.47
380.349	332.9
380.729	342.62
381.109	324.09
381.489	331.77
381.87	334.48
382.25	343.75
382.63	344.2
383.01	341.49
383.39	332.9
383.77	340.58
384.15	340.13
384.53	323.18
384.91	347.14
385.29	336.97
385.67	350.98
386.049	350.08
386.429	362.73
386.809	340.58
387.189	350.08
387.568	332.67
387.948	327.93
388.328	346.23
388.707	339.91
389.087	342.17
389.466	351.66
389.846	353.47
390.225	354.6
390.605	359.34
390.984	364.76
391.363	364.31
391.743	373.58
392.122	362.73
392.501	368.61
392.881	372.9
393.26	358.89
393.639	359.57
394.018	359.34
394.397	385.1
394.776	346.46
395.155	377.65
395.534	366.35
395.913	384.65
396.292	376.29
396.671	373.35
397.05	381.26
397.429	367.48
397.808	406.12
398.186	369.51
398.565	373.8
398.944	383.52
399.323	393.46
399.701	370.19
400.08	392.33
400.458	364.76
400.837	374.71
401.215	378.78
401.594	371.54
401.972	384.88
402.351	402.5
402.729	398.44
403.107	402.5
403.486	389.62
403.864	397.31
404.242	413.12
404.62	390.3
404.999	407.25
405.377	410.86
405.755	409.06
406.133	420.36
406.511	407.93
406.889	428.72
407.267	437.3
407.645	416.97
408.023	414.71
408.401	428.49
408.779	410.86
409.156	426.46
409.534	426.46
409.912	456.74
410.29	437.08
410.667	433.92
411.045	444.76
411.422	454.48
411.8	465.55
412.178	436.63
412.555	459.68
412.933	460.13
413.31	475.27
413.687	456.74
414.065	480.02
414.442	458.1
414.819	477.3
415.197	450.64
415.574	474.59
415.951	486.57
416.328	487.93
416.705	475.5
417.082	465.55
417.46	489.28
417.837	498.55
418.214	478.66
418.591	500.35
418.967	495.38
419.344	498.09
419.721	478.21
420.098	509.17
420.475	506.46
420.852	489.05
421.228	496.06
421.605	507.59
421.982	530.18
422.358	520.92
422.735	539.9
423.111	526.57
423.488	528.6
423.864	532.44
424.241	543.74
424.617	561.82
424.994	542.61
425.37	551.43
425.746	556.62
426.123	562.5
426.499	553.46
426.875	564.99
427.251	548.04
427.627	580.13
428.003	579.22
428.379	579.9
428.756	584.87
429.132	594.59
429.507	571.99
429.883	604.76
430.259	607.24
430.635	634.36
431.011	598.88
431.387	624.87
431.763	609.05
432.138	622.84
432.514	628.94
432.89	629.16
433.265	643.18
433.641	630.29
434.016	646.79
434.392	658.32
434.767	668.49
435.143	649.5
435.518	667.36
435.894	677.75
436.269	673.91
436.644	697.86
437.02	720.91
437.395	698.09
437.77	718.2
438.145	712.1
438.52	706.68
438.895	707.13
439.271	727.47
439.646	749.61
440.021	710.74
440.395	734.25
440.77	755.04
441.145	764.3
441.52	743.29
441.895	763.17
442.27	774.02
442.645	766.56
443.019	782.38
443.394	784.41
443.769	788.48
444.143	770.18
444.518	781.25
444.892	781.02
445.267	796.84
445.641	787.35
446.016	788.48
446.39	818.09
446.764	827.35
447.139	784.64
447.513	814.7
447.887	808.82
448.262	804.75
448.636	824.64
449.01	864.41
449.384	837.97
449.758	842.27
450.132	849.5
450.506	874.13
450.88	869.61
451.254	868.25
451.628	872.1
452.002	894.47
452.376	887.91
452.75	903.73
453.123	914.35
453.497	913.68
453.871	924.3
454.244	932.43
454.618	942.6
454.992	954.58
455.365	955.48
455.739	997.97
456.112	974.69
456.486	983.05
456.859	982.83
457.232	1028.48
457.606	1035.03
457.979	1026.67
458.352	1044.75
458.725	1032.09
459.099	1034.13
459.472	1075.25
459.845	1099.66
460.218	1108.47
460.591	1109.15
460.964	1125.2
461.337	1155.48
461.71	1150.51
462.083	1174.23
462.456	1183.95
462.829	1202.03
463.201	1206.55
463.574	1225.53
463.947	1238.41
464.32	1242.93
464.692	1275.7
465.065	1301.24
465.438	1333.1
465.81	1315.93
466.183	1352.99
466.555	1325.42
466.928	1374.46
467.3	1370.84
467.672	1406.09
468.045	1439.99
468.417	1445.87
468.789	1473.66
469.161	1499.2
469.534	1518.41
469.906	1573.77
470.278	1560.21
470.65	1589.36
471.022	1622.36
471.394	1649.7
471.766	1680.21
472.138	1698.06
472.51	1735.58
472.882	1784.61
473.253	1842.47
473.625	1866.19
473.997	1889.92
474.369	1932.18
474.74	1961.33
475.112	2001.33
475.484	2080.88
475.855	2140.99
476.227	2166.52
476.598	2213.53
476.97	2229.12
477.341	2313.41
477.713	2371.94
478.084	2432.05
478.455	2461.66
478.827	2546.63
479.198	2587.53
479.569	2680.86
479.94	2769.45
480.311	2815.32
480.682	2904.58
481.053	3004.92
481.424	3080.63
481.795	3132.38
482.166	3224.12
482.537	3366.72
482.908	3391.13
483.279	3467.51
483.65	3617.79
484.021	3698.91
484.391	3769.87
484.762	3810.55
485.133	3968.51
485.503	4058.45
485.874	4137.77
486.244	4223.87
486.615	4382.06
486.985	4456.86
487.356	4593.13
487.726	4717.42
488.097	4844.42
488.467	4965.55
488.837	5056.84
489.207	5194.24
489.578	5317.63
489.948	5418.42
490.318	5571.63
490.688	5596.49
491.058	5787.9
491.428	5884.17
491.798	6049.13
492.168	6252.29
492.538	6285.29
492.908	6418.39
493.278	6550.82
493.648	6627.65
494.017	6750.81
494.387	6895.89
494.757	6941.09
495.126	7138.15
495.496	7172.5
495.866	7267.86
496.235	7424.47
496.605	7537.23
496.974	7638.02
497.344	7783.55
497.713	7905.13
498.082	7978.8
498.452	8160.49
498.821	8140.15
499.19	8305.35
499.559	8449.52
499.928	8540.82
500.298	8604.55
500.667	8702.62
501.036	8738.1
501.405	8878.89
501.774	8859.46
502.143	9044.76
502.512	9157.3
502.88	9239.56
503.249	9261.48
503.618	9429.61
503.987	9460.34
504.356	9542.38
504.724	9573.34
505.093	9624.41
505.462	9730.85
505.83	9829.15
506.199	9908.69
506.567	10058.29
506.936	10100.33
507.304	10108.24
507.672	10189.14
508.041	10242.47
508.409	10363.37
508.777	10418.06
509.145	10524.95
509.514	10505.74
509.882	10606.98
510.25	10604.04
510.618	10635
510.986	10753.42
511.354	10855.79
511.722	10931.27
512.09	10929.01
512.458	10921.77
512.826	11110.92
513.193	11091.04
513.561	11136.68
513.929	11179.62
514.297	11246.51
514.664	11330.8
515.032	11347.75
515.4	11397.69
515.767	11468.2
516.135	11506.17
516.502	11408.54
516.869	11557.24
517.237	11520.86
517.604	11530.35
517.972	11658.25
518.339	11696.67
518.706	11677.69
519.073	11731.92
519.44	11776.67
519.808	11851.92
520.175	11766.05
520.542	12000.84
520.909	11999.71
521.276	11945.48
521.643	11978.92
522.009	12041.52
522.376	12079.03
522.743	12174.17
523.11	12269.31
523.477	12294.85
523.843	12311.79
524.21	12359.93
524.577	12399.48
524.943	12439.25
525.31	12550.21
525.676	12523.54
526.043	12542.07
526.409	12452.36
526.776	12608.74
527.142	12558.12
527.508	12654.38
527.874	12677.21
528.241	12566.03
528.607	12695.97
528.973	12733.48
529.339	12669.75
529.705	12699.36
530.071	12853.02
530.437	12837.66
530.803	12784.55
531.169	12797.21
531.535	12771.22
531.901	12726.02
532.267	12845.79
532.632	12810.99
532.998	12830.65
533.364	12795.85
533.73	12822.29
534.095	12829.07
534.461	12835.85
534.826	12882.4
535.192	12773.93
535.557	12914.26
535.923	12735.06
536.288	12851.22
536.653	12721.73
537.019	12679.47
537.384	12745.46
537.749	12749.52
538.114	12698.9
538.479	12564.22
538.845	12570.09
539.21	12582.3
539.575	12629.07
539.94	12589.53
540.305	12542.52
540.67	12572.13
541.034	12483.77
541.399	12545.69
541.764	12438.8
542.129	12499.13
542.494	12433.6
542.858	12428.4
543.223	12397.67
543.587	12415.52
543.952	12330.78
544.316	12330.78
544.681	12294.62
545.045	12229.54
545.41	12272.93
545.774	12228.41
546.138	12225.02
546.503	12198.8
546.867	12153.16
547.231	12220.05
547.595	12145.7
547.959	12155.87
548.324	12080.84
548.688	12049.65
549.052	12021.18
549.416	12020.73
549.779	11945.7
550.143	11936.66
550.507	11930.34
550.871	11992.26
551.235	11884.01
551.599	11947.51
551.962	11872.03
552.326	11920.84
552.689	11828.87
553.053	11819.15
553.417	11837.23
553.78	11813.05
554.143	11739.15
554.507	11783.9
554.87	11690.57
555.234	11897.34
555.597	11665.26
555.96	11684.01
556.323	11669.1
556.686	11606.05
557.05	11679.95
557.413	11587.29
557.776	11641.53
558.139	11638.82
558.502	11640.63
558.865	11606.73
559.228	11646.28
559.59	11563.79
559.953	11591.81
560.316	11759.27
560.679	11648.08
561.041	11690.79
561.404	11636.11
561.767	11715.2
562.129	11700.29
562.492	11742.77
562.854	11701.19
563.217	11719.72
563.579	11707.29
563.941	11679.72
564.304	11724.24
564.666	11747.74
565.028	11836.33
565.39	11787.97
565.753	11793.16
566.115	11847.17
566.477	11906.83
566.839	11857.57
567.201	11950.45
567.563	11906.38
567.925	11862.09
568.287	11806.05
568.648	11867.74
569.01	11869.32
569.372	11931.01
569.734	11828.42
570.095	11967.85
570.457	12027.06
570.819	11917.68
571.18	11932.6
571.542	11998.36
571.903	11968.98
572.265	12042.88
572.626	11973.95
572.987	12015.08
573.349	12039.26
573.71	12015.53
574.071	12101.63
574.432	12063.21
574.794	12126.72
575.155	12122.65
575.516	12052.37
575.877	12093.5
576.238	12132.14
576.599	12150.67
576.96	12127.39
577.32	12175.08
577.681	12145.92
578.042	12194.74
578.403	12120.39
578.763	12169.65
579.124	12240.38
579.485	12138.47
579.845	12111.8
580.206	12086.72
580.566	12121.97
580.927	12179.37
581.287	12288.74
581.648	12109.31
582.008	12181.85
582.368	12199.26
582.728	12144.57
583.089	12132.14
583.449	12153.16
583.809	12145.7
584.169	12146.83
584.529	12092.37
584.889	12178.92
585.249	12130.1
585.609	12055.3
585.969	12130.1
586.329	12095.76
586.688	12148.41
587.048	12087.17
587.408	12042.88
587.768	12067.28
588.127	12105.25
588.487	11940.51
588.846	12095.98
589.206	11950.22
589.565	11933.5
589.925	12000.62
590.284	11946.15
590.643	11971.01
591.003	12024.8
591.362	12050.11
591.721	11959.49
592.08	12027.28
592.44	11955.87
592.799	12015.53
593.158	11978.24
593.517	11990
593.876	11964.69
594.235	11987.74
594.593	11923.56
594.952	11939.83
595.311	11854.41
595.67	11884.91
596.029	11981.86
596.387	11918.36
596.746	11977.11
597.104	11970.11
597.463	11935.08
597.822	11952.93
598.18	11828.19
598.538	11832.26
598.897	11972.14
599.255	11804.24
599.613	11932.37
599.972	11867.29
600.33	11907.96
600.688	11842.2
601.046	11826.16
601.404	11934.18
601.762	11923.78
602.12	11960.17
602.478	11923.1
602.836	11868.87
603.194	11831.36
603.552	11873.16
603.91	11871.58
604.268	11996.1
604.625	11819.15
604.983	11894.18
605.341	11799.72
605.698	11841.07
606.056	11871.58
606.413	11891.69
606.771	11909.77
607.128	11984.57
607.485	11835.2
607.843	11952.93
608.2	11924.23
608.557	11949.54
608.914	11960.62
609.272	11980.05
609.629	11993.84
609.986	12004.23
610.343	11932.82
610.7	12005.59
611.057	11991.35
611.414	12005.59
611.771	12056.89
612.127	12068.41
612.484	11985.7
612.841	12028.86
613.198	12015.53
613.554	12018.24
613.911	12068.64
614.267	12124
614.624	12020.28
614.98	12065.02
615.337	12105.7
615.693	12130.78
616.05	12121.74
616.406	12231.35
616.762	12108.41
617.118	12090.56
617.475	12092.14
617.831	12163.78
618.187	12189.54
618.543	12160.84
618.899	12279.93
619.255	12140.95
619.611	12202.65
619.967	12257.33
620.323	12253.04
620.678	12245.36
621.034	12157.22
621.39	12120.16
621.746	12116.55
622.101	12308.18
622.457	12145.25
622.812	12252.59
623.168	12159.71
623.523	12225.7
623.879	12270.44
624.234	12221.4
624.589	12233.83
624.945	12250.78
625.3	12233.15
625.655	12308.86
626.01	12290.1
626.365	12156.32
626.72	12164.45
627.075	12236.09
627.43	12142.99
627.785	12149.54
628.14	12159.93
628.495	12138.47
628.85	12146.6
629.205	12158.13
629.559	12219.59
629.914	12095.3
630.269	12207.62
630.623	12250.78
630.978	12119.03
631.332	12091.69
631.687	12187.73
632.041	12190.44
632.396	12048.3
632.75	12062.54
633.104	12159.03
633.459	12102.99
633.813	12018.47
634.167	11916.78
634.521	12026.38
634.875	12054.85
635.229	11964.91
635.583	11883.78
635.937	11922.43
636.291	11994.52
636.645	11959.94
636.999	11946.61
637.352	11912.94
637.706	11889.89
638.06	11860.96
638.413	11839.49
638.767	11852.82
639.121	11825.25
639.474	11738.02
639.828	11692.6
640.181	11766.72
640.534	11786.61
640.888	11730.34
641.241	11724.24
641.594	11694.64
641.947	11806.5
642.301	11718.14
642.654	11681.53
643.007	11725.82
643.36	11631.81
643.713	11703.45
644.066	11754.75
644.419	11593.4
644.771	11564.02
645.124	11492.61
645.477	11458.48
645.83	11429.78
646.182	11338.49
646.535	11254.65
646.888	11391.14
647.24	11331.71
647.593	11344.81
647.945	11282.9
648.298	11209.68
648.65	11155.89
649.002	11226.63
649.355	11191.15
649.707	11170.36
650.059	11307.75
650.411	11383.91
650.763	11482.21
651.115	11566.5
651.467	11453.74
651.819	11459.84
652.171	11444.02
652.523	11543.68
652.875	11444.47
653.227	11469.11
653.578	11556.11
653.93	11444.47
654.282	11491.93
654.633	11391.37
654.985	11496.9
655.337	11466.85
655.688	11495.77
656.039	11518.14
656.391	11418.71
656.742	11393.18
657.094	11488.77
657.445	11524.92
657.796	11506.17
658.147	11495.32
658.498	11539.39
658.849	11467.75
659.2	11464.59
659.551	11450.12
659.902	11490.57
660.253	11515.43
660.604	11508.65
660.955	11525.6
661.306	11546.39
661.656	11509.1
662.007	11511.59
662.358	11502.1
662.708	11540.29
663.059	11584.81
663.409	11496.45
663.76	11626.62
664.11	11556.79
664.461	11625.71
664.811	11577.35
665.161	11547.52
665.511	11580.06
665.862	11655.77
666.212	11563.79
666.562	11601.31
666.912	11620.74
667.262	11525.6
667.612	11595.66
667.962	11602.89
668.312	11531.93
668.662	11612.83
669.011	11613.73
669.361	11503.68
669.711	11531.25
670.06	11480.63
670.41	11478.82
670.76	11517.69
671.109	11557.69
671.459	11563.34
671.808	11487.86
672.157	11508.65
672.507	11457.13
672.856	11435.66
673.205	11434.53
673.554	11511.14
673.904	11462.55
674.253	11508.65
674.602	11456
674.951	11325.83
675.3	11293.29
675.649	11433.85
675.998	11394.3
676.346	11404.25
676.695	11410.12
677.044	11339.84
677.393	11323.57
677.741	11430.69
678.09	11370.35
678.438	11264.14
678.787	11398.6
679.135	11292.61
679.484	11227.08
679.832	11241.31
680.181	11300.3
680.529	11277.02
680.877	11237.92
681.225	11204.71
681.573	11244.03
681.922	11116.8
682.27	11084.26
682.618	11072.73
682.966	11071.38
683.314	11063.01
683.661	11068.66
684.009	11018.95
684.357	10990.02
684.705	10938.5
685.053	10994.54
685.4	10942.57
685.748	10905.5
686.095	10872.96
686.443	10808.56
686.79	10853.3
687.138	10820.76
687.485	10777.82
687.832	10774.21
688.18	10718.84
688.527	10750.03
688.874	10698.5
689.221	10646.75
689.568	10650.82
689.915	10660.54
690.262	10673.87
690.609	10622.57
690.956	10545.97
691.303	10489.92
691.65	10543.25
691.997	10501
692.344	10462.35
692.69	10355.24
693.037	10371.05
693.383	10252.19
693.73	10334.45
694.077	10190.49
694.423	10233.43
694.769	10179.65
695.116	10240.89
695.462	10135.13
695.808	10102.81
696.155	10059.42
696.501	10033.66
696.847	9976.26
697.193	9911.63
697.539	9927.22
697.885	9854.01
698.231	9873.21
698.577	9822.14
698.923	9731.07
699.269	9719.55
699.614	9659.89
699.96	9676.38
700.306	9672.77
700.651	9616.5
700.997	9544.41
701.342	9545.31
701.688	9486.33
702.033	9514.35
702.379	9477.29
702.724	9486.33
703.069	9457.41
703.415	9331.08
703.76	9371.08
704.105	9339.44
704.45	9292.21
704.795	9247.92
705.14	9196.62
705.485	9196.17
705.83	9158.88
706.175	9095.83
706.52	9077.53
706.865	9075.27
707.209	9136.74
707.554	9046.34
707.899	9015.38
708.243	8967.25
708.588	8960.47
708.932	8941.49
709.277	8905.78
709.621	8880.25
709.966	8886.12
710.31	8791.44
710.654	8768.84
710.998	8709.4
711.342	8742.62
711.687	8677.54
712.031	8692.46
712.375	8640.71
712.719	8675.28
713.063	8615.39
713.407	8682.96
713.75	8569.07
714.094	8554.38
714.438	8541.05
714.782	8569.75
715.125	8569.52
715.469	8529.97
715.812	8460.6
716.156	8450.2
716.499	8391.22
716.843	8463.31
717.186	8408.85
717.53	8469.86
717.873	8460.6
718.216	8377.21
718.559	8382.86
718.902	8345.35
719.246	8342.18
719.589	8357.77
719.932	8327.49
720.275	8327.72
720.617	8325.23
720.96	8341.5
721.303	8274.39
721.646	8266.7
721.989	8218.8
722.331	8301.28
722.674	8218.12
723.016	8256.53
723.359	8258.79
723.701	8221.06
724.044	8204.78
724.386	8156.88
724.729	8176.08
725.071	8141.96
725.413	8141.06
725.755	8188.97
726.097	8181.51
726.439	8050.66
726.782	8163.43
727.124	8116.88
727.465	8092.47
727.807	8128.85
728.149	8106.71
728.491	8155.52
728.833	8135.18
729.175	8146.71
729.516	8031
729.858	8066.26
730.199	8039.14
730.541	8102.41
730.882	8082.3
731.224	8150.77
731.565	8067.16
731.906	8068.97
732.248	8120.04
732.589	8048.4
732.93	8030.33
733.271	8090.21
733.612	8091.57
733.953	8085.47
734.294	8002.53
734.635	8027.61
734.976	8051.79
735.317	8077.56
735.658	8017.9
735.999	8042.3
736.339	8075.07
736.68	8092.47
737.021	8146.71
737.361	8039.59
737.702	8084.11
738.042	8112.58
738.383	8047.27
738.723	8173.6
739.063	8076.43
739.404	8118.68
739.744	8099.02
740.084	8064
740.424	8096.99
740.764	8129.76
741.104	8153.94
741.444	8082.75
741.784	8155.52
742.124	8160.27
742.464	8210.43
742.804	8128.85
743.143	8211.79
743.483	8176.31
743.823	8244.78
744.162	8226.48
744.502	8296.08
744.841	8289.08
745.181	8341.05
745.52	8423.76
745.86	8438.9
746.199	8446.59
746.538	8437.09
746.877	8509.41
747.216	8533.82
747.556	8573.81
747.895	8586.7
748.234	8647.26
748.573	8607.03
748.911	8730.19
749.25	8779.68
749.589	8849.74
749.928	8869.4
750.267	8931.09
750.605	8951.88
750.944	9092.22
751.283	9139.67
751.621	9160.01
751.96	9263.29
752.298	9354.58
752.636	9419.44
752.975	9433.45
753.313	9548.7
753.651	9748.02
753.989	9808.58
754.327	9849.94
754.666	9927.68
755.004	10017.39
755.342	10161.34
755.679	10266.65
756.017	10353.2
756.355	10508.68
756.693	10586.19
757.031	10747.99
757.368	10755.68
757.706	10961.77
758.044	11029.12
758.381	11189.11
758.719	11267.98
759.056	11419.39
759.394	11557.69
759.731	11648.08
760.068	11768.53
760.405	11997.45
760.743	11994.74
761.08	12206.49
761.417	12329.87
761.754	12470.21
762.091	12558.34
762.428	12717.21
762.765	12825.23
763.102	13069.29
763.438	13115.84
763.775	13237.65
764.112	13407.81
764.449	13615.04
764.785	13670.63
765.122	13762.6
765.458	13828.14
765.795	14020.68
766.131	14166.89
766.467	14297.51
766.804	14326.88
767.14	14479.42
767.476	14603.03
767.812	14693.65
768.148	14817.94
768.485	14851.39
768.821	14896.81
769.157	15090.48
769.492	15124.6
769.828	15288.89
770.164	15179.29
770.5	15344.26
770.836	15432.16
771.171	15564.82
771.507	15546.96
771.842	15570.24
772.178	15704.7
772.513	15777.47
772.849	15788.54
773.184	15850.01
773.519	15965.26
773.855	15953.96
774.19	16032.6
774.525	16054.3
774.86	16203.22
775.195	16255.87
775.53	16220.84
775.865	16247.28
776.2	16291.13
776.535	16119.15
776.87	16282.99
777.205	16187.17
777.539	16335.87
777.874	16369.99
778.209	16339.71
778.543	16383.1
778.878	16391.91
779.212	16406.83
779.547	16329.09
779.881	16462.19
780.215	16334.29
780.55	16470.56
780.884	16414.51
781.218	16422.87
781.552	16428.75
781.886	16454.51
782.22	16365.25
782.554	16405.7
782.888	16319.6
783.222	16270.33
783.556	16286.38
783.889	16269.66
784.223	16119.15
784.557	16269.66
784.89	16339.94
785.224	16225.14
785.557	16133.84
785.891	16124.35
786.224	16109.89
786.558	16183.11
786.891	16113.05
787.224	16052.94
787.557	16080.06
787.891	16015.65
788.224	16109.44
788.557	16120.06
788.89	15967.97
789.223	16047.97
789.556	15773.17
789.888	15932.04
790.221	15872.61
790.554	15781.08
790.887	15813.17
791.219	15731.14
791.552	15773.17
791.884	15724.59
792.217	15722.55
792.549	15688.66
792.882	15520.98
793.214	15567.75
793.546	15628.77
793.879	15535.66
794.211	15406.4
794.543	15473.75
794.875	15450.24
795.207	15418.38
795.539	15334.54
795.871	15479.4
796.203	15189.23
796.535	15244.15
796.867	15196.01
797.198	15149.46
797.53	15123.02
797.862	15087.54
798.193	15118.5
798.525	14996.47
798.856	15042.34
799.188	14923.25
799.519	14847.77
799.85	14874.89
800.182	14827.21
800.513	14836.7
800.844	14739.53
801.175	14881.9
801.506	14757.38
801.837	14659.76
802.168	14643.03
802.499	14563.26
802.83	14525.52
803.161	14514.45
803.491	14454.11
803.822	14490.27
804.153	14408.01
804.483	14304.96
804.814	14384.51
805.145	14302.7
805.475	14331.85
805.805	14276.49
806.136	14236.72
806.466	14283.27
806.796	14232.65
807.126	14100
807.457	14062.94
807.787	14064.29
808.117	13999.66
808.447	13983.62
808.777	14090.96
809.107	13905.65
809.436	13953.11
809.766	13866.78
810.096	13851.64
810.426	13786.33
810.755	13731.19
811.085	13819.1
811.414	13731.64
811.744	13674.92
812.073	13693.91
812.403	13636.96
812.732	13538.2
813.061	13606.68
813.39	13494.59
813.719	13421.6
814.049	13533.01
814.378	13466.79
814.707	13496.17
815.036	13349.73
815.365	13402.39
815.693	13263.41
816.022	13264.99
816.351	13278.1
816.68	13161.72
817.008	13209.4
817.337	13149.06
817.665	13102.28
817.994	13141.6
818.322	13104.99
818.651	13079.68
818.979	12960.14
819.307	13071.1
819.636	13009.86
819.964	12941.16
820.292	13026.35
820.62	12972.12
820.948	12976.18
821.276	13010.99
821.604	12926.69
821.932	12932.34
822.259	12956.98
822.587	12922.63
822.915	12849.18
823.243	13027.93
823.57	12942.29
823.898	12979.35
824.225	12855.51
824.553	12905.45
824.88	12941.16
825.207	12954.49
825.535	12901.84
825.862	12970.76
826.189	12900.48
826.516	12941.83
826.843	12976.41
827.17	12982.06
827.497	13033.13
827.824	12931.67
828.151	13008.5
828.478	12850.99
828.805	12937.54
829.131	12971.66
829.458	12884.66
829.785	12842.4
830.111	12935.06
830.438	12921.04
830.764	12785.68
831.09	12974.83
831.417	12857.54
831.743	12943.87
832.069	12909.07
832.395	12837.43
832.722	12864.1
833.048	12852.12
833.374	12914.04
833.7	12774.83
834.026	12875.62
834.351	12877.43
834.677	12895.73
835.003	12890.76
835.329	12801.95
835.654	12860.48
835.98	12745.23
836.306	12790.65
836.631	12697.1
836.956	12716.08
837.282	12748.39
837.607	12751.78
837.932	12732.35
838.258	12652.12
838.583	12682.18
838.908	12613.71
839.233	12633.37
839.558	12599.47
839.883	12465.69
840.208	12574.84
840.533	12540.26
840.858	12566.48
841.182	12461.85
841.507	12507.5
841.832	12421.85
842.156	12415.07
842.481	12361.51
842.805	12306.37
843.13	12319.93
843.454	12258.01
843.778	12246.49
844.103	12244.68
844.427	12123.55
844.751	12167.62
845.075	12230.44
845.399	12183.44
845.723	12058.24
846.047	12035.87
846.371	11977.57
846.695	11961.07
847.019	11869.55
847.343	11838.36
847.666	11717.46
847.99	11701.19
848.313	11696.22
848.637	11615.99
848.96	11657.8
849.284	11554.53
849.607	11528.99
849.931	11462.78
850.254	11419.84
850.577	11358.6
850.9	11313.63
851.223	11284.7
851.546	11184.82
851.869	11072.28
852.192	11164.03
852.515	11097.59
852.838	11118.15
853.161	11100.75
853.483	10970.59
853.806	10923.81
854.129	10904.37
854.451	10812.17
854.774	10804.94
855.096	10780.31
855.419	10717.94
855.741	10774.89
856.063	10713.19
856.385	10620.31
856.708	10667.32
857.03	10568.34
857.352	10671.61
857.674	10564.04
857.996	10554.1
858.318	10496.25
858.64	10524.5
858.961	10494.89
859.283	10378.74
859.605	10324.05
859.926	10337.84
860.248	10370.6
860.57	10271.62
860.891	10271.17
861.212	10214.9
861.534	10257.84
861.855	10150.04
862.176	10170.16
862.498	10260.55
862.819	10167.44
863.14	10064.85
863.461	10069.14
863.782	10001.8
864.103	10053.55
864.424	10044.51
864.745	10025.53
865.065	10004.28
865.386	10004.06
865.707	9980.33
866.027	9900.11
866.348	9858.07
866.668	9924.74
866.989	9859.2
867.309	9787.57
867.63	9862.14
867.95	9890.84
868.27	9802.71
868.59	9766.55
868.91	9797.96
869.23	9821.01
869.55	9712.09
869.87	9765.65
870.19	9729.26
870.51	9685.65
870.83	9734.46
871.15	9685.42
871.469	9683.39
871.789	9698.3
872.109	9663.28
872.428	9637.29
872.748	9650.17
873.067	9654.92
873.386	9594.13
873.706	9586.44
874.025	9544.18
874.344	9524.07
874.663	9487.24
874.982	9497.86
875.301	9484.52
875.62	9433.45
875.939	9416.28
876.258	9459.67
876.577	9409.95
876.896	9385.54
877.214	9361.36
877.533	9376.5
877.852	9372.21
878.17	9360.91
878.489	9349.61
878.807	9367.69
879.125	9334.25
879.444	9317.07
879.762	9277.52
880.08	9256.28
880.398	9230.07
880.716	9238.88
881.034	9148.04
881.352	9160.69
881.67	9159.11
881.988	9202.5
882.306	9125.21
882.624	9121.37
882.941	9122.05
883.259	9061.26
883.577	9038.66
883.894	9060.35
884.212	9030.75
884.529	8944.65
884.846	9005.44
885.164	8894.94
885.481	8924.09
885.798	8855.16
886.115	8854.71
886.432	8850.19
886.75	8839.12
887.067	8809.29
887.383	8758.22
887.7	8792.57
888.017	8647.03
888.334	8767.26
888.651	8656.52
888.967	8630.31
889.284	8646.13
889.6	8615.39
889.917	8508.51
890.233	8563.42
890.55	8541.5
890.866	8509.64
891.182	8509.64
891.498	8465.12
891.815	8448.62
892.131	8366.36
892.447	8469.86
892.763	8358.68
893.079	8339.47
893.395	8335.18
893.71	8322.52
894.026	8270.09
894.342	8227.61
894.657	8180.38
894.973	8201.62
895.289	8170.43
895.604	8209.3
895.92	8063.77
896.235	8039.36
896.55	8032.59
896.865	8097.89
897.181	8006.82
897.496	7994.85
897.811	7962.3
898.126	7924.11
898.441	7863.55
898.756	7874.85
899.071	7817
899.386	7869.65
899.7	7787.62
900.015	7725.93
900.33	7717.57
900.644	7668.3
900.959	7684.8
901.273	7713.5
901.588	7595.76
901.902	7567.29
902.216	7546.95
902.531	7553.5
902.845	7526.38
903.159	7446.39
903.473	7432.83
903.787	7413.62
904.101	7397.12
904.415	7370.68
904.729	7336.56
905.042	7309.44
905.356	7274.41
905.67	7325.03
905.984	7247.97
906.297	7183.12
906.611	7116.45
906.924	7116.23
907.237	7126.62
907.551	7083.01
907.864	7011.6
908.177	7052.27
908.491	6988.32
908.804	6973.63
909.117	6963.46
909.43	6908.77
909.743	6854.09
910.056	6861.32
910.368	6858.38
910.681	6793.97
910.994	6805.05
911.307	6754.2
911.619	6671.49
911.932	6744.48
912.244	6682.56
912.557	6602.79
912.869	6637.37
913.181	6570.02
913.494	6593.75
913.806	6579.29
914.118	6487.77
914.43	6497.26
914.742	6488.45
915.054	6455
915.366	6443.7
915.678	6385.17
915.99	6403.48
916.302	6326.42
916.613	6288.22
916.925	6254.1
917.236	6257.04
917.548	6245.51
917.859	6207.77
918.171	6189.7
918.482	6148.79
918.794	6125.29
919.105	6119.64
919.416	6022.69
919.727	6048
920.038	6022.69
920.349	5978.85
920.66	5975.01
920.971	5944.96
921.282	5936.14
921.593	5881.68
921.903	5953.77
922.214	5871.51
922.525	5806.88
922.835	5826.54
923.146	5759.88
923.456	5797.84
923.767	5731.4
924.077	5732.76
924.387	5701.12
924.697	5642.37
925.008	5634.91
925.318	5664.29
925.628	5608.02
925.938	5581.12
926.248	5525.53
926.558	5567.11
926.867	5519.88
927.177	5488.47
927.487	5461.13
927.796	5383.62
928.106	5449.38
928.416	5368.47
928.725	5415.93
929.034	5318.98
929.344	5337.74
929.653	5328.25
929.962	5282.38
930.271	5257.07
930.581	5218.87
930.89	5172.1
931.199	5253
931.508	5213.22
931.817	5143.4
932.125	5143.85
932.434	5100.23
932.743	5127.35
933.051	5082.15
933.36	5095.04
933.669	5029.5
933.977	5067.69
934.286	4982.04
934.594	4967.13
934.902	4940.92
935.21	4964.64
935.519	4938.2
935.827	4958.99
936.135	4840.35
936.443	4871.09
936.751	4825.89
937.059	4836.06
937.367	4759
937.674	4785.67
937.982	4780.69
938.29	4732.56
938.597	4758.77
938.905	4696.4
939.213	4653.24
939.52	4672.45
939.827	4629.96
940.135	4605.56
940.442	4616.4
940.749	4538.44
941.056	4580.02
941.363	4528.04
941.67	4505.67
941.977	4508.84
942.284	4445.34
942.591	4437.65
942.898	4441.27
943.205	4426.58
943.511	4420.7
943.818	4398.56
944.125	4303.42
944.431	4364.43
944.738	4317.65
945.044	4328.95
945.35	4309.52
945.657	4278.33
945.963	4242.63
946.269	4178.68
946.575	4248.73
946.881	4169.41
947.187	4180.94
947.493	4166.25
947.799	4164.89
948.105	4108.85
948.41	4106.59
948.716	4075.85
949.022	4037.66
949.327	4083.54
949.633	4044.22
949.938	4050.09
950.244	4012.13
950.549	3994.05
950.854	4016.65
951.16	3995.4
951.465	3919.25
951.77	3949.75
952.075	3903.65
952.38	3906.59
952.685	3893.49
952.99	3877.89
953.294	3794.28
953.599	3893.94
953.904	3792.7
954.209	3772.58
954.513	3805.8
954.818	3739.59
955.122	3706.37
955.426	3720.38
955.731	3731.46
956.035	3708.18
956.339	3669.31
956.643	3670.89
956.948	3660.72
957.252	3644.9
957.556	3644.45
957.86	3601.97
958.163	3577.79
958.467	3608.29
958.771	3592.93
959.075	3531.91
959.378	3497.34
959.682	3523.33
959.985	3478.81
960.289	3468.19
960.592	3450.78
960.896	3486.26
961.199	3446.94
961.502	3431.8
961.805	3430.9
962.108	3381.41
962.411	3405.36
962.714	3348.41
963.017	3335.31
963.32	3383.67
963.623	3333.95
963.926	3318.13
964.228	3284.46
964.531	3277
964.833	3317.46
965.136	3260.73
965.438	3234.07
965.741	3247.4
966.043	3222.54
966.345	3199.72
966.648	3186.39
966.95	3206.72
967.252	3145.71
967.554	3128.99
967.856	3153.17
968.158	3131.47
968.46	3122.21
968.761	3100.29
969.063	3063.9
969.365	3060.29
969.666	3045.6
969.968	3008.54
970.269	3000.4
970.571	3045.6
970.872	2992.49
971.174	3000.4
971.475	2988.88
971.776	2959.5
972.077	2973.74
972.378	2926.73
972.679	2915.21
972.98	2941.19
973.281	2928.99
973.582	2876.11
973.883	2883.57
974.183	2860.29
974.484	2836.11
974.785	2858.71
975.085	2837.69
975.386	2808.77
975.686	2807.64
975.986	2791.14
976.287	2775.77
976.587	2765.61
976.887	2725.38
977.187	2750.01
977.487	2724.93
977.787	2722.89
978.087	2695.1
978.387	2718.37
978.687	2720.63
978.987	2680.18
979.286	2680.86
979.586	2656.46
979.885	2686.29
980.185	2629.56
980.484	2586.17
980.784	2621.65
981.083	2582.56
981.382	2581.43
981.682	2590.92
981.981	2556.8
982.28	2544.37
982.579	2521.32
982.878	2511.37
983.177	2552.05
983.475	2522.9
983.774	2480.64
984.073	2499.17
984.372	2446.52
984.67	2425.28
984.969	2452.39
985.267	2399.29
985.566	2447.2
985.864	2417.37
986.162	2393.41
986.461	2419.4
986.759	2386.86
987.057	2375.56
987.355	2322
987.653	2318.84
987.951	2344.37
988.249	2329.23
988.547	2301.66
988.844	2312.06
989.142	2252.85
989.44	2303.7
989.737	2301.66
990.035	2249.46
990.332	2250.14
990.63	2218.5
990.927	2258.27
991.224	2237.71
991.521	2188.9
991.819	2165.85
992.116	2208.78
992.413	2145.51
992.71	2171.04
993.006	2153.64
993.303	2133.76
993.6	2155.9
993.897	2112.06
994.193	2143.7
994.49	2133.53
994.787	2079.75
995.083	2091.5
995.379	2108
995.676	2072.52
995.972	2060.99
996.268	2046.75
996.565	2055.57
996.861	2037.49
997.157	2041.33
997.453	2010.82
997.749	2023.03
998.044	1987.32
998.34	1971.95
998.636	1978.96
998.932	1962.24
999.227	1939.86
999.523	1933.31
999.818	1928.34
1000.114	1952.52
1000.409	1916.59
1000.704	1879.07
1001	1902.35
1001.295	1877.94
1001.59	1839.98
1001.885	1873.88
1002.18	1855.12
1002.475	1866.65
1002.77	1862.58
1003.065	1834.56
1003.359	1822.58
1003.654	1822.13
1003.949	1798.63
1004.243	1789.13
1004.538	1768.57
1004.832	1750.26
1005.127	1771.73
1005.421	1760.89
1005.715	1718.63
1006.009	1748
1006.304	1704.62
1006.598	1752.98
1006.892	1706.42
1007.186	1654.45
1007.48	1666.65
1007.773	1698.51
1008.067	1656.48
1008.361	1662.13
1008.655	1638.4
1008.948	1651.28
1009.242	1657.16
1009.535	1632.98
1009.829	1624.39
1010.122	1622.13
1010.415	1610.83
1010.708	1617.39
1011.001	1568.8
1011.295	1578.97
1011.588	1538.97
1011.881	1549.14
1012.173	1525.64
1012.466	1543.94
1012.759	1538.07
1013.052	1517.5
1013.344	1541
1013.637	1508.92
1013.93	1478.63
1014.222	1502.36
1014.514	1466.66
1014.807	1478.18
1015.099	1457.39
1015.391	1442.7
1015.683	1430.73
1015.976	1416.26
1016.268	1422.36
1016.56	1407
1016.851	1401.35
1017.143	1417.84
1017.435	1382.82
1017.727	1357.73
1018.018	1391.18
1018.31	1382.59
1018.602	1354.79
1018.893	1367.45
1019.185	1328.81
1019.476	1322.25
1019.767	1315.25
1020.058	1337.39
1020.35	1317.73
1020.641	1322.48
1020.932	1268.7
1021.223	1270.28
1021.514	1244.74
1021.804	1266.21
1022.095	1252.65
1022.386	1286.1
1022.677	1253.1
1022.967	1225.76
1023.258	1205.65
1023.548	1218.75
1023.839	1213.56
1024.129	1228.47
1024.419	1206.1
1024.709	1200
1025	1175.59
1025.29	1178.75
1025.58	1169.94
1025.87	1148.7
1026.16	1144.4
1026.449	1155.03
1026.739	1147.79
1027.029	1146.89
1027.319	1121.58
1027.608	1135.14
1027.898	1122.94
1028.187	1093.78
1028.477	1091.3
1028.766	1096.04
1029.055	1077.29
1029.344	1052.2
1029.634	1083.16
1029.923	1057.85
1030.212	1064.18
1030.501	1056.72
1030.79	1033.45
1031.078	1028.93
1031.367	1015.37
1031.656	1003.39
1031.945	1006.1
1032.233	1012.43
1032.522	1014.46
1032.81	995.03
1033.099	990.96
1033.387	1004.75
1033.675	951.64
1033.963	967.01
1034.251	958.42
1034.54	962.26
1034.828	966.1
1035.116	965.88
1035.403	942.38
1035.691	943.73
1035.979	955.03
1036.267	913.22
1036.554	928.82
1036.842	933.79
1037.129	926.33
1037.417	879.33
1037.704	927.01
1037.992	871.87
1038.279	879.55
1038.566	890.4
1038.853	890.4
1039.14	890.4
