Data from hue_90_FLMS001491_5.txt Node
Date: Mon Feb 06 15:24:36 GMT 2017
User: dcchb
Spectrometer: FLMS00149
Trigger mode: 0
Integration Time (sec): 2.000000E-2
Scans to average: 10
Electric dark correction enabled: true
Nonlinearity correction enabled: false
Boxcar width: 0
XAxis mode: Wavelengths
Number of Pixels in Spectrum: 2048
>>>>>Begin Spectral Data<<<<<
341.393	-13.46
341.776	-13.46
342.16	-13.46
342.543	-37.87
342.927	-43.29
343.31	-73.12
343.693	-77.64
344.077	-58.43
344.46	-62.72
344.843	-57.75
345.226	-50.52
345.61	-38.54
345.993	-21.82
346.376	-7.13
346.759	14.79
347.142	26.99
347.525	44.39
347.908	76.48
348.291	71.28
348.674	104.05
349.057	109.7
349.44	127.78
349.823	150.6
350.206	165.97
350.588	211.17
350.971	218.17
351.354	239.41
351.737	229.25
352.119	239.41
352.502	273.54
352.884	294.1
353.267	261.56
353.65	296.14
354.032	296.59
354.414	311.96
354.797	309.92
355.179	319.86
355.562	323.93
355.944	315.34
356.326	338.17
356.709	344.72
357.091	318.51
357.473	338.17
357.855	335.23
358.238	342.01
358.62	328.23
359.002	325.51
359.384	334.55
359.766	335.01
360.148	332.97
360.53	338.4
360.912	336.36
361.294	325.06
361.676	326.64
362.057	328
362.439	333.65
362.821	311.5
363.203	315.57
363.584	326.87
363.966	318.28
364.348	323.93
364.729	310.15
365.111	325.29
365.493	315.34
365.874	309.92
366.256	321.22
366.637	338.4
367.019	304.05
367.4	324.16
367.781	311.96
368.163	311.28
368.544	307.89
368.925	330.03
369.306	332.52
369.688	323.25
370.069	290.49
370.45	305.63
370.831	326.19
371.212	318.73
371.593	308.34
371.974	318.06
372.355	309.92
372.736	335.91
373.117	314.89
373.498	333.65
373.879	317.15
374.26	325.51
374.641	312.63
375.021	305.85
375.402	322.58
375.783	322.8
376.163	329.13
376.544	324.38
376.925	334.78
377.305	332.52
377.686	304.5
378.066	317.15
378.447	317.38
378.827	314.21
379.208	342.24
379.588	336.81
379.968	345.63
380.349	354.21
380.729	354.44
381.109	339.75
381.489	336.14
381.87	328.23
382.25	339.98
382.63	332.75
383.01	340.88
383.39	343.82
383.77	349.02
384.15	349.02
384.53	355.8
384.91	337.94
385.29	353.54
385.67	328.23
386.049	351.95
386.429	342.46
386.809	334.1
387.189	359.86
387.568	346.3
387.948	354.21
388.328	370.26
388.707	366.19
389.087	342.46
389.466	359.19
389.846	363.71
390.225	345.63
390.605	354.89
390.984	377.49
391.363	356.02
391.743	356.7
392.122	384.5
392.501	371.84
392.881	373.87
393.26	357.15
393.639	378.62
394.018	359.64
394.397	371.84
394.776	387.89
395.155	379.07
395.534	369.81
395.913	367.09
396.292	386.53
396.671	385.4
397.05	382.24
397.429	379.52
397.808	380.65
398.186	377.04
398.565	386.3
398.944	394.21
399.323	379.75
399.701	418.39
400.08	397.15
400.458	392.86
400.837	403.48
401.215	404.38
401.594	396.92
401.972	412.07
402.351	401.44
402.729	428.11
403.107	388.79
403.486	403.93
403.864	405.06
404.242	438.73
404.62	403.7
404.999	410.94
405.377	396.02
405.755	399.64
406.133	420.88
406.511	449.35
406.889	444.15
407.267	426.98
407.645	444.15
408.023	440.99
408.401	439.41
408.779	438.73
409.156	456.36
409.534	438.28
409.912	459.52
410.29	450.03
410.667	438.51
411.045	473.98
411.422	465.17
411.8	457.04
412.178	471.72
412.555	459.3
412.933	475.57
413.31	481.22
413.687	476.02
414.065	462.23
414.442	484.83
414.819	465.4
415.197	463.82
415.574	493.65
415.951	481.44
416.328	496.13
416.705	490.93
417.082	473.53
417.46	503.81
417.837	498.16
418.214	502.91
418.591	497.94
418.967	505.4
419.344	503.81
419.721	521.67
420.098	528.22
420.475	524.6
420.852	533.64
421.228	543.14
421.605	531.38
421.982	533.19
422.358	543.81
422.735	551.72
423.111	547.43
423.488	536.58
423.864	553.76
424.241	583.59
424.617	575
424.994	552.17
425.37	554.66
425.746	570.25
426.123	573.87
426.499	576.58
426.875	557.6
427.251	587.88
427.627	596.92
428.003	602.12
428.379	574.55
428.756	615
429.132	587.65
429.507	633.08
429.883	611.83
430.259	611.38
430.635	620.65
431.011	633.98
431.387	626.98
431.763	652.06
432.138	650.48
432.514	649.35
432.89	654.32
433.265	658.61
433.641	670.14
434.016	666.3
434.392	693.64
434.767	684.83
435.143	682.79
435.518	709.46
435.894	721.66
436.269	692.96
436.644	725.5
437.02	709.01
437.395	729.8
437.77	706.07
438.145	722.57
438.52	761.21
438.895	734.09
439.271	726.18
439.646	732.28
440.021	766.63
440.395	763.47
440.77	768.44
441.145	757.37
441.52	773.19
441.895	789.91
442.27	770.7
442.645	783.36
443.019	801.43
443.394	796.46
443.769	791.26
444.143	820.42
444.518	808.21
444.892	790.59
445.267	823.81
445.641	825.84
446.016	851.83
446.39	840.08
446.764	836.24
447.139	832.39
447.513	873.97
447.887	857.7
448.262	842.79
448.636	843.92
449.01	857.25
449.384	861.09
449.758	864.26
450.132	886.86
450.506	913.52
450.88	897.7
451.254	899.06
451.628	923.69
452.002	932.96
452.376	927.76
452.75	900.19
453.123	949.68
453.497	955.55
453.871	977.02
454.244	976.34
454.618	975.67
454.992	976.12
455.365	993.75
455.739	1021.77
456.112	1027.42
456.486	1045.27
456.859	1034.2
457.232	1062.44
457.606	1070.81
457.979	1067.87
458.352	1087.53
458.725	1094.99
459.099	1087.3
459.472	1146.96
459.845	1177.92
460.218	1147.41
460.591	1177.47
460.964	1156.9
461.337	1209.33
461.71	1195.55
462.083	1211.59
462.456	1207.07
462.829	1253.4
463.201	1264.47
463.574	1271.48
463.947	1301.99
464.32	1326.62
464.692	1306.51
465.065	1316.22
465.438	1359.61
465.81	1393.51
466.183	1382.21
466.555	1392.15
466.928	1417.46
467.3	1451.59
467.672	1472.15
468.045	1497.01
468.417	1506.27
468.789	1533.17
469.161	1557.12
469.534	1601.19
469.906	1633.28
470.278	1644.58
470.65	1672.6
471.022	1704.23
471.394	1748.53
471.766	1731.13
472.138	1746.49
472.51	1799.83
472.882	1859.03
473.253	1885.25
473.625	1913.04
473.997	1950.78
474.369	1978.58
474.74	2012.02
475.112	2079.37
475.484	2133.83
475.855	2169.76
476.227	2195.52
476.598	2251.57
476.97	2287.72
477.341	2359.13
477.713	2402.97
478.084	2474.16
478.455	2534.27
478.827	2537.21
479.198	2661.5
479.569	2731.1
479.94	2794.6
480.311	2859.23
480.682	2927.03
481.053	2995.05
481.424	3086.35
481.795	3173.35
482.166	3247.25
482.537	3317.98
482.908	3384.19
483.279	3468.93
483.65	3590.96
484.021	3695.14
484.391	3743.5
484.762	3858.08
485.133	3921.13
485.503	4077.05
485.874	4152.53
486.244	4200.21
486.615	4357.5
486.985	4447.21
487.356	4587.1
487.726	4640.43
488.097	4759.75
488.467	4843.81
488.837	5045.84
489.207	5090.59
489.578	5181.43
489.948	5357.92
490.318	5472.27
490.688	5545.26
491.058	5704.81
491.428	5840.4
491.798	5891.24
492.168	6091.01
492.538	6146.83
492.908	6266.37
493.278	6391.12
493.648	6516.31
494.017	6598.8
494.387	6742.52
494.757	6835.17
495.126	6957.43
495.496	7027.03
495.866	7158.55
496.235	7278.1
496.605	7390.41
496.974	7463.63
497.344	7596.06
497.713	7726.68
498.082	7813.68
498.452	7880.12
498.821	7954.92
499.19	8087.57
499.559	8186.55
499.928	8270.16
500.298	8365.98
500.667	8431.29
501.036	8541.12
501.405	8641.91
501.774	8662.47
502.143	8787.66
502.512	8839.64
502.88	8946.3
503.249	8998.73
503.618	9088.67
503.987	9182.23
504.356	9223.36
504.724	9239.4
505.093	9408.44
505.462	9419.06
505.83	9502
506.199	9664.93
506.567	9772.05
506.936	9716.68
507.304	9839.16
507.672	9921.42
508.041	9942.89
508.409	10026.28
508.777	10037.8
509.145	10200.51
509.514	10177.46
509.882	10290.45
510.25	10244.8
510.618	10419.26
510.986	10474.63
511.354	10532.93
511.722	10572.7
512.09	10670.78
512.458	10631.01
512.826	10676.43
513.193	10702.64
513.561	10835.75
513.929	10848.85
514.297	10920.04
514.664	10956.42
515.032	10977.21
515.4	11085.01
515.767	11022.63
516.135	11198.45
516.502	10962.3
516.869	11240.03
517.237	11172.91
517.604	11227.37
517.972	11256.98
518.339	11267.37
518.706	11333.81
519.073	11341.72
519.44	11434.37
519.808	11530.64
520.175	11431.89
520.542	11572.9
520.909	11645.44
521.276	11513.92
521.643	11616.74
522.009	11632.34
522.376	11698.55
522.743	11771.77
523.11	11801.14
523.477	11880.69
523.843	11880.92
524.21	11920.69
524.577	11989.84
524.943	11997.3
525.31	12046.79
525.676	12020.57
526.043	12007.01
526.409	12083.17
526.776	12182.83
527.142	12081.14
527.508	12172.43
527.874	12217.63
528.241	12290.85
528.607	12227.57
528.973	12293.33
529.339	12185.54
529.705	12291.08
530.071	12367.46
530.437	12306.22
530.803	12334.46
531.169	12350.96
531.535	12266.22
531.901	12280
532.267	12270.96
532.632	12316.16
532.998	12284.52
533.364	12407.68
533.73	12316.39
534.095	12374.91
534.461	12341.47
534.826	12287.01
535.192	12305.99
535.557	12395.71
535.923	12256.27
536.288	12288.36
536.653	12213.34
537.019	12203.62
537.384	12257.63
537.749	12235.71
538.114	12141.93
538.479	12150.51
538.845	12140.12
539.21	12105.09
539.575	12158.42
539.94	12066.22
540.305	12149.16
540.67	12106.45
541.034	12054.7
541.399	12047.69
541.764	11958.65
542.129	12017.64
542.494	12015.15
542.858	11951.65
543.223	11974.93
543.587	11944.42
543.952	11847.24
544.316	11865.32
544.681	11790.07
545.045	11811.31
545.41	11846.79
545.774	11818.09
546.138	11691.09
546.503	11749.62
546.867	11640.47
547.231	11772.9
547.595	11722.28
547.959	11590.3
548.324	11597.99
548.688	11614.03
549.052	11559.57
549.416	11522.06
549.779	11559.79
550.143	11509.17
550.507	11516.86
550.871	11554.15
551.235	11518.44
551.599	11529.29
551.962	11470.31
552.326	11438.89
552.689	11489.51
553.053	11421.72
553.417	11304.89
553.78	11463.98
554.143	11455.84
554.507	11352.34
554.87	11316.64
555.234	11421.49
555.597	11280.71
555.96	11324.32
556.323	11313.93
556.686	11261.72
557.05	11239.8
557.413	11297.2
557.776	11280.48
558.139	11314.15
558.502	11287.94
558.865	11268.96
559.228	11329.52
559.59	11291.55
559.953	11292.46
560.316	11339.24
560.679	11313.93
561.041	11394.15
561.404	11399.57
561.767	11367.03
562.129	11345.34
562.492	11358.22
562.854	11373.13
563.217	11451.78
563.579	11300.59
563.941	11425.11
564.304	11489.74
564.666	11421.49
565.028	11458.55
565.39	11468.05
565.753	11503.53
566.115	11565.44
566.477	11529.74
566.839	11447.93
567.201	11576.52
567.563	11531.77
567.925	11576.97
568.287	11564.54
568.648	11593.01
569.01	11685.44
569.372	11655.39
569.734	11595.27
570.095	11674.14
570.457	11719.11
570.819	11657.19
571.18	11693.8
571.542	11778.77
571.903	11672.79
572.265	11773.57
572.626	11709.62
572.987	11771.77
573.349	11781.71
573.71	11829.39
574.071	11759.34
574.432	11834.82
574.794	11870.3
575.155	11878.66
575.516	11800.01
575.877	11804.99
576.238	11824.42
576.599	11825.32
576.96	11917.3
577.32	11756.85
577.681	11846.79
578.042	11943.06
578.403	11836.4
578.763	11878.88
579.124	11847.47
579.485	11961.14
579.845	11932.44
580.206	11950.52
580.566	11893.35
580.927	11839.56
581.287	11890.18
581.648	11813.8
582.008	11908.03
582.368	11865.1
582.728	11872.33
583.089	11891.99
583.449	11782.16
583.809	11810.41
584.169	11879.79
584.529	11875.27
584.889	11863.29
585.249	11863.74
585.609	11793.69
585.969	11877.98
586.329	11818.32
586.688	11861.71
587.048	11839.34
587.408	11754.59
587.768	11798.21
588.127	11775.83
588.487	11736.97
588.846	11790.52
589.206	11743.07
589.565	11704.42
589.925	11794.14
590.284	11773.8
590.643	11761.15
591.003	11750.75
591.362	11764.76
591.721	11713.46
592.08	11743.29
592.44	11794.37
592.799	11747.81
593.158	11729.06
593.517	11743.97
593.876	11793.69
594.235	11727.25
594.593	11676.63
594.952	11681.15
595.311	11640.24
595.67	11666.23
596.029	11695.16
596.387	11736.06
596.746	11708.04
597.104	11676.18
597.463	11617.65
597.822	11699
598.18	11619
598.538	11644.99
598.897	11726.57
599.255	11623.52
599.613	11801.37
599.972	11674.37
600.33	11659.45
600.688	11673.69
601.046	11692.45
601.404	11739
601.762	11689.74
602.12	11740.13
602.478	11701.71
602.836	11735.61
603.194	11613.8
603.552	11697.19
603.91	11642.96
604.268	11726.57
604.625	11634.6
604.983	11682.28
605.341	11616.29
605.698	11729.73
606.056	11676.63
606.413	11672.11
606.771	11820.58
607.128	11729.73
607.485	11615.39
607.843	11690.64
608.2	11713.69
608.557	11703.75
608.914	11615.39
609.272	11733.35
609.629	11744.42
609.986	11789.62
610.343	11762.95
610.7	11834.82
611.057	11742.61
611.414	11833.23
611.771	11846.34
612.127	11938.77
612.484	11853.8
612.841	11889.73
613.198	11900.58
613.554	11745.78
613.911	11852.89
614.267	11860.13
614.624	11871.2
614.98	11881.37
615.337	11967.69
615.693	11864.65
616.05	11946.45
616.406	11989.39
616.762	11947.36
617.118	11963.17
617.475	11987.35
617.831	11936.06
618.187	11897.19
618.543	11925.44
618.899	12003.17
619.255	11979.9
619.611	11987.13
619.967	12055.6
620.323	12065.77
620.678	11985.09
621.034	12001.59
621.39	12000.46
621.746	11979.9
622.101	12024.19
622.457	12065.32
622.812	12007.24
623.168	12029.84
623.523	12023.74
623.879	12156.84
624.234	12001.82
624.589	11979.22
624.945	12121.14
625.3	12115.94
625.655	12078.65
626.01	12100.8
626.365	12042.95
626.72	12042.72
627.075	12099.89
627.43	12065.32
627.785	11981.93
628.14	12011.31
628.495	12054.02
628.85	11917.53
629.205	12020.57
629.559	11999.78
629.914	11947.58
630.269	11972.67
630.623	11920.69
630.978	11897.64
631.332	11957.52
631.687	11963.85
632.041	11927.69
632.396	11937.86
632.75	11831.88
633.104	11884.08
633.459	11897.87
633.813	11828.71
634.167	11847.02
634.521	11817.19
634.875	11844.08
635.229	11814.93
635.583	11749.85
635.937	11743.74
636.291	11679.57
636.645	11725.44
636.999	11735.38
637.352	11725.67
637.706	11697.42
638.06	11796.62
638.413	11709.85
638.767	11663.97
639.121	11665.78
639.474	11631.43
639.828	11593.01
640.181	11699.23
640.534	11614.03
640.888	11493.58
641.241	11564.99
641.594	11609.06
641.947	11617.19
642.301	11558.21
642.654	11638.89
643.007	11535.39
643.36	11468.5
643.713	11476.18
644.066	11528.84
644.419	11500.59
644.771	11418.1
645.124	11370.42
645.477	11261.05
645.83	11264.44
646.182	11233.93
646.535	11142.63
646.888	11194.38
647.24	11167.71
647.593	11147.15
647.945	11117.32
648.298	11080.94
648.65	11076.19
649.002	11073.93
649.355	11074.84
649.707	11081.39
650.059	11076.64
650.411	11329.74
650.763	11307.15
651.115	11348.05
651.467	11398.44
651.819	11402.28
652.171	11340.59
652.523	11301.04
652.875	11337.2
653.227	11313.93
653.578	11353.7
653.93	11313.93
654.282	11286.36
654.633	11318.9
654.985	11323.64
655.337	11326.58
655.688	11259.92
656.039	11300.82
656.391	11286.81
656.742	11259.69
657.094	11295.62
657.445	11274.83
657.796	11311.67
658.147	11278.22
658.498	11305.56
658.849	11329.07
659.2	11294.04
659.551	11225.11
659.902	11342.63
660.253	11251.78
660.604	11282.29
660.955	11222.63
661.306	11353.02
661.656	11303.3
662.007	11302.17
662.358	11302.17
662.708	11348.95
663.059	11378.1
663.409	11230.09
663.76	11326.35
664.11	11298.56
664.461	11324.55
664.811	11334.49
665.161	11320.48
665.511	11303.53
665.862	11311.89
666.212	11390.31
666.562	11362.51
666.912	11325.22
667.262	11352.34
667.612	11341.95
667.962	11393.25
668.312	11389.18
668.662	11387.37
669.011	11287.71
669.361	11331.78
669.711	11294.94
670.06	11352.57
670.41	11250.2
670.76	11310.31
671.109	11306.02
671.459	11285.9
671.808	11360.03
672.157	11311.21
672.507	11162.97
672.856	11205.68
673.205	11253.14
673.554	11284.1
673.904	11196.64
674.253	11272.12
674.602	11186.25
674.951	10998.91
675.3	11075.06
675.649	11224.21
675.998	11277.09
676.346	11129.3
676.695	11201.16
677.044	11111.9
677.393	11233.25
677.741	11167.71
678.09	11108.51
678.438	11084.33
678.787	11126.36
679.135	11162.07
679.484	11035.97
679.832	11127.04
680.181	11010.2
680.529	11035.29
680.877	11026.7
681.225	10892.24
681.573	11038.68
681.922	11023.76
682.27	10850.89
682.618	10889.3
682.966	10892.69
683.314	10875.97
683.661	10860.38
684.009	10787.84
684.357	10782.41
684.705	10787.16
685.053	10726.37
685.4	10791.45
685.748	10697.22
686.095	10696.77
686.443	10625.81
686.79	10594.17
687.138	10623.32
687.485	10675.52
687.832	10520.73
688.18	10592.81
688.527	10585.36
688.874	10480.95
689.221	10495.64
689.568	10411.58
689.915	10451.35
690.262	10403.89
690.609	10373.84
690.956	10271.92
691.303	10301.52
691.65	10262.65
691.997	10269.43
692.344	10170.45
692.69	10149.21
693.037	10142.88
693.383	10076.9
693.73	10134.07
694.077	10028.31
694.423	10022.66
694.769	10040.06
695.116	9968.42
695.462	9977.24
695.808	9910.35
696.155	9972.27
696.501	9795.32
696.847	9832.38
697.193	9708.77
697.539	9757.13
697.885	9671.93
698.231	9654.99
698.577	9684.59
698.923	9625.16
699.269	9558.49
699.614	9478.72
699.96	9484.82
700.306	9517.81
700.651	9481.66
700.997	9397.14
701.342	9370.7
701.688	9388.33
702.033	9348.78
702.379	9331.15
702.724	9268.1
703.069	9249.12
703.415	9179.74
703.76	9209.8
704.105	9193.53
704.45	9214.77
704.795	9084.38
705.14	9080.99
705.485	9074.44
705.83	9100.65
706.175	8961.22
706.52	9024.49
706.865	8978.85
707.209	8916.93
707.554	8897.49
707.899	8890.94
708.243	8883.93
708.588	8846.65
708.932	8731.62
709.277	8733.88
709.621	8721.9
709.966	8734.78
710.31	8719.64
710.654	8686.88
710.998	8574.11
711.342	8629.25
711.687	8674.9
712.031	8600.1
712.375	8564.39
712.719	8550.61
713.063	8518.29
713.407	8561
713.75	8486.88
714.094	8502.93
714.438	8459.54
714.782	8491.4
715.125	8461.57
715.469	8493.43
715.812	8437.17
716.156	8360.11
716.499	8332.08
716.843	8421.35
717.186	8304.29
717.53	8370.27
717.873	8370.95
718.216	8269.26
718.559	8263.38
718.902	8283.5
719.246	8284.17
719.589	8290.95
719.932	8207.34
720.275	8265.87
720.617	8210.73
720.96	8251.18
721.303	8163.73
721.646	8175.48
721.989	8168.02
722.331	8261.35
722.674	8178.87
723.016	8160.11
723.359	8162.37
723.701	8158.53
724.044	8098.19
724.386	8078.76
724.729	8100.68
725.071	8148.59
725.413	8166.66
725.755	8120.56
726.097	8117.4
726.439	8029.72
726.782	8077.4
727.124	8098.19
727.465	8074.91
727.807	8026.1
728.149	8009.38
728.491	7979.32
728.833	7971.19
729.175	7970.28
729.516	7932.32
729.858	8031.75
730.199	8000.79
730.541	7992.21
730.882	8001.02
731.224	8016.39
731.565	7935.48
731.906	7992.88
732.248	7977.52
732.589	7977.29
732.93	7895.94
733.271	8010.96
733.612	8011.41
733.953	7942.71
734.294	7975.48
734.635	7984.97
734.976	7972.09
735.317	7956.5
735.658	7959.21
735.999	7959.21
736.339	7930.29
736.68	8005.31
737.021	7959.89
737.361	7875.82
737.702	7980.91
738.042	7906.33
738.383	7971.64
738.723	7984.97
739.063	7928.03
739.404	7986.1
739.744	7966.67
740.084	8012.54
740.424	7961.02
740.764	7980.68
741.104	8009.83
741.444	7970.51
741.784	7966.9
742.124	8025.2
742.464	8065.2
742.804	8026.33
743.143	8013.22
743.483	8066.78
743.823	8062.03
744.162	8123.95
744.502	8182.03
744.841	8145.87
745.181	8208.02
745.52	8197.85
745.86	8250.96
746.199	8310.61
746.538	8274.46
746.877	8298.41
747.216	8312.65
747.556	8414.11
747.895	8446.43
748.234	8471.51
748.573	8510.38
748.911	8612.98
749.25	8595.13
749.589	8635.13
749.928	8594.68
750.267	8745.63
750.605	8765.52
750.944	8916.47
751.283	8843.48
751.621	9030.14
751.96	9063.59
752.298	9095
752.636	9174.77
752.975	9294.09
753.313	9333.64
753.651	9473.97
753.989	9510.81
754.327	9604.14
754.666	9570.02
755.004	9788.54
755.342	9956.9
755.679	9965.49
756.017	9970.68
756.355	10233.95
756.693	10205.03
757.031	10391.46
757.368	10465.81
757.706	10593.94
758.044	10731.12
758.381	10844.33
758.719	10929.98
759.056	11148.73
759.394	11206.13
759.731	11315.06
760.068	11416.52
760.405	11567.03
760.743	11658.78
761.08	11919.11
761.417	11959.11
761.754	12150.74
762.091	12214.02
762.428	12423.73
762.765	12445.42
763.102	12627.34
763.438	12836.15
763.775	12831.17
764.112	13038.17
764.449	13160.2
764.785	13273.65
765.122	13393.19
765.458	13547.77
765.795	13676.58
766.131	13758.83
766.467	13861.66
766.804	14055.32
767.14	14019.39
767.476	14229.33
767.812	14219.84
768.148	14390.68
768.485	14515.2
768.821	14536.67
769.157	14672.26
769.492	14837.67
769.828	14972.13
770.164	14987.05
770.5	15030.66
770.836	15126.03
771.171	15236.31
771.507	15278.57
771.842	15257.32
772.178	15408.73
772.513	15506.58
772.849	15551.33
773.184	15573.47
773.519	15679.01
773.855	15762.85
774.19	15738.22
774.525	15779.57
774.86	15913.8
775.195	15966.46
775.53	15949.06
775.865	15817.08
776.2	15845.78
776.535	15930.3
776.87	15981.6
777.205	16098.66
777.539	16018.66
777.874	16160.8
778.209	16056.17
778.543	16076.96
778.878	16062.5
779.212	16170.07
779.547	16186.34
779.881	16269.05
780.215	16131.2
780.55	16215.27
780.884	16274.47
781.218	16243.51
781.552	16306.56
781.886	16215.27
782.22	16191.99
782.554	16203.74
782.888	16153.57
783.222	16105.66
783.556	16148.15
783.889	16110.41
784.223	15946.12
784.557	15990.64
784.89	16086
785.224	16012.79
785.557	15978.66
785.891	16006.23
786.224	15948.15
786.558	16015.72
786.891	15865.22
787.224	15907.25
787.557	15942.96
787.891	15926.23
788.224	15890.08
788.557	15846.91
788.89	15948.38
789.223	15826.35
789.556	15778.44
789.888	15769.63
790.221	15714.49
790.554	15617.54
790.887	15704.32
791.219	15628.61
791.552	15660.93
791.884	15577.54
792.217	15510.88
792.549	15565.34
792.882	15401.28
793.214	15423.87
793.546	15471.56
793.879	15395.63
794.211	15316.53
794.543	15388.62
794.875	15339.13
795.207	15362.63
795.539	15224.33
795.871	15227.72
796.203	15233.37
796.535	15093.71
796.867	15154.5
797.198	15072.24
797.53	15024.34
797.862	15034.96
798.193	15037.9
798.525	14927.39
798.856	14874.96
799.188	14786.6
799.519	14792.03
799.85	14771.24
800.182	14761.97
800.513	14773.04
800.844	14608.53
801.175	14678.13
801.506	14704.8
801.837	14632.93
802.168	14544.58
802.499	14479.94
802.83	14493.28
803.161	14416.89
803.491	14444.24
803.822	14364.24
804.153	14287.86
804.483	14240.63
804.814	14166.05
805.145	14276.79
805.475	14171.25
805.805	14137.58
806.136	14194.75
806.466	14154.53
806.796	14145.72
807.126	13999.73
807.457	13994.31
807.787	14014.87
808.117	13853.97
808.447	13896.68
808.777	13948.43
809.107	13814.2
809.436	13785.05
809.766	13842.9
810.096	13692.17
810.426	13777.82
810.755	13814.65
811.085	13684.71
811.414	13652.62
811.744	13536.47
812.073	13497.6
812.403	13577.59
812.732	13554.54
813.061	13485.17
813.39	13468.67
813.719	13447.65
814.049	13466.64
814.378	13393.65
814.707	13373.76
815.036	13305.96
815.365	13248.11
815.693	13097.38
816.022	13242.46
816.351	13200.43
816.68	13072.07
817.008	13156.36
817.337	12988.46
817.665	13030.04
817.994	13109.81
818.322	13002.69
818.651	12916.14
818.979	12992.75
819.307	12964.5
819.636	12912.53
819.964	12866.88
820.292	12919.53
820.62	12912.98
820.948	12880.21
821.276	12875.47
821.604	12882.25
821.932	12919.53
822.259	12863.94
822.587	12991.17
822.915	12869.37
823.243	12945.75
823.57	12840.89
823.898	12889.48
824.225	12817.39
824.553	12878.18
824.88	12858.74
825.207	12872.3
825.535	12876.6
825.862	12858.29
826.189	12836.6
826.516	12891.51
826.843	12987.1
827.17	12848.57
827.497	12983.26
827.824	12937.84
828.151	12864.85
828.478	12961.57
828.805	12965.41
829.131	12852.87
829.458	12876.6
829.785	12810.84
830.111	12825.75
830.438	12964.96
830.764	12897.39
831.09	12943.94
831.417	12862.36
831.743	12907.78
832.069	12856.03
832.395	12832.3
832.722	12841.34
833.048	12766.99
833.374	12842.93
833.7	12752.53
834.026	12807.67
834.351	12743.72
834.677	12757.5
835.003	12714.11
835.329	12747.11
835.654	12691.52
835.98	12648.13
836.306	12679.99
836.631	12668.92
836.956	12687.9
837.282	12676.6
837.607	12618.07
837.932	12679.99
838.258	12592.76
838.583	12642.7
838.908	12536.04
839.233	12569.71
839.558	12519.54
839.883	12579.43
840.208	12488.13
840.533	12432.77
840.858	12381.69
841.182	12424.86
841.507	12430.05
841.832	12282.49
842.156	12324.07
842.481	12223.51
842.805	12316.39
843.13	12209.27
843.454	12301.24
843.778	12131.98
844.103	12224.64
844.427	12100.12
844.751	12077.52
845.075	11994.81
845.399	12028.71
845.723	11993.91
846.047	12045.43
846.371	11917.3
846.695	11953.68
847.019	11768.15
847.343	11762.5
847.666	11731.09
847.99	11676.63
848.313	11665.1
848.637	11642.5
848.96	11516.63
849.284	11469.85
849.607	11491.55
849.931	11393.47
850.254	11365.45
850.577	11320.71
850.9	11251.55
851.223	11223.08
851.546	11160.26
851.869	11149.64
852.192	11150.09
852.515	11049.98
852.838	11073.48
853.161	11075.74
853.483	11009.53
853.806	10882.3
854.129	10861.28
854.451	10836.42
854.774	10757.78
855.096	10776.76
855.419	10698.12
855.741	10685.69
856.063	10639.14
856.385	10621.06
856.708	10596.66
857.03	10581.52
857.352	10568.18
857.674	10494.06
857.996	10530.67
858.318	10393.27
858.64	10395.08
858.961	10431.91
859.283	10332.93
859.605	10300.62
859.926	10337.91
860.248	10290
860.57	10234.41
860.891	10292.03
861.212	10238.47
861.534	10114.41
861.855	10176.1
862.176	10137.01
862.498	10131.58
862.819	10168.42
863.14	10110.57
863.461	10036.45
863.782	9973.4
864.103	10001.19
864.424	9966.62
864.745	9987.86
865.065	9956.9
865.386	9922.78
865.707	9959.39
866.027	9932.95
866.348	9896.34
866.668	9934.98
866.989	9804.81
867.309	9770.92
867.63	9811.37
867.95	9772.5
868.27	9817.92
868.59	9796
868.91	9692.5
869.23	9750.35
869.55	9706.74
869.87	9728.43
870.19	9683.91
870.51	9657.7
870.83	9656.79
871.15	9568.43
871.469	9630.13
871.789	9605.5
872.109	9675.55
872.428	9541.77
872.748	9627.64
873.067	9526.85
873.386	9552.39
873.706	9525.95
874.025	9491.83
874.344	9473.75
874.663	9485.5
874.982	9490.92
875.301	9451.83
875.62	9398.95
875.939	9442.34
876.258	9370.25
876.577	9336.8
876.896	9376.58
877.214	9356.46
877.533	9312.85
877.852	9295.67
878.17	9270.82
878.489	9316.24
878.807	9277.6
879.125	9241.21
879.444	9227.88
879.762	9210.93
880.08	9182
880.398	9266.3
880.716	9248.9
881.034	9139.29
881.352	9165.28
881.67	9153.76
881.988	9125.06
882.306	9147.88
882.624	9077.83
882.941	9009.13
883.259	9030.37
883.577	9022.69
883.894	8971.16
884.212	8885.29
884.529	8986.3
884.846	8849.36
885.164	8853.65
885.481	8896.14
885.798	8910.37
886.115	8845.97
886.432	8868.11
886.75	8791.28
887.067	8785.63
887.383	8760.77
887.7	8761.68
888.017	8737.95
888.334	8711.28
888.651	8681.9
888.967	8611.4
889.284	8638.52
889.6	8636.48
889.917	8497.95
890.233	8548.35
890.55	8546.99
890.866	8490.95
891.182	8398.3
891.498	8450.95
891.815	8466.32
892.131	8351.29
892.447	8385.42
892.763	8387
893.079	8331.86
893.395	8323.27
893.71	8284.17
894.026	8268.81
894.342	8286.43
894.657	8166.66
894.973	8154.46
895.289	8108.81
895.604	8165.31
895.92	8061.58
896.235	7988.36
896.55	8099.32
896.865	8056.61
897.181	8001.7
897.496	7967.12
897.811	7945.65
898.126	7945.43
898.441	7829.5
898.756	7838.99
899.071	7754.25
899.386	7808.93
899.7	7755.83
900.015	7740.69
900.33	7691.2
900.644	7650.07
900.959	7646
901.273	7625.21
901.588	7560.8
901.902	7543.18
902.216	7512.44
902.531	7496.62
902.845	7453.01
903.159	7437.64
903.473	7398.55
903.787	7341.15
904.101	7315.61
904.415	7301.15
904.729	7327.36
905.042	7246.46
905.356	7221.15
905.67	7262.51
905.984	7179.35
906.297	7157.42
906.611	7117.88
906.924	7089.4
907.237	7092.34
907.551	7062.74
907.864	7068.84
908.177	7017.99
908.491	7028.16
908.804	6996.07
909.117	6943.19
909.43	6913.14
909.743	6846.47
910.056	6814.83
910.368	6781.62
910.681	6732.58
910.994	6746.81
911.307	6742.52
911.619	6715.85
911.932	6606.25
912.244	6643.77
912.557	6623.65
912.869	6606.93
913.181	6576.88
913.494	6492.81
913.806	6512.24
914.118	6488.74
914.43	6433.6
914.742	6476.76
915.054	6385.02
915.366	6361.97
915.678	6316.54
915.99	6400.83
916.302	6299.59
916.613	6293.94
916.925	6200.84
917.236	6232.48
917.548	6210.78
917.859	6170.33
918.171	6182.54
918.482	6109.09
918.794	6087.4
919.105	6085.81
919.416	6055.31
919.727	6018.92
920.038	5990.68
920.349	5964.24
920.66	5923.11
920.971	5956.33
921.282	5891.24
921.593	5899.15
921.903	5836.33
922.214	5832.26
922.525	5845.82
922.835	5758.37
923.146	5757.91
923.456	5723.56
923.767	5721.53
924.077	5745.48
924.387	5676.11
924.697	5663.23
925.008	5652.38
925.318	5606.96
925.628	5612.15
925.938	5592.49
926.248	5538.71
926.558	5498.26
926.867	5507.75
927.177	5501.88
927.487	5448.32
927.796	5459.62
928.106	5397.47
928.416	5379.62
928.725	5411.03
929.034	5309.79
929.344	5320.86
929.653	5280.86
929.962	5278.6
930.271	5260.07
930.581	5270.02
930.89	5226.63
931.199	5208.78
931.508	5181.21
931.817	5144.6
932.125	5134.2
932.434	5131.04
932.743	5061.21
933.051	5070.93
933.36	5027.99
933.669	5029.57
933.977	4994.77
934.286	4990.7
934.594	4949.12
934.902	4953.41
935.21	4934.88
935.519	4923.36
935.827	4905.51
936.135	4837.71
936.443	4811.05
936.751	4865.73
937.059	4757.04
937.367	4749.58
937.674	4799.29
937.982	4770.59
938.29	4735.79
938.597	4738.96
938.905	4654.67
939.213	4675.91
939.52	4638.62
939.827	4656.47
940.135	4629.36
940.442	4585.06
940.749	4570.37
941.056	4569.02
941.363	4548.45
941.67	4527.89
941.977	4524.27
942.284	4438.17
942.591	4466.2
942.898	4434.11
943.205	4451.06
943.511	4424.16
943.818	4381
944.125	4356.37
944.431	4354.11
944.738	4267.33
945.044	4295.58
945.35	4286.09
945.657	4244.96
945.963	4258.52
946.269	4243.38
946.575	4204.06
946.881	4183.72
947.187	4192.53
947.493	4177.16
947.799	4146.88
948.105	4113.66
948.41	4077.05
948.716	4109.14
949.022	4068.47
949.327	4084.06
949.633	4000.45
949.938	4045.64
950.244	4018.3
950.549	4003.16
950.854	4010.84
951.16	3975.81
951.465	3948.02
951.77	3893.78
952.075	3898.3
952.38	3857.62
952.685	3847
952.99	3806.55
953.294	3831.86
953.599	3846.78
953.904	3826.89
954.209	3764.97
954.513	3763.16
954.818	3778.98
955.122	3747.8
955.426	3708.48
955.731	3707.8
956.035	3680.91
956.339	3692.21
956.643	3653.34
956.948	3679.55
957.252	3643.62
957.556	3607.46
957.86	3635.48
958.163	3585.77
958.467	3625.09
958.771	3610.85
959.075	3527.01
959.378	3561.59
959.682	3505.32
959.985	3486.79
960.289	3483.4
960.592	3482.72
960.896	3490.85
961.199	3460.57
961.502	3455.15
961.805	3452.89
962.108	3366.11
962.411	3381.25
962.714	3339.45
963.017	3348.03
963.32	3359.11
963.623	3317.75
963.926	3322.95
964.228	3264.19
964.531	3252.89
964.833	3306.9
965.136	3261.26
965.438	3239.79
965.741	3195.72
966.043	3224.87
966.345	3226.23
966.648	3186.68
966.95	3194.82
967.252	3169.06
967.554	3182.61
967.856	3104.65
968.158	3091.77
968.46	3119.79
968.761	3081.37
969.063	3103.75
969.365	3042.5
969.666	3078.21
969.968	3015.39
970.269	3016.74
970.571	2992.56
970.872	2956.63
971.174	2964.99
971.475	2974.03
971.776	2998.89
972.077	2934.03
972.378	2938.55
972.679	2941.49
972.98	2922.73
973.281	2915.5
973.582	2885.9
973.883	2852.91
974.183	2835.5
974.484	2843.41
974.785	2826.47
975.085	2793.02
975.386	2805.9
975.686	2824.88
975.986	2775.85
976.287	2775.85
976.587	2773.36
976.887	2755.96
977.187	2734.49
977.487	2748.73
977.787	2737.65
978.087	2683.64
978.387	2698.78
978.687	2681.16
978.987	2683.42
979.286	2661.5
979.586	2660.59
979.885	2641.61
980.185	2610.43
980.484	2603.87
980.784	2589.64
981.083	2559.81
981.382	2564.1
981.682	2573.36
981.981	2551.67
982.28	2550.99
982.579	2494.27
982.878	2519.81
983.177	2533.59
983.475	2479.81
983.774	2470.54
984.073	2453.37
984.372	2456.98
984.67	2431.67
984.969	2452.01
985.267	2458.57
985.566	2448.85
985.864	2420.83
986.162	2405.46
986.461	2385.57
986.759	2385.8
987.057	2369.75
987.355	2367.72
987.653	2380.83
987.951	2306.7
988.249	2347.38
988.547	2305.8
988.844	2305.8
989.142	2318
989.44	2281.17
989.737	2264.45
990.035	2274.62
990.332	2263.77
990.63	2241.85
990.927	2266.25
991.224	2235.75
991.521	2242.07
991.819	2192.58
992.116	2220.38
992.413	2176.99
992.71	2164.11
993.006	2167.5
993.303	2145.13
993.6	2145.81
993.897	2151
994.193	2128.63
994.49	2115.3
994.787	2087.5
995.083	2078.01
995.379	2070.33
995.676	2091.57
995.972	2067.39
996.268	2074.17
996.565	2064.45
996.861	2041.63
997.157	2035.53
997.453	1980.16
997.749	2026.49
998.044	1953.04
998.34	1999.82
998.636	1981.74
998.932	1960.5
999.227	1978.58
999.523	1984
999.818	1920.05
1000.114	1985.58
1000.409	1915.08
1000.704	1903.78
1001	1910.56
1001.295	1870.78
1001.59	1862.42
1001.885	1863.1
1002.18	1881.86
1002.475	1851.35
1002.77	1828.3
1003.065	1821.29
1003.359	1819.49
1003.654	1835.98
1003.949	1805.7
1004.243	1791.69
1004.538	1773.16
1004.832	1774.97
1005.127	1757.57
1005.421	1759.15
1005.715	1749.88
1006.009	1747.17
1006.304	1712.14
1006.598	1732.48
1006.892	1715.31
1007.186	1698.36
1007.48	1689.32
1007.773	1666.72
1008.067	1700.39
1008.361	1645.93
1008.655	1631.24
1008.948	1629.43
1009.242	1648.19
1009.535	1643.67
1009.829	1620.85
1010.122	1596.67
1010.415	1613.62
1010.708	1612.26
1011.001	1609.32
1011.295	1546.5
1011.588	1604.58
1011.881	1575.88
1012.173	1528.19
1012.466	1524.8
1012.759	1527.52
1013.052	1514.18
1013.344	1520.96
1013.637	1512.38
1013.93	1483.9
1014.222	1458.14
1014.514	1479.38
1014.807	1476.44
1015.099	1467.63
1015.391	1457.01
1015.683	1438.93
1015.976	1455.43
1016.268	1434.86
1016.56	1400.06
1016.851	1399.84
1017.143	1421.3
1017.435	1397.8
1017.727	1375.88
1018.018	1358.48
1018.31	1362.55
1018.602	1369.1
1018.893	1356
1019.185	1346.28
1019.476	1337.69
1019.767	1322.1
1020.058	1315.77
1020.35	1330.01
1020.641	1316.9
1020.932	1296.11
1021.223	1268.31
1021.514	1261.31
1021.804	1271.03
1022.095	1246.39
1022.386	1253.17
1022.677	1229.22
1022.967	1227.86
1023.258	1220.18
1023.548	1203.91
1023.839	1204.36
1024.129	1193.51
1024.419	1206.62
1024.709	1204.81
1025	1205.72
1025.29	1169.79
1025.58	1165.49
1025.87	1166.62
1026.16	1147.41
1026.449	1156.68
1026.739	1146.06
1027.029	1156.68
1027.319	1141.31
1027.608	1105.61
1027.898	1085.49
1028.187	1091.6
1028.477	1092.05
1028.766	1092.27
1029.055	1082.56
1029.344	1071.48
1029.634	1075.1
1029.923	1047.08
1030.212	1031.71
1030.501	1079.62
1030.79	1044.82
1031.078	1009.56
1031.367	1016.34
1031.656	1016.12
1031.945	1024.03
1032.233	996.68
1032.522	1025.61
1032.81	1003.91
1033.099	986.74
1033.387	986.74
1033.675	988.77
1033.963	979.51
1034.251	982.22
1034.54	969.79
1034.828	962.56
1035.116	956.23
1035.403	916.91
1035.691	931.6
1035.979	948.1
1036.267	908.55
1036.554	914.2
1036.842	937.25
1037.129	905.61
1037.417	894.76
1037.704	887.53
1037.992	917.14
1038.279	874.88
1038.566	889.12
1038.853	889.12
1039.14	889.12
