Data from hue_180_FLMS001491_00053.txt Node
Date: Tue Feb 07 16:47:10 GMT 2017
User: dcchb
Spectrometer: FLMS00149
Trigger mode: 0
Integration Time (sec): 2.000000E-2
Scans to average: 10
Electric dark correction enabled: true
Nonlinearity correction enabled: false
Boxcar width: 0
XAxis mode: Wavelengths
Number of Pixels in Spectrum: 2048
>>>>>Begin Spectral Data<<<<<
341.393	4.12
341.776	4.12
342.16	4.12
342.543	-46.95
342.927	-85.14
343.31	-77.91
343.693	-74.74
344.077	-63.67
344.46	-55.76
344.843	-61.18
345.226	-46.5
345.61	-38.13
345.993	-12.6
346.376	-3.33
346.759	6.61
347.142	27.4
347.525	59.26
347.908	54.29
348.291	93.84
348.674	73.27
349.057	119.15
349.44	146.95
349.823	135.65
350.206	169.54
350.588	211.35
350.971	215.19
351.354	235.53
351.737	249.99
352.119	253.84
352.502	255.64
352.884	254.97
353.267	279.37
353.65	292.48
354.032	280.28
354.414	299.94
354.797	306.72
355.179	313.72
355.562	310.33
355.944	303.1
356.326	324.34
356.709	314.62
357.091	345.81
357.473	322.53
357.855	358.69
358.238	329.54
358.62	342.87
359.002	321.63
359.384	342.19
359.766	348.07
360.148	316.21
360.53	341.97
360.912	337.9
361.294	325.47
361.676	334.74
362.057	341.06
362.439	331.35
362.821	326.15
363.203	307.62
363.584	321.86
363.966	328.64
364.348	332.7
364.729	319.37
365.111	305.36
365.493	307.62
365.874	297.45
366.256	306.26
366.637	328.64
367.019	298.81
367.4	310.56
367.781	317.79
368.163	311.69
368.544	325.02
368.925	317.11
369.306	310.33
369.688	302.65
370.069	305.59
370.45	313.72
370.831	308.3
371.212	320.95
371.593	320.95
371.974	306.94
372.355	301.29
372.736	318.01
373.117	292.7
373.498	289.99
373.879	304
374.26	322.99
374.641	325.02
375.021	292.7
375.402	327.28
375.783	308.97
376.163	336.32
376.544	336.54
376.925	318.24
377.305	317.11
377.686	312.36
378.066	332.03
378.447	322.08
378.827	329.77
379.208	328.41
379.588	320.5
379.968	321.4
380.349	337.67
380.729	337
381.109	328.41
381.489	339.26
381.87	339.03
382.25	347.17
382.63	355.75
383.01	347.84
383.39	328.18
383.77	329.31
384.15	327.05
384.53	354.17
384.91	347.84
385.29	345.13
385.67	359.6
386.049	357.79
386.429	357.79
386.809	363.89
387.189	346.49
387.568	337.22
387.948	351.46
388.328	367.28
388.707	364.57
389.087	365.47
389.466	361.4
389.846	380.84
390.225	383.1
390.605	374.06
390.984	350.56
391.363	352.36
391.743	384.68
392.122	377.22
392.501	370.67
392.881	362.31
393.26	372.02
393.639	359.37
394.018	386.04
394.397	374.28
394.776	378.35
395.155	392.59
395.534	371.12
395.913	379.93
396.292	391.68
396.671	386.49
397.05	389.42
397.429	399.14
397.808	398.69
398.186	386.49
398.565	386.49
398.944	400.5
399.323	393.27
399.701	419.03
400.08	387.16
400.458	406.83
400.837	420.61
401.215	417.45
401.594	403.44
401.972	413.15
402.351	405.7
402.729	409.09
403.107	414.96
403.486	430.1
403.864	416.32
404.242	434.62
404.62	412.25
404.999	408.63
405.377	439.37
405.755	456.77
406.133	436.66
406.511	460.38
406.889	466.48
407.267	476.43
407.645	458.35
408.023	482.76
408.401	483.89
408.779	476.88
409.156	482.08
409.534	497.67
409.912	498.35
410.29	500.16
410.667	520.72
411.045	525.01
411.422	500.83
411.8	521.17
412.178	530.21
412.555	568.4
412.933	544
413.31	558.23
413.687	566.14
414.065	573.37
414.442	571.34
414.819	578.35
415.197	590.55
415.574	586.71
415.951	595.07
416.328	613.83
416.705	628.51
417.082	631
417.46	639.81
417.837	624.9
418.214	642.98
418.591	654.05
418.967	649.53
419.344	649.98
419.721	665.58
420.098	668.97
420.475	677.33
420.852	675.97
421.228	696.31
421.605	718.23
421.982	717.78
422.358	705.12
422.735	736.76
423.111	750.77
423.488	756.19
423.864	779.7
424.241	776.08
424.617	788.96
424.994	814.72
425.37	788.06
425.746	810.2
426.123	870.54
426.499	821.96
426.875	860.82
427.251	863.54
427.627	896.53
428.003	899.69
428.379	907.15
428.756	892.46
429.132	923.87
429.507	940.82
429.883	928.62
430.259	956.19
430.635	953.48
431.011	966.81
431.387	961.39
431.763	994.83
432.138	991.22
432.514	1005.23
432.89	1034.38
433.265	1077.77
433.641	1060.14
434.016	1091.55
434.392	1103.53
434.767	1115.06
435.143	1147.14
435.518	1150.53
435.894	1154.83
436.269	1181.49
436.644	1223.75
437.02	1215.39
437.395	1218.33
437.77	1263.98
438.145	1263.75
438.52	1260.36
438.895	1287.25
439.271	1295.16
439.646	1347.14
440.021	1339.46
440.395	1359.12
440.77	1343.75
441.145	1379.23
441.52	1415.39
441.895	1451.09
442.27	1455.61
442.645	1417.42
443.019	1451.54
443.394	1448.15
443.769	1508.27
444.143	1487.48
444.518	1522.28
444.892	1535.84
445.267	1526.34
445.641	1546.46
446.016	1556.63
446.39	1572.9
446.764	1606.79
447.139	1587.59
447.513	1634.14
447.887	1605.89
448.262	1629.62
448.636	1657.64
449.01	1652.67
449.384	1651.54
449.758	1699.67
450.132	1692.89
450.506	1742.84
450.88	1749.39
451.254	1742.38
451.628	1757.98
452.002	1797.98
452.376	1781.48
452.75	1818.31
453.123	1854.92
453.497	1861.25
453.871	1895.37
454.244	1907.35
454.618	1914.58
454.992	1892.66
455.365	1972.66
455.739	1990.74
456.112	2018.53
456.486	2027.57
456.859	2062.83
457.232	2113.67
457.606	2124.07
457.979	2106.22
458.352	2144.18
458.725	2193.45
459.099	2225.99
459.472	2256.95
459.845	2291.3
460.218	2300.33
460.591	2312.99
460.964	2326.55
461.337	2407.68
461.71	2402.48
462.083	2461.69
462.456	2501.23
462.829	2510.72
463.201	2519.76
463.574	2561.57
463.947	2601.8
464.32	2630.27
464.692	2676.82
465.065	2689.48
465.438	2750.49
465.81	2807.44
466.183	2820.77
466.555	2855.35
466.928	2926.31
467.3	2888.12
467.672	2938.06
468.045	3022.12
468.417	3074.55
468.789	3063.48
469.161	3116.81
469.534	3152.74
469.906	3278.61
470.278	3303.92
470.65	3329.23
471.022	3358.84
471.394	3463.69
471.766	3497.14
472.138	3549.12
472.51	3621.88
472.882	3681.32
473.253	3736.91
473.625	3798.83
473.997	3897.81
474.369	3865.94
474.74	3948.88
475.112	4051.93
475.484	4103.45
475.855	4168.53
476.227	4227.74
476.598	4409.21
476.97	4425.48
477.341	4472.93
477.713	4564.91
478.084	4629.09
478.455	4791.34
478.827	4853.04
479.198	4977.33
479.569	4968.29
479.94	5114.72
480.311	5180.03
480.682	5341.38
481.053	5442.4
481.424	5577.08
481.795	5565.79
482.166	5748.61
482.537	5808.94
482.908	5929.84
483.279	6041.03
483.65	6086.9
484.021	6270.63
484.391	6352.88
484.762	6415.03
485.133	6495.03
485.503	6637.85
485.874	6757.17
486.244	6862.93
486.615	6951.06
486.985	7101.56
487.356	7182.92
487.726	7308.11
488.097	7473.31
488.467	7518.73
488.837	7606.41
489.207	7739.06
489.578	7850.47
489.948	7957.59
490.318	8112.16
490.688	8102.89
491.058	8336.33
491.428	8384.02
491.798	8447.74
492.168	8619.94
492.538	8693.16
492.908	8758.24
493.278	8896.32
493.648	8898.58
494.017	9094.51
494.387	9153.26
494.757	9104.9
495.126	9305.57
495.496	9320.04
495.866	9433.48
496.235	9486.13
496.605	9534.72
496.974	9606.13
497.344	9762.51
497.713	9765.68
498.082	9864.66
498.452	10033.01
498.821	9934.48
499.19	10089.28
499.559	10112.11
499.928	10147.13
500.298	10217.41
500.667	10354.59
501.036	10241.6
501.405	10457.41
501.774	10407.24
502.143	10472.1
502.512	10488.14
502.88	10601.59
503.249	10611.3
503.618	10606.33
503.987	10712.54
504.356	10760.68
504.724	10826.89
505.093	10839.09
505.462	10843.84
505.83	10915.93
506.199	10999.54
506.567	11073.89
506.936	11058.97
507.304	11101.23
507.672	11110.27
508.041	11131.74
508.409	11169.71
508.777	11297.16
509.145	11371.06
509.514	11296.03
509.882	11390.27
510.25	11352.07
510.618	11422.58
510.986	11446.08
511.354	11539.64
511.722	11517.72
512.09	11596.81
512.458	11571.5
512.826	11652.18
513.193	11598.85
513.561	11668
513.929	11710.48
514.297	11742.57
514.664	11745.28
515.032	11838.16
515.4	11854.21
515.767	11777.6
516.135	11877.26
516.502	11755
516.869	12015.33
517.237	11911.38
517.604	11899.63
517.972	12040.42
518.339	11995.67
518.706	11945.51
519.073	11975.56
519.44	12020.98
519.808	12022.57
520.175	12013.07
520.542	12132.39
520.909	12149.12
521.276	12121.09
521.643	12184.37
522.009	12197.25
522.376	12235.67
522.743	12210.36
523.11	12227.76
523.477	12294.42
523.843	12356.12
524.21	12412.61
524.577	12427.98
524.943	12407.87
525.31	12399.5
525.676	12411.03
526.043	12434.31
526.409	12440.63
526.776	12498.48
527.142	12507.98
527.508	12509.56
527.874	12521.08
528.241	12544.81
528.607	12420.75
528.973	12511.37
529.339	12475.66
529.705	12570.12
530.071	12461.42
530.437	12479.5
530.803	12525.6
531.169	12503.91
531.535	12478.82
531.901	12456.9
532.267	12384.82
532.632	12371.93
532.998	12437.47
533.364	12354.53
533.73	12394.53
534.095	12367.87
534.461	12338.72
534.826	12385.95
535.192	12262.33
535.557	12338.94
535.923	12243.35
536.288	12112.05
536.653	12176.23
537.019	12012.62
537.384	12037.25
537.749	12053.3
538.114	11951.15
538.479	11927.2
538.845	11973.3
539.21	11897.6
539.575	11874.77
539.94	11791.84
540.305	11772.18
540.67	11727.88
541.034	11691.05
541.399	11685.62
541.764	11700.99
542.129	11559.53
542.494	11579.87
542.858	11580.77
543.223	11519.98
543.587	11486.99
543.952	11435.91
544.316	11484.73
544.681	11310.49
545.045	11328.8
545.41	11345.52
545.774	11277.05
546.138	11201.12
546.503	11156.6
546.867	11164.96
547.231	11141.23
547.595	11117.96
547.959	10983.95
548.324	10999.32
548.688	10954.34
549.052	10910.5
549.416	10933.78
549.779	10842.48
550.143	10882.93
550.507	10783.05
550.871	10733.79
551.235	10690.62
551.599	10735.82
551.962	10616.5
552.326	10597.74
552.689	10589.38
553.053	10550.29
553.417	10566.56
553.78	10550.29
554.143	10406.79
554.507	10486.56
554.87	10426.45
555.234	10457.86
555.597	10387.81
555.96	10390.97
556.323	10380.35
556.686	10430.97
557.05	10330.86
557.413	10316.17
557.776	10246.79
558.139	10238.88
558.502	10225.1
558.865	10161.82
559.228	10268.04
559.59	10177.64
559.953	10145.55
560.316	10238.21
560.679	10131.77
561.041	10198.88
561.404	10162.05
561.767	10201.14
562.129	10163.63
562.492	10153.01
562.854	10221.71
563.217	10122.28
563.579	10141.94
563.941	10114.37
564.304	10163.18
564.666	10137.87
565.028	10171.54
565.39	10141.26
565.753	10150.98
566.115	10149.62
566.477	10166.34
566.839	10163.41
567.201	10148.72
567.563	10127.25
567.925	10205.89
568.287	10141.26
568.648	10169.05
569.01	10229.84
569.372	10157.76
569.734	10141.03
570.095	10198.66
570.457	10174.25
570.819	10200.24
571.18	10176.74
571.542	10176.29
571.903	10185.33
572.265	10231.43
572.626	10192.33
572.987	10129.28
573.349	10247.7
573.71	10224.87
574.071	10264.42
574.432	10239.11
574.794	10332.21
575.155	10253.8
575.516	10256.74
575.877	10255.15
576.238	10324.08
576.599	10278.88
576.96	10293.12
577.32	10247.24
577.681	10285.89
578.042	10282.72
578.403	10240.47
578.763	10255.15
579.124	10264.87
579.485	10323.17
579.845	10325.66
580.206	10256.06
580.566	10179.9
580.927	10222.16
581.287	10227.13
581.648	10175.61
582.008	10315.72
582.368	10219.9
582.728	10289.73
583.089	10242.73
583.449	10171.54
583.809	10133.8
584.169	10161.37
584.529	10190.52
584.889	10285.89
585.249	10095.16
585.609	10123.41
585.969	10176.51
586.329	10120.47
586.688	10137.19
587.048	10097.19
587.408	10063.07
587.768	10126.34
588.127	10078.21
588.487	10065.33
588.846	10128.15
589.206	10056.74
589.565	10042.5
589.925	10056.29
590.284	10038.21
590.643	10040.24
591.003	10033.46
591.362	10080.7
591.721	9979.46
592.08	10035.05
592.44	9997.08
592.799	10051.54
593.158	9972.9
593.517	10040.7
593.876	9997.99
594.235	9933.81
594.593	9965.22
594.952	10015.84
595.311	9925.22
595.67	9884.09
596.029	10002.51
596.387	9931.55
596.746	9960.92
597.104	9976.52
597.463	9868.05
597.822	10003.41
598.18	9865.11
598.538	9892.23
598.897	9943.98
599.255	9791.89
599.613	9909.63
599.972	9917.76
600.33	9868.72
600.688	9823.3
601.046	9917.76
601.404	9936.29
601.762	9959.34
602.12	9956.18
602.478	9939.23
602.836	9931.32
603.194	9860.59
603.552	9853.58
603.91	9840.02
604.268	9830.76
604.625	9770.2
604.983	9856.75
605.341	9803.41
605.698	9817.2
606.056	9875.28
606.413	9882.51
606.771	9864.88
607.128	9832.11
607.485	9797.09
607.843	9752.57
608.2	9854.71
608.557	9983.07
608.914	9770.65
609.272	9863.53
609.629	9894.94
609.986	9888.61
610.343	9868.05
610.7	9925.67
611.057	9858.55
611.414	9887.03
611.771	9940.13
612.127	9989.85
612.484	9941.26
612.841	10002.96
613.198	9966.12
613.554	9936.52
613.911	10034.14
614.267	10011.54
614.624	9909.63
614.98	9937.65
615.337	9979
615.693	10051.54
616.05	9954.6
616.406	10039.79
616.762	10005.22
617.118	9990.98
617.475	9930.64
617.831	10025.1
618.187	10113.24
618.543	10057.65
618.899	10101.71
619.255	10058.55
619.611	10036.85
619.967	10090.41
620.323	10137.64
620.678	10033.69
621.034	10098.55
621.39	10022.62
621.746	10054.93
622.101	10112.11
622.457	10083.18
622.812	10115.72
623.168	10106.46
623.523	10020.58
623.879	10163.18
624.234	10064.65
624.589	10097.19
624.945	10142.84
625.3	10057.87
625.655	10044.99
626.01	10030.3
626.365	10089.73
626.72	10028.04
627.075	10044.09
627.43	10078.89
627.785	9974.48
628.14	10086.57
628.495	9970.42
628.85	10127.7
629.205	9976.97
629.559	10033.69
629.914	10007.48
630.269	9981.71
630.623	10007.7
630.978	10024.88
631.332	9951.21
631.687	9996.18
632.041	9922.28
632.396	9949.4
632.75	9939.23
633.104	9907.59
633.459	9874.83
633.813	9885.45
634.167	9909.63
634.521	9918.21
634.875	9883.86
635.229	9881.38
635.583	9793.92
635.937	9788.27
636.291	9799.57
636.645	9826.69
636.999	9746.01
637.352	9786.92
637.706	9669.86
638.06	9677.32
638.413	9713.47
638.767	9739.24
639.121	9675.51
639.474	9640.25
639.828	9732.68
640.181	9684.32
640.534	9698.78
640.888	9577.43
641.241	9584.44
641.594	9621.5
641.947	9641.16
642.301	9498.11
642.654	9644.77
643.007	9584.66
643.36	9700.14
643.713	9645.23
644.066	9602.06
644.419	9541.27
644.771	9529.52
645.124	9421.28
645.477	9414.05
645.83	9345.35
646.182	9300.83
646.535	9299.02
646.888	9291.56
647.24	9239.59
647.593	9349.19
647.945	9336.08
648.298	9232.13
648.65	9267.84
649.002	9254.95
649.355	9252.24
649.707	9300.6
650.059	9302.86
650.411	9364.56
650.763	9393.71
651.115	9503.99
651.467	9439.36
651.819	9418.34
652.171	9481.16
652.523	9420.37
652.875	9443.88
653.227	9418.79
653.578	9464.89
653.93	9479.36
654.282	9489.75
654.633	9365.23
654.985	9426.93
655.337	9479.58
655.688	9447.72
656.039	9468.06
656.391	9444.78
656.742	9454.05
657.094	9533.59
657.445	9525.46
657.796	9486.36
658.147	9460.37
658.498	9468.73
658.849	9544.66
659.2	9471.22
659.551	9479.36
659.902	9512.35
660.253	9524.78
660.604	9487.49
660.955	9473.25
661.306	9514.61
661.656	9501.95
662.007	9494.95
662.358	9493.37
662.708	9534.72
663.059	9521.84
663.409	9492.01
663.76	9504.44
664.11	9504.89
664.461	9476.87
664.811	9490.88
665.161	9495.63
665.511	9473.03
665.862	9548.73
666.212	9543.08
666.562	9485.91
666.912	9541.95
667.262	9510.54
667.612	9517.77
667.962	9524.55
668.312	9466.47
668.662	9546.7
669.011	9551.67
669.361	9481.84
669.711	9549.18
670.06	9453.37
670.41	9508.73
670.76	9516.42
671.109	9543.31
671.459	9426.25
671.808	9474.38
672.157	9528.62
672.507	9412.69
672.856	9475.29
673.205	9454.95
673.554	9481.39
673.904	9417.66
674.253	9474.84
674.602	9459.69
674.951	9294.73
675.3	9237.55
675.649	9394.84
675.998	9316.65
676.346	9354.39
676.695	9387.38
677.044	9292.02
677.393	9354.16
677.741	9370.43
678.09	9339.7
678.438	9283.65
678.787	9299.7
679.135	9322.07
679.484	9258.12
679.832	9246.59
680.181	9241.4
680.529	9329.08
680.877	9214.28
681.225	9141.06
681.573	9256.08
681.922	9142.41
682.27	9157.33
682.618	9172.7
682.966	9134.28
683.314	9078.91
683.661	9071.68
684.009	9081.63
684.357	8982.65
684.705	9028.29
685.053	9074.39
685.4	9024.23
685.748	9005.7
686.095	8930.9
686.443	8908.97
686.79	8880.73
687.138	8929.77
687.485	8866.49
687.832	8774.74
688.18	8859.03
688.527	8785.14
688.874	8776.32
689.221	8749.43
689.568	8688.64
689.915	8766.83
690.262	8734.97
690.609	8612.71
690.956	8579.04
691.303	8618.36
691.65	8559.15
691.997	8557.57
692.344	8502.88
692.69	8470.79
693.037	8499.72
693.383	8421.08
693.73	8442.55
694.077	8373.17
694.423	8357.12
694.769	8297.47
695.116	8286.39
695.462	8289.33
695.808	8297.92
696.155	8205.49
696.501	8172.27
696.847	8145.15
697.193	8110.8
697.539	8137.24
697.885	8073.97
698.231	8040.98
698.577	8017.7
698.923	7996.23
699.269	7906.97
699.614	7930.02
699.96	7884.82
700.306	7867.19
700.651	7848.44
700.997	7837.14
701.342	7818.38
701.688	7747.2
702.033	7727.08
702.379	7724.6
702.724	7698.39
703.069	7684.37
703.415	7606.64
703.76	7667.2
704.105	7619.29
704.45	7609.8
704.795	7497.49
705.14	7491.16
705.485	7454.1
705.83	7454.1
706.175	7464.94
706.52	7390.14
706.865	7351.95
707.209	7335
707.554	7311.28
707.899	7328.68
708.243	7332.07
708.588	7239.41
708.932	7212.07
709.277	7219.75
709.621	7187.89
709.966	7145.86
710.31	7164.16
710.654	7092.53
710.998	7162.81
711.342	7115.8
711.687	7061.57
712.031	7051.17
712.375	7069.48
712.719	7038.74
713.063	7030.61
713.407	7002.36
713.75	7004.62
714.094	6996.26
714.438	6965.3
714.782	7023.83
715.125	6952.87
715.469	7014.34
715.812	6913.1
716.156	6885.3
716.499	6931.4
716.843	6857.05
717.186	6909.25
717.53	6896.82
717.873	6834.68
718.216	6911.97
718.559	6837.62
718.902	6761.46
719.246	6773.89
719.589	6758.3
719.932	6699.32
720.275	6767.11
720.617	6744.96
720.96	6768.92
721.303	6720.11
721.646	6782.25
721.989	6656.6
722.331	6758.52
722.674	6653.44
723.016	6678.98
723.359	6676.04
723.701	6714.68
724.044	6665.87
724.386	6612.76
724.729	6645.76
725.071	6655.93
725.413	6666.77
725.755	6647.11
726.097	6672.88
726.439	6589.71
726.782	6641.46
727.124	6672.65
727.465	6549.26
727.807	6602.82
728.149	6550.17
728.491	6629.94
728.833	6616.38
729.175	6615.25
729.516	6564.63
729.858	6554.46
730.199	6601.46
730.541	6594.91
730.882	6594.01
731.224	6600.33
731.565	6526.44
731.906	6572.09
732.248	6617.06
732.589	6550.84
732.93	6540.22
733.271	6537.29
733.612	6559.66
733.953	6592.65
734.294	6601.24
734.635	6587.23
734.976	6612.54
735.317	6561.47
735.658	6614.57
735.999	6556.95
736.339	6657.51
736.68	6644.4
737.021	6596.72
737.361	6598.3
737.702	6625.19
738.042	6610.96
738.383	6624.29
738.723	6639.66
739.063	6644.63
739.404	6622.03
739.744	6671.52
740.084	6639.43
740.424	6645.08
740.764	6675.36
741.104	6772.08
741.444	6656.15
741.784	6715.59
742.124	6730.28
742.464	6768.69
742.804	6772.31
743.143	6829.93
743.483	6817.5
743.823	6876.49
744.162	6884.4
744.502	6879.88
744.841	6855.47
745.181	6948.35
745.52	6957.39
745.86	6980.44
746.199	6956.71
746.538	7069.48
746.877	7068.35
747.216	7172.52
747.556	7164.39
747.895	7221.56
748.234	7280.99
748.573	7331.62
748.911	7348.79
749.25	7388.79
749.589	7459.07
749.928	7476.02
750.267	7591.04
750.605	7641.66
750.944	7694.77
751.283	7771.38
751.621	7868.1
751.96	7889.11
752.298	7995.1
752.636	8119.84
752.975	8151.93
753.313	8302.89
753.651	8359.38
753.989	8440.96
754.327	8551.92
754.666	8624.24
755.004	8699.04
755.342	8923.66
755.679	9052.47
756.017	9133.83
756.355	9286.37
756.693	9390.77
757.031	9550.99
757.368	9661.05
757.706	9817.88
758.044	9940.13
758.381	10078.44
758.719	10262.84
759.056	10393.91
759.394	10544.86
759.731	10648.36
760.068	10770.39
760.405	10874.12
760.743	11122.02
761.08	11287.44
761.417	11427.78
761.754	11550.94
762.091	11742.57
762.428	11881.33
762.765	12060.98
763.102	12238.6
763.438	12402.89
763.775	12502.1
764.112	12793.62
764.449	12936.67
764.785	13026.61
765.122	13136.89
765.458	13293.72
765.795	13523.09
766.131	13590.43
766.467	13755.63
766.804	13805.8
767.14	14001.5
767.476	14220.25
767.812	14290.53
768.148	14444.87
768.485	14498.66
768.821	14636.51
769.157	14801.93
769.492	14945.2
769.828	15083.28
770.164	15110.39
770.5	15227.45
770.836	15450.5
771.171	15351.52
771.507	15550.38
771.842	15554.45
772.178	15705.18
772.513	15774.78
772.849	15874.44
773.184	15974.55
773.519	16057.26
773.855	16115.79
774.19	16122.8
774.525	16308.1
774.86	16425.84
775.195	16437.36
775.53	16420.42
775.865	16492.73
776.2	16445.95
776.535	16433.97
776.87	16554.65
777.205	16625.83
777.539	16643.91
777.874	16747.41
778.209	16669.67
778.543	16797.58
778.878	16781.31
779.212	16820.86
779.547	16744.7
779.881	16946.73
780.215	16872.38
780.55	17091.13
780.884	16992.6
781.218	16952.38
781.552	17017.91
781.886	16927.07
782.22	17022.89
782.554	16988.54
782.888	16952.15
783.222	16936.11
783.556	17000.74
783.889	16993.96
784.223	16894.98
784.557	16885.49
784.89	16990.57
785.224	16916.45
785.557	16790.58
785.891	16828.99
786.224	16871.48
786.558	16947.63
786.891	16910.8
787.224	16810.91
787.557	16791.48
787.891	16891.59
788.224	16827.86
788.557	16869.67
788.89	16709.22
789.223	16806.85
789.556	16757.13
789.888	16739.5
790.221	16718.49
790.554	16664.48
790.887	16556.01
791.219	16622.67
791.552	16518.49
791.884	16522.56
792.217	16527.31
792.549	16394.88
792.882	16462
793.214	16436.01
793.546	16435.56
793.879	16407.08
794.211	16190.37
794.543	16411.38
794.875	16395.78
795.207	16389.46
795.539	16310.36
795.871	16291.61
796.203	16152.17
796.535	16153.53
796.867	16095
797.198	16066.98
797.53	16085.74
797.862	16067.43
798.193	16019.07
798.525	15883.93
798.856	15923.71
799.188	15840.09
799.519	15673.77
799.85	15719.19
800.182	15828.79
800.513	15666.99
800.844	15604.62
801.175	15702.02
801.506	15689.36
801.837	15588.57
802.168	15610.95
802.499	15549.25
802.83	15462.02
803.161	15438.52
803.491	15372.76
803.822	15397.62
804.153	15459.99
804.483	15274.91
804.814	15243.05
805.145	15276.04
805.475	15254.34
805.805	15126.21
806.136	15204.18
806.466	15117.85
806.796	15212.76
807.126	15048.02
807.457	14993.56
807.787	14956.05
808.117	14955.82
808.447	14853.23
808.777	14935.48
809.107	14798.09
809.436	14841.93
809.766	14832.21
810.096	14769.84
810.426	14723.96
810.755	14797.18
811.085	14746.56
811.414	14691.87
811.744	14597.86
812.073	14551.99
812.403	14571.88
812.732	14455.04
813.061	14531.43
813.39	14365.78
813.719	14365.33
814.049	14510.64
814.378	14436.97
814.707	14330.53
815.036	14308.83
815.365	14226.58
815.693	14187.93
816.022	14178.44
816.351	14167.82
816.68	14084.21
817.008	14044.21
817.337	13996.3
817.665	14011.44
817.994	14023.87
818.322	14017.54
818.651	13876.3
818.979	13935.51
819.307	14016.64
819.636	13986.36
819.964	13919.24
820.292	13981.38
820.62	13887.6
820.948	13894.61
821.276	13987.49
821.604	13823.2
821.932	13867.71
822.259	13864.78
822.587	13829.52
822.915	13868.84
823.243	13862.52
823.57	13845.12
823.898	13884.66
824.225	13793.14
824.553	13902.29
824.88	13889.41
825.207	13882.63
825.535	13831.11
825.862	13845.57
826.189	13838.56
826.516	13899.35
826.843	13968.28
827.17	13902.06
827.497	13926.92
827.824	13942.97
828.151	13965.56
828.478	13933.93
828.805	13966.02
829.131	13927.6
829.458	13828.17
829.785	13787.26
830.111	13950.65
830.438	13939.13
830.764	13901.39
831.09	13934.15
831.417	13881.5
831.743	13924.89
832.069	13903.65
832.395	13896.64
832.722	13854.83
833.048	13755.63
833.374	13823.2
833.7	13825.68
834.026	13791.56
834.351	13797.89
834.677	13785
835.003	13764.21
835.329	13752.24
835.654	13713.82
835.98	13716.31
836.306	13752.01
836.631	13688.28
836.956	13762.18
837.282	13665.23
837.607	13577.33
837.932	13656.42
838.258	13674.95
838.583	13632.92
838.908	13510.21
839.233	13579.13
839.558	13497.33
839.883	13512.92
840.208	13503.66
840.533	13448.97
840.858	13470.66
841.182	13433.15
841.507	13465.01
841.832	13242.65
842.156	13355.41
842.481	13233.15
842.805	13266.37
843.13	13275.64
843.454	13326.03
843.778	13083.78
844.103	13095.53
844.427	13139.6
844.751	13097.79
845.075	13060.05
845.399	13030
845.723	13004.91
846.047	12927.4
846.371	12885.14
846.695	12882.88
847.019	12742.77
847.343	12810.57
847.666	12703.9
847.99	12669.33
848.313	12559.27
848.637	12494.87
848.96	12528.31
849.284	12460.75
849.607	12373.06
849.931	12394.53
850.254	12271.6
850.577	12234.54
850.9	12103.69
851.223	12145.95
851.546	12112.05
851.869	11986.18
852.192	12045.62
852.515	11938.5
852.838	11915.9
853.161	11858.05
853.483	11737.83
853.806	11731.73
854.129	11724.27
854.451	11710.48
854.774	11668
855.096	11562.01
855.419	11595.68
855.741	11592.75
856.063	11508.91
856.385	11540.54
856.708	11465.74
857.03	11482.69
857.352	11421
857.674	11345.07
857.996	11334.67
858.318	11294.22
858.64	11320.44
858.961	11210.16
859.283	11091.74
859.605	11138.75
859.926	11176.03
860.248	11131.06
860.57	11051.52
860.891	11082.48
861.212	11017.17
861.534	10973.1
861.855	10990.05
862.176	11054.23
862.498	10995.93
862.819	10928.81
863.14	10886.78
863.461	10889.71
863.782	10884.29
864.103	10881.13
864.424	10783.28
864.745	10866.66
865.065	10679.78
865.386	10696.05
865.707	10772.88
866.027	10793.67
866.348	10727.46
866.668	10674.58
866.989	10760.23
867.309	10585.54
867.63	10638.87
867.95	10596.84
868.27	10530.4
868.59	10522.49
868.91	10531.08
869.23	10546.67
869.55	10508.03
869.87	10531.98
870.19	10444.3
870.51	10502.83
870.83	10447.01
871.15	10351.65
871.469	10410.4
871.789	10447.24
872.109	10378.31
872.428	10393.91
872.748	10376.05
873.067	10331.08
873.386	10308.71
873.706	10327.69
874.025	10220.35
874.344	10250.63
874.663	10280.01
874.982	10204.31
875.301	10246.57
875.62	10172.22
875.939	10195.72
876.258	10197.3
876.577	10107.81
876.896	10152.56
877.214	10073.69
877.533	10100.36
877.852	10101.49
878.17	10063.97
878.489	10053.8
878.807	10040.7
879.125	9977.65
879.444	10004.54
879.762	9953.02
880.08	9981.94
880.398	9923.19
880.716	9954.15
881.034	9864.2
881.352	9922.73
881.67	9840.48
881.988	9901.04
882.306	9844.32
882.624	9779.46
882.941	9673.47
883.259	9755.28
883.577	9714.38
883.894	9739.24
884.212	9697.2
884.529	9657.43
884.846	9666.69
885.164	9657.88
885.481	9591.22
885.798	9647.49
886.115	9504.44
886.432	9536.53
886.75	9521.16
887.067	9440.49
887.383	9441.62
887.7	9468.96
888.017	9510.99
888.334	9478.68
888.651	9449.98
888.967	9361.39
889.284	9333.82
889.6	9293.37
889.917	9284.11
890.233	9187.61
890.55	9152.81
890.866	9195.52
891.182	9139.48
891.498	9076.88
891.815	9100.16
892.131	9010.89
892.447	9076.2
892.763	8966.37
893.079	8998.92
893.395	8995.98
893.71	8922.99
894.026	8930.22
894.342	8899.71
894.657	8889.99
894.973	8819.71
895.289	8823.33
895.604	8814.74
895.92	8716.21
896.235	8706.95
896.55	8688.42
896.865	8638.47
897.181	8631.47
897.496	8629.43
897.811	8639.83
898.126	8578.59
898.441	8506.95
898.756	8534.97
899.071	8471.02
899.386	8455.2
899.7	8359.16
900.015	8395.54
900.33	8278.03
900.644	8269.67
900.959	8278.71
901.273	8286.84
901.588	8235.77
901.902	8187.19
902.216	8185.15
902.531	8123.01
902.845	8110.58
903.159	8067.87
903.473	8017.7
903.787	7980.86
904.101	7923.92
904.415	7954.88
904.729	7932.5
905.042	7853.41
905.356	7870.13
905.67	7823.13
905.984	7850.7
906.297	7800.76
906.611	7706.97
906.924	7751.27
907.237	7705.62
907.551	7655
907.864	7625.39
908.177	7619.07
908.491	7558.28
908.804	7479.41
909.117	7439.41
909.43	7452.29
909.743	7424.72
910.056	7357.83
910.368	7316.93
910.681	7369.35
910.994	7261.11
911.307	7278.51
911.619	7216.14
911.932	7233.31
912.244	7176.59
912.557	7152.86
912.869	7095.92
913.181	7045.52
913.494	7118.97
913.806	7018.63
914.118	6958.74
914.43	6980.21
914.742	6979.08
915.054	6963.26
915.366	6855.92
915.678	6907.45
915.99	6837.16
916.302	6773.89
916.613	6785.41
916.925	6761.23
917.236	6741.8
917.548	6722.82
917.859	6664.29
918.171	6581.58
918.482	6581.13
918.794	6592.2
919.105	6596.27
919.416	6530.51
919.727	6548.13
920.038	6480.79
920.349	6432.43
920.66	6446.89
920.971	6418.42
921.282	6371.41
921.593	6341.81
921.903	6315.37
922.214	6260.23
922.525	6279.44
922.835	6247.58
923.146	6221.59
923.456	6224.07
923.767	6146.79
924.077	6156.28
924.387	6114.02
924.697	6067.02
925.008	6101.82
925.318	6081.48
925.628	6028.15
925.938	5991.54
926.248	5991.76
926.558	5968.94
926.867	5927.36
927.177	5921.71
927.487	5901.82
927.796	5859.34
928.106	5811.88
928.416	5761.03
928.725	5794.25
929.034	5735.5
929.344	5780.7
929.653	5713.35
929.962	5701.83
930.271	5700.47
930.581	5638.78
930.89	5586.12
931.199	5610.53
931.508	5587.93
931.817	5569.85
932.125	5568.72
932.434	5559.23
932.743	5520.36
933.051	5404.89
933.36	5435.39
933.669	5420.03
933.977	5362.18
934.286	5401.27
934.594	5318.56
934.902	5336.87
935.21	5294.15
935.519	5241.95
935.827	5323.76
936.135	5301.39
936.443	5218
936.751	5143.2
937.059	5224.1
937.367	5212.57
937.674	5164.21
937.982	5161.5
938.29	5101.17
938.597	5105.01
938.905	5041.05
939.213	5039.7
939.52	5030.21
939.827	5007.61
940.135	4937.78
940.442	4912.47
940.749	4965.58
941.056	4896.88
941.363	4874.28
941.67	4853.26
941.977	4860.49
942.284	4746.37
942.591	4862.3
942.898	4748.86
943.205	4789.54
943.511	4720.61
943.818	4697.79
944.125	4668.41
944.431	4707.5
944.738	4692.59
945.044	4658.24
945.35	4649.43
945.657	4588.18
945.963	4581.63
946.269	4608.52
946.575	4554.96
946.881	4487.85
947.187	4525.36
947.493	4455.98
947.799	4473.39
948.105	4455.31
948.41	4422.77
948.716	4429.09
949.022	4385.93
949.327	4361.07
949.633	4346.16
949.938	4368.98
950.244	4359.49
950.549	4284.24
950.854	4247.63
951.16	4294.18
951.465	4244.69
951.77	4179.61
952.075	4240.62
952.38	4207.4
952.685	4165.6
952.99	4133.51
953.294	4176.44
953.599	4096.9
953.904	4109.78
954.209	4053.74
954.513	4064.13
954.818	4024.36
955.122	3990.23
955.426	4003.12
955.731	3999.27
956.035	3939.61
956.339	4001.99
956.643	3967.18
956.948	3942.78
957.252	3916.79
957.556	3942.33
957.86	3875.43
958.163	3852.84
958.467	3886.28
958.771	3814.87
959.075	3799.96
959.378	3786.62
959.682	3767.64
959.985	3759.73
960.289	3800.63
960.592	3750.69
960.896	3722.67
961.199	3705.5
961.502	3722.9
961.805	3702.78
962.108	3682.67
962.411	3667.53
962.714	3613.07
963.017	3595.67
963.32	3609
963.623	3564.26
963.926	3567.65
964.228	3515.9
964.531	3574.2
964.833	3531.04
965.136	3505.05
965.438	3501.43
965.741	3458.5
966.043	3445.62
966.345	3434.77
966.648	3429.57
966.95	3410.14
967.252	3415.33
967.554	3424.15
967.856	3419.4
968.158	3348.44
968.46	3341.44
968.761	3333.53
969.063	3310.03
969.365	3258.95
969.666	3304.6
969.968	3223.25
970.269	3265.06
970.571	3258.28
970.872	3191.39
971.174	3190.93
971.475	3186.41
971.776	3216.7
972.077	3196.36
972.378	3164.49
972.679	3118.84
972.98	3092.18
973.281	3132.18
973.582	3104.83
973.883	3117.71
974.183	3082.46
974.484	3075.91
974.785	3054.89
975.085	3003.37
975.386	3025.51
975.686	2990.26
975.986	3002.24
976.287	3008.34
976.587	2940.54
976.887	2950.26
977.187	2931.28
977.487	2948.45
977.787	2887.21
978.087	2896.7
978.387	2883.14
978.687	2860.09
978.987	2858.06
979.286	2876.14
979.586	2846.31
979.885	2833.65
980.185	2799.53
980.484	2784.84
980.784	2776.48
981.083	2772.86
981.382	2758.85
981.682	2777.38
981.981	2722.47
982.28	2743.04
982.579	2689.93
982.878	2721.34
983.177	2687.44
983.475	2681.12
983.774	2663.26
984.073	2682.7
984.372	2639.31
984.67	2634.34
984.969	2631.63
985.267	2630.5
985.566	2612.19
985.864	2592.76
986.162	2581.01
986.461	2578.52
986.759	2521.8
987.057	2535.58
987.355	2528.13
987.653	2531.06
987.951	2534.45
988.249	2482.7
988.547	2517.28
988.844	2486.32
989.142	2463.49
989.44	2475.25
989.737	2443.83
990.035	2425.08
990.332	2396.6
990.63	2400.22
990.927	2412.87
991.224	2372.42
991.521	2369.71
991.819	2377.17
992.116	2345.31
992.413	2366.55
992.71	2319.77
993.006	2322.03
993.303	2301.46
993.6	2299.43
993.897	2291.75
994.193	2289.49
994.49	2279.09
994.787	2254.69
995.083	2235.7
995.379	2232.54
995.676	2244.74
995.972	2197.51
996.268	2204.29
996.565	2219.21
996.861	2192.54
997.157	2169.26
997.453	2166.78
997.749	2139.89
998.044	2131.75
998.34	2115.26
998.636	2109.83
998.932	2104.41
999.227	2089.95
999.523	2087.91
999.818	2068.25
1000.114	2060.12
1000.409	2076.39
1000.704	2035.94
1001	2025.31
1001.295	2018.08
1001.59	2030.29
1001.885	1994.58
1002.18	1989.61
1002.475	1998.87
1002.77	1950.97
1003.065	1956.84
1003.359	1933.11
1003.654	1952.77
1003.949	1918.2
1004.243	1929.27
1004.538	1905.54
1004.832	1894.24
1005.127	1903.06
1005.421	1851.53
1005.715	1837.3
1006.009	1882.27
1006.304	1834.58
1006.598	1817.86
1006.892	1854.7
1007.186	1823.51
1007.48	1808.82
1007.773	1787.13
1008.067	1755.26
1008.361	1778.09
1008.655	1774.93
1008.948	1758.43
1009.242	1727.24
1009.535	1738.09
1009.829	1733.57
1010.122	1708.94
1010.415	1723.63
1010.708	1695.15
1011.001	1676.62
1011.295	1700.8
1011.588	1656.06
1011.881	1679.79
1012.173	1661.48
1012.466	1636.17
1012.759	1621.03
1013.052	1633.46
1013.344	1605.44
1013.637	1620.13
1013.93	1600.47
1014.222	1556.85
1014.514	1606.34
1014.807	1545.78
1015.099	1560.24
1015.391	1555.72
1015.683	1539.68
1015.976	1522.05
1016.268	1498.77
1016.56	1495.84
1016.851	1486.12
1017.143	1459.45
1017.435	1487.25
1017.727	1451.09
1018.018	1448.38
1018.31	1449.51
1018.602	1435.05
1018.893	1440.02
1019.185	1424.65
1019.476	1430.53
1019.767	1415.61
1020.058	1391.21
1020.35	1372.22
1020.641	1382.84
1020.932	1362.05
1021.223	1369.96
1021.514	1356.63
1021.804	1359.57
1022.095	1349.85
1022.386	1319.12
1022.677	1319.8
1022.967	1323.41
1023.258	1290.64
1023.548	1303.53
1023.839	1301.27
1024.129	1303.75
1024.419	1253.13
1024.709	1237.31
1025	1263.07
1025.29	1249.52
1025.58	1247.03
1025.87	1234.83
1026.16	1237.99
1026.449	1202.28
1026.739	1181.04
1027.029	1192.12
1027.319	1207.03
1027.608	1205
1027.898	1191.89
1028.187	1161.38
1028.477	1168.16
1028.766	1140.37
1029.055	1141.72
1029.344	1134.26
1029.634	1129.07
1029.923	1129.52
1030.212	1141.72
1030.501	1120.48
1030.79	1109.41
1031.078	1083.19
1031.367	1063.98
1031.656	1084.77
1031.945	1080.93
1032.233	1077.32
1032.522	1061.95
1032.81	1062.18
1033.099	1044.1
1033.387	1035.74
1033.675	1052.91
1033.963	1023.31
1034.251	1017.66
1034.54	1026.47
1034.828	1025.79
1035.116	1017.88
1035.403	979.69
1035.691	972.23
1035.979	970.88
1036.267	986.25
1036.554	963.42
1036.842	986.25
1037.129	954.38
1037.417	947.6
1037.704	968.17
1037.992	925
1038.279	962.29
1038.566	923.65
1038.853	923.65
1039.14	923.65
