Data from hue_330_FLMS001491_95.txt Node
Date: Mon Feb 06 15:46:11 GMT 2017
User: dcchb
Spectrometer: FLMS00149
Trigger mode: 0
Integration Time (sec): 2.000000E-2
Scans to average: 10
Electric dark correction enabled: true
Nonlinearity correction enabled: false
Boxcar width: 0
XAxis mode: Wavelengths
Number of Pixels in Spectrum: 2048
>>>>>Begin Spectral Data<<<<<
341.393	-7.53
341.776	-7.53
342.16	-7.53
342.543	-52.95
342.927	-57.92
343.31	-86.4
343.693	-58.83
344.077	-88.66
344.46	-69.67
344.843	-40.3
345.226	-39.62
345.61	-27.41
345.993	-5.04
346.376	-11.37
346.759	-0.97
347.142	22.53
347.525	43.77
347.908	65.01
348.291	84.22
348.674	95.97
349.057	116.76
349.44	131
349.823	115.63
350.206	150.43
350.588	212.35
350.971	201.05
351.354	211.22
351.737	231.56
352.119	241.5
352.502	265.46
352.884	274.05
353.267	283.99
353.65	293.71
354.032	284.67
354.414	318.34
354.797	308.17
355.179	328.96
355.562	321.05
355.944	321.05
356.326	358.11
356.709	341.16
357.091	322.63
357.473	341.62
357.855	342.97
358.238	350.65
358.62	342.07
359.002	360.37
359.384	338.68
359.766	341.62
360.148	342.07
360.53	340.71
360.912	349.98
361.294	349.52
361.676	335.51
362.057	319.02
362.439	332.12
362.821	305.68
363.203	332.35
363.584	339.13
363.966	337.32
364.348	305.91
364.729	323.99
365.111	314.95
365.493	316.31
365.874	312.24
366.256	311.11
366.637	327.38
367.019	340.49
367.4	334.84
367.781	308.62
368.163	315.18
368.544	326.25
368.925	302.75
369.306	322.18
369.688	327.6
370.069	334.84
370.45	305.01
370.831	314.95
371.212	304.78
371.593	321.28
371.974	323.08
372.355	303.88
372.736	323.99
373.117	314.5
373.498	305.46
373.879	306.59
374.26	311.56
374.641	316.76
375.021	339.81
375.402	337.1
375.783	315.4
376.163	324.44
376.544	299.36
376.925	324.21
377.305	318.34
377.686	313.14
378.066	325.12
378.447	329.64
378.827	326.02
379.208	326.47
379.588	333.03
379.968	329.19
380.349	307.04
380.729	332.8
381.109	315.18
381.489	341.39
381.87	319.92
382.25	352.46
382.63	328.51
383.01	349.98
383.39	354.27
383.77	332.58
384.15	367.15
384.53	337.32
384.91	347.04
385.29	344.78
385.67	325.34
386.049	343.42
386.429	346.81
386.809	348.17
387.189	354.72
387.568	344.55
387.948	342.07
388.328	373.93
388.707	358.11
389.087	357.89
389.466	334.61
389.846	362.18
390.225	363.76
390.605	361.95
390.984	363.76
391.363	357.43
391.743	362.63
392.122	368.06
392.501	369.41
392.881	372.35
393.26	353.59
393.639	400.82
394.018	369.19
394.397	368.51
394.776	366.93
395.155	389.07
395.534	385.68
395.913	365.8
396.292	396.76
396.671	381.39
397.05	378
397.429	375.74
397.808	392.46
398.186	396.53
398.565	391.11
398.944	380.03
399.323	380.03
399.701	382.52
400.08	400.82
400.458	403.53
400.837	408.05
401.215	407.15
401.594	411.9
401.972	409.41
402.351	393.82
402.729	392.91
403.107	414.61
403.486	417.77
403.864	396.53
404.242	403.08
404.62	424.55
404.999	429.75
405.377	418.22
405.755	445.57
406.133	437.88
406.511	445.34
406.889	443.53
407.267	477.66
407.645	481.27
408.023	443.08
408.401	458.45
408.779	446.7
409.156	466.81
409.534	454.83
409.912	466.81
410.29	459.8
410.667	471.78
411.045	477.88
411.422	465
411.8	491.89
412.178	489.63
412.555	508.39
412.933	493.7
413.31	520.59
413.687	521.05
414.065	523.31
414.442	512.23
414.819	550.2
415.197	542.29
415.574	548.39
415.951	556.3
416.328	547.49
416.705	552.23
417.082	551.33
417.46	570.31
417.837	555.17
418.214	571.21
418.591	596.07
418.967	591.55
419.344	622.74
419.721	636.3
420.098	622.29
420.475	617.09
420.852	613.02
421.228	629.74
421.605	612.79
421.982	613.92
422.358	643.08
422.735	648.5
423.111	667.93
423.488	654.15
423.864	677.65
424.241	679.23
424.617	687.37
424.994	667.93
425.37	679.01
425.746	693.24
426.123	699.57
426.499	704.77
426.875	701.61
427.251	726.69
427.627	749.51
428.003	732.34
428.379	746.8
428.756	757.42
429.132	754.26
429.507	765.11
429.883	784.09
430.259	796.07
430.635	806.69
431.011	787.03
431.387	819.34
431.763	835.61
432.138	811.66
432.514	824.54
432.89	841.04
433.265	845.56
433.641	852.79
434.016	889.17
434.392	885.1
434.767	870.64
435.143	898.44
435.518	876.97
435.894	913.58
436.269	918.1
436.644	918.78
437.02	938.21
437.395	927.81
437.77	930.07
438.145	957.87
438.52	958.55
438.895	969.17
439.271	989.28
439.646	1001.03
440.021	981.82
440.395	976.17
440.77	1004.65
441.145	1024.31
441.52	1011.65
441.895	1024.08
442.27	1035.83
442.645	1034.03
443.019	1029.05
443.394	1012.33
443.769	1052.78
444.143	1030.64
444.518	1036.29
444.892	1047.13
445.267	1072.44
445.641	1067.47
446.016	1084.87
446.39	1077.87
446.764	1095.27
447.139	1062.95
447.513	1093.23
447.887	1082.61
448.262	1107.02
448.636	1105.66
449.01	1081.26
449.384	1101.6
449.758	1124.42
450.132	1144.08
450.506	1132.1
450.88	1141.14
451.254	1135.49
451.628	1129.17
452.002	1142.5
452.376	1168.71
452.75	1151.76
453.123	1172.78
453.497	1191.31
453.871	1183.4
454.244	1223.4
454.618	1245.77
454.992	1224.3
455.365	1230.18
455.739	1243.06
456.112	1245.32
456.486	1260.46
456.859	1265.43
457.232	1273.34
457.606	1267.01
457.979	1266.79
458.352	1306.34
458.725	1297.52
459.099	1328.48
459.472	1366.9
459.845	1349.05
460.218	1372.77
460.591	1360.8
460.964	1384.53
461.337	1400.8
461.71	1416.62
462.083	1420.23
462.456	1428.82
462.829	1418.2
463.201	1431.3
463.574	1457.74
463.947	1464.52
464.32	1495.03
464.692	1502.04
465.065	1510.4
465.438	1505.2
465.81	1545.65
466.183	1541.81
466.555	1555.82
466.928	1597.18
467.3	1566.44
467.672	1574.8
468.045	1581.58
468.417	1609.6
468.789	1650.51
469.161	1629.27
469.534	1680.56
469.906	1711.97
470.278	1694.12
470.65	1763.72
471.022	1758.98
471.394	1751.75
471.766	1765.98
472.138	1792.88
472.51	1842.37
472.882	1836.04
473.253	1834.91
473.625	1905.42
473.997	1918.52
474.369	1911.29
474.74	1963.49
475.112	1951.74
475.484	1995.81
475.855	2025.41
476.227	2036.49
476.598	2073.1
476.97	2076.71
477.341	2102.47
477.713	2143.83
478.084	2159.65
478.455	2200.1
478.827	2224.73
479.198	2288.46
479.569	2292.3
479.94	2339.08
480.311	2288
480.682	2361
481.053	2427.66
481.424	2442.58
481.795	2464.5
482.166	2511.5
482.537	2572.29
482.908	2591.05
483.279	2562.12
483.65	2619.75
484.021	2654.1
484.391	2688.67
484.762	2718.73
485.133	2732.06
485.503	2729.58
485.874	2809.35
486.244	2803.92
486.615	2852.51
486.985	2910.36
487.356	2942.45
487.726	2927.99
488.097	2994.88
488.467	2999.4
488.837	3050.47
489.207	3104.25
489.578	3102.9
489.948	3163.01
490.318	3199.39
490.688	3185.61
491.058	3238.49
491.428	3281.43
491.798	3294.08
492.168	3405.49
492.538	3356.9
492.908	3417.01
493.278	3437.58
493.648	3426.28
494.017	3479.16
494.387	3517.8
494.757	3530.91
495.126	3561.87
495.496	3530.68
495.866	3608.2
496.235	3655.2
496.605	3635.31
496.974	3686.39
497.344	3707.18
497.713	3723.9
498.082	3715.76
498.452	3772.49
498.821	3762.77
499.19	3783.56
499.559	3787.4
499.928	3850
500.298	3854.29
500.667	3869.43
501.036	3881.64
501.405	3915.53
501.774	3900.84
502.143	3923.89
502.512	3959.15
502.88	3965.47
503.249	3985.14
503.618	4002.99
503.987	4028.52
504.356	4050.9
504.724	4043.66
505.093	4079.14
505.462	4051.57
505.83	4100.39
506.199	4133.83
506.567	4149.88
506.936	4154.17
507.304	4168.18
507.672	4176.32
508.041	4204.34
508.409	4211.34
508.777	4239.82
509.145	4248.63
509.514	4288.18
509.882	4273.72
510.25	4311.68
510.618	4277.33
510.986	4323.21
511.354	4331.11
511.722	4352.58
512.09	4416.99
512.458	4412.02
512.826	4413.6
513.193	4438
513.561	4419.25
513.929	4483.88
514.297	4507.61
514.664	4510.55
515.032	4490.88
515.4	4522.97
515.767	4516.87
516.135	4571.33
516.502	4507.83
516.869	4564.78
517.237	4607.94
517.604	4530.66
517.972	4605.23
518.339	4633.93
518.706	4580.37
519.073	4648.39
519.44	4647.72
519.808	4644.78
520.175	4656.98
520.542	4746.7
520.909	4694.72
521.276	4741.5
521.643	4732.23
522.009	4786.24
522.376	4782.85
522.743	4835.73
523.11	4884.77
523.477	4870.54
523.843	4894.49
524.21	4947.82
524.577	4905.11
524.943	4948.73
525.31	4993.47
525.676	5007.26
526.043	5004.54
526.409	5019.91
526.776	5085.22
527.142	5100.81
527.508	5106.69
527.874	5164.54
528.241	5192.79
528.607	5165.22
528.973	5193.47
529.339	5252.45
529.705	5268.72
530.071	5303.74
530.437	5280.24
530.803	5291.32
531.169	5360.01
531.535	5359.11
531.901	5327.47
532.267	5369.73
532.632	5432.1
532.998	5443.18
533.364	5491.08
533.73	5440.01
534.095	5494.47
534.461	5534.25
534.826	5583.96
535.192	5584.19
535.557	5634.81
535.923	5649.95
536.288	5626
536.653	5706.9
537.019	5727.46
537.384	5686.79
537.749	5708.93
538.114	5804.3
538.479	5772.43
538.845	5779.44
539.21	5792.77
539.575	5811.75
539.94	5852.66
540.305	5890.85
540.67	5893.11
541.034	5917.74
541.399	5949.6
541.764	5953.67
542.129	5976.72
542.494	6028.25
542.858	6097.85
543.223	6057.17
543.587	6110.96
543.952	6115.7
544.316	6152.08
544.681	6147.56
545.045	6138.53
545.41	6193.21
545.774	6237.51
546.138	6292.87
546.503	6287.67
546.867	6240.44
547.231	6345.53
547.595	6340.33
547.959	6380.1
548.324	6379.2
548.688	6377.39
549.052	6451.96
549.416	6486.76
549.779	6473.21
550.143	6514.11
550.507	6525.63
550.871	6521.11
551.235	6543.26
551.599	6611.05
551.962	6589.13
552.326	6570.83
552.689	6668.91
553.053	6645.18
553.417	6672.07
553.78	6744.38
554.143	6777.6
554.507	6747.1
554.87	6712.52
555.234	6853.08
555.597	6779.86
555.96	6842.01
556.323	6829.13
556.686	6846.53
557.05	6870.03
557.413	6855.12
557.776	6953.64
558.139	6957.03
558.502	6995.68
558.865	6980.76
559.228	7020.76
559.59	7035.45
559.953	7071.38
560.316	7066.18
560.679	7117.71
561.041	7159.29
561.404	7186.86
561.767	7239.74
562.129	7175.11
562.492	7278.16
562.854	7172.62
563.217	7220.3
563.579	7240.42
563.941	7312.28
564.304	7378.49
564.666	7357.48
565.028	7381.66
565.39	7392.28
565.753	7421.43
566.115	7468.66
566.477	7457.59
566.839	7536.23
567.201	7556.11
567.563	7591.82
567.925	7610.12
568.287	7616.45
568.648	7673.17
569.01	7712.72
569.372	7698.48
569.734	7657.36
570.095	7792.49
570.457	7762.21
570.819	7842.44
571.18	7886.95
571.542	7940.51
571.903	7919.5
572.265	7981.87
572.626	8015.31
572.987	8073.84
573.349	8120.39
573.71	8209.43
574.071	8228.41
574.432	8265.47
574.794	8343.89
575.155	8399.71
575.516	8380.95
575.877	8504.11
576.238	8559.7
576.599	8602.42
576.96	8722.64
577.32	8776.2
577.681	8802.18
578.042	8966.02
578.403	9025.45
578.763	9110.65
579.124	9259.57
579.485	9337.09
579.845	9419.34
580.206	9458.44
580.566	9662.95
580.927	9757.41
581.287	9867.69
581.648	9968.48
582.008	10144.07
582.368	10229.94
582.728	10420.45
583.089	10563.95
583.449	10715.13
583.809	10944.27
584.169	11025.85
584.529	11307.88
584.889	11534.99
585.249	11627.87
585.609	11811.82
585.969	12061.99
586.329	12224.24
586.688	12529.32
587.048	12722.76
587.408	12882.75
587.768	13151.45
588.127	13348.5
588.487	13573.58
588.846	13920.69
589.206	14079.11
589.565	14326.56
589.925	14627.79
590.284	14842.48
590.643	15191.17
591.003	15341.67
591.362	15710.7
591.721	15953.18
592.08	16230.24
592.44	16614.63
592.799	16944.34
593.158	17158.12
593.517	17397.21
593.876	17700.93
594.235	18093.46
594.593	18316.28
594.952	18648.7
595.311	18899.55
595.67	19195.36
596.029	19636.93
596.387	19847.09
596.746	20182.68
597.104	20405.27
597.463	20760.29
597.822	21152.82
598.18	21385.81
598.538	21792.58
598.897	22157.54
599.255	22277.99
599.613	22767.92
599.972	22781.93
600.33	23270.96
600.688	23378.98
601.046	23849.47
601.404	24148.9
601.762	24341.21
602.12	24731.03
602.478	24944.81
602.836	25308.42
603.194	25481.29
603.552	25683.55
603.91	25888.97
604.268	26354.04
604.625	26473.36
604.983	26851.43
605.341	26902.72
605.698	27297.74
606.056	27533.22
606.413	27810.05
606.771	28077.61
607.128	28309.02
607.485	28549.46
607.843	28607.99
608.2	29144.7
608.557	29376.56
608.914	29421.3
609.272	29856.32
609.629	30009.76
609.986	30307.38
610.343	30336.08
610.7	30707.14
611.057	30925.44
611.414	31134.48
611.771	31335.15
612.127	31578.99
612.484	31836.38
612.841	32079.54
613.198	32124.51
613.554	32200.44
613.911	32632.74
614.267	32631.39
614.624	32852.85
614.98	33083.81
615.337	33437.47
615.693	33411.48
616.05	33547.3
616.406	33778.25
616.762	33895.08
617.118	33972.82
617.475	34229.76
617.831	34466.82
618.187	34552.69
618.543	34630.66
618.899	35046.24
619.255	35068.84
619.611	35205.78
619.967	35405.33
620.323	35549.5
620.678	35472.67
621.034	35647.13
621.39	35622.5
621.746	35822.94
622.101	36215.47
622.457	35959.21
622.812	36255.47
623.168	36396.26
623.523	36482.36
623.879	36527.78
624.234	36417.28
624.589	36669.47
624.945	36723.03
625.3	36864.72
625.655	36823.14
626.01	36892.29
626.365	37055
626.72	37060.88
627.075	37130.93
627.43	37250.02
627.785	37185.84
628.14	37291.6
628.495	37437.59
628.85	37335.22
629.205	37293.86
629.559	37784.47
629.914	37632.84
630.269	37541.77
630.623	37660.63
630.978	37601.88
631.332	37763.91
631.687	37988.54
632.041	37790.12
632.396	37879.39
632.75	37734.76
633.104	37795.32
633.459	37704.02
633.813	37663.57
634.167	37743.34
634.521	37879.84
634.875	37917.35
635.229	37939.72
635.583	37873.74
635.937	37819.95
636.291	37700.86
636.645	38003.9
636.999	37705.38
637.352	38031.92
637.706	37703.8
638.06	38031.47
638.413	37865.37
638.767	37838.93
639.121	37912.15
639.474	37625.15
639.828	37795.09
640.181	37784.7
640.534	37805.94
640.888	37902.21
641.241	37518.26
641.594	37729.56
641.947	37873.51
642.301	37649.79
642.654	37785.15
643.007	37866.5
643.36	37881.87
643.713	37698.83
644.066	37861.53
644.419	37581.99
644.771	37473.75
645.124	37183.13
645.477	37009.8
645.83	36825.63
646.182	36837.83
646.535	36790.15
646.888	36822.24
647.24	36585.63
647.593	36730.49
647.945	36622.92
648.298	36419.99
648.65	36403.72
649.002	36417.5
649.355	36491.85
649.707	36601
650.059	36644.16
650.411	37050.93
650.763	37178.16
651.115	37545.61
651.467	37343.81
651.819	37421.09
652.171	37330.93
652.523	37301.32
652.875	37349.23
653.227	37119.18
653.578	37366.4
653.93	37280.53
654.282	37130.93
654.633	37045.28
654.985	37232.17
655.337	37263.81
655.688	37187.88
656.039	37353.07
656.391	37033.31
656.742	37054.32
657.094	37088.45
657.445	37221.55
657.796	37137.03
658.147	37045.06
658.498	37019.29
658.849	37177.71
659.2	37045.96
659.551	37096.36
659.902	37129.12
660.253	36995.34
660.604	37000.31
660.955	36887.55
661.306	37118.28
661.656	36879.64
662.007	36934.78
662.358	36852.29
662.708	36900.88
663.059	36980.88
663.409	36782.69
663.76	36982.91
664.11	36974.55
664.461	37028.56
664.811	36867.21
665.161	36920.99
665.511	36952.4
665.862	37036.47
666.212	36933.65
666.562	36940.65
666.912	36785.18
667.262	36751.96
667.612	36908.79
667.962	36888.68
668.312	36896.13
668.662	36958.05
669.011	36832.18
669.361	36813.65
669.711	36816.59
670.06	36697.72
670.41	36748.12
670.76	36757.15
671.109	36906.76
671.459	36761.45
671.808	36734.56
672.157	36875.12
672.507	36540.21
672.856	36617.27
673.205	36810.26
673.554	36863.59
673.904	36727.33
674.253	36870.6
674.602	36729.13
674.951	36212.08
675.3	36060.9
675.649	36549.7
675.998	36551.06
676.346	36494.11
676.695	36593.09
677.044	36304.51
677.393	36434
677.741	36509.25
678.09	36345.87
678.438	36347.9
678.787	36497.5
679.135	36354.68
679.484	36143.39
679.832	36282.59
680.181	36036.95
680.529	36312.65
680.877	36138.64
681.225	36059.55
681.573	36216.83
681.922	35970.51
682.27	35830.85
682.618	35839.21
682.966	35724.64
683.314	35924.63
683.661	35742.04
684.009	35617.98
684.357	35639.9
684.705	35567.81
685.053	35464.08
685.4	35426.79
685.748	35322.39
686.095	35358.1
686.443	35262.05
686.79	35163.3
687.138	35212.11
687.485	35194.48
687.832	34999.01
688.18	35227.93
688.527	34983.42
688.874	34992.23
689.221	34921.72
689.568	34801.95
689.915	34721.5
690.262	34782.74
690.609	34606.7
690.956	34510.66
691.303	34482.86
691.65	34373.04
691.997	34299.37
692.344	34032.93
692.69	34189.31
693.037	34211.91
693.383	33803.56
693.73	33928.98
694.077	33675.88
694.423	33749.78
694.769	33665.71
695.116	33589.1
695.462	33561.98
695.808	33465.49
696.155	33531.48
696.501	33218.26
696.847	33201.77
697.193	33153.41
697.539	33094.43
697.885	32875.9
698.231	32860.31
698.577	32804.04
698.923	32748.45
699.269	32665.06
699.614	32484.05
699.96	32427.1
700.306	32453.77
700.651	32341.23
700.997	32217.39
701.342	32213.55
701.688	32109.14
702.033	31837.96
702.379	32037.51
702.724	31882.71
703.069	32027.11
703.415	31635.03
703.76	31722.49
704.105	31596.39
704.45	31580.12
704.795	31415.15
705.14	31256.73
705.485	31219.22
705.83	30980.36
706.175	31277.3
706.52	30993.69
706.865	30953.47
707.209	30923.18
707.554	30819.23
707.899	30851.55
708.243	30608.16
708.588	30614.04
708.932	30445.68
709.277	30435.74
709.621	30556.87
709.966	30227.84
710.31	30411.56
710.654	30078.23
710.998	30122.08
711.342	30249.08
711.687	30044.11
712.031	29976.09
712.375	29941.51
712.719	29805.7
713.063	29778.13
713.407	29901.29
713.75	29769.09
714.094	29614.74
714.438	29593.73
714.782	29544.01
715.125	29408.2
715.469	29558.47
715.812	29274.87
716.156	29116.68
716.499	29088.66
716.843	29168.43
717.186	29110.12
717.53	29104.47
717.873	29175.21
718.216	29084.14
718.559	28991.48
718.902	28733.19
719.246	28805.05
719.589	28774.54
719.932	28587.65
720.275	28569.57
720.617	28572.51
720.96	28528.67
721.303	28451.38
721.646	28550.59
721.989	28378.84
722.331	28465.4
722.674	28353.31
723.016	28254.33
723.359	28242.35
723.701	28202.35
724.044	28073.77
724.386	27944.96
724.729	28118.51
725.071	27944.73
725.413	27939.76
725.755	28062.02
726.097	27930.72
726.439	27765.3
726.782	27664.29
727.124	27716.94
727.465	27794.23
727.807	27678.52
728.149	27558.75
728.491	27422.03
728.833	27634.01
729.175	27412.09
729.516	27432.43
729.858	27419.55
730.199	27397.18
730.541	27269.72
730.882	27307.23
731.224	27415.93
731.565	27101.14
731.906	27160.57
732.248	27211.42
732.589	27031.08
732.93	26970.97
733.271	27069.73
733.612	26930.97
733.953	26950.41
734.294	26895.72
734.635	26862.27
734.976	26861.82
735.317	26722.84
735.658	26761.03
735.999	26741.83
736.339	26734.59
736.68	26633.35
737.021	26628.61
737.361	26567.82
737.702	26695.05
738.042	26560.81
738.383	26587.25
738.723	26563.3
739.063	26460.93
739.404	26500.02
739.744	26354.49
740.084	26269.75
740.424	26222.97
740.764	26213.48
741.104	26294.38
741.444	26016.87
741.784	26067.72
742.124	26101.16
742.464	25938
742.804	25933.71
743.143	25990.88
743.483	26027.27
743.823	25741.4
744.162	25763.77
744.502	25744.79
744.841	25787.05
745.181	25812.13
745.52	25710.67
745.86	25633.83
746.199	25588.86
746.538	25493.27
746.877	25532.14
747.216	25523.55
747.556	25371.24
747.895	25328.75
748.234	25241.07
748.573	25264.35
748.911	25275.42
749.25	25146.84
749.589	25143.68
749.928	25148.65
750.267	25117.46
750.605	25084.69
750.944	25030.68
751.283	24880.63
751.621	24947.52
751.96	24752.5
752.298	24747.53
752.636	24780.97
752.975	24672.28
753.313	24688.32
753.651	24727.64
753.989	24538.27
754.327	24517.93
754.666	24440.42
755.004	24430.25
755.342	24503.47
755.679	24423.47
756.017	24211.27
756.355	24277.03
756.693	24222.12
757.031	24076.81
757.368	24110.03
757.706	24084.49
758.044	23988
758.381	24014.89
758.719	23871.17
759.056	23782.81
759.394	23799.53
759.731	23678.4
760.068	23507.56
760.405	23456.04
760.743	23425.98
761.08	23495.58
761.417	23314.57
761.754	23280.45
762.091	23282.93
762.428	23233.89
762.765	23030.51
763.102	23067.35
763.438	22953
763.775	22851.98
764.112	22783.96
764.449	22819.22
764.785	22737.86
765.122	22662.38
765.458	22500.58
765.795	22525.89
766.131	22446.12
766.467	22308.72
766.804	22195.96
767.14	22192.34
767.476	22197.99
767.812	21988.73
768.148	22049.97
768.485	22049.97
768.821	21852.24
769.157	21837.77
769.492	21693.37
769.828	21676.65
770.164	21451.34
770.5	21413.83
770.836	21459.7
771.171	21376.77
771.507	21357.33
771.842	21173.84
772.178	21130.22
772.513	21056.32
772.849	21012.94
773.184	20855.65
773.519	20914.18
773.855	20803.9
774.19	20648.65
774.525	20648.88
774.86	20674.41
775.195	20549.9
775.53	20498.6
775.865	20365.04
776.2	20143.35
776.535	20151.72
776.87	20109.46
777.205	20023.36
777.539	19992.85
777.874	20001.21
778.209	19800.76
778.543	19704.5
778.878	19609.13
779.212	19600.77
779.547	19480.1
779.881	19538.17
780.215	19375.92
780.55	19352.64
780.884	19279.42
781.218	19240.55
781.552	19151.74
781.886	19133.21
782.22	18974.35
782.554	19024.97
782.888	18850.96
783.222	18808.47
783.556	18588.82
783.889	18518.76
784.223	18494.36
784.557	18435.15
784.89	18488.93
785.224	18385.89
785.557	18309.05
785.891	18285.78
786.224	18164.88
786.558	18059.12
786.891	17998.55
787.224	17904.32
787.557	17921.27
787.891	17897.54
788.224	17833.13
788.557	17889.18
788.89	17688.5
789.223	17697.54
789.556	17578.45
789.888	17575.51
790.221	17496.87
790.554	17270.66
790.887	17334.84
791.219	17229.98
791.552	17184.34
791.884	17065.47
792.217	17148.63
792.549	17046.49
792.882	16910.9
793.214	16847.85
793.546	16862.99
793.879	16799.26
794.211	16709.09
794.543	16672.49
794.875	16697.57
795.207	16616.89
795.539	16536.9
795.871	16500.96
796.203	16300.97
796.535	16274.08
796.867	16220.52
797.198	16204.48
797.53	16252.84
797.862	16187.3
798.193	16136.45
798.525	16022.11
798.856	15920.19
799.188	15810.36
799.519	15825.28
799.85	15688.78
800.182	15825.28
800.513	15827.31
800.844	15564.04
801.175	15687.88
801.506	15633.19
801.837	15561.55
802.168	15496.25
802.499	15453.31
802.83	15298.28
803.161	15301
803.491	15300.54
803.822	15226.2
804.153	15203.6
804.483	15083.37
804.814	15074.56
805.145	14999.76
805.475	14959.99
805.805	14987.56
806.136	14998.63
806.466	14900.78
806.796	14884.06
807.126	14788.02
807.457	14863.95
807.787	14707.79
808.117	14715.25
808.447	14686.32
808.777	14664.4
809.107	14574.46
809.436	14591.41
809.766	14529.94
810.096	14489.04
810.426	14472.09
810.755	14448.14
811.085	14439.78
811.414	14307.35
811.744	14181.25
812.073	14246.79
812.403	14253.34
812.732	14095.6
813.061	14096.28
813.39	14043.4
813.719	13975.83
814.049	14092.89
814.378	13936.06
814.707	13926.34
815.036	13885.44
815.365	13797.76
815.693	13690.19
816.022	13761.6
816.351	13728.38
816.68	13616.52
817.008	13690.87
817.337	13530.2
817.665	13583.98
817.994	13582.62
818.322	13491.33
818.651	13425.57
818.979	13468.95
819.307	13515.28
819.636	13464.89
819.964	13355.96
820.292	13391.89
820.62	13362.29
820.948	13304.21
821.276	13293.14
821.604	13253.37
821.932	13329.3
822.259	13339.47
822.587	13280.71
822.915	13227.6
823.243	13361.16
823.57	13151.22
823.898	13254.5
824.225	13183.31
824.553	13161.17
824.88	13237.32
825.207	13276.87
825.535	13204.33
825.862	13174.27
826.189	13161.17
826.516	13193.03
826.843	13234.16
827.17	13193.93
827.497	13186.7
827.824	13212.46
828.151	13315.74
828.478	13195.97
828.805	13253.59
829.131	13177.89
829.458	13125.91
829.785	13064.9
830.111	13145.12
830.438	13262.63
830.764	13212.69
831.09	13261.5
831.417	13156.19
831.743	13150.54
832.069	13079.13
832.395	13077.33
832.722	13170.2
833.048	13058.57
833.374	13082.75
833.7	13057.44
834.026	13124.1
834.351	12971.34
834.677	13065.57
835.003	13078.23
835.329	13035.97
835.654	12961.4
835.98	12986.93
836.306	12986.93
836.631	12915.52
836.956	12866.48
837.282	12917.1
837.607	12946.48
837.932	12864.9
838.258	12893.6
838.583	12816.32
838.908	12738.13
839.233	12776.54
839.558	12781.06
839.883	12754.85
840.208	12650.9
840.533	12719.82
840.858	12704.23
841.182	12633.5
841.507	12550.11
841.832	12527.28
842.156	12525.25
842.481	12525.02
842.805	12564.12
843.13	12529.54
843.454	12452.94
843.778	12432.6
844.103	12458.36
844.427	12402.77
844.751	12367.51
845.075	12328.64
845.399	12320.28
845.723	12148.99
846.047	12245.94
846.371	12110.12
846.695	12115.99
847.019	12029.67
847.343	12000.74
847.666	11934.08
847.99	11918.49
848.313	11836
848.637	11791.71
848.96	11734.76
849.284	11760.07
849.607	11628.1
849.931	11605.95
850.254	11560.76
850.577	11490.25
850.9	11396.47
851.223	11454.09
851.546	11308.33
851.869	11323.25
852.192	11305.62
852.515	11203.7
852.838	11149.01
853.161	11150.14
853.483	11123.48
853.806	11062.46
854.129	10988.57
854.451	11009.13
854.774	10925.29
855.096	10899.3
855.419	10833.54
855.741	10859.98
856.063	10834.9
856.385	10792.19
856.708	10778.18
857.03	10696.37
857.352	10688.69
857.674	10681
857.996	10607.11
858.318	10594.68
858.64	10556.94
858.961	10599.65
859.283	10512.2
859.605	10437.62
859.926	10494.12
860.248	10464.51
860.57	10423.16
860.891	10378.41
861.212	10324.63
861.534	10368.7
861.855	10352.2
862.176	10333.67
862.498	10258.64
862.819	10245.99
863.14	10244.63
863.461	10256.38
863.782	10181.13
864.103	10237.85
864.424	10092.09
864.745	10214.12
865.065	10087.35
865.386	10081.25
865.707	10109.04
866.027	10106.78
866.348	10076.05
866.668	10089.38
866.989	9998.31
867.309	9961.7
867.63	9941.14
867.95	9944.75
868.27	9935.49
868.59	9925.54
868.91	9891.87
869.23	9866.11
869.55	9839.22
869.87	9862.95
870.19	9863.85
870.51	9831.76
870.83	9829.28
871.15	9788.82
871.469	9731.65
871.789	9818.2
872.109	9815.49
872.428	9689.39
872.748	9717.64
873.067	9723.74
873.386	9692.78
873.706	9705.89
874.025	9599.9
874.344	9596.29
874.663	9594.03
874.982	9579.79
875.301	9559.68
875.62	9550.86
875.939	9535.72
876.258	9560.81
876.577	9474.26
876.896	9504.54
877.214	9420.92
877.533	9442.84
877.852	9404.88
878.17	9460.7
878.489	9398.55
878.807	9356.07
879.125	9369.4
879.444	9348.84
879.762	9361.04
880.08	9372.56
880.398	9324.88
880.716	9353.58
881.034	9294.37
881.352	9283.3
881.67	9239.01
881.988	9229.52
882.306	9174.6
882.624	9192
882.941	9141.84
883.259	9092.57
883.577	9132.34
883.894	9068.39
884.212	9052.8
884.529	9054.61
884.846	9011.67
885.164	8997.88
885.481	9053.48
885.798	9002.86
886.115	8876.31
886.432	8968.51
886.75	8917.89
887.067	8931.9
887.383	8792.24
887.7	8855.29
888.017	8755.63
888.334	8841.05
888.651	8770.32
888.967	8723.32
889.284	8745.01
889.6	8728.06
889.917	8663.43
890.233	8608.52
890.55	8674.73
890.866	8625.24
891.182	8549.54
891.498	8571.23
891.815	8483.77
892.131	8533.49
892.447	8507.28
892.763	8435.41
893.079	8502.08
893.395	8341.18
893.71	8407.62
894.026	8336.66
894.342	8325.81
894.657	8299.82
894.973	8267.96
895.289	8235.87
895.604	8295.53
895.92	8160.17
896.235	8131.69
896.55	8173.73
896.865	8078.36
897.181	8051.92
897.496	8111.13
897.811	8075.65
898.126	7995.2
898.441	7966.5
898.756	7981.41
899.071	7931.02
899.386	7932.83
899.7	7813.74
900.015	7877.69
900.33	7769.67
900.644	7775.54
900.959	7830.01
901.273	7794.75
901.588	7705.49
901.902	7647.86
902.216	7644.25
902.531	7622.33
902.845	7608.32
903.159	7578.04
903.473	7440.19
903.787	7520.41
904.101	7483.12
904.415	7510.24
904.729	7430.02
905.042	7397.25
905.356	7416.46
905.67	7404.48
905.984	7377.59
906.297	7310.47
906.611	7242
906.924	7219.85
907.237	7187.76
907.551	7215.11
907.864	7178.05
908.177	7159.06
908.491	7138.5
908.804	7115.45
909.117	6978.95
909.43	7035.9
909.743	6995.9
910.056	6997.26
910.368	6967.2
910.681	6934.44
910.994	6852.4
911.307	6878.17
911.619	6796.36
911.932	6808.56
912.244	6817.83
912.557	6696.25
912.869	6732.41
913.181	6682.24
913.494	6627.1
913.806	6635.46
914.118	6631.17
914.43	6565.63
914.742	6534.9
915.054	6512.75
915.366	6495.13
915.678	6497.39
915.99	6398.86
916.302	6340.78
916.613	6433.21
916.925	6382.59
917.236	6329.93
917.548	6301.01
917.859	6287.22
918.171	6168.58
918.482	6247.45
918.794	6208.35
919.105	6195.02
919.416	6145.3
919.727	6105.53
920.038	6152.31
920.349	6012.2
920.66	6071.63
920.971	6065.08
921.282	6003.61
921.593	5960
921.903	5920
922.214	5894.69
922.525	5873.45
922.835	5863.96
923.146	5873.67
923.456	5819.21
923.767	5779.89
924.077	5860.34
924.387	5758.42
924.697	5745.99
925.008	5661.93
925.318	5688.37
925.628	5743.51
925.938	5669.84
926.248	5634.81
926.558	5609.27
926.867	5545.55
927.177	5595.71
927.487	5520.01
927.796	5447.24
928.106	5465.77
928.416	5431.42
928.725	5471.2
929.034	5433.68
929.344	5433.46
929.653	5416.96
929.962	5357.53
930.271	5360.01
930.581	5350.98
930.89	5295.16
931.199	5305.1
931.508	5204.99
931.817	5199.57
932.125	5192.34
932.434	5244.09
932.743	5132
933.051	5113.47
933.36	5039.12
933.669	5077.99
933.977	5039.8
934.286	5068.27
934.594	5009.52
934.902	4928.61
935.21	4944.66
935.519	4971.78
935.827	4919.35
936.135	4931.78
936.443	4871.89
936.751	4831.44
937.059	4800.26
937.367	4850.2
937.674	4800.48
937.982	4737.43
938.29	4781.05
938.597	4767.26
938.905	4680.48
939.213	4680.94
939.52	4647.49
939.827	4653.82
940.135	4606.36
940.442	4626.7
940.749	4601.62
941.056	4593.71
941.363	4538.57
941.67	4556.87
941.977	4479.36
942.284	4473.48
942.591	4455.41
942.898	4438.23
943.205	4415.41
943.511	4422.86
943.818	4377.89
944.125	4346.26
944.431	4316.65
944.738	4350.78
945.044	4347.16
945.35	4293.6
945.657	4285.24
945.963	4267.39
946.269	4249.54
946.575	4224.23
946.881	4231.91
947.187	4193.49
947.493	4184.68
947.799	4195.3
948.105	4133.83
948.41	4089.54
948.716	4159.14
949.022	4079.14
949.327	4109.65
949.633	4061.07
949.938	4019.26
950.244	4064.68
950.549	4028.75
950.854	3992.37
951.16	3946.27
951.465	3967.06
951.77	3930.9
952.075	3907.85
952.38	3930.9
952.685	3880.51
952.99	3892.26
953.294	3861.3
953.599	3820.39
953.904	3808.42
954.209	3782.88
954.513	3791.69
954.818	3730.23
955.122	3746.27
955.426	3710.79
955.731	3752.37
956.035	3739.94
956.339	3707.18
956.643	3692.94
956.948	3626.95
957.252	3649.55
957.556	3612.49
957.86	3647.97
958.163	3630.12
958.467	3592.83
958.771	3580.17
959.075	3588.31
959.378	3532.04
959.682	3524.36
959.985	3516
960.289	3506.96
960.592	3491.81
960.896	3474.19
961.199	3466.96
961.502	3441.87
961.805	3423.79
962.108	3423.34
962.411	3408.43
962.714	3433.29
963.017	3364.59
963.32	3343.57
963.623	3295.89
963.926	3276.68
964.228	3286.85
964.531	3274.87
964.833	3285.49
965.136	3242.78
965.438	3220.41
965.741	3221.54
966.043	3220.64
966.345	3217.47
966.648	3206.85
966.95	3189.45
967.252	3192.39
967.554	3151.48
967.856	3138.38
968.158	3067.42
968.46	3098.6
968.761	3121.2
969.063	3106.97
969.365	3043.24
969.666	3108.77
969.968	3065.16
970.269	2993.52
970.571	3013.18
970.872	3006.86
971.174	3017.25
971.475	2985.61
971.776	2965.28
972.077	2960.3
972.378	2922.34
972.679	2925.73
972.98	2914.66
973.281	2900.19
973.582	2927.99
973.883	2872.62
974.183	2875.79
974.484	2878.72
974.785	2857.71
975.085	2830.82
975.386	2852.96
975.686	2841.44
975.986	2797.6
976.287	2752.4
976.587	2740.2
976.887	2742.68
977.187	2724.38
977.487	2732.29
977.787	2716.69
978.087	2704.72
978.387	2739.52
978.687	2683.47
978.987	2716.47
979.286	2680.99
979.586	2650.93
979.885	2642.35
980.185	2647.32
980.484	2630.59
980.784	2617.04
981.083	2599.86
981.382	2575
981.682	2543.59
981.981	2561.44
982.28	2528.45
982.579	2524.16
982.878	2534.55
983.177	2555.12
983.475	2534.1
983.774	2530.71
984.073	2521.9
984.372	2471.73
984.67	2455.46
984.969	2488.68
985.267	2445.06
985.566	2450.71
985.864	2400.32
986.162	2431.73
986.461	2402.35
986.759	2377.72
987.057	2364.84
987.355	2355.8
987.653	2353.99
987.951	2338.62
988.249	2343.82
988.547	2353.99
988.844	2344.95
989.142	2332.3
989.44	2300.89
989.737	2269.93
990.035	2264.95
990.332	2273.77
990.63	2266.99
990.927	2236.48
991.224	2227.67
991.521	2243.49
991.819	2210.72
992.116	2223.6
992.413	2165.75
992.71	2195.58
993.006	2153.77
993.303	2158.74
993.6	2175.92
993.897	2179.08
994.193	2138.63
994.49	2144.73
994.787	2122.36
995.083	2104.96
995.379	2102.25
995.676	2082.59
995.972	2048.69
996.268	2080.1
996.565	2057.95
996.861	2078.29
997.157	2018.41
997.453	2029.48
997.749	1988.35
998.044	2004.17
998.34	2005.07
998.636	1999.65
998.932	1970.73
999.227	1985.87
999.523	1928.47
999.818	1931.18
1000.114	1933.44
1000.409	1932.76
1000.704	1897.73
1001	1947.67
1001.295	1867.45
1001.59	1896.83
1001.885	1894.79
1002.18	1867.22
1002.475	1861.12
1002.77	1863.16
1003.065	1824.97
1003.359	1823.16
1003.654	1817.28
1003.949	1806.66
1004.243	1788.58
1004.538	1799.2
1004.832	1770.96
1005.127	1754.69
1005.421	1744.29
1005.715	1755.36
1006.009	1707.46
1006.304	1719.21
1006.598	1708.13
1006.892	1701.13
1007.186	1729.83
1007.48	1697.96
1007.773	1671.3
1008.067	1655.25
1008.361	1693.67
1008.655	1670.85
1008.948	1651.64
1009.242	1653.9
1009.535	1630.62
1009.829	1638.53
1010.122	1612.99
1010.415	1598.08
1010.708	1598.98
1011.001	1594.24
1011.295	1537.29
1011.588	1610.06
1011.881	1565.09
1012.173	1544.3
1012.466	1550.62
1012.759	1537.52
1013.052	1514.92
1013.344	1527.35
1013.637	1530.28
1013.93	1485.54
1014.222	1486.67
1014.514	1487.57
1014.807	1486.44
1015.099	1468.59
1015.391	1467.24
1015.683	1448.7
1015.976	1446.9
1016.268	1442.38
1016.56	1427.69
1016.851	1409.38
1017.143	1429.95
1017.435	1420.91
1017.727	1389.72
1018.018	1380.68
1018.31	1423.17
1018.602	1369.38
1018.893	1359.44
1019.185	1335.71
1019.476	1309.05
1019.767	1318.76
1020.058	1308.6
1020.35	1306.34
1020.641	1292.32
1020.932	1305.21
1021.223	1292.32
1021.514	1288.26
1021.804	1276.51
1022.095	1264.53
1022.386	1270.18
1022.677	1249.39
1022.967	1242.83
1023.258	1216.39
1023.548	1220.24
1023.839	1223.63
1024.129	1213.91
1024.419	1214.59
1024.709	1183.85
1025	1205.55
1025.29	1190.63
1025.58	1205.32
1025.87	1190.41
1026.16	1142.72
1026.449	1167.58
1026.739	1157.64
1027.029	1131.2
1027.319	1135.27
1027.608	1126
1027.898	1107.02
1028.187	1135.72
1028.477	1140.24
1028.766	1135.49
1029.055	1114.25
1029.344	1087.13
1029.634	1097.08
1029.923	1082.84
1030.212	1091.88
1030.501	1029.96
1030.79	1037.19
1031.078	1037.42
1031.367	1035.83
1031.656	1035.16
1031.945	1034.03
1032.233	1025.89
1032.522	1030.64
1032.81	990.64
1033.099	975.27
1033.387	989.28
1033.675	995.16
1033.963	985.89
1034.251	968.49
1034.54	1000.36
1034.828	966.68
1035.116	930.75
1035.403	935.95
1035.691	955.84
1035.979	916.74
1036.267	916.97
1036.554	922.39
1036.842	938.66
1037.129	910.87
1037.417	924.2
1037.704	920.36
1037.992	920.13
1038.279	880.36
1038.566	897.31
1038.853	897.31
1039.14	897.31
