Data from hue_110_FLMS001491_00016.txt Node
Date: Tue Feb 07 17:00:58 GMT 2017
User: dcchb
Spectrometer: FLMS00149
Trigger mode: 0
Integration Time (sec): 2.000000E-2
Scans to average: 10
Electric dark correction enabled: true
Nonlinearity correction enabled: false
Boxcar width: 0
XAxis mode: Wavelengths
Number of Pixels in Spectrum: 2048
>>>>>Begin Spectral Data<<<<<
341.393	-26.27
341.776	-26.27
342.16	-26.27
342.543	-66.95
342.927	-59.94
343.31	-73.5
343.693	-65.14
344.077	-59.94
344.46	-67.63
344.843	-44.12
345.226	-58.13
345.61	-28.53
345.993	-17.91
346.376	-8.87
346.759	11.24
347.142	28.19
347.525	42.2
347.908	74.07
348.291	64.12
348.674	96.44
349.057	107.51
349.44	119.49
349.823	162.88
350.206	158.81
350.588	203.55
350.971	194.74
351.354	220.73
351.737	221.41
352.119	244.46
352.502	259.82
352.884	291.01
353.267	277.22
353.65	284.68
354.032	291.69
354.414	312.25
354.797	290.11
355.179	319.94
355.562	331.23
355.944	316.32
356.326	310.9
356.709	325.13
357.091	336.66
357.473	331.69
357.855	340.95
358.238	338.01
358.62	319.26
359.002	341.63
359.384	337.79
359.766	337.56
360.148	327.84
360.53	355.64
360.912	327.39
361.294	327.17
361.676	341.4
362.057	338.92
362.439	333.72
362.821	327.39
363.203	310.9
363.584	320.16
363.966	334.85
364.348	317.68
364.729	324.91
365.111	304.34
365.493	319.03
365.874	304.12
366.256	336.66
366.637	323.1
367.019	306.15
367.4	330.1
367.781	324.23
368.163	325.58
368.544	293.04
368.925	316.09
369.306	307.96
369.688	301.18
370.069	304.34
370.45	296.21
370.831	317.45
371.212	306.83
371.593	314.96
371.974	309.99
372.355	288.07
372.736	339.37
373.117	308.41
373.498	323.32
373.879	315.42
374.26	305.47
374.641	322.87
375.021	312.25
375.402	298.92
375.783	335.53
376.163	325.13
376.544	309.09
376.925	323.55
377.305	325.81
377.686	339.37
378.066	317.22
378.447	312.7
378.827	322.65
379.208	342.99
379.588	328.75
379.968	343.66
380.349	327.84
380.729	333.72
381.109	335.75
381.489	336.43
381.87	343.44
382.25	363.32
382.63	319.71
383.01	351.12
383.39	337.56
383.77	342.76
384.15	368.3
384.53	349.09
384.91	327.39
385.29	331.46
385.67	329.65
386.049	343.44
386.429	346.6
386.809	353.83
387.189	352.93
387.568	358.8
387.948	364
388.328	363.55
388.707	370.78
389.087	336.66
389.466	369.88
389.846	359.26
390.225	359.93
390.605	356.54
390.984	372.82
391.363	370.1
391.743	359.71
392.122	380.5
392.501	372.36
392.881	375.3
393.26	376.43
393.639	347.73
394.018	368.75
394.397	394.28
394.776	384.79
395.155	374.4
395.534	389.54
395.913	383.21
396.292	388.86
396.671	381.63
397.05	406.03
397.429	393.83
397.808	390.89
398.186	392.02
398.565	371.23
398.944	387.96
399.323	389.54
399.701	401.51
400.08	408.52
400.458	393.15
400.837	402.64
401.215	397
401.594	393.61
401.972	405.58
402.351	387.96
402.729	391.57
403.107	412.59
403.486	419.14
403.864	419.14
404.242	412.36
404.62	421.63
404.999	418.69
405.377	429.99
405.755	412.59
406.133	420.95
406.511	429.76
406.889	419.82
407.267	434.96
407.645	418.24
408.023	421.63
408.401	439.48
408.779	448.29
409.156	431.8
409.534	446.26
409.912	439.71
410.29	436.77
410.667	446.03
411.045	451.23
411.422	459.82
411.8	455.98
412.178	470.44
412.555	462.53
412.933	439.93
413.31	489.87
413.687	483.09
414.065	476.32
414.442	469.08
414.819	499.14
415.197	493.49
415.574	488.52
415.951	498.24
416.328	506.6
416.705	476.77
417.082	505.92
417.46	509.53
417.837	508.86
418.214	521.51
418.591	507.05
418.967	514.05
419.344	533.04
419.721	528.29
420.098	516.09
420.475	537.56
420.852	545.47
421.228	546.14
421.605	551.34
421.982	525.35
422.358	547.05
422.735	539.14
423.111	536.2
423.488	573.49
423.864	558.57
424.241	560.38
424.617	572.58
424.994	558.57
425.37	602.87
425.746	571
426.123	570.78
426.499	596.31
426.875	573.71
427.251	607.16
427.627	616.2
428.003	597.89
428.379	603.09
428.756	610.1
429.132	608.74
429.507	627.95
429.883	619.81
430.259	620.27
430.635	630.89
431.011	614.62
431.387	669.3
431.763	643.32
432.138	657.55
432.514	681.73
432.89	637.21
433.265	679.25
433.641	698.23
434.016	671.79
434.392	686.93
434.767	709.76
435.143	670.21
435.518	707.5
435.894	700.94
436.269	700.26
436.644	720.38
437.02	724.67
437.395	721.28
437.77	755.18
438.145	743.65
438.52	758.12
438.895	745.91
439.271	773.48
439.646	765.8
440.021	762.64
440.395	753.37
440.77	796.98
441.145	778.91
441.52	818
441.895	786.14
442.27	801.05
442.645	819.81
443.019	845.35
443.394	788.85
443.769	828.62
444.143	841.28
444.518	832.24
444.892	834.05
445.267	849.86
445.641	851.22
446.016	860.03
446.39	864.1
446.764	881.05
447.139	868.4
447.513	887.6
447.887	874.04
448.262	865.91
448.636	891.45
449.01	907.94
449.384	903.87
449.758	897.1
450.132	941.39
450.506	899.81
450.88	916.98
451.254	916.08
451.628	917.43
452.002	943.87
452.376	966.7
452.75	968.51
453.123	963.99
453.497	957.21
453.871	970.31
454.244	982.29
454.618	998.56
454.992	1002.85
455.365	1004.44
455.739	1042.63
456.112	1039.69
456.486	1067.26
456.859	1082.17
457.232	1090.99
457.606	1095.96
457.979	1103.42
458.352	1129.86
458.725	1128.5
459.099	1140.7
459.472	1146.13
459.845	1170.99
460.218	1153.13
460.591	1191.32
460.964	1194.49
461.337	1237.65
461.71	1243.3
462.083	1257.76
462.456	1253.47
462.829	1267.48
463.201	1274.03
463.574	1322.85
463.947	1289.63
464.32	1348.38
464.692	1373.92
465.065	1368.72
465.438	1399.91
465.81	1414.82
466.183	1407.82
466.555	1472.9
466.928	1420.92
467.3	1477.19
467.672	1495.95
468.045	1537.98
468.417	1575.72
468.789	1559.22
469.161	1582.73
469.534	1629.73
469.906	1660.46
470.278	1694.36
470.65	1665.89
471.022	1742.95
471.394	1739.56
471.766	1793.12
472.138	1862.95
472.51	1898.42
472.882	1906.79
473.253	1970.51
473.625	2009.38
473.997	2059.78
474.369	2087.35
474.74	2113.56
475.112	2147.01
475.484	2231.98
475.855	2251.64
476.227	2302.71
476.598	2388.58
476.97	2430.16
477.341	2486.21
477.713	2576.82
478.084	2620.44
478.455	2685.07
478.827	2737.5
479.198	2811.4
479.569	2890.71
479.94	2980.43
480.311	3061.78
480.682	3144.04
481.053	3266.52
481.424	3346.75
481.795	3403.02
482.166	3478.04
482.537	3557.59
482.908	3666.97
483.279	3740.86
483.65	3851.59
484.021	3979.73
484.391	4064.24
484.762	4173.62
485.133	4243.9
485.503	4355.99
485.874	4533.84
486.244	4611.35
486.615	4743.77
486.985	4880.04
487.356	4991.22
487.726	5104.89
488.097	5266.02
488.467	5338.56
488.837	5503.75
489.207	5642.28
489.578	5768.15
489.948	5884.08
490.318	6028.71
490.688	6134.7
491.058	6271.42
491.428	6403.16
491.798	6517.06
492.168	6734.23
492.538	6852.87
492.908	6958.18
493.278	7123.15
493.648	7167.44
494.017	7419.86
494.387	7487.66
494.757	7570.37
495.126	7757.93
495.496	7883.35
495.866	7962.67
496.235	8096
496.605	8313.17
496.974	8404.02
497.344	8508.42
497.713	8582.54
498.082	8713.61
498.452	8849.43
498.821	8967.84
499.19	9007.62
499.559	9218.91
499.928	9259.81
500.298	9375.52
500.667	9534.61
501.036	9543.2
501.405	9682.63
501.774	9701.84
502.143	9865.22
502.512	9967.37
502.88	10056.4
503.249	10138.43
503.618	10210.97
503.987	10257.75
504.356	10426.34
504.724	10526.67
505.093	10567.58
505.462	10597.4
505.83	10767.57
506.199	10793.33
506.567	10967.11
506.936	10957.62
507.304	11061.57
507.672	11130.27
508.041	11210.95
508.409	11285.52
508.777	11379.76
509.145	11511.05
509.514	11527.55
509.882	11606.87
510.25	11679.41
510.618	11785.4
510.986	11783.36
511.354	11889.57
511.722	11949.91
512.09	12004.83
512.458	11957.14
512.826	12116.46
513.193	12186.97
513.561	12254.31
513.929	12247.31
514.297	12332.05
514.664	12369.34
515.032	12430.13
515.4	12511.93
515.767	12449.33
516.135	12586.05
516.502	12492.95
516.869	12708.76
517.237	12697.01
517.604	12625.37
517.972	12814.75
518.339	12849.55
518.706	12800.28
519.073	12902.43
519.44	12932.94
519.808	12982.2
520.175	13058.13
520.542	13100.84
520.909	13113.05
521.276	13011.58
521.643	13234.62
522.009	13256.77
522.376	13284.57
522.743	13292.02
523.11	13467.39
523.477	13370.89
523.843	13476.2
524.21	13482.07
524.577	13581.06
524.943	13602.75
525.31	13570.89
525.676	13702.18
526.043	13787.38
526.409	13721.39
526.776	13804.33
527.142	13879.8
527.508	13885
527.874	13927.94
528.241	13908.96
528.607	13867.38
528.973	13936.07
529.339	13863.53
529.705	14021.27
530.071	13991.44
530.437	14029.41
530.803	14109.4
531.169	14014.04
531.535	13940.37
531.901	13993.47
532.267	14084.77
532.632	13950.76
532.998	14103.08
533.364	14134.04
533.73	14024.89
534.095	14096.07
534.461	14073.7
534.826	14085.45
535.192	14087.03
535.557	14113.02
535.923	13956.86
536.288	14004.77
536.653	14000.48
537.019	13953.93
537.384	13936.53
537.749	14031.44
538.114	13955.51
538.479	13912.8
538.845	13837.77
539.21	13898.79
539.575	13848.17
539.94	13911.67
540.305	13805.91
540.67	13744.67
541.034	13770.65
541.399	13742.86
541.764	13792.12
542.129	13778.79
542.494	13690.21
542.858	13630.77
543.223	13654.73
543.587	13679.58
543.952	13549.64
544.316	13532.24
544.681	13507.38
545.045	13555.07
545.41	13450.44
545.774	13490.44
546.138	13489.08
546.503	13423.09
546.867	13336.32
547.231	13362.98
547.595	13433.71
547.959	13258.58
548.324	13245.47
548.688	13246.6
549.052	13307.16
549.416	13201.63
549.779	13209.54
550.143	13214.96
550.507	13126.6
550.871	13148.07
551.235	13113.95
551.599	13186.72
551.962	13078.7
552.326	13078.02
552.689	13121.41
553.053	13005.25
553.417	13019.26
553.78	13084.57
554.143	12921.64
554.507	13003.22
554.87	12953.73
555.234	13073.05
555.597	12946.72
555.96	12892.71
556.323	12884.12
556.686	12915.31
557.05	12958.47
557.413	12957.79
557.776	12954.63
558.139	12890
558.502	12861.98
558.865	12896.78
559.228	12926.84
559.59	12943.78
559.953	12901.07
560.316	13033.05
560.679	12998.25
561.041	12930.9
561.404	12990.79
561.767	12997.34
562.129	12958.7
562.492	12950.79
562.854	12942.65
563.217	12926.61
563.579	12946.04
563.941	12954.18
564.304	13050
564.666	12995.53
565.028	13029.43
565.39	13115.53
565.753	13108.75
566.115	13113.5
566.477	13163.44
566.839	13035.98
567.201	13094.97
567.563	13140.84
567.925	13216.09
568.287	13167.96
568.648	13099.03
569.01	13228.52
569.372	13193.04
569.734	13219.93
570.095	13225.58
570.457	13235.53
570.819	13228.07
571.18	13209.54
571.542	13240.05
571.903	13300.16
572.265	13286.37
572.626	13263.1
572.987	13342.19
573.349	13331.12
573.71	13436.65
574.071	13486.14
574.432	13381.29
574.794	13582.86
575.155	13405.24
575.516	13416.99
575.877	13428.97
576.238	13395.52
576.599	13513.49
576.96	13408.18
577.32	13460.15
577.681	13489.98
578.042	13491.34
578.403	13496.54
578.763	13541.73
579.124	13571.34
579.485	13556.65
579.845	13506.26
580.206	13517.78
580.566	13419.25
580.927	13515.52
581.287	13504.22
581.648	13473.04
582.008	13545.12
582.368	13463.09
582.728	13534.28
583.089	13502.41
583.449	13429.65
583.809	13478.23
584.169	13528.4
584.529	13489.53
584.889	13623.09
585.249	13404.34
585.609	13424.22
585.969	13435.97
586.329	13423.55
586.688	13440.27
587.048	13440.95
587.408	13404.34
587.768	13388.74
588.127	13377.44
588.487	13346.49
588.846	13470.1
589.206	13397.56
589.565	13341.06
589.925	13374.28
590.284	13367.28
590.643	13339.93
591.003	13369.31
591.362	13328.41
591.721	13304.45
592.08	13380.61
592.44	13312.36
592.799	13359.37
593.158	13283.44
593.517	13254.51
593.876	13320.27
594.235	13232.82
594.593	13248.63
594.952	13289.99
595.311	13205.7
595.67	13313.04
596.029	13320.5
596.387	13216.77
596.746	13312.14
597.104	13190.33
597.463	13209.09
597.822	13248.41
598.18	13143.55
598.538	13147.39
598.897	13253.83
599.255	13178.81
599.613	13369.31
599.972	13172.03
600.33	13329.54
600.688	13171.35
601.046	13277.33
601.404	13270.1
601.762	13229.2
602.12	13348.29
602.478	13214.51
602.836	13271.46
603.194	13242.08
603.552	13240.05
603.91	13202.53
604.268	13245.92
604.625	13257.45
604.983	13270.1
605.341	13170.67
605.698	13205.47
606.056	13301.06
606.413	13264.91
606.771	13257
607.128	13285.47
607.485	13235.3
607.843	13240.27
608.2	13355.75
608.557	13287.28
608.914	13276.88
609.272	13267.62
609.629	13353.26
609.986	13422.42
610.343	13315.3
610.7	13421.74
611.057	13381.74
611.414	13336.32
611.771	13357.56
612.127	13380.61
612.484	13402.3
612.841	13507.61
613.198	13468.29
613.554	13515.07
613.911	13539.25
614.267	13489.98
614.624	13434.17
614.98	13439.36
615.337	13573.6
615.693	13532.24
616.05	13529.76
616.406	13561.62
616.762	13578.34
617.118	13489.31
617.475	13509.64
617.831	13598.68
618.187	13647.72
618.543	13576.31
618.899	13651.56
619.255	13642.75
619.611	13612.24
619.967	13678.91
620.323	13697.21
620.678	13685.91
621.034	13591.9
621.39	13555.07
621.746	13640.71
622.101	13792.12
622.457	13628.51
622.812	13618.12
623.168	13723.88
623.523	13671.9
623.879	13661.05
624.234	13646.36
624.589	13618.12
624.945	13578.12
625.3	13628.51
625.655	13666.93
626.01	13662.64
626.365	13682.07
626.72	13644.33
627.075	13609.53
627.43	13588.06
627.785	13605.24
628.14	13623.31
628.495	13665.12
628.85	13569.08
629.205	13503.09
629.559	13488.85
629.914	13501.96
630.269	13626.03
630.623	13413.38
630.978	13485.69
631.332	13580.6
631.687	13595.07
632.041	13542.86
632.396	13506.03
632.75	13510.77
633.104	13462.41
633.459	13501.96
633.813	13474.84
634.167	13499.93
634.521	13391.23
634.875	13502.19
635.229	13460.83
635.583	13346.26
635.937	13339.48
636.291	13327.28
636.645	13337.45
636.999	13302.64
637.352	13373.15
637.706	13245.92
638.06	13311.23
638.413	13311.23
638.767	13280.5
639.121	13265.81
639.474	13184.68
639.828	13179.03
640.181	13216.77
640.534	13198.47
640.888	13148.07
641.241	13120.5
641.594	13208.86
641.947	13155.76
642.301	13216.32
642.654	13216.09
643.007	13145.13
643.36	13093.16
643.713	13123.21
644.066	13198.01
644.419	13052.93
644.771	13028.53
645.124	12860.85
645.477	12856.78
645.83	12756.67
646.182	12635.09
646.535	12748.76
646.888	12717.12
647.24	12663.57
647.593	12715.77
647.945	12689.55
648.298	12614.53
648.65	12477.58
649.002	12554.19
649.355	12553.74
649.707	12669.44
650.059	12608.88
650.411	12847.06
650.763	12858.14
651.115	12958.47
651.467	12897.91
651.819	12946.5
652.171	12896.78
652.523	12964.35
652.875	12824.01
653.227	12869.66
653.578	12982.88
653.93	12924.58
654.282	12891.36
654.633	12823.79
654.985	12874.63
655.337	12889.1
655.688	12954.18
656.039	13016.78
656.391	12899.04
656.742	12851.81
657.094	12953.5
657.445	12933.16
657.796	12876.44
658.147	12858.81
658.498	12848.65
658.849	12912.82
659.2	12909.66
659.551	12853.16
659.902	12935.87
660.253	12936.55
660.604	12957.79
660.955	12924.8
661.306	12978.59
661.656	12881.64
662.007	12847.52
662.358	12890.9
662.708	12880.73
663.059	12908.98
663.409	12867.63
663.76	12981.98
664.11	12947.85
664.461	13067.4
664.811	12951.92
665.161	13039.83
665.511	12937.23
665.862	12994.18
666.212	12994.86
666.562	13016.32
666.912	12978.81
667.262	12905.82
667.612	12919.83
667.962	13039.37
668.312	12934.52
668.662	12939.04
669.011	12986.27
669.361	12993.73
669.711	12922.99
670.06	12971.35
670.41	12961.41
670.76	12875.54
671.109	13007.74
671.459	12914.41
671.808	12886.38
672.157	12927.06
672.507	12892.94
672.856	12779.49
673.205	12785.14
673.554	12823.79
673.904	12833.73
674.253	12879.6
674.602	12812.26
674.951	12651.36
675.3	12582.44
675.649	12774.75
675.998	12769.55
676.346	12801.19
676.695	12875.31
677.044	12700.63
677.393	12750.57
677.741	12744.47
678.09	12724.35
678.438	12650.01
678.787	12748.31
679.135	12692.04
679.484	12580.86
679.832	12646.16
680.181	12590.12
680.529	12582.44
680.877	12494.98
681.225	12546.51
681.573	12582.21
681.922	12476.45
682.27	12511.48
682.618	12422.44
682.966	12437.36
683.314	12463.34
683.661	12332.5
684.009	12339.96
684.357	12226.74
684.705	12341.09
685.053	12296.57
685.4	12367.3
685.748	12089.34
686.095	12195.56
686.443	12150.81
686.79	12142.68
687.138	12182.67
687.485	12113.52
687.832	12099.74
688.18	12082.11
688.527	12072.17
688.874	12030.14
689.221	11974.09
689.568	11928.67
689.915	11886.41
690.262	11919.86
690.609	11917.6
690.956	11785.17
691.303	11799.86
691.65	11728.67
691.997	11744.04
692.344	11615.46
692.69	11633.99
693.037	11555.35
693.383	11537.27
693.73	11504.05
694.077	11524.61
694.423	11467.66
694.769	11413.2
695.116	11386.54
695.462	11425.63
695.808	11289.36
696.155	11292.53
696.501	11201
696.847	11279.19
697.193	11132.53
697.539	11126.43
697.885	11017.05
698.231	11060.22
698.577	10985.42
698.923	10965.76
699.269	10970.95
699.614	10813.67
699.96	10834.46
700.306	10802.15
700.651	10753.33
700.997	10738.19
701.342	10720.34
701.688	10680.79
702.033	10664.97
702.379	10643.73
702.724	10568.93
703.069	10641.02
703.415	10481.48
703.76	10481.02
704.105	10456.62
704.45	10404.42
704.795	10353.57
705.14	10241.48
705.485	10264.53
705.83	10170.52
706.175	10288.49
706.52	10229.05
706.865	10130.52
707.209	10099.56
707.554	10079.45
707.899	10093.92
708.243	10003.97
708.588	9987.03
708.932	9999.23
709.277	9925.33
709.621	9925.11
709.966	9864.32
710.31	9886.46
710.654	9775.05
710.998	9789.06
711.342	9801.49
711.687	9794.04
712.031	9717.88
712.375	9687.37
712.719	9676.07
713.063	9661.38
713.407	9659.35
713.75	9610.99
714.094	9636.07
714.438	9595.85
714.782	9639.92
715.125	9552.69
715.469	9676.53
715.812	9499.58
716.156	9462.52
716.499	9519.02
716.843	9462.29
717.186	9482.63
717.53	9490.54
717.873	9516.98
718.216	9440.6
718.559	9437.66
718.902	9429.75
719.246	9372.8
719.589	9308.85
719.932	9256.42
720.275	9322.64
720.617	9231.79
720.96	9281.96
721.303	9327.16
721.646	9305.46
721.989	9218.91
722.331	9275.18
722.674	9224.79
723.016	9285.8
723.359	9280.83
723.701	9229.31
724.044	9195.41
724.386	9192.7
724.729	9312.47
725.071	9257.1
725.413	9169.42
725.755	9196.54
726.097	9207.39
726.439	9111.57
726.782	9106.14
727.124	9206.03
727.465	9118.12
727.807	9182.53
728.149	9078.8
728.491	9118.57
728.833	9067.73
729.175	9088.97
729.516	9036.32
729.858	9049.2
730.199	9001.51
730.541	9139.59
730.882	9042.64
731.224	9097.11
731.565	9041.51
731.906	9017.56
732.248	9076.77
732.589	9041.29
732.93	9054.85
733.271	9079.7
733.612	9052.36
733.953	9053.26
734.294	9039.25
734.635	9027.5
734.976	9075.19
735.317	8974.62
735.658	9050.33
735.999	9051.46
736.339	9082.19
736.68	9072.47
737.021	9024.34
737.361	8994.06
737.702	9071.57
738.042	9024.11
738.383	9020.95
738.723	9095.07
739.063	9034.73
739.404	9249.64
739.744	9068.63
740.084	9110.44
740.424	9134.84
740.764	9152.92
741.104	9109.53
741.444	9140.72
741.784	9112.25
742.124	9182.98
742.464	9202.19
742.804	9182.07
743.143	9238.34
743.483	9222.98
743.823	9194.73
744.162	9266.59
744.502	9272.47
744.841	9293.26
745.181	9346.14
745.52	9357.21
745.86	9381.62
746.199	9462.75
746.538	9461.16
746.877	9479.92
747.216	9573.7
747.556	9594.04
747.895	9634.04
748.234	9625.68
748.573	9655.28
748.911	9709.07
749.25	9823.87
749.589	9900.93
749.928	10022.73
750.267	10022.5
750.605	10101.15
750.944	10121.26
751.283	10235.15
751.621	10354.25
751.96	10396.73
752.298	10486.9
752.636	10572.32
752.975	10612.32
753.313	10692.32
753.651	10838.08
753.989	10926.21
754.327	11057.05
754.666	11126.2
755.004	11294.56
755.342	11327.56
755.679	11461.34
756.017	11617.49
756.355	11755.11
756.693	11822.68
757.031	12007.99
757.368	12139.29
757.706	12221.32
758.044	12386.06
758.381	12588.99
758.719	12658.82
759.056	12795.54
759.394	12969.77
759.731	13025.59
760.068	13170.44
760.405	13332.02
760.743	13491.34
761.08	13651.11
761.417	13759.81
761.754	13891.1
762.091	14120.02
762.428	14184.43
762.765	14236.18
763.102	14572.44
763.438	14606.34
763.775	14748.48
764.112	15047.01
764.449	15166.1
764.785	15266.43
765.122	15374
765.458	15483.6
765.795	15566.09
766.131	15767.21
766.467	15916.36
766.804	16005.62
767.14	16021.9
767.476	16203.59
767.812	16318.38
768.148	16363.58
768.485	16599.96
768.821	16634.76
769.157	16762.67
769.492	16830.01
769.828	16985.49
770.164	16947.07
770.5	17136.67
770.836	17190.68
771.171	17319.04
771.507	17351.8
771.842	17397.23
772.178	17562.87
772.513	17562.19
772.849	17587.05
773.184	17643.32
773.519	17740.49
773.855	17791.34
774.19	17840.6
774.525	17906.59
774.86	18036.76
775.195	18015.74
775.53	18094.83
775.865	18018.9
776.2	17979.13
776.535	18044.21
776.87	18062.75
777.205	18135.96
777.539	18085.8
777.874	18267.26
778.209	18198.79
778.543	18232.23
778.878	18214.15
779.212	18223.19
779.547	18257.32
779.881	18330.99
780.215	18149.52
780.55	18326.69
780.884	18206.7
781.218	18262.06
781.552	18305.68
781.886	18316.98
782.22	18244.89
782.554	18155.17
782.888	18139.35
783.222	18145.23
783.556	18076.76
783.889	18095.29
784.223	17971.9
784.557	18024.33
784.89	18103.42
785.224	17967.61
785.557	18025.23
785.891	17865.24
786.224	17863.2
786.558	17934.84
786.891	17766.03
787.224	17864.11
787.557	17881.51
787.891	17915.63
788.224	17807.84
788.557	17900.04
788.89	17806.25
789.223	17820.04
789.556	17682.64
789.888	17703.43
790.221	17691.23
790.554	17531.91
790.887	17587.96
791.219	17578.92
791.552	17444.23
791.884	17405.59
792.217	17367.17
792.549	17482.2
792.882	17356.78
793.214	17314.74
793.546	17313.84
793.879	17255.53
794.211	17079.04
794.543	17186.38
794.875	17139.38
795.207	17188.64
795.539	17088.53
795.871	17114.07
796.203	16998.37
796.535	16907.97
796.867	16874.53
797.198	16814.19
797.53	16888.99
797.862	16809.67
798.193	16776.68
798.525	16660.52
798.856	16752.05
799.188	16561.99
799.519	16489.68
799.85	16389.57
800.182	16390.92
800.513	16486.29
800.844	16405.61
801.175	16365.16
801.506	16402.9
801.837	16365.16
802.168	16292.4
802.499	16264.15
802.83	16204.49
803.161	16129.24
803.491	16118.39
803.822	16050.37
804.153	16032.52
804.483	15917.04
804.814	15937.6
805.145	15802.69
805.475	15909.58
805.805	15722.24
806.136	15742.58
806.466	15730.6
806.796	15776.25
807.126	15645.18
807.457	15585.3
807.787	15703.71
808.117	15548.24
808.447	15492.42
808.777	15498.07
809.107	15438.41
809.436	15460.33
809.766	15406.54
810.096	15354.34
810.426	15301.69
810.755	15251.75
811.085	15366.77
811.414	15279.54
811.744	15151.86
812.073	15169.49
812.403	15170.84
812.732	15090.39
813.061	15101.24
813.39	15038.64
813.719	14934.69
814.049	15093.56
814.378	14876.61
814.707	14848.14
815.036	14879.33
815.365	14841.36
815.693	14767.69
816.022	14817.18
816.351	14753
816.68	14621.03
817.008	14648.82
817.337	14587.13
817.665	14491.31
817.994	14600.46
818.322	14518.66
818.651	14492.22
818.979	14433.46
819.307	14548.04
819.636	14445.44
819.964	14352.56
820.292	14510.3
820.62	14511.43
820.948	14372.22
821.276	14381.49
821.604	14313.47
821.932	14350.98
822.259	14330.87
822.587	14326.8
822.915	14308.72
823.243	14376.74
823.57	14383.97
823.898	14342.39
824.225	14255.61
824.553	14342.17
824.88	14346.23
825.207	14310.08
825.535	14338.32
825.862	14363.41
826.189	14333.8
826.516	14380.58
826.843	14450.41
827.17	14460.13
827.497	14443.18
827.824	14354.82
828.151	14418.77
828.478	14425.78
828.805	14413.12
829.131	14387.36
829.458	14313.24
829.785	14223.52
830.111	14387.59
830.438	14363.18
830.764	14400.24
831.09	14321.6
831.417	14293.8
831.743	14343.3
832.069	14374.48
832.395	14269.62
832.722	14372.22
833.048	14280.25
833.374	14384.42
833.7	14286.8
834.026	14328.38
834.351	14295.84
834.677	14252.45
835.003	14293.13
835.329	14246.57
835.654	14231.21
835.98	14132.45
836.306	14176.07
836.631	14129.74
836.956	14117.76
837.282	14146.69
837.607	14180.59
837.932	14047.94
838.258	14058.78
838.583	14063.08
838.908	14076.86
839.233	13944.44
839.558	13856.98
839.883	13862.18
840.208	13926.13
840.533	13835.51
840.858	13788.96
841.182	13845.68
841.507	13809.75
841.832	13737.44
842.156	13684.1
842.481	13765.91
842.805	13635.29
843.13	13581.28
843.454	13582.41
843.778	13548.74
844.103	13528.4
844.427	13444.11
844.751	13489.53
845.075	13458.8
845.399	13429.42
845.723	13332.93
846.047	13275.98
846.371	13267.39
846.695	13300.38
847.019	13196.43
847.343	13164.57
847.666	13030.79
847.99	12946.5
848.313	12952.82
848.637	12909.43
848.96	12918.47
849.284	12847.74
849.607	12828.53
849.931	12772.94
850.254	12666.5
850.577	12543.34
850.9	12493.85
851.223	12508.99
851.546	12403.23
851.869	12338.6
852.192	12466.96
852.515	12350.58
852.838	12273.29
853.161	12250.24
853.483	12163.92
853.806	12080.08
854.129	12142.9
854.451	11987.2
854.774	12003.02
855.096	11927.77
855.419	11920.76
855.741	11923.92
856.063	11926.41
856.385	11838.05
856.708	11830.14
857.03	11735.68
857.352	11780.42
857.674	11707.66
857.996	11738.17
858.318	11605.74
858.64	11683.7
858.961	11584.5
859.283	11544.95
859.605	11511.73
859.926	11491.84
860.248	11446.2
860.57	11372.75
860.891	11405.07
861.212	11349.02
861.534	11291.4
861.855	11361.68
862.176	11276.48
862.498	11341.57
862.819	11273.77
863.14	11201.91
863.461	11206.43
863.782	11132.53
864.103	11186.09
864.424	11109.93
864.745	11163.94
865.065	11089.6
865.386	11021.8
865.707	11060.9
866.027	11015.25
866.348	10986.1
866.668	11000.11
866.989	10942.93
867.309	10984.29
867.63	10862.26
867.95	10947
868.27	10918.07
868.59	10817.74
868.91	10840.79
869.23	10813.44
869.55	10828.13
869.87	10842.82
870.19	10799.21
870.51	10694.35
870.83	10850.05
871.15	10689.83
871.469	10726.67
871.789	10749.27
872.109	10634.01
872.428	10598.53
872.748	10697.52
873.067	10581.13
873.386	10629.72
873.706	10625.43
874.025	10533
874.344	10521.7
874.663	10592.66
874.982	10445.77
875.301	10489.39
875.62	10468.59
875.939	10496.84
876.258	10504.75
876.577	10371.2
876.896	10429.27
877.214	10431.99
877.533	10445.77
877.852	10357.64
878.17	10320.12
878.489	10323.06
878.807	10350.41
879.125	10296.4
879.444	10281.93
879.762	10284.64
880.08	10338.2
880.398	10179.11
880.716	10251.2
881.034	10211.43
881.352	10194.93
881.67	10170.75
881.988	10122.16
882.306	10132.33
882.624	10041.04
882.941	10043.52
883.259	10055.27
883.577	10004.43
883.894	10027.48
884.212	9957.65
884.529	9964.88
884.846	9989.51
885.164	9953.35
885.481	9802.4
885.798	9866.8
886.115	9791.1
886.432	9811.21
886.75	9781.61
887.067	9833.58
887.383	9756.75
887.7	9782.74
888.017	9684.43
888.334	9682.4
888.651	9658.45
888.967	9613.93
889.284	9576.41
889.6	9597.43
889.917	9563.53
890.233	9490.54
890.55	9428.4
890.866	9434.05
891.182	9389.08
891.498	9397.89
891.815	9335.74
892.131	9349.08
892.447	9335.97
892.763	9274.05
893.079	9253.03
893.395	9231.11
893.71	9223.88
894.026	9187.05
894.342	9122.64
894.657	9080.61
894.973	9081.29
895.289	9097.78
895.604	9092.13
895.92	8900.95
896.235	8959.03
896.55	8964.68
896.865	8954.96
897.181	8931.69
897.496	8947.05
897.811	8778.24
898.126	8767.85
898.441	8775.53
898.756	8745.25
899.071	8710.45
899.386	8710.22
899.7	8595.65
900.015	8587.06
900.33	8484.24
900.644	8474.75
900.959	8472.49
901.273	8528.53
901.588	8454.41
901.902	8374.41
902.216	8405.15
902.531	8328.99
902.845	8380.29
903.159	8237.02
903.473	8254.64
903.787	8205.6
904.101	8119.73
904.415	8171.93
904.729	8119.5
905.042	8096.68
905.356	8061.43
905.67	8053.07
905.984	7993.86
906.297	7994.08
906.611	7942.33
906.924	7933.75
907.237	7866.86
907.551	7869.34
907.864	7817.37
908.177	7857.82
908.491	7746.18
908.804	7704.15
909.117	7660.31
909.43	7652.4
909.743	7611.49
910.056	7628.67
910.368	7577.82
910.681	7531.27
910.994	7533.53
911.307	7439.3
911.619	7474.78
911.932	7499.41
912.244	7403.36
912.557	7380.09
912.869	7277.27
913.181	7281.11
913.494	7238.62
913.806	7173.09
914.118	7177.83
914.43	7157.5
914.742	7170.15
915.054	7138.74
915.366	7111.85
915.678	7051.28
915.99	7024.84
916.302	7014.67
916.613	7000.44
916.925	6951.17
917.236	6894.23
917.548	6866.88
917.859	6867.79
918.171	6823.94
918.482	6821.01
918.794	6796.83
919.105	6783.72
919.416	6738.98
919.727	6729.48
920.038	6701.01
920.349	6685.87
920.66	6630.96
920.971	6620.11
921.282	6616.49
921.593	6553.67
921.903	6421.24
922.214	6535.82
922.525	6405.2
922.835	6472.54
923.146	6420.57
923.456	6437.97
923.767	6344.18
924.077	6384.63
924.387	6247.69
924.697	6245.43
925.008	6205.66
925.318	6205.2
925.628	6214.92
925.938	6201.81
926.248	6174.47
926.558	6061.71
926.867	6104.64
927.177	6093.57
927.487	6038.2
927.796	5948.26
928.106	5987.81
928.416	5918.43
928.725	5918.43
929.034	5950.3
929.344	5950.3
929.653	5913.23
929.962	5815.84
930.271	5820.58
930.581	5808.6
930.89	5779.9
931.199	5724.99
931.508	5736.97
931.817	5707.82
932.125	5675.73
932.434	5690.87
932.743	5632.56
933.051	5625.56
933.36	5576.75
933.669	5537.88
933.977	5535.17
934.286	5508.05
934.594	5520.25
934.902	5455.62
935.21	5418.11
935.519	5472.79
935.827	5409.97
936.135	5330.65
936.443	5349.63
936.751	5326.13
937.059	5300.6
937.367	5314.38
937.674	5292.69
937.982	5249.75
938.29	5280.93
938.597	5247.94
938.905	5155.97
939.213	5151.45
939.52	5120.94
939.827	5186.25
940.135	5074.84
940.442	5115.52
940.749	5056.99
941.056	5066.02
941.363	4996.42
941.67	5005.91
941.977	4970.21
942.284	5004.56
942.591	4946.71
942.898	4911.68
943.205	4871
943.511	4879.14
943.818	4845.24
944.125	4806.6
944.431	4791.68
944.738	4796.88
945.044	4761.4
945.35	4704.45
945.657	4688.41
945.963	4705.13
946.269	4672.36
946.575	4661.97
946.881	4632.36
947.187	4588.75
947.493	4614.06
947.799	4575.42
948.105	4517.56
948.41	4505.14
948.716	4504.68
949.022	4497.9
949.327	4469.88
949.633	4441.18
949.938	4446.15
950.244	4399.15
950.549	4431.92
950.854	4326.84
951.16	4413.16
951.465	4374.07
951.77	4302.66
952.075	4337.91
952.38	4224.92
952.685	4277.57
952.99	4242.54
953.294	4234.63
953.599	4252.94
953.904	4158.93
954.209	4168.42
954.513	4176.1
954.818	4159.61
955.122	4137.69
955.426	4084.58
955.731	4080.51
956.035	4054.07
956.339	4068.76
956.643	4063.79
956.948	4009.56
957.252	4020.85
957.556	4000.29
957.86	3967.75
958.163	3990.35
958.467	3961.2
958.771	3940.4
959.075	3928.88
959.378	3913.74
959.682	3894.98
959.985	3890.69
960.289	3830.13
960.592	3839.39
960.896	3783.57
961.199	3819.96
961.502	3767.75
961.805	3791.03
962.108	3730.69
962.411	3764.36
962.714	3722.78
963.017	3740.86
963.32	3661.32
963.623	3685.95
963.926	3690.24
964.228	3608.21
964.531	3675.1
964.833	3629
965.136	3581.09
965.438	3585.16
965.741	3520.3
966.043	3534.77
966.345	3506.97
966.648	3506.52
966.95	3459.74
967.252	3467.42
967.554	3451.6
967.856	3449.57
968.158	3434.2
968.46	3445.95
968.761	3412.96
969.063	3362.79
969.365	3395.11
969.666	3336.58
969.968	3359.86
970.269	3342.45
970.571	3284.38
970.872	3310.82
971.174	3279.86
971.475	3261.55
971.776	3263.59
972.077	3213.42
972.378	3226.3
972.679	3247.54
972.98	3170.48
973.281	3218.62
973.582	3224.72
973.883	3191.95
974.183	3139.97
974.484	3168.45
974.785	3088.9
975.085	3123.7
975.386	3080.54
975.686	3081.44
975.986	3047.77
976.287	3069.69
976.587	2984.5
976.887	3019.3
977.187	3024.27
977.487	3003.93
977.787	2977.72
978.087	2952.41
978.387	2987.66
978.687	2988.79
978.987	2919.19
979.286	2926.65
979.586	2911.51
979.885	2893.43
980.185	2832.19
980.484	2844.84
980.784	2864.05
981.083	2881.9
981.382	2801.23
981.682	2793.09
981.981	2806.42
982.28	2814.56
982.579	2806.2
982.878	2743.83
983.177	2781.11
983.475	2783.6
983.774	2757.16
984.073	2709.93
984.372	2712.19
984.67	2696.82
984.969	2700.44
985.267	2674.45
985.566	2681.23
985.864	2650.27
986.162	2643.49
986.461	2640.33
986.759	2611.4
987.057	2574.11
987.355	2577.95
987.653	2595.13
987.951	2582.25
988.249	2559.42
988.547	2582.47
988.844	2508.13
989.142	2506.09
989.44	2531.63
989.737	2465.87
990.035	2470.39
990.332	2452.99
990.63	2472.42
990.927	2449.14
991.224	2441.24
991.521	2427.9
991.819	2424.96
992.116	2379.77
992.413	2384.06
992.71	2397.39
993.006	2385.64
993.303	2332.09
993.6	2343.16
993.897	2355.59
994.193	2342.03
994.49	2321.69
994.787	2362.82
995.083	2303.16
995.379	2315.36
995.676	2274.69
995.972	2274.91
996.268	2255.48
996.565	2248.92
996.861	2215.03
997.157	2210.73
997.453	2186.55
997.749	2188.81
998.044	2205.31
998.34	2194.01
998.636	2149.49
998.932	2154.01
999.227	2133.67
999.523	2125.09
999.818	2118.31
1000.114	2092.09
1000.409	2088.25
1000.704	2061.81
1001	2069.27
1001.295	2032.43
1001.59	2062.71
1001.885	2059.1
1002.18	2022.49
1002.475	2048.93
1002.77	2022.26
1003.065	1983.62
1003.359	2009.16
1003.654	1975.48
1003.949	1967.35
1004.243	1975.03
1004.538	1966.45
1004.832	1959.89
1005.127	1936.62
1005.421	1903.4
1005.715	1889.39
1006.009	1909.95
1006.304	1874.7
1006.598	1886.45
1006.892	1867.24
1007.186	1860.69
1007.48	1837.86
1007.773	1847.35
1008.067	1798.77
1008.361	1814.81
1008.655	1787.47
1008.948	1807.58
1009.242	1787.69
1009.535	1753.12
1009.829	1759.45
1010.122	1737.07
1010.415	1739.11
1010.708	1731.2
1011.001	1725.1
1011.295	1702.72
1011.588	1679.9
1011.881	1715.83
1012.173	1669.05
1012.466	1623.86
1012.759	1652.56
1013.052	1661.59
1013.344	1661.14
1013.637	1633.8
1013.93	1597.87
1014.222	1596.29
1014.514	1623.86
1014.807	1628.83
1015.099	1587.47
1015.391	1559.45
1015.683	1558.32
1015.976	1554.7
1016.268	1558.09
1016.56	1526.68
1016.851	1527.59
1017.143	1529.17
1017.435	1488.04
1017.727	1465.89
1018.018	1471.77
1018.31	1464.99
1018.602	1490.75
1018.893	1456.18
1019.185	1476.06
1019.476	1432.9
1019.767	1408.95
1020.058	1417.08
1020.35	1397.42
1020.641	1398.55
1020.932	1406.91
1021.223	1378.21
1021.514	1398.1
1021.804	1366.46
1022.095	1376.63
1022.386	1340.7
1022.677	1343.19
1022.967	1342.73
1023.258	1362.62
1023.548	1328.27
1023.839	1305.9
1024.129	1325.78
1024.419	1316.52
1024.709	1281.27
1025	1270.87
1025.29	1276.97
1025.58	1279.23
1025.87	1263.19
1026.16	1241.72
1026.449	1220.48
1026.739	1209.63
1027.029	1203.53
1027.319	1192.45
1027.608	1199.69
1027.898	1199.91
1028.187	1175.73
1028.477	1180.7
1028.766	1200.82
1029.055	1159.46
1029.344	1155.17
1029.634	1142.29
1029.923	1132.57
1030.212	1120.14
1030.501	1094.83
1030.79	1100.03
1031.078	1129.63
1031.367	1086.24
1031.656	1108.39
1031.945	1103.87
1032.233	1108.61
1032.522	1080.59
1032.81	1080.59
1033.099	1052.8
1033.387	1089.41
1033.675	1057.54
1033.963	1034.04
1034.251	1039.01
1034.54	1016.41
1034.828	1029.97
1035.116	1008.73
1035.403	995.17
1035.691	990.88
1035.979	1002.63
1036.267	985.45
1036.554	1013.48
1036.842	966.25
1037.129	1006.02
1037.417	978.9
1037.704	958.11
1037.992	949.3
1038.279	955.4
1038.566	939.81
1038.853	939.81
1039.14	939.81
