Data from hue_110_FLMS001491_00009.txt Node
Date: Tue Feb 07 17:00:50 GMT 2017
User: dcchb
Spectrometer: FLMS00149
Trigger mode: 0
Integration Time (sec): 2.000000E-2
Scans to average: 10
Electric dark correction enabled: true
Nonlinearity correction enabled: false
Boxcar width: 0
XAxis mode: Wavelengths
Number of Pixels in Spectrum: 2048
>>>>>Begin Spectral Data<<<<<
341.393	-32.27
341.776	-32.27
342.16	-32.27
342.543	-77.24
342.927	-69.56
343.31	-73.85
343.693	-65.27
344.077	-57.13
344.46	-69.33
344.843	-60.52
345.226	-60.07
345.61	-17.36
345.993	-15.1
346.376	1.85
346.759	8.63
347.142	35.3
347.525	46.14
347.908	42.08
348.291	69.42
348.674	99.93
349.057	115.29
349.44	123.43
349.823	145.58
350.206	175.86
350.588	196.2
350.971	192.81
351.354	229.41
351.737	230.32
352.119	247.95
352.502	256.08
352.884	271.22
353.267	284.55
353.65	306.7
354.032	312.8
354.414	316.19
354.797	317.77
355.179	294.95
355.562	307.6
355.944	304.67
356.326	306.02
356.709	342.86
357.091	333.14
357.473	326.36
357.855	323.88
358.238	335.85
358.62	350.32
359.002	322.75
359.384	342.86
359.766	354.16
360.148	337.43
360.53	337.21
360.912	344.44
361.294	319.36
361.676	335.85
362.057	323.2
362.439	320.94
362.821	308.28
363.203	342.86
363.584	321.16
363.966	315.97
364.348	328.62
364.729	319.81
365.111	333.59
365.493	309.64
365.874	318.68
366.256	306.02
366.637	310.54
367.019	325.91
367.4	325.23
367.781	311.67
368.163	292.69
368.544	324.78
368.925	337.89
369.306	307.15
369.688	324.1
370.069	317.77
370.45	299.24
370.831	296.31
371.212	300.6
371.593	299.92
371.974	321.62
372.355	309.19
372.736	327.04
373.117	314.61
373.498	314.16
373.879	316.87
374.26	314.38
374.641	327.27
375.021	308.73
375.402	319.58
375.783	325.23
376.163	321.62
376.544	318.45
376.925	319.13
377.305	311.45
377.686	341.73
378.066	333.82
378.447	299.47
378.827	330.2
379.208	341.05
379.588	338.11
379.968	332.01
380.349	315.51
380.729	352.58
381.109	337.66
381.489	320.71
381.87	327.72
382.25	338.34
382.63	327.04
383.01	336.3
383.39	348.51
383.77	339.24
384.15	350.54
384.53	336.08
384.91	339.69
385.29	365.91
385.67	330.2
386.049	348.28
386.429	333.37
386.809	365.91
387.189	363.65
387.568	346.7
387.948	351.9
388.328	350.32
388.707	354.61
389.087	372.91
389.466	343.76
389.846	359.13
390.225	353.48
390.605	361.84
390.984	361.16
391.363	373.82
391.743	365
392.122	376.53
392.501	367.72
392.881	359.13
393.26	389.64
393.639	366.59
394.018	379.69
394.397	370.65
394.776	376.98
395.155	378.79
395.534	384.67
395.913	366.81
396.292	382.86
396.671	374.95
397.05	384.89
397.429	430.09
397.808	405.68
398.186	395.51
398.565	396.42
398.944	386.92
399.323	397.55
399.701	406.36
400.08	386.47
400.458	407.26
400.837	407.94
401.215	392.8
401.594	405.91
401.972	390.77
402.351	411.11
402.729	400.94
403.107	413.14
403.486	422.63
403.864	398.22
404.242	402.07
404.62	445.68
404.999	422.86
405.377	410.43
405.755	421.5
406.133	423.08
406.511	448.62
406.889	450.88
407.267	435.06
407.645	448.17
408.023	453.82
408.401	451.56
408.779	448.17
409.156	456.75
409.534	458.34
409.912	442.06
410.29	470.09
410.667	446.81
411.045	465.57
411.422	439.58
411.8	466.24
412.178	484.1
412.555	466.7
412.933	479.58
413.31	481.16
413.687	495.17
414.065	493.36
414.442	484.78
414.819	490.2
415.197	507.15
415.574	486.58
415.951	497.66
416.328	494.27
416.705	506.02
417.082	501.72
417.46	512.8
417.837	508.05
418.214	524.55
418.591	520.48
418.967	517.32
419.344	552.34
419.721	510.54
420.098	535.17
420.475	531.1
420.852	548.28
421.228	531.33
421.605	544.43
421.982	553.7
422.358	565.68
422.735	517.99
423.111	572.23
423.488	560.25
423.864	575.85
424.241	577.43
424.617	569.29
424.994	569.52
425.37	575.85
425.746	578.56
426.123	579.24
426.499	608.61
426.875	614.72
427.251	608.61
427.627	624.88
428.003	639.12
428.379	625.79
428.756	601.61
429.132	598.67
429.507	623.98
429.883	622.17
430.259	660.36
430.635	656.75
431.011	653.81
431.387	668.5
431.763	656.3
432.138	686.58
432.514	690.87
432.89	688.84
433.265	695.62
433.641	700.36
434.016	692.68
434.392	705.79
434.767	707.59
435.143	709.18
435.518	733.13
435.894	748.95
436.269	733.58
436.644	749.4
437.02	755.5
437.395	759.12
437.77	768.84
438.145	786.69
438.52	771.77
438.895	779.46
439.271	806.8
439.646	795.5
440.021	775.16
440.395	797.99
440.77	790.76
441.145	817.2
441.52	820.81
441.895	822.17
442.27	834.6
442.645	846.8
443.019	848.83
443.394	832.34
443.769	854.48
444.143	859.91
444.518	863.3
444.892	857.42
445.267	876.18
445.641	873.92
446.016	899.45
446.39	889.96
446.764	910.3
447.139	908.27
447.513	890.64
447.887	919.57
448.262	909.17
448.636	927.7
449.01	920.92
449.384	936.06
449.758	929.51
450.132	929.51
450.506	935.39
450.88	964.31
451.254	956.4
451.628	979.45
452.002	999.34
452.376	986.01
452.75	1011.77
453.123	1010.41
453.497	1025.55
453.871	1007.7
454.244	1040.02
454.618	1061.94
454.992	1069.62
455.365	1070.97
455.739	1092.22
456.112	1123.4
456.486	1112.78
456.859	1102.39
457.232	1166.11
457.606	1158.66
457.979	1140.8
458.352	1153.46
458.725	1214.7
459.099	1214.47
459.472	1212.44
459.845	1244.08
460.218	1241.37
460.591	1263.51
460.964	1282.04
461.337	1311.42
461.71	1309.61
462.083	1333.34
462.456	1339.89
462.829	1348.48
463.201	1362.72
463.574	1400.91
463.947	1392.1
464.32	1460.79
464.692	1465.09
465.065	1438.87
465.438	1483.17
465.81	1508.93
466.183	1534.01
466.555	1537.18
466.928	1553
467.3	1546.22
467.672	1619.66
468.045	1660.11
468.417	1665.31
468.789	1677.29
469.161	1698.98
469.534	1727
469.906	1746.44
470.278	1791.86
470.65	1806.1
471.022	1844.51
471.394	1912.76
471.766	1923.16
472.138	1941.46
472.51	2007.22
472.882	2073.21
473.253	2092.87
473.625	2140.78
473.997	2185.3
474.369	2212.19
474.74	2262.36
475.112	2337.83
475.484	2402.24
475.855	2421.45
476.227	2455.12
476.598	2542.12
476.97	2603.14
477.341	2679.29
477.713	2733.76
478.084	2770.14
478.455	2880.19
478.827	2967.2
479.198	2966.29
479.569	3072.73
479.94	3178.26
480.311	3249
480.682	3321.08
481.053	3448.99
481.424	3520.4
481.795	3560.85
482.166	3698.93
482.537	3759.49
482.908	3888.3
483.279	3980.28
483.65	4063.44
484.021	4192.93
484.391	4267.27
484.762	4386.14
485.133	4519.25
485.503	4587.49
485.874	4760.6
486.244	4853.02
486.615	5011.66
486.985	5066.35
487.356	5213.46
487.726	5355.83
488.097	5485.1
488.467	5583.85
488.837	5743.85
489.207	5845.31
489.578	5989.72
489.948	6151.52
490.318	6266.09
490.688	6362.36
491.058	6497.27
491.428	6671.73
491.798	6766.19
492.168	6968.45
492.538	7124.37
492.908	7244.6
493.278	7380.64
493.648	7420.64
494.017	7603.23
494.387	7774.53
494.757	7921.42
495.126	8056.55
495.496	8146.49
495.866	8248.64
496.235	8372.03
496.605	8556.88
496.974	8617.89
497.344	8738.8
497.713	8850.43
498.082	9030.31
498.452	9090.42
498.821	9201.83
499.19	9289.29
499.559	9428.72
499.928	9519.11
500.298	9602.73
500.667	9773.57
501.036	9806.11
501.405	9914.81
501.774	9958.42
502.143	10175.82
502.512	10263.95
502.88	10426.89
503.249	10449.03
503.618	10477.06
503.987	10549.37
504.356	10699.87
504.724	10736.03
505.093	10875.69
505.462	10931.51
505.83	10963.14
506.199	11123.14
506.567	11255.34
506.936	11226.64
507.304	11347.99
507.672	11550.7
508.041	11566.74
508.409	11649.23
508.777	11779.62
509.145	11817.13
509.514	11853.97
509.882	11910.69
510.25	11937.81
510.618	12060.52
510.986	12169.44
511.354	12206.5
511.722	12323.11
512.09	12399.26
512.458	12441.75
512.826	12496.44
513.193	12508.64
513.561	12608.3
513.929	12620.05
514.297	12775.07
514.664	12822.08
515.032	12902.3
515.4	12935.97
515.767	12994.73
516.135	13004.22
516.502	13018.23
516.869	13164.22
517.237	13211.45
517.604	13160.37
517.972	13259.81
518.339	13290.99
518.706	13314.95
519.073	13318.34
519.44	13372.12
519.808	13533.7
520.175	13538.44
520.542	13589.52
520.909	13652.79
521.276	13616.86
521.643	13777.53
522.009	13778.89
522.376	13784.31
522.743	13873.58
523.11	13905.89
523.477	14035.38
523.843	14010.97
524.21	14155.38
524.577	14164.19
524.943	14242.83
525.31	14185.66
525.676	14360.12
526.043	14411.19
526.409	14347.69
526.776	14427.69
527.142	14460
527.508	14445.54
527.874	14514.91
528.241	14554.69
528.607	14517.63
528.973	14525.99
529.339	14542.26
529.705	14575.93
530.071	14789.26
530.437	14699.99
530.803	14751.97
531.169	14692.54
531.535	14644.86
531.901	14703.38
532.267	14691.18
532.632	14702.48
532.998	14751.74
533.364	14718.75
533.73	14715.36
534.095	14803.95
534.461	14764.17
534.826	14751.52
535.192	14741.35
535.557	14804.85
535.923	14718.75
536.288	14745.64
536.653	14749.26
537.019	14720.33
537.384	14704.06
537.749	14706.1
538.114	14685.53
538.479	14617.51
538.845	14664.29
539.21	14534.8
539.575	14538.87
539.94	14614.57
540.305	14578.64
540.67	14474.46
541.034	14465.2
541.399	14388.82
541.764	14429.27
542.129	14506.1
542.494	14374.58
542.858	14438.08
543.223	14391.3
543.587	14405.09
543.952	14248.48
544.316	14389.49
544.681	14338.65
545.045	14294.58
545.41	14291.19
545.774	14205.09
546.138	14138.88
546.503	14219.1
546.867	14138.2
547.231	14100.69
547.595	14127.13
547.959	14090.07
548.324	14034.48
548.688	14047.81
549.052	14001.26
549.416	14010.97
549.779	13984.31
550.143	13849.85
550.507	14025.66
550.871	13937.08
551.235	13872.67
551.599	13940.24
551.962	13908.15
552.326	13832
552.689	13893.46
553.053	13773.69
553.417	13820.92
553.78	13840.36
554.143	13731.88
554.507	13805.56
554.87	13738.89
555.234	13824.09
555.597	13756.29
555.96	13685.78
556.323	13673.13
556.686	13722.39
557.05	13845.33
557.413	13792.22
557.776	13788.38
558.139	13770.98
558.502	13715.16
558.865	13704.31
559.228	13686.24
559.59	13713.13
559.953	13723.07
560.316	13817.53
560.679	13682.62
561.041	13759.45
561.404	13779.79
561.767	13861.15
562.129	13703.41
562.492	13791.32
562.854	13793.35
563.217	13742.51
563.579	13816.63
563.941	13907.7
564.304	13854.59
564.666	13877.64
565.028	13959.45
565.39	13935.27
565.753	13999.22
566.115	13937.08
566.477	13923.07
566.839	13877.64
567.201	14012.56
567.563	13981.82
567.925	14025.66
568.287	14005.78
568.648	14017.53
569.01	14054.59
569.372	14126.45
569.734	14057.98
570.095	14072.44
570.457	14181.59
570.819	14212.55
571.18	14110.18
571.542	14139.78
571.903	14238.31
572.265	14203.06
572.626	14247.35
572.987	14290.06
573.349	14247.13
573.71	14265.43
574.071	14318.08
574.432	14241.93
574.794	14330.51
575.155	14259.55
575.516	14205.32
575.877	14276.05
576.238	14310.17
576.599	14344.07
576.96	14328.25
577.32	14363.96
577.681	14420.68
578.042	14499.32
578.403	14370.74
578.763	14376.61
579.124	14329.38
579.485	14386.33
579.845	14436.27
580.206	14407.12
580.566	14401.92
580.927	14425.65
581.287	14408.48
581.648	14378.87
582.008	14439.44
582.368	14414.35
582.728	14462.49
583.089	14365.54
583.449	14368.03
583.809	14375.48
584.169	14331.42
584.529	14283.06
584.889	14363.73
585.249	14266.33
585.609	14282.38
585.969	14259.33
586.329	14255.03
586.688	14269.27
587.048	14247.35
587.408	14196.51
587.768	14302.94
588.127	14275.83
588.487	14256.16
588.846	14329.38
589.206	14209.39
589.565	14233.34
589.925	14214.58
590.284	14160.57
590.643	14150.63
591.003	14277.41
591.362	14268.82
591.721	14192.89
592.08	14245.77
592.44	14177.75
592.799	14200.8
593.158	14176.39
593.517	14065.44
593.876	14164.19
594.235	14160.12
594.593	14129.39
594.952	14188.37
595.311	14038.32
595.67	14129.61
596.029	14154.25
596.387	14199.44
596.746	14222.27
597.104	14042.16
597.463	14103.85
597.822	14095.94
598.18	14106.79
598.538	14087.36
598.897	14124.42
599.255	14014.36
599.613	14231.76
599.972	14174.13
600.33	14104.76
600.688	14148.14
601.046	14147.24
601.404	14184.3
601.762	14109.95
602.12	14250.52
602.478	14195.6
602.836	14126.9
603.194	14025.66
603.552	14040.13
603.91	14076.73
604.268	14111.99
604.625	14119.9
604.983	14148.37
605.341	14041.03
605.698	14152.21
606.056	14163.74
606.413	14152.21
606.771	14249.16
607.128	14220.46
607.485	14179.33
607.843	14084.64
608.2	14317.41
608.557	14237.86
608.914	14215.94
609.272	14197.64
609.629	14215.49
609.986	14321.25
610.343	14171.87
610.7	14371.42
611.057	14217.75
611.414	14241.02
611.771	14284.86
612.127	14321.47
612.484	14399.89
612.841	14412.09
613.198	14294.36
613.554	14283.28
613.911	14385.65
614.267	14407.8
614.624	14359.66
614.98	14368.7
615.337	14358.99
615.693	14401.47
616.05	14386.33
616.406	14571.18
616.762	14445.54
617.118	14462.94
617.475	14493.45
617.831	14462.03
618.187	14513.56
618.543	14491.86
618.899	14591.75
619.255	14544.74
619.611	14546.78
619.967	14638.98
620.323	14596.95
620.678	14586.55
621.034	14495.03
621.39	14515.82
621.746	14543.16
622.101	14712.88
622.457	14556.04
622.812	14589.72
623.168	14624.29
623.523	14590.17
623.879	14652.31
624.234	14522.82
624.589	14627.23
624.945	14692.76
625.3	14656.83
625.655	14622.26
626.01	14625.19
626.365	14634.46
626.72	14584.52
627.075	14553.78
627.43	14518.76
627.785	14559.89
628.14	14557.63
628.495	14584.52
628.85	14567.12
629.205	14511.07
629.559	14502.71
629.914	14497.29
630.269	14453.45
630.623	14454.8
630.978	14486.44
631.332	14607.79
631.687	14481.24
632.041	14409.83
632.396	14454.8
632.75	14424.75
633.104	14458.19
633.459	14394.24
633.813	14483.5
634.167	14348.37
634.521	14309.5
634.875	14316.95
635.229	14301.14
635.583	14262.04
635.937	14221.36
636.291	14270.63
636.645	14208.48
636.999	14192.21
637.352	14184.53
637.706	14130.52
638.06	14149.05
638.413	14122.16
638.767	14129.39
639.121	14119.67
639.474	14110.63
639.828	14083.51
640.181	14079.45
640.534	14185.43
640.888	14028.15
641.241	13991.99
641.594	14005.1
641.947	14119.9
642.301	14102.04
642.654	14031.99
643.007	14019.33
643.36	13986.57
643.713	13976.4
644.066	14071.31
644.419	13905.44
644.771	13823.63
645.124	13707.03
645.477	13700.25
645.83	13653.69
646.182	13620.02
646.535	13557.88
646.888	13512.46
647.24	13489.18
647.593	13465.23
647.945	13472.68
648.298	13402.4
648.65	13398.79
649.002	13426.36
649.355	13450.54
649.707	13388.16
650.059	13504.09
650.411	13661.38
650.763	13684.43
651.115	13804.2
651.467	13751.55
651.819	13735.27
652.171	13687.14
652.523	13690.53
652.875	13750.64
653.227	13710.42
653.578	13875.84
653.93	13757.19
654.282	13756.06
654.633	13719.23
654.985	13774.37
655.337	13772.79
655.688	13737.08
656.039	13861.37
656.391	13773.69
656.742	13753.58
657.094	13844.88
657.445	13815.95
657.796	13823.41
658.147	13767.59
658.498	13820.47
658.849	13871.77
659.2	13702.05
659.551	13761.26
659.902	13753.35
660.253	13728.49
660.604	13803.97
660.955	13747.7
661.306	13766.01
661.656	13723.3
662.007	13787.25
662.358	13866.57
662.708	13847.36
663.059	13811.66
663.409	13803.75
663.76	13882.84
664.11	13844.65
664.461	13763.52
664.811	13816.4
665.161	13782.96
665.511	13740.02
665.862	13831.09
666.212	13838.32
666.562	13822.96
666.912	13864.08
667.262	13761.04
667.612	13806.23
667.962	13855.72
668.312	13774.82
668.662	13809.62
669.011	13752.9
669.361	13770.3
669.711	13828.61
670.06	13720.13
670.41	13773.47
670.76	13814.82
671.109	13758.78
671.459	13764.88
671.808	13773.69
672.157	13730.75
672.507	13691.43
672.856	13686.24
673.205	13650.76
673.554	13815.05
673.904	13688.95
674.253	13622.96
674.602	13753.35
674.951	13443.76
675.3	13404.89
675.649	13633.36
675.998	13601.27
676.346	13648.72
676.695	13660.93
677.044	13479.01
677.393	13589.74
677.741	13584.54
678.09	13538.22
678.438	13465.23
678.787	13532.57
679.135	13615.5
679.484	13457.32
679.832	13522.4
680.181	13387.49
680.529	13439.46
680.877	13455.51
681.225	13368.05
681.573	13450.54
681.922	13345.91
682.27	13261.39
682.618	13299.35
682.966	13284.89
683.314	13318.34
683.661	13187.27
684.009	13191.33
684.357	13265.68
684.705	13132.13
685.053	13215.29
685.4	13125.12
685.748	13097.55
686.095	13035.41
686.443	12984.11
686.79	13018.46
687.138	13019.59
687.485	12929.65
687.832	12901.62
688.18	12889.42
688.527	12851.23
688.874	12841.29
689.221	12742.98
689.568	12724.45
689.915	12730.1
690.262	12622.31
690.609	12651.01
690.956	12584.57
691.303	12536.66
691.65	12484.69
691.997	12484.91
692.344	12405.59
692.69	12408.3
693.037	12324.69
693.383	12239.04
693.73	12367.17
694.077	12171.47
694.423	12219.38
694.769	12199.5
695.116	12171.25
695.462	12156.33
695.808	12036.79
696.155	12094.41
696.501	11942.55
696.847	11970.35
697.193	11923.12
697.539	11923.8
697.885	11759.28
698.231	11746.4
698.577	11761.99
698.923	11738.72
699.269	11627.31
699.614	11642.9
699.96	11465.5
700.306	11533.3
700.651	11492.4
700.997	11371.27
701.342	11368.78
701.688	11386.41
702.033	11356.81
702.379	11217.83
702.724	11238.39
703.069	11258.73
703.415	11177.6
703.76	11116.13
704.105	11137.83
704.45	11110.26
704.795	11047.44
705.14	11030.94
705.485	11008.11
705.83	10941.68
706.175	10940.32
706.52	10874.11
706.865	10885.86
707.209	10875.91
707.554	10785.52
707.899	10802.92
708.243	10735.13
708.588	10719.99
708.932	10604.96
709.277	10588.92
709.621	10651.97
709.966	10434.57
710.31	10575.81
710.654	10448.13
710.998	10448.13
711.342	10446.1
711.687	10411.75
712.031	10400.22
712.375	10365.87
712.719	10342.14
713.063	10389.37
713.407	10342.82
713.75	10264.86
714.094	10315.93
714.438	10200.23
714.782	10267.57
715.125	10250.17
715.469	10194.35
715.812	10146.89
716.156	10128.59
716.499	10101.02
716.843	10083.17
717.186	10084.52
717.53	10130.85
717.873	10121.81
718.216	10063.96
718.559	10058.53
718.902	10006.11
719.246	9989.16
719.589	9937.41
719.932	9923.62
720.275	9964.07
720.617	9881.36
720.96	9866
721.303	9914.81
721.646	9889.73
721.989	9875.26
722.331	9900.8
722.674	9775.38
723.016	9861.93
723.359	9929.72
723.701	9902.61
724.044	9775.83
724.386	9804.08
724.729	9840.46
725.071	9748.94
725.413	9741.93
725.755	9769.5
726.097	9666.68
726.439	9703.74
726.782	9610.41
727.124	9799.56
727.465	9741.48
727.807	9714.36
728.149	9699.22
728.491	9689.96
728.833	9672.1
729.175	9640.24
729.516	9686.79
729.858	9626
730.199	9734.93
730.541	9720.69
730.882	9566.34
731.224	9645.66
731.565	9661.48
731.906	9610.64
732.248	9664.2
732.589	9642.95
732.93	9542.62
733.271	9572.22
733.612	9579.9
733.953	9590.52
734.294	9572.22
734.635	9508.04
734.976	9574.71
735.317	9567.25
735.658	9620.58
735.999	9597.53
736.339	9540.36
736.68	9620.81
737.021	9568.6
737.361	9513.46
737.702	9595.95
738.042	9563.63
738.383	9626
738.723	9641.14
739.063	9575.38
739.404	9617.87
739.744	9649.96
740.084	9598.89
740.424	9678.66
740.764	9600.47
741.104	9686.34
741.444	9675.72
741.784	9653.57
742.124	9774.7
742.464	9709.17
742.804	9742.16
743.143	9771.99
743.483	9786.68
743.823	9823.29
744.162	9800.24
744.502	9894.02
744.841	9894.25
745.181	9923.85
745.52	9953.23
745.86	10002.94
746.199	9964.98
746.538	9988.48
746.877	10205.88
747.216	10162.71
747.556	10171.98
747.895	10224.63
748.234	10166.33
748.573	10318.19
748.911	10372.43
749.25	10347.11
749.589	10479.99
749.928	10611.29
750.267	10639.76
750.605	10665.07
750.944	10737.16
751.283	10875.01
751.621	10964.05
751.96	10941.9
752.298	11019.87
752.636	11131.28
752.975	11183.48
753.313	11389.35
753.651	11519.74
753.989	11542.34
754.327	11560.42
754.666	11707.98
755.004	11867.75
755.342	12036.11
755.679	12110.91
756.017	12242.21
756.355	12354.07
756.693	12484.69
757.031	12685.36
757.368	12741.18
757.706	12908.86
758.044	12991.57
758.381	13158.34
758.719	13371.67
759.056	13468.84
759.394	13652.11
759.731	13683.07
760.068	13869.96
760.405	14000.8
760.743	14139.11
761.08	14318.54
761.417	14452.09
761.754	14556.27
762.091	14783.16
762.428	14861.12
762.765	15091.4
763.102	15227.44
763.438	15292.52
763.775	15398.28
764.112	15650.7
764.449	15856.12
764.785	15992.16
765.122	16007.98
765.458	16090.69
765.795	16220.63
766.131	16443.45
766.467	16555.54
766.804	16654.75
767.14	16833.5
767.476	16870.33
767.812	16938.58
768.148	17099.71
768.485	17180.38
768.821	17379.25
769.157	17464.44
769.492	17454.5
769.828	17619.92
770.164	17725.68
770.5	17698.56
770.836	17899.46
771.171	17957.99
771.507	17936.07
771.842	18084.99
772.178	18167.7
772.513	18211.77
772.849	18312.33
773.184	18257.87
773.519	18367.7
773.855	18381.71
774.19	18538.09
774.525	18494.92
774.86	18636.16
775.195	18640.91
775.53	18729.04
775.865	18623.73
776.2	18655.82
776.535	18585.32
776.87	18670.06
777.205	18757.29
777.539	18665.77
777.874	18791.86
778.209	18745.54
778.543	18794.12
778.878	18705.31
779.212	18846.33
779.547	18800
779.881	18936.95
780.215	18757.06
780.55	18864.86
780.884	18816.27
781.218	18840.9
781.552	18864.18
781.886	18817.4
782.22	18791.86
782.554	18880.68
782.888	18666.67
783.222	18716.16
783.556	18661.25
783.889	18619.67
784.223	18571.98
784.557	18537.18
784.89	18644.98
785.224	18553.9
785.557	18517.52
785.891	18509.84
786.224	18399.33
786.558	18466.9
786.891	18433
787.224	18410.18
787.557	18274.59
787.891	18332.89
788.224	18374.7
788.557	18439.56
788.89	18299
789.223	18445.43
789.556	18202.73
789.888	18111.88
790.221	18093.35
790.554	18120.92
790.887	18049.51
791.219	17993.24
791.552	18033.92
791.884	17900.36
792.217	17895.62
792.549	17845
792.882	17736.75
793.214	17759.58
793.546	17841.38
793.879	17642.97
794.211	17552.58
794.543	17694.04
794.875	17671.22
795.207	17725
795.539	17569.98
795.871	17561.61
796.203	17400.71
796.535	17388.74
796.867	17330.21
797.198	17326.14
797.53	17258.8
797.862	17177.44
798.193	17250.66
798.525	17067.84
798.856	17055.64
799.188	17009.31
799.519	16960.95
799.85	16883.21
800.182	17002.99
800.513	16895.42
800.844	16763.44
801.175	16939.94
801.506	16880.95
801.837	16746.27
802.168	16675.99
802.499	16720.28
802.83	16557.57
803.161	16506.95
803.491	16497.46
803.822	16496.78
804.153	16392.38
804.483	16368.43
804.814	16301.76
805.145	16364.81
805.475	16346.73
805.805	16256.11
806.136	16280.52
806.466	16249.56
806.796	16102.9
807.126	16079.39
807.457	16047.53
807.787	16034.87
808.117	16030.36
808.447	15923.47
808.777	15940.41
809.107	15873.07
809.436	15819.74
809.766	15896.35
810.096	15800.98
810.426	15822.9
810.755	15743.81
811.085	15697.48
811.414	15647.31
811.744	15574.55
812.073	15489.13
812.403	15685.05
812.732	15475.79
813.061	15490.71
813.39	15351.28
813.719	15293.2
814.049	15395.8
814.378	15373.2
814.707	15374.55
815.036	15382.91
815.365	15223.37
815.693	15105.41
816.022	15192.41
816.351	15120.55
816.68	15009.14
817.008	15092.75
817.337	14899.76
817.665	14932.98
817.994	14934.56
818.322	14890.95
818.651	14925.98
818.979	14798.98
819.307	14906.32
819.636	14803.04
819.964	14747.9
820.292	14762.82
820.62	14789.48
820.948	14823.16
821.276	14811.4
821.604	14742.48
821.932	14679.43
822.259	14720.79
822.587	14759.65
822.915	14679.66
823.243	14776.83
823.57	14635.82
823.898	14761.24
824.225	14607.79
824.553	14713.1
824.88	14669.71
825.207	14674.46
825.535	14647.11
825.862	14770.5
826.189	14641.01
826.516	14775.25
826.843	14840.78
827.17	14803.27
827.497	14772.76
827.824	14779.31
828.151	14761.46
828.478	14622.26
828.805	14770.73
829.131	14623.39
829.458	14713.55
829.785	14650.5
830.111	14679.2
830.438	14753.1
830.764	14718.3
831.09	14725.3
831.417	14651.86
831.743	14704.29
832.069	14734.34
832.395	14648.92
832.722	14728.24
833.048	14647.79
833.374	14629.26
833.7	14563.5
834.026	14521.92
834.351	14639.21
834.677	14620.9
835.003	14608.92
835.329	14585.2
835.654	14581.35
835.98	14449.83
836.306	14529.6
836.631	14434.47
836.956	14576.38
837.282	14503.39
837.607	14502.03
837.932	14322.83
838.258	14420.91
838.583	14382.94
838.908	14360.34
839.233	14341.36
839.558	14317.18
839.883	14267.69
840.208	14210.97
840.533	14251.65
840.858	14181.59
841.182	14226.79
841.507	14210.29
841.832	14086.45
842.156	14112.89
842.481	14093.01
842.805	14100.69
843.13	14008.71
843.454	13957.19
843.778	13821.15
844.103	13855.95
844.427	13910.19
844.751	13957.87
845.075	13765.1
845.399	13779.79
845.723	13716.97
846.047	13592.91
846.371	13667.93
846.695	13562.4
847.019	13462.74
847.343	13492.34
847.666	13413.93
847.99	13350.43
848.313	13382.29
848.637	13304.78
848.96	13232.01
849.284	13327.6
849.607	13038.12
849.931	12980.27
850.254	13019.14
850.577	12890.78
850.9	12803.1
851.223	12836.32
851.546	12752.7
851.869	12675.64
852.192	12721.52
852.515	12568.98
852.838	12583.67
853.161	12539.37
853.483	12521.07
853.806	12423.67
854.129	12450.79
854.451	12321.75
854.774	12311.81
855.096	12237.23
855.419	12198.37
855.741	12157.69
856.063	12150.68
856.385	12122.21
856.708	12067.97
857.03	12030.01
857.352	12084.47
857.674	11940.97
857.996	11943.23
858.318	11877.92
858.64	11897.36
858.961	11798.6
859.283	11822.1
859.605	11781.2
859.926	11681.32
860.248	11673.86
860.57	11665.72
860.891	11715.89
861.212	11598.38
861.534	11655.78
861.855	11569.68
862.176	11559.29
862.498	11503.92
862.819	11494.88
863.14	11454.43
863.461	11419.18
863.782	11495.11
864.103	11462.34
864.424	11407.88
864.745	11484.94
865.065	11307.32
865.386	11264.83
865.707	11287.66
866.027	11320.87
866.348	11204.95
866.668	11255.79
866.989	11278.16
867.309	11181.67
867.63	11238.39
867.95	11158.39
868.27	11068.23
868.59	11136.47
868.91	11146.19
869.23	11068.45
869.55	11113.87
869.87	11085.17
870.19	11100.32
870.51	11060.32
870.83	11055.34
871.15	11014.22
871.469	10950.71
871.789	11036.36
872.109	10957.95
872.428	10859.19
872.748	10928.79
873.067	10873.43
873.386	10873.2
873.706	10865.52
874.025	10754.34
874.344	10786.88
874.663	10857.84
874.982	10735.13
875.301	10863.49
875.62	10743.94
875.939	10761.79
876.258	10686.09
876.577	10684.06
876.896	10697.16
877.214	10611.97
877.533	10636.37
877.852	10610.38
878.17	10577.17
878.489	10558.63
878.807	10582.36
879.125	10583.94
879.444	10563.61
879.762	10495.59
880.08	10529.03
880.398	10466.66
880.716	10471.63
881.034	10397.28
881.352	10404.29
881.67	10401.58
881.988	10380.56
882.306	10358.87
882.624	10298.98
882.941	10293.11
883.259	10317.29
883.577	10228.7
883.894	10219.89
884.212	10232.09
884.529	10217.85
884.846	10218.08
885.164	10144.41
885.481	10098.31
885.798	10113.22
886.115	10116.84
886.432	10086.56
886.75	9993
887.067	10099.44
887.383	9973.34
887.7	9958.2
888.017	9934.02
888.334	9953.23
888.651	9874.58
888.967	9812.67
889.284	9828.71
889.6	9808.15
889.917	9666.45
890.233	9735.38
890.55	9733.8
890.866	9678.43
891.182	9673.69
891.498	9574.48
891.815	9583.52
892.131	9594.82
892.447	9597.76
892.763	9524.76
893.079	9447.03
893.395	9390.98
893.71	9435.73
894.026	9385.33
894.342	9375.39
894.657	9354.82
894.973	9307.37
895.289	9299.46
895.604	9245
895.92	9211.78
896.235	9158.9
896.55	9146.47
896.865	9123.64
897.181	9050.43
897.496	9122.74
897.811	9067.6
898.126	9028.73
898.441	8945.12
898.756	8970.2
899.071	8866.93
899.386	8875.06
899.7	8805.23
900.015	8838.68
900.33	8708.29
900.644	8686.82
900.959	8695.18
901.273	8696.08
901.588	8635.75
901.902	8582.64
902.216	8548.97
902.531	8539.48
902.845	8478.24
903.159	8518.24
903.473	8468.52
903.787	8418.35
904.101	8362.31
904.415	8400.95
904.729	8319.37
905.042	8278.24
905.356	8255.19
905.67	8201.63
905.984	8210.45
906.297	8195.53
906.611	8155.31
906.924	8156.89
907.237	8127.29
907.551	8077.57
907.864	8004.13
908.177	7996.67
908.491	8008.42
908.804	7918.48
909.117	7905.6
909.43	7810.46
909.743	7806.39
910.056	7761.19
910.368	7757.13
910.681	7739.27
910.994	7698.82
911.307	7663.34
911.619	7624.25
911.932	7626.51
912.244	7610.46
912.557	7573.85
912.869	7434.42
913.181	7416.8
913.494	7438.26
913.806	7406.63
914.118	7372.96
914.43	7312.39
914.742	7345.84
915.054	7320.98
915.366	7257.25
915.678	7176.58
915.99	7224.03
916.302	7138.39
916.613	7116.69
916.925	7118.27
917.236	7142.45
917.548	7053.64
917.859	7052.06
918.171	7041.89
918.482	6948.79
918.794	6925.51
919.105	6916.47
919.416	6903.59
919.727	6858.17
920.038	6847.09
920.349	6802.12
920.66	6755.34
920.971	6814.33
921.282	6734.55
921.593	6683.93
921.903	6593.77
922.214	6639.42
922.525	6565.52
922.835	6548.8
923.146	6526.42
923.456	6507.67
923.767	6420.21
924.077	6434.68
924.387	6432.19
924.697	6411.4
925.008	6400.55
925.318	6336.6
925.628	6400.33
925.938	6330.05
926.248	6314.45
926.558	6223.16
926.867	6224.74
927.177	6207.56
927.487	6133.44
927.796	6095.48
928.106	6130.28
928.416	6074.46
928.725	6082.14
929.034	6030.84
929.344	6075.36
929.653	6024.06
929.962	5983.16
930.271	5930.28
930.581	5944.97
930.89	5871.07
931.199	5901.36
931.508	5850.51
931.817	5860.45
932.125	5756.95
932.434	5780.91
932.743	5756.28
933.051	5738.2
933.36	5701.14
933.669	5681.7
933.977	5672.44
934.286	5650.74
934.594	5634.24
934.902	5545.66
935.21	5533.68
935.519	5582.95
935.827	5538.88
936.135	5526.68
936.443	5464.53
936.751	5375.95
937.059	5466.57
937.367	5409.17
937.674	5376.17
937.982	5371.65
938.29	5363.07
938.597	5352.9
938.905	5300.02
939.213	5327.81
939.52	5261.6
939.827	5235.84
940.135	5212.33
940.442	5225.22
940.749	5135.05
941.056	5132.79
941.363	5134.37
941.67	5138.21
941.977	5045.33
942.284	5072.23
942.591	5042.62
942.898	5035.16
943.205	5053.92
943.511	4983.19
943.818	4970.76
944.125	4953.81
944.431	4928.5
944.738	4924.21
945.044	4871.78
945.35	4845.79
945.657	4824.1
945.963	4808.05
946.269	4770.54
946.575	4738.9
946.881	4725.12
947.187	4693.03
947.493	4711.33
947.799	4668.85
948.105	4650.77
948.41	4638.11
948.716	4614.38
949.022	4637.43
949.327	4588.17
949.633	4587.27
949.938	4542.07
950.244	4515.86
950.549	4486.48
950.854	4486.48
951.16	4489.87
951.465	4481.73
951.77	4436.31
952.075	4390.44
952.38	4372.58
952.685	4339.36
952.99	4326.03
953.294	4315.64
953.599	4289.42
953.904	4304.79
954.209	4268.86
954.513	4240.61
954.818	4206.26
955.122	4216.88
955.426	4213.04
955.731	4175.53
956.035	4158.8
956.339	4138.69
956.643	4187.05
956.948	4074.06
957.252	4069.09
957.556	4099.37
957.86	4072.03
958.163	4048.07
958.467	4029.31
958.771	4045.59
959.075	4028.64
959.378	3995.19
959.682	3977.11
959.985	3930.79
960.289	3927.4
960.592	3924.01
960.896	3900.73
961.199	3905.93
961.502	3867.96
961.805	3869.77
962.108	3777.12
962.411	3844.46
962.714	3764.24
963.017	3813.95
963.32	3804.46
963.623	3735.31
963.926	3711.13
964.228	3726.95
964.531	3703.67
964.833	3637.23
965.136	3654.64
965.438	3620.06
965.741	3646.05
966.043	3602.89
966.345	3611.47
966.648	3600.63
966.95	3567.86
967.252	3553.62
967.554	3503
967.856	3524.24
968.158	3519.05
968.46	3471.82
968.761	3469.33
969.063	3491.02
969.365	3435.66
969.666	3453.28
969.968	3405.38
970.269	3399.73
970.571	3393.17
970.872	3367.41
971.174	3343.68
971.475	3320.41
971.776	3349.56
972.077	3316.11
972.378	3299.16
972.679	3295.55
972.98	3283.12
973.281	3266.62
973.582	3248.09
973.883	3241.09
974.183	3211.26
974.484	3185.27
974.785	3187.53
975.085	3198.15
975.386	3159.51
975.686	3117.25
975.986	3152.5
976.287	3131.94
976.587	3127.42
976.887	3068.66
977.187	3089.23
977.487	3053.07
977.787	3038.15
978.087	3048.55
978.387	3035.67
978.687	3025.5
978.987	3038.61
979.286	2994.54
979.586	3009.68
979.885	2955.44
980.185	2967.65
980.484	2901.21
980.784	2904.15
981.083	2930.59
981.382	2898.72
981.682	2869.57
981.981	2856.01
982.28	2868.89
982.579	2831.61
982.878	2815.79
983.177	2811.49
983.475	2798.84
983.774	2778.5
984.073	2749.12
984.372	2708.9
984.67	2760.65
984.969	2752.74
985.267	2710.48
985.566	2732.17
985.864	2687.88
986.162	2681.55
986.461	2674.32
986.759	2663.7
987.057	2639.97
987.355	2665.96
987.653	2609.24
987.951	2587.32
988.249	2635.68
988.547	2589.8
988.844	2556.81
989.142	2606.98
989.44	2510.26
989.737	2543.7
990.035	2551.16
990.332	2485.63
990.63	2508.45
990.927	2472.29
991.224	2487.43
991.521	2493.08
991.819	2444.5
992.116	2446.08
992.413	2449.02
992.71	2401.79
993.006	2398.62
993.303	2380.77
993.6	2411.28
993.897	2396.59
994.193	2370.83
994.49	2383.48
994.787	2348
995.083	2334.9
995.379	2332.41
995.676	2326.99
995.972	2312.75
996.268	2299.19
996.565	2271.85
996.861	2256.93
997.157	2251.28
997.453	2261.45
997.749	2233.2
998.044	2192.53
998.34	2225.29
998.636	2194.11
998.932	2221.68
999.227	2181.45
999.523	2198.85
999.818	2159.08
1000.114	2148.23
1000.409	2157.5
1000.704	2126.54
1001	2080.21
1001.295	2088.8
1001.59	2079.31
1001.885	2091.74
1002.18	2040.89
1002.475	2034.34
1002.77	2044.51
1003.065	2023.49
1003.359	1996.15
1003.654	2025.3
1003.949	2006.77
1004.243	1985.75
1004.538	1986.88
1004.832	1957.05
1005.127	1965.41
1005.421	1930.61
1005.715	1936.71
1006.009	1904.85
1006.304	1923.38
1006.598	1915.25
1006.892	1898.52
1007.186	1889.71
1007.48	1876.83
1007.773	1867.11
1008.067	1838.41
1008.361	1835.25
1008.655	1856.72
1008.948	1820.33
1009.242	1809.49
1009.535	1786.89
1009.829	1801.35
1010.122	1775.14
1010.415	1799.77
1010.708	1774.01
1011.001	1763.61
1011.295	1761.8
1011.588	1745.08
1011.881	1692.43
1012.173	1712.09
1012.466	1711.18
1012.759	1688.59
1013.052	1688.81
1013.344	1656.04
1013.637	1684.74
1013.93	1654.69
1014.222	1634.58
1014.514	1641.36
1014.807	1590.51
1015.099	1627.12
1015.391	1604.52
1015.683	1596.38
1015.976	1593.9
1016.268	1564.75
1016.56	1569.27
1016.851	1544.63
1017.143	1539.21
1017.435	1532.43
1017.727	1534.47
1018.018	1505.99
1018.31	1503.51
1018.602	1507.8
1018.893	1482.04
1019.185	1490.85
1019.476	1476.84
1019.767	1473.45
1020.058	1447.91
1020.35	1453.34
1020.641	1437.97
1020.932	1439.1
1021.223	1407.01
1021.514	1394.58
1021.804	1381.47
1022.095	1395.26
1022.386	1370.18
1022.677	1348.26
1022.967	1370.85
1023.258	1344.19
1023.548	1345.32
1023.839	1349.39
1024.129	1319.1
1024.419	1321.36
1024.709	1308.93
1025	1280.91
1025.29	1307.58
1025.58	1285.88
1025.87	1273
1026.16	1277.75
1026.449	1255.15
1026.739	1242.5
1027.029	1239.56
1027.319	1191.65
1027.608	1244.98
1027.898	1231.2
1028.187	1205.66
1028.477	1215.38
1028.766	1197.75
1029.055	1195.72
1029.344	1188.71
1029.634	1168.6
1029.923	1167.24
1030.212	1161.82
1030.501	1142.39
1030.79	1146.68
1031.078	1129.28
1031.367	1137.87
1031.656	1119.79
1031.945	1108.71
1032.233	1109.84
1032.522	1121.82
1032.81	1092.89
1033.099	1080.01
1033.387	1083.63
1033.675	1071.43
1033.963	1056.51
1034.251	1049.28
1034.54	1047.25
1034.828	1049.73
1035.116	1047.7
1035.403	1027.36
1035.691	1022.84
1035.979	1017.64
1036.267	1032.33
1036.554	1011.32
1036.842	1008.83
1037.129	987.36
1037.417	982.62
1037.704	951.43
1037.992	970.64
1038.279	960.24
1038.566	957.31
1038.853	957.31
1039.14	957.31
