Data from hue_120_FLMS001491_00005.txt Node
Date: Tue Feb 07 16:58:51 GMT 2017
User: dcchb
Spectrometer: FLMS00149
Trigger mode: 0
Integration Time (sec): 2.000000E-2
Scans to average: 10
Electric dark correction enabled: true
Nonlinearity correction enabled: false
Boxcar width: 0
XAxis mode: Wavelengths
Number of Pixels in Spectrum: 2048
>>>>>Begin Spectral Data<<<<<
341.393	-0.96
341.776	-0.96
342.16	-0.96
342.543	-58.36
342.927	-48.19
343.31	-64.01
343.693	-83.44
344.077	-58.59
344.46	-47.06
344.843	-51.13
345.226	-18.81
345.61	-26.72
345.993	-7.51
346.376	-8.64
346.759	-16.33
347.142	16.44
347.525	29.32
347.908	45.37
348.291	94.18
348.674	84.91
349.057	112.03
349.44	121.3
349.823	158.81
350.206	164.01
350.588	206.27
350.971	222.99
351.354	221.18
351.737	236.55
352.119	244.91
352.502	286.72
352.884	267.06
353.267	287.39
353.65	296.66
354.032	292.59
354.414	306.38
354.797	297.79
355.179	343.21
355.562	324.23
355.944	331.91
356.326	335.3
356.709	323.78
357.091	348.18
357.473	362.42
357.855	338.24
358.238	352.93
358.62	355.41
359.002	317.45
359.384	339.6
359.766	342.99
360.148	350.44
360.53	342.99
360.912	341.86
361.294	337.11
361.676	339.6
362.057	330.56
362.439	340.27
362.821	337.79
363.203	321.74
363.584	335.53
363.966	347.5
364.348	333.04
364.729	340.27
365.111	312.48
365.493	325.13
365.874	312.03
366.256	315.64
366.637	329.88
367.019	322.65
367.4	326.49
367.781	323.1
368.163	329.43
368.544	325.58
368.925	323.1
369.306	320.84
369.688	344.79
370.069	316.32
370.45	314.29
370.831	308.86
371.212	333.72
371.593	343.44
371.974	310.9
372.355	336.66
372.736	333.27
373.117	313.61
373.498	336.66
373.879	304.12
374.26	302.31
374.641	337.79
375.021	312.25
375.402	310.44
375.783	322.87
376.163	336.88
376.544	321.52
376.925	321.97
377.305	340.05
377.686	351.8
378.066	339.37
378.447	321.07
378.827	334.85
379.208	318.13
379.588	314.06
379.968	333.95
380.349	330.78
380.729	356.54
381.109	349.76
381.489	335.53
381.87	346.83
382.25	330.78
382.63	345.92
383.01	364.68
383.39	339.14
383.77	350.44
384.15	346.38
384.53	342.53
384.91	351.12
385.29	365.36
385.67	345.47
386.049	349.99
386.429	349.76
386.809	352.7
387.189	366.49
387.568	372.14
387.948	370.1
388.328	353.61
388.707	388.41
389.087	351.8
389.466	366.26
389.846	381.4
390.225	377.79
390.605	383.44
390.984	395.19
391.363	359.71
391.743	358.8
392.122	374.85
392.501	369.2
392.881	378.69
393.26	379.14
393.639	382.08
394.018	366.04
394.397	370.1
394.776	387.73
395.155	386.15
395.534	406.71
395.913	394.51
396.292	404
396.671	405.81
397.05	394.74
397.429	413.49
397.808	398.35
398.186	410.33
398.565	398.58
398.944	395.64
399.323	391.8
399.701	420.5
400.08	392.7
400.458	425.92
400.837	426.82
401.215	400.16
401.594	419.37
401.972	433.83
402.351	427.28
402.729	425.02
403.107	413.04
403.486	446.03
403.864	426.82
404.242	401.97
404.62	445.13
404.999	425.02
405.377	424.79
405.755	452.59
406.133	451.46
406.511	440.16
406.889	442.19
407.267	442.64
407.645	461.63
408.023	443.77
408.401	451.01
408.779	454.17
409.156	452.14
409.534	467.28
409.912	483.09
410.29	466.82
410.667	486.48
411.045	471.34
411.422	474.28
411.8	473.15
412.178	509.99
412.555	483.55
412.933	481.96
413.31	505.92
413.687	502.08
414.065	501.63
414.442	519.7
414.819	513.15
415.197	517.67
415.574	524.68
415.951	497.56
416.328	523.32
416.705	531
417.082	536.88
417.46	512.47
417.837	539.82
418.214	546.14
418.591	535.07
418.967	546.37
419.344	559.7
419.721	546.37
420.098	556.77
420.475	567.61
420.852	558.12
421.228	551.34
421.605	583.21
421.982	578.69
422.358	562.64
422.735	606.03
423.111	570.32
423.488	594.73
423.864	598.12
424.241	599.25
424.617	607.84
424.994	626.59
425.37	615.75
425.746	595.86
426.123	600.61
426.499	632.7
426.875	618.91
427.251	633.15
427.627	624.79
428.003	621.17
428.379	649.64
428.756	627.72
429.132	640.6
429.507	671.79
429.883	666.59
430.259	669.76
430.635	653.26
431.011	658.46
431.387	692.81
431.763	713.82
432.138	702.3
432.514	705.24
432.89	710.21
433.265	738.68
433.641	737.1
434.016	721.73
434.392	745.23
434.767	742.52
435.143	744.1
435.518	751.34
435.894	777.78
436.269	740.94
436.644	771.45
437.02	785.46
437.395	787.04
437.77	782.97
438.145	820.49
438.52	799.02
438.895	822.75
439.271	813.71
439.646	838.11
440.021	830.43
440.395	839.47
440.77	841.05
441.145	845.8
441.52	860.03
441.895	846.93
442.27	872.24
442.645	850.54
443.019	876.53
443.394	861.39
443.769	878.11
444.143	881.95
444.518	886.47
444.892	902.07
445.267	921.28
445.641	907.26
446.016	914.72
446.39	934.61
446.764	938.22
447.139	938.45
447.513	940.71
447.887	952.23
448.262	952.91
448.636	958.34
449.01	971.22
449.384	965.12
449.758	980.71
450.132	987.71
450.506	974.83
450.88	984.55
451.254	994.27
451.628	1023.42
452.002	1034.27
452.376	1033.81
452.75	1033.14
453.123	1034.27
453.497	1056.41
453.871	1070.42
454.244	1073.59
454.618	1073.81
454.992	1102.74
455.365	1116.75
455.739	1154.26
456.112	1141.38
456.486	1156.75
456.859	1176.18
457.232	1158.56
457.606	1187.03
457.979	1206.69
458.352	1215.28
458.725	1237.43
459.099	1236.52
459.472	1226.13
459.845	1238.78
460.218	1297.31
460.591	1298.44
460.964	1288.95
461.337	1320.81
461.71	1359.68
462.083	1362.17
462.456	1368.27
462.829	1387.03
463.201	1398.32
463.574	1407.82
463.947	1449.17
464.32	1483.75
464.692	1491.43
465.065	1504.99
465.438	1538.21
465.81	1549.51
466.183	1568.26
466.555	1610.75
466.928	1613.01
467.3	1638.09
467.672	1661.14
468.045	1696.85
468.417	1710.63
468.789	1729.39
469.161	1794.02
469.534	1816.62
469.906	1827.24
470.278	1886.22
470.65	1874.02
471.022	1938.42
471.394	1962.6
471.766	1985.88
472.138	2013.45
472.51	2069.72
472.882	2141.58
473.253	2177.06
473.625	2203.73
473.997	2232.2
474.369	2279.88
474.74	2360.11
475.112	2387.68
475.484	2481.69
475.855	2529.14
476.227	2582.02
476.598	2679.2
476.97	2712.41
477.341	2782.02
477.713	2832.41
478.084	2918.74
478.455	3040.99
478.827	3049.13
479.198	3175.23
479.569	3201.89
479.94	3369.8
480.311	3422
480.682	3531.38
481.053	3604.82
481.424	3716.68
481.795	3824.93
482.166	3910.35
482.537	3985.83
482.908	4121.19
483.279	4160.06
483.65	4382.65
484.021	4482.76
484.391	4588.98
484.762	4688.41
485.133	4781.29
485.503	4890.21
485.874	5045.91
486.244	5174.04
486.615	5353.7
486.985	5439.8
487.356	5591.21
487.726	5737.87
488.097	5909.84
488.467	5964.31
488.837	6152.32
489.207	6359.78
489.578	6474.12
489.948	6561.58
490.318	6790.95
490.688	6865.75
491.058	7047.44
491.428	7237.27
491.798	7326.08
492.168	7598.16
492.538	7676.35
492.908	7898.94
493.278	8038.15
493.648	8151.59
494.017	8284.7
494.387	8413.51
494.757	8514.07
495.126	8731.01
495.496	8823.44
495.866	8901.18
496.235	9125.35
496.605	9214.62
496.974	9377.1
497.344	9591.1
497.713	9724.66
498.082	9770.99
498.452	10002.62
498.821	10101.37
499.19	10154.03
499.559	10295.27
499.928	10409.61
500.298	10524.41
500.667	10664.52
501.036	10698.42
501.405	10904.06
501.774	10890.96
502.143	11139.99
502.512	11168.46
502.88	11281.68
503.249	11359.64
503.618	11496.82
503.987	11600.99
504.356	11597.38
504.724	11808.45
505.093	11868.78
505.462	11916.01
505.83	12066.97
506.199	12140.19
506.567	12342.22
506.936	12329.11
507.304	12415.44
507.672	12518.03
508.041	12611.36
508.409	12773.84
508.777	12817.91
509.145	12915.54
509.514	12897.46
509.882	13085.02
510.25	13104.01
510.618	13185.81
510.986	13120.5
511.354	13283.44
511.722	13409.31
512.09	13435.52
512.458	13541.51
512.826	13595.52
513.193	13588.74
513.561	13668.06
513.929	13689.3
514.297	13807.49
514.664	13865.12
515.032	13943.31
515.4	14073.02
515.767	13989.41
516.135	14182.62
516.502	14051.33
516.869	14207.48
517.237	14271.43
517.604	14235.5
517.972	14373.58
518.339	14428.72
518.706	14373.12
519.073	14417.19
519.44	14446.34
519.808	14571.31
520.175	14460.35
520.542	14623.51
520.909	14731.08
521.276	14614.47
521.643	14744.19
522.009	14777.41
522.376	14855.82
522.743	14852.66
523.11	14979.66
523.477	15101.47
523.843	15072.77
524.21	15062.6
524.577	15189.37
524.943	15222.59
525.31	15165.19
525.676	15238.86
526.043	15308.92
526.409	15303.27
526.776	15405.19
527.142	15393.44
527.508	15345.75
527.874	15404.28
528.241	15462.14
528.607	15474.11
528.973	15517.28
529.339	15529.25
529.705	15492.64
530.071	15653.32
530.437	15553.66
530.803	15555.92
531.169	15562.02
531.535	15511.85
531.901	15560.44
532.267	15483.83
532.632	15636.59
532.998	15504.17
533.364	15638.18
533.73	15533.55
534.095	15597.05
534.461	15509.59
534.826	15518.41
535.192	15495.36
535.557	15534.68
535.923	15425.75
536.288	15511.63
536.653	15518.86
537.019	15339.43
537.384	15398.86
537.749	15293.78
538.114	15322.25
538.479	15252.2
538.845	15242.25
539.21	15247.23
539.575	15279.54
539.94	15133.33
540.305	15174.46
540.67	14994.58
541.034	15125.87
541.399	15107.34
541.764	15014.46
542.129	15101.47
542.494	15027.34
542.858	14910.74
543.223	14927.69
543.587	14946.9
543.952	14789.39
544.316	14793.45
544.681	14759.56
545.045	14778.09
545.41	14747.13
545.774	14755.49
546.138	14630.29
546.503	14558.2
546.867	14547.58
547.231	14586
547.595	14535.61
547.959	14487.02
548.324	14518.66
548.688	14327.7
549.052	14345.33
549.416	14318.66
549.779	14332.9
550.143	14264.2
550.507	14261.04
550.871	14273.92
551.235	14084.54
551.599	14278.21
551.962	14162.28
552.326	14136.29
552.689	14171.32
553.053	13950.09
553.417	14076.41
553.78	14045.9
554.143	13961.38
554.507	13990.76
554.87	13965.9
555.234	14082.51
555.597	13861.05
555.96	13906.7
556.323	13952.8
556.686	13789.19
557.05	13868.05
557.413	13815.63
557.776	13897.88
558.139	13804.33
558.502	13809.3
558.865	13761.39
559.228	13835.96
559.59	13737.66
559.953	13826.25
560.316	13901.05
560.679	13906.02
561.041	13877.54
561.404	13830.54
561.767	13816.98
562.129	13770.65
562.492	13868.96
562.854	13838.45
563.217	13755.74
563.579	13756.64
563.941	13791.9
564.304	13937.88
564.666	13888.17
565.028	13876.64
565.39	13821.5
565.753	13955.73
566.115	13901.27
566.477	13946.47
566.839	13920.71
567.201	14037.77
567.563	13962.97
567.925	14041.61
568.287	14018.33
568.648	13987.82
569.01	14102.62
569.372	14073.02
569.734	14000.25
570.095	14057.88
570.457	14180.59
570.819	14061.04
571.18	14061.27
571.542	14183.53
571.903	14108.73
572.265	14208.16
572.626	14163.41
572.987	14177.65
573.349	14184.88
573.71	14260.81
574.071	14193.02
574.432	14201.15
574.794	14308.27
575.155	14301.71
575.516	14206.12
575.877	14230.08
576.238	14262.85
576.599	14260.59
576.96	14259.68
577.32	14256.97
577.681	14387.81
578.042	14333.8
578.403	14347.81
578.763	14357.08
579.124	14281.6
579.485	14323.63
579.845	14327.25
580.206	14357.31
580.566	14305.56
580.927	14318.66
581.287	14340.36
581.648	14267.59
582.008	14338.78
582.368	14219.46
582.728	14283.64
583.089	14205.67
583.449	14237.08
583.809	14353.24
584.169	14231.66
584.529	14177.65
584.889	14363.86
585.249	14263.75
585.609	14187.59
585.969	14261.49
586.329	14216.74
586.688	14247.93
587.048	14181.27
587.408	14165.9
587.768	14102.85
588.127	14112.57
588.487	14158.89
588.846	14237.99
589.206	14106.24
589.565	14141.27
589.925	14201.15
590.284	14045.22
590.643	14116.63
591.003	14199.8
591.362	14088.84
591.721	14116.41
592.08	14037.99
592.44	14075.05
592.799	14126.58
593.158	14098.78
593.517	14066.24
593.876	14097.65
594.235	14075.28
594.593	14023.53
594.952	14075.05
595.311	13990.08
595.67	14019.69
596.029	14096.52
596.387	14110.76
596.746	14015.62
597.104	14048.16
597.463	14005.22
597.822	14118.89
598.18	14013.81
598.538	13957.54
598.897	14033.25
599.255	13818.34
599.613	14097.2
599.972	13938.79
600.33	13981.04
600.688	13919.13
601.046	14027.15
601.404	14111.66
601.762	13953.7
602.12	14066.69
602.478	14103.08
602.836	14080.25
603.194	13973.36
603.552	13962.97
603.91	13896.98
604.268	13989.41
604.625	13992.12
604.983	14012.91
605.341	14014.04
605.698	14065.56
606.056	14067.6
606.413	14059.69
606.771	14012.68
607.128	14041.61
607.485	13999.8
607.843	14033.25
608.2	14125.9
608.557	14121.83
608.914	14082.29
609.272	14204.54
609.629	14150.53
609.986	14146.01
610.343	14089.29
610.7	14218.55
611.057	14184.88
611.414	14179.68
611.771	14103.98
612.127	14176.29
612.484	14142.85
612.841	14266.24
613.198	14221.94
613.554	14187.59
613.911	14210.87
614.267	14244.31
614.624	14148.5
614.98	14188.05
615.337	14336.29
615.693	14281.15
616.05	14237.76
616.406	14407.93
616.762	14341.71
617.118	14289.06
617.475	14353.46
617.831	14410.19
618.187	14311.21
618.543	14412.67
618.899	14421.94
619.255	14403.86
619.611	14471.88
619.967	14510.07
620.323	14433.91
620.678	14374.93
621.034	14342.39
621.39	14380.81
621.746	14446.12
622.101	14509.39
622.457	14332.22
622.812	14397.31
623.168	14441.6
623.523	14372.9
623.879	14517.75
624.234	14383.29
624.589	14399.34
624.945	14396.4
625.3	14433.91
625.655	14428.04
626.01	14450.86
626.365	14524.99
626.72	14422.84
627.075	14409.73
627.43	14393.01
627.785	14347.36
628.14	14438.43
628.495	14428.49
628.85	14410.64
629.205	14372.9
629.559	14339
629.914	14371.99
630.269	14329.96
630.623	14303.97
630.978	14349.62
631.332	14373.58
631.687	14433.46
632.041	14268.27
632.396	14364.31
632.75	14143.3
633.104	14261.04
633.459	14160.02
633.813	14216.97
634.167	14230.08
634.521	14148.72
634.875	14183.3
635.229	14125.45
635.583	14059.46
635.937	14054.72
636.291	14080.03
636.645	14116.41
636.999	14141.27
637.352	14089.74
637.706	13998.22
638.06	14102.85
638.413	14008.16
638.767	14032.12
639.121	14019.01
639.474	13948.5
639.828	13983.98
640.181	13971.55
640.534	13894.95
640.888	13868.73
641.241	13922.97
641.594	13934.72
641.947	13871.67
642.301	13844.33
642.654	13901.95
643.007	13852.69
643.36	13884.78
643.713	13850.43
644.066	13872.57
644.419	13829.86
644.771	13707.61
645.124	13531.79
645.477	13590.55
645.83	13391.91
646.182	13368.63
646.535	13414.51
646.888	13369.99
647.24	13290.67
647.593	13384
647.945	13354.39
648.298	13348.75
648.65	13278.92
649.002	13296.32
649.355	13321.85
649.707	13376.77
650.059	13426.71
650.411	13515.07
650.763	13531.11
651.115	13736.53
651.467	13612.47
651.819	13655.86
652.171	13623.09
652.523	13616.08
652.875	13668.96
653.227	13588.74
653.578	13656.99
653.93	13644.1
654.282	13609.53
654.633	13660.15
654.985	13647.04
655.337	13623.99
655.688	13669.64
656.039	13720.26
656.391	13603.2
656.742	13600.04
657.094	13617.21
657.445	13735.18
657.796	13727.04
658.147	13651.56
658.498	13641.62
658.849	13641.17
659.2	13671
659.551	13592.58
659.902	13693.37
660.253	13659.92
660.604	13719.13
660.955	13549.19
661.306	13619.02
661.656	13661.28
662.007	13710.09
662.358	13678.45
662.708	13687.72
663.059	13641.84
663.409	13632.81
663.76	13648.17
664.11	13634.61
664.461	13669.41
664.811	13641.39
665.161	13678.45
665.511	13540.6
665.862	13756.19
666.212	13635.07
666.562	13729.98
666.912	13738.57
667.262	13701.28
667.612	13738.79
667.962	13765.01
668.312	13663.99
668.662	13758.9
669.011	13715.74
669.361	13691.11
669.711	13739.92
670.06	13646.14
670.41	13658.34
670.76	13591.68
671.109	13721.84
671.459	13625.35
671.808	13651.34
672.157	13649.08
672.507	13594.39
672.856	13645.01
673.205	13605.69
673.554	13655.86
673.904	13588.96
674.253	13675.29
674.602	13593.03
674.951	13398.91
675.3	13285.92
675.649	13515.52
675.998	13477.1
676.346	13434.17
676.695	13538.8
677.044	13451.12
677.393	13395.98
677.741	13522.98
678.09	13356.43
678.438	13365.69
678.787	13412.92
679.135	13422.19
679.484	13358.91
679.832	13379.7
680.181	13252.93
680.529	13311.01
680.877	13306.94
681.225	13203.89
681.573	13370.67
681.922	13210.22
682.27	13128.41
682.618	13224.45
682.966	13140.39
683.314	13158.92
683.661	13091.35
684.009	13085.48
684.357	13076.21
684.705	13042.76
685.053	13012.03
685.4	13030.34
685.748	12876.89
686.095	12919.6
686.443	12817.23
686.79	12831.24
687.138	12839.15
687.485	12826.27
687.832	12709.21
688.18	12832.83
688.527	12731.13
688.874	12654.07
689.221	12624.92
689.568	12578.37
689.915	12591.02
690.262	12545.6
690.609	12570.91
690.956	12422.67
691.303	12404.59
691.65	12415.44
691.997	12429.67
692.344	12334.53
692.69	12236.46
693.037	12296.57
693.383	12174.31
693.73	12255.89
694.077	12087.76
694.423	12112.39
694.769	11994.88
695.116	12025.16
695.462	11934.32
695.808	11876.47
696.155	11882.12
696.501	11821.33
696.847	11795.11
697.193	11747.21
697.539	11788.56
697.885	11695
698.231	11602.35
698.577	11657.94
698.923	11635.12
699.269	11520.32
699.614	11452.75
699.96	11485.97
700.306	11429.02
700.651	11433.77
700.997	11394.45
701.342	11346.76
701.688	11263.15
702.033	11283.04
702.379	11206.88
702.724	11096.6
703.069	11190.84
703.415	11087.34
703.76	11063.16
704.105	10969.82
704.45	11052.08
704.795	10936.15
705.14	10867.91
705.485	10857.51
705.83	10849.38
706.175	10817.51
706.52	10754.46
706.865	10673.56
707.209	10702.71
707.554	10621.36
707.899	10724.86
708.243	10572.55
708.588	10568.71
708.932	10528.71
709.277	10553.34
709.621	10532.1
709.966	10510.85
710.31	10431.31
710.654	10378.2
710.998	10365.32
711.342	10411.65
711.687	10398.54
712.031	10347.92
712.375	10250.3
712.719	10243.29
713.063	10332.78
713.407	10300.92
713.75	10258.2
714.094	10182.5
714.438	10239.9
714.782	10182.05
715.125	10142.05
715.469	10145.21
715.812	10059.57
716.156	10057.08
716.499	10053.69
716.843	10075.16
717.186	9994.48
717.53	10000.13
717.873	10033.35
718.216	9971.66
718.559	9983.18
718.902	9879.46
719.246	9879.23
719.589	9918.78
719.932	9873.36
720.275	9834.71
720.617	9876.75
720.96	9848.95
721.303	9849.85
721.646	9825.22
721.989	9798.33
722.331	9817.54
722.674	9816.63
723.016	9791.78
723.359	9794.71
723.701	9754.94
724.044	9771.44
724.386	9676.98
724.729	9762.4
725.071	9712.68
725.413	9731.67
725.755	9682.4
726.097	9620.03
726.439	9563.53
726.782	9608.28
727.124	9633.14
727.465	9585.68
727.807	9649.86
728.149	9674.94
728.491	9587.26
728.833	9631.78
729.175	9585.45
729.516	9606.7
729.858	9531.9
730.199	9588.17
730.541	9559.01
730.882	9585.68
731.224	9549.97
731.565	9547.49
731.906	9581.61
732.248	9615.06
732.589	9588.17
732.93	9495.51
733.271	9541.61
733.612	9484.21
733.953	9600.37
734.294	9540.71
734.635	9530.77
734.976	9571.9
735.317	9544.33
735.658	9625
735.999	9528.73
736.339	9521.28
736.68	9624.32
737.021	9542.07
737.361	9527.6
737.702	9633.36
738.042	9557.66
738.383	9556.98
738.723	9626.36
739.063	9619.13
739.404	9671.78
739.744	9612.12
740.084	9651.89
740.424	9648.05
740.764	9657.09
741.104	9665.45
741.444	9645.57
741.784	9669.97
742.124	9712
742.464	9766.69
742.804	9768.95
743.143	9705.45
743.483	9758.33
743.823	9832.68
744.162	9777.31
744.502	9869.06
744.841	9823.64
745.181	9919
745.52	9883.98
745.86	9937.99
746.199	9989.29
746.538	10018.89
746.877	10105.67
747.216	10154.7
747.556	10194.93
747.895	10216.17
748.234	10256.4
748.573	10278.32
748.911	10376.17
749.25	10504.07
749.589	10547.24
749.928	10593.34
750.267	10645.77
750.605	10683.96
750.944	10788.36
751.283	10923.27
751.621	10996.94
751.96	11065.64
752.298	11112.65
752.636	11256.14
752.975	11306.09
753.313	11414.56
753.651	11596.93
753.989	11591.96
754.327	11754.44
754.666	11860.2
755.004	12012.73
755.342	12217.93
755.679	12301.31
756.017	12410.46
756.355	12575.21
756.693	12711.25
757.031	12912.82
757.368	13055.87
757.706	13239.37
758.044	13339.25
758.381	13520.49
758.719	13754.84
759.056	13939.01
759.394	14055.17
759.731	14241.6
760.068	14378.77
760.405	14567.92
760.743	14701.7
761.08	15014.01
761.417	15054.01
761.754	15347.56
762.091	15516.37
762.428	15613.32
762.765	15736.93
763.102	15989.35
763.438	16140.31
763.775	16282.45
764.112	16534.42
764.449	16787.3
764.785	16822.1
765.122	17082.43
765.458	17112.26
765.795	17303.22
766.131	17528.97
766.467	17654.39
766.804	17784.11
767.14	17849.64
767.476	18188.17
767.812	18210.99
768.148	18418.67
768.485	18461.83
768.821	18615.5
769.157	18706.57
769.492	18938.65
769.828	19035.38
770.164	19109.5
770.5	19211.19
770.836	19304.97
771.171	19342.03
771.507	19495.7
771.842	19491.86
772.178	19641.69
772.513	19864.73
772.849	19927.33
773.184	19908.57
773.519	20099.53
773.855	20138.17
774.19	20161
774.525	20328.45
774.86	20360.31
775.195	20402.12
775.53	20437.6
775.865	20571.61
776.2	20410.03
776.535	20424.49
776.87	20551.04
777.205	20466.07
777.539	20662
777.874	20723.24
778.209	20542.23
778.543	20802.56
778.878	20601.44
779.212	20729.34
779.547	20678.04
779.881	20824.71
780.215	20798.49
780.55	20862.22
780.884	20750.58
781.218	20825.61
781.552	20883.46
781.886	20831.94
782.22	20812.5
782.554	20713.52
782.888	20687.76
783.222	20716.23
783.556	20647.99
783.889	20728.66
784.223	20564.83
784.557	20604.37
784.89	20675.56
785.224	20478.28
785.557	20534.09
785.891	20513.53
786.224	20487.09
786.558	20534.77
786.891	20455.45
787.224	20392.4
787.557	20486.41
787.891	20417.94
788.224	20396.02
788.557	20482.79
788.89	20363.02
789.223	20478.28
789.556	20376.58
789.888	20208.9
790.221	20277.6
790.554	20144.72
790.887	20085.97
791.219	20087.55
791.552	20057.95
791.884	20033.32
792.217	19988.12
792.549	19896.37
792.882	19845.75
793.214	19749.03
793.546	19852.53
793.879	19723.27
794.211	19676.71
794.543	19787.9
794.875	19746.99
795.207	19824.28
795.539	19659.77
795.871	19610.95
796.203	19497.28
796.535	19477.17
796.867	19375.48
797.198	19398.53
797.53	19335.71
797.862	19292.77
798.193	19368.25
798.525	19186.33
798.856	19271.98
799.188	19070.63
799.519	18968.71
799.85	18929.16
800.182	18952.44
800.513	18918.09
800.844	18773.01
801.175	18849.39
801.506	18835.38
801.837	18822.27
802.168	18705.89
802.499	18680.13
802.83	18683.75
803.161	18604.88
803.491	18528.27
803.822	18549.74
804.153	18449.4
804.483	18407.14
804.814	18332.34
805.145	18280.82
805.475	18377.99
805.805	18269.75
806.136	18265
806.466	18328.5
806.796	18106.13
807.126	18094.83
807.457	17981.39
807.787	18011
808.117	17918.12
808.447	17924.22
808.777	17936.42
809.107	17802.19
809.436	17718.8
809.766	17771.23
810.096	17764.45
810.426	17661.85
810.755	17582.98
811.085	17720.61
811.414	17606.94
811.744	17432.48
812.073	17484
812.403	17474.06
812.732	17359.49
813.061	17350
813.39	17344.8
813.719	17292.14
814.049	17350.22
814.378	17270.9
814.707	17217.34
815.036	17168.31
815.365	17202.43
815.693	17046.27
816.022	16966.5
816.351	16942.77
816.68	16885.83
817.008	16977.58
817.337	16816.22
817.665	16811.93
817.994	16862.78
818.322	16737.81
818.651	16683.8
818.979	16660.97
819.307	16850.12
819.636	16676.79
819.964	16597.02
820.292	16663.46
820.62	16709.33
820.948	16560.19
821.276	16722.22
821.604	16595.67
821.932	16661.2
822.259	16578.94
822.587	16634.53
822.915	16608.32
823.243	16549.56
823.57	16573.97
823.898	16495.1
824.225	16462.34
824.553	16542.11
824.88	16490.81
825.207	16633.86
825.535	16493.07
825.862	16574.87
826.189	16551.37
826.516	16631.82
826.843	16614.2
827.17	16601.54
827.497	16554.76
827.824	16511.83
828.151	16620.98
828.478	16521.77
828.805	16660.3
829.131	16534.2
829.458	16528.1
829.785	16447.19
830.111	16537.59
830.438	16596.34
830.764	16597.25
831.09	16584.37
831.417	16467.99
831.743	16481.32
832.069	16491.71
832.395	16484.93
832.722	16473.63
833.048	16427.31
833.374	16426.18
833.7	16457.59
834.026	16399.74
834.351	16512.28
834.677	16532.84
835.003	16425.73
835.329	16365.39
835.654	16412.85
835.98	16411.72
836.306	16430.92
836.631	16310.25
836.956	16321.32
837.282	16380.08
837.607	16247.88
837.932	16286.29
838.258	16176.24
838.583	16142.12
838.908	16134.66
839.233	16211.72
839.558	16069.58
839.883	15997.04
840.208	16031.16
840.533	15932.86
840.858	15968.79
841.182	16053.08
841.507	16008.11
841.832	15887.89
842.156	15920.88
842.481	15854.22
842.805	15857.61
843.13	15823.93
843.454	15741.22
843.778	15702.81
844.103	15678.4
844.427	15565.18
844.751	15648.12
845.075	15551.17
845.399	15482.7
845.723	15430.27
846.047	15462.59
846.371	15391.18
846.695	15325.19
847.019	15256.49
847.343	15200.9
847.666	15058.53
847.99	14983.05
848.313	15051.3
848.637	14912.55
848.96	14900.57
849.284	14826.22
849.607	14760.23
849.931	14611.31
850.254	14591.65
850.577	14489.73
850.9	14436.63
851.223	14523.63
851.546	14362.05
851.869	14230.76
852.192	14310.53
852.515	14177.2
852.838	14106.01
853.161	14139.01
853.483	14066.47
853.806	14014.94
854.129	13947.83
854.451	13922.52
854.774	13910.31
855.096	13778.79
855.419	13745.34
855.741	13663.54
856.063	13659.25
856.385	13705.57
856.708	13583.09
857.03	13585.35
857.352	13498.12
857.674	13511.9
857.996	13412.02
858.318	13444.11
858.64	13377.67
858.961	13365.47
859.283	13331.12
859.605	13237.79
859.926	13330.89
860.248	13190.56
860.57	13201.63
860.891	13270.1
861.212	13125.7
861.534	13146.72
861.855	13119.6
862.176	13024.91
862.498	12940.39
862.819	12988.3
863.14	12937.91
863.461	12938.59
863.782	12883.45
864.103	12961.41
864.424	12843.67
864.745	12845.71
865.065	12861.98
865.386	12791.47
865.707	12708.08
866.027	12784.01
866.348	12732.94
866.668	12740.85
866.989	12607.52
867.309	12586.96
867.63	12589.67
867.95	12585.83
868.27	12509.9
868.59	12550.57
868.91	12539.95
869.23	12497.47
869.55	12378.38
869.87	12496.79
870.19	12467.86
870.51	12483.01
870.83	12451.82
871.15	12379.05
871.469	12374.53
871.789	12324.59
872.109	12341.09
872.428	12263.58
872.748	12296.12
873.067	12332.27
873.386	12276.23
873.706	12307.87
874.025	12179.96
874.344	12188.32
874.663	12224.71
874.982	12196.01
875.301	12193.97
875.62	12074.2
875.939	12069.68
876.258	12094.54
876.577	12012.96
876.896	11980.19
877.214	11971.15
877.533	12008.22
877.852	11997.82
878.17	11944.04
878.489	11913.98
878.807	11911.04
879.125	11898.16
879.444	11864.49
879.762	11893.64
880.08	11887.54
880.398	11783.36
880.716	11855.68
881.034	11771.16
881.352	11777.71
881.67	11704.72
881.988	11751.05
882.306	11710.82
882.624	11610.71
882.941	11543.59
883.259	11514.89
883.577	11541.33
883.894	11487.78
884.212	11528.91
884.529	11488
884.846	11445.29
885.164	11394.22
885.481	11394.9
885.798	11400.1
886.115	11304.51
886.432	11293.21
886.75	11252.08
887.067	11261.57
887.383	11180.67
887.7	11302.47
888.017	11206.43
888.334	11185.19
888.651	11114
888.967	11061.35
889.284	11050.27
889.6	10984.74
889.917	11043.49
890.233	11031.97
890.55	10921.69
890.866	10892.31
891.182	10939.09
891.498	10824.29
891.815	10818.42
892.131	10797.63
892.447	10748.81
892.763	10666.56
893.079	10678.98
893.395	10631.75
893.71	10613.9
894.026	10629.04
894.342	10508.37
894.657	10489.16
894.973	10485.32
895.289	10471.76
895.604	10452.78
895.92	10360.12
896.235	10311.99
896.55	10282.39
896.865	10250.97
897.181	10224.76
897.496	10241.03
897.811	10164.2
898.126	10181.82
898.441	10076.51
898.756	10064.76
899.071	9996.29
899.386	10071.32
899.7	9967.37
900.015	9858.22
900.33	9837.2
900.644	9815.28
900.959	9815.73
901.273	9743.19
901.588	9767.6
901.902	9686.69
902.216	9685.79
902.531	9603.76
902.845	9546.13
903.159	9491.22
903.473	9509.98
903.787	9439.24
904.101	9406.48
904.415	9415.74
904.729	9394.72
905.042	9376.19
905.356	9306.59
905.67	9242.86
905.984	9239.47
906.297	9196.54
906.611	9184.79
906.924	9144.56
907.237	9062.98
907.551	9098.46
907.864	9044.9
908.177	8981.18
908.491	8957.9
908.804	8926.26
909.117	8904.79
909.43	8778.02
909.743	8787.28
910.056	8759.94
910.368	8706.61
910.681	8660.51
910.994	8681.75
911.307	8601.75
911.619	8580.51
911.932	8605.14
912.244	8450.79
912.557	8498.93
912.869	8426.84
913.181	8351.81
913.494	8413.73
913.806	8329.89
914.118	8336.9
914.43	8259.39
914.742	8259.16
915.054	8218.26
915.366	8210.12
915.678	8160.63
915.99	8098.49
916.302	8068.66
916.613	8024.59
916.925	7979.39
917.236	7954.31
917.548	7920.64
917.859	7930.36
918.171	7869.79
918.482	7828.21
918.794	7826.63
919.105	7825.5
919.416	7762.9
919.727	7724.03
920.038	7645.62
920.349	7684.26
920.66	7573.98
920.971	7651.95
921.282	7570.82
921.593	7520.65
921.903	7444.27
922.214	7474.78
922.525	7425.51
922.835	7416.92
923.146	7364.5
923.456	7330.6
923.767	7320.88
924.077	7264.61
924.387	7275.01
924.697	7234.1
925.008	7129.93
925.318	7194.33
925.628	7104.84
925.938	7077.95
926.248	7007.67
926.558	7042.7
926.867	6976.26
927.177	7004.28
927.487	6958.63
927.796	6911.17
928.106	6860.1
928.416	6856.49
928.725	6895.58
929.034	6778.07
929.344	6755.02
929.653	6717.51
929.962	6663.95
930.271	6680.22
930.581	6636.15
930.89	6607.91
931.199	6544.18
931.508	6601.58
931.817	6583.05
932.125	6555.7
932.434	6498.98
932.743	6432.54
933.051	6360.23
933.36	6434.58
933.669	6306.44
933.977	6353.22
934.286	6326.78
934.594	6321.36
934.902	6238.65
935.21	6215.6
935.519	6217.18
935.827	6209.05
936.135	6171.98
936.443	6106.22
936.751	6090.18
937.059	6099.67
937.367	6055.15
937.674	6080.46
937.982	6020.35
938.29	6008.83
938.597	5993.23
938.905	5959.11
939.213	5889.28
939.52	5886.57
939.827	5938.77
940.135	5820.36
940.442	5801.15
940.749	5813.58
941.056	5770.64
941.363	5722.05
941.67	5722.28
941.977	5680.92
942.284	5676.18
942.591	5632.79
942.898	5548.72
943.205	5655.84
943.511	5552.11
943.818	5523.64
944.125	5475.28
944.431	5535.62
944.738	5454.26
945.044	5419.46
945.35	5418.33
945.657	5367.49
945.963	5370.2
946.269	5333.81
946.575	5336.53
946.881	5284.78
947.187	5308.96
947.493	5262.86
947.799	5221.73
948.105	5224.89
948.41	5138.11
948.716	5187.15
949.022	5167.27
949.327	5172.91
949.633	5098.57
949.938	5067.61
950.244	5079.58
950.549	5056.08
950.854	5003.65
951.16	5012.24
951.465	4962.07
951.77	4922.3
952.075	4947.16
952.38	4943.32
952.685	4908.06
952.99	4889.98
953.294	4821.96
953.599	4823.09
953.904	4782.42
954.209	4794.62
954.513	4774.51
954.818	4743.55
955.122	4731.8
955.426	4702.19
955.731	4662.87
956.035	4630.56
956.339	4646.38
956.643	4636.66
956.948	4617.22
957.252	4596.21
957.556	4555.3
957.86	4559.6
958.163	4512.14
958.467	4498.13
958.771	4466.49
959.075	4455.42
959.378	4443.22
959.682	4416.1
959.985	4382.2
960.289	4356.21
960.592	4388.3
960.896	4384.91
961.199	4321.64
961.502	4316.44
961.805	4284.8
962.108	4233.73
962.411	4290
962.714	4188.53
963.017	4197.8
963.32	4191.7
963.623	4176.1
963.926	4171.36
964.228	4168.2
964.531	4108.31
964.833	4142.43
965.136	4045.94
965.438	4090.46
965.741	4049.55
966.043	4030.57
966.345	3994.87
966.648	3980.63
966.95	3999.84
967.252	3979.05
967.554	3945.83
967.856	3924.36
968.158	3886.17
968.46	3899.95
968.761	3909.45
969.063	3848.88
969.365	3836.9
969.666	3800.07
969.968	3780.18
970.269	3816.34
970.571	3803.23
970.872	3753.29
971.174	3741.54
971.475	3709.9
971.776	3698.83
972.077	3684.37
972.378	3657.25
972.679	3657.47
972.98	3650.47
973.281	3619.28
973.582	3616.35
973.883	3619.51
974.183	3593.75
974.484	3585.16
974.785	3552.84
975.085	3519.4
975.386	3552.62
975.686	3497.25
975.986	3466.07
976.287	3520.53
976.587	3463.13
976.887	3445.28
977.187	3457.25
977.487	3393.3
977.787	3394.2
978.087	3381.1
978.387	3361.66
978.687	3353.98
978.987	3299.74
979.286	3310.14
979.586	3325.28
979.885	3320.76
980.185	3269.69
980.484	3268.56
980.784	3252.29
981.083	3234.43
981.382	3207.99
981.682	3187.2
981.981	3201.89
982.28	3183.81
982.579	3144.49
982.878	3135.91
983.177	3143.82
983.475	3129.58
983.774	3062.69
984.073	3110.37
984.372	3070.37
984.67	3067.43
984.969	3064.5
985.267	3037.83
985.566	2999.41
985.864	3008.45
986.162	2999.64
986.461	2967.55
986.759	2979.3
987.057	2897.49
987.355	2940.88
987.653	2926.19
987.951	2918.06
988.249	2890.49
988.547	2888.68
988.844	2860.89
989.142	2857.27
989.44	2824.95
989.737	2813.88
990.035	2801.9
990.332	2776.14
990.63	2792.86
990.927	2805.97
991.224	2766.42
991.521	2755.58
991.819	2736.82
992.116	2720.32
992.413	2709.25
992.71	2699.08
993.006	2688.23
993.303	2659.31
993.6	2662.7
993.897	2655.47
994.193	2651.63
994.49	2620.44
994.787	2581.57
995.083	2617.95
995.379	2605.52
995.676	2577.05
995.972	2573.21
996.268	2548.8
996.565	2543.15
996.861	2482.36
997.157	2509.26
997.453	2538.86
997.749	2490.27
998.044	2473.55
998.34	2433.1
998.636	2419.09
998.932	2433.78
999.227	2425.64
999.523	2393.78
999.818	2393.1
1000.114	2378.19
1000.409	2384.06
1000.704	2357.17
1001	2328.47
1001.295	2345.64
1001.59	2313.55
1001.885	2312.43
1002.18	2245.53
1002.475	2256.38
1002.77	2263.39
1003.065	2250.51
1003.359	2235.14
1003.654	2212.31
1003.949	2214.12
1004.243	2177.51
1004.538	2217.51
1004.832	2186.33
1005.127	2142.26
1005.421	2137.97
1005.715	2135.48
1006.009	2140.68
1006.304	2142.49
1006.598	2123.96
1006.892	2108.36
1007.186	2091.64
1007.48	2082.37
1007.773	2044.86
1008.067	2053.67
1008.361	2055.03
1008.655	2043.28
1008.948	2002.15
1009.242	1989.95
1009.535	1967.12
1009.829	1985.65
1010.122	1973.45
1010.415	1958.76
1010.708	1938.42
1011.001	1963.73
1011.295	1913.11
1011.588	1917.41
1011.881	1902.94
1012.173	1884.19
1012.466	1885.09
1012.759	1864.08
1013.052	1826.34
1013.344	1853.45
1013.637	1834.92
1013.93	1831.53
1014.222	1811.42
1014.514	1804.42
1014.807	1772.55
1015.099	1764.42
1015.391	1743.85
1015.683	1753.34
1015.976	1728.71
1016.268	1737.75
1016.56	1697.07
1016.851	1681.26
1017.143	1707.92
1017.435	1707.92
1017.727	1662.95
1018.018	1679
1018.31	1650.07
1018.602	1641.71
1018.893	1619.79
1019.185	1617.75
1019.476	1608.71
1019.767	1636.28
1020.058	1604.42
1020.35	1598.09
1020.641	1563.07
1020.932	1567.81
1021.223	1537.98
1021.514	1559
1021.804	1518.32
1022.095	1530.3
1022.386	1488.49
1022.677	1509.96
1022.967	1485.1
1023.258	1476.29
1023.548	1486.23
1023.839	1458.21
1024.129	1458.44
1024.419	1454.14
1024.709	1423.86
1025	1413.92
1025.29	1408.49
1025.58	1383.41
1025.87	1389.51
1026.16	1379.79
1026.449	1377.53
1026.739	1363.07
1027.029	1359.23
1027.319	1334.37
1027.608	1338.89
1027.898	1321.72
1028.187	1316.52
1028.477	1317.65
1028.766	1291.89
1029.055	1288.95
1029.344	1303.64
1029.634	1284.66
1029.923	1281.27
1030.212	1255.05
1030.501	1264.09
1030.79	1264.77
1031.078	1265.67
1031.367	1222.51
1031.656	1218.67
1031.945	1218.44
1032.233	1202.85
1032.522	1213.47
1032.81	1194.71
1033.099	1197.65
1033.387	1183.64
1033.675	1175.05
1033.963	1153.36
1034.251	1173.92
1034.54	1148.39
1034.828	1129.18
1035.116	1145.9
1035.403	1108.84
1035.691	1124.66
1035.979	1083.08
1036.267	1073.59
1036.554	1102.29
1036.842	1076.98
1037.129	1074.27
1037.417	1081.05
1037.704	1074.49
1037.992	1021.16
1038.279	1041.72
1038.566	1044.89
1038.853	1044.89
1039.14	1044.89
