Data from hue_60_FLMS001491_97.txt Node
Date: Mon Feb 06 15:18:13 GMT 2017
User: dcchb
Spectrometer: FLMS00149
Trigger mode: 0
Integration Time (sec): 2.000000E-2
Scans to average: 10
Electric dark correction enabled: true
Nonlinearity correction enabled: false
Boxcar width: 0
XAxis mode: Wavelengths
Number of Pixels in Spectrum: 2048
>>>>>Begin Spectral Data<<<<<
341.393	1.92
341.776	1.92
342.16	1.92
342.543	-52.09
342.927	-64.29
343.31	-71.75
343.693	-89.83
344.077	-75.37
344.46	-42.15
344.843	-58.87
345.226	-34.01
345.61	-14.12
345.993	-20.45
346.376	-3.05
346.759	3.28
347.142	31.3
347.525	41.47
347.908	61.58
348.291	87.57
348.674	74.91
349.057	109.49
349.44	130.96
349.823	144.52
350.206	161.24
350.588	219.09
350.971	222.25
351.354	243.04
351.737	255.7
352.119	254.8
352.502	265.19
352.884	295.02
353.267	290.5
353.65	317.17
354.032	299.77
354.414	323.72
354.797	321.69
355.179	326.66
355.562	331.18
355.944	342.93
356.326	337.28
356.709	326.21
357.091	356.71
357.473	356.71
357.855	349.93
358.238	351.74
358.62	342.48
359.002	364.4
359.384	357.17
359.766	373.44
360.148	344.06
360.53	341.8
360.912	348.13
361.294	352.65
361.676	338.64
362.057	334.12
362.439	335.7
362.821	341.57
363.203	337.28
363.584	326.66
363.966	322.59
364.348	328.24
364.729	335.25
365.111	322.82
365.493	317.17
365.874	323.72
366.256	308.13
366.637	339.09
367.019	305.42
367.4	317.84
367.781	330.5
368.163	330.27
368.544	312.87
368.925	329.6
369.306	344.96
369.688	314.23
370.069	301.57
370.45	317.84
370.831	322.14
371.212	309.03
371.593	335.02
371.974	316.49
372.355	335.47
372.736	320.56
373.117	330.5
373.498	329.37
373.879	325.3
374.26	326.21
374.641	313.55
375.021	339.31
375.402	334.79
375.783	318.97
376.163	333.21
376.544	319.65
376.925	319.2
377.305	341.35
377.686	337.05
378.066	339.09
378.447	331.4
378.827	329.14
379.208	342.48
379.588	339.77
379.968	342.7
380.349	341.57
380.729	347
381.109	343.61
381.489	347.67
381.87	344.28
382.25	354.68
382.63	355.13
383.01	358.07
383.39	347.67
383.77	363.04
384.15	337.73
384.53	348.8
384.91	343.38
385.29	364.17
385.67	342.7
386.049	357.39
386.429	344.96
386.809	350.84
387.189	361.46
387.568	370.05
387.948	366.88
388.328	349.03
388.707	370.27
389.087	356.26
389.466	367.56
389.846	359.2
390.225	361.69
390.605	369.59
390.984	390.39
391.363	379.54
391.743	381.35
392.122	375.02
392.501	386.54
392.881	376.37
393.26	384.51
393.639	356.49
394.018	383.15
394.397	364.85
394.776	378.18
395.155	403.27
395.534	395.58
395.913	406.66
396.292	377.73
396.671	382.25
397.05	407.56
397.429	391.29
397.808	385.64
398.186	400.33
398.565	396.03
398.944	390.84
399.323	409.14
399.701	389.93
400.08	418.63
400.458	405.07
400.837	386.77
401.215	422.25
401.594	404.62
401.972	412.53
402.351	417.28
402.729	407.11
403.107	387.9
403.486	438.75
403.864	425.86
404.242	415.92
404.62	431.97
404.999	432.42
405.377	438.07
405.755	415.92
406.133	426.09
406.511	429.03
406.889	441.46
407.267	417.96
407.645	448.24
408.023	437.39
408.401	475.35
408.779	436.26
409.156	457.5
409.534	474.22
409.912	465.19
410.29	468.35
410.667	472.87
411.045	455.92
411.422	461.8
411.8	485.75
412.178	474.45
412.555	485.07
412.933	495.02
413.31	488.46
413.687	491.85
414.065	493.43
414.442	496.37
414.819	495.47
415.197	482.13
415.574	501.34
415.951	496.6
416.328	523.94
416.705	536.14
417.082	509.7
417.46	524.17
417.837	522.36
418.214	527.1
418.591	541.12
418.967	524.84
419.344	532.3
419.721	546.77
420.098	542.25
420.475	554.67
420.852	535.47
421.228	563.04
421.605	548.35
421.982	561.91
422.358	561.23
422.735	566.2
423.111	561.91
423.488	564.17
423.864	562.81
424.241	573.88
424.617	586.09
424.994	573.66
425.37	587.22
425.746	605.07
426.123	601
426.499	605.07
426.875	588.35
427.251	612.3
427.627	615.46
428.003	609.59
428.379	613.66
428.756	625.41
429.132	626.09
429.507	631.96
429.883	651.4
430.259	630.38
430.635	645.52
431.011	651.17
431.387	662.24
431.763	652.07
432.138	692.3
432.514	675.12
432.89	684.16
433.265	687.55
433.641	696.82
434.016	689.36
434.392	701.79
434.767	719.87
435.143	726.42
435.518	716.48
435.894	693.88
436.269	735.01
436.644	740.88
437.02	742.69
437.395	749.7
437.77	743.82
438.145	752.86
438.52	738.85
438.895	758.06
439.271	767.78
439.646	767.32
440.021	780.88
440.395	771.62
440.77	759.64
441.145	791.5
441.52	802.13
441.895	790.6
442.27	822.92
442.645	817.49
443.019	846.19
443.394	799.19
443.769	834.67
444.143	828.79
444.518	836.25
444.892	832.18
445.267	855.68
445.641	828.79
446.016	833.31
446.39	859.98
446.764	863.82
447.139	846.42
447.513	886.42
447.887	889.13
448.262	883.93
448.636	878.96
449.01	877.83
449.384	905.17
449.758	938.62
450.132	909.69
450.506	920.54
450.88	936.13
451.254	929.81
451.628	947.21
452.002	959.18
452.376	973.87
452.75	918.96
453.123	996.02
453.497	977.49
453.871	989.69
454.244	1019.97
454.618	1001.89
454.992	1013.19
455.365	1034.66
455.739	1048
456.112	1039.18
456.486	1043.7
456.859	1069.69
457.232	1093.87
457.606	1118.73
457.979	1086.64
458.352	1109.46
458.725	1110.14
459.099	1147.88
459.472	1151.5
459.845	1178.39
460.218	1197.37
460.591	1184.49
460.964	1188.56
461.337	1202.57
461.71	1229.01
462.083	1245.5
462.456	1276.46
462.829	1270.59
463.201	1293.64
463.574	1282.11
463.947	1348.33
464.32	1313.75
464.692	1373.18
465.065	1376.35
465.438	1407.53
465.81	1421.54
466.183	1433.97
466.555	1465.61
466.928	1449.11
467.3	1473.75
467.672	1504.71
468.045	1553.07
468.417	1532.05
468.789	1538.15
469.161	1584.03
469.534	1599.39
469.906	1659.05
470.278	1681.88
470.65	1720.97
471.022	1772.72
471.394	1773.4
471.766	1819.5
472.138	1849.1
472.51	1921.19
472.882	1904.47
473.253	1960.74
473.625	1994.86
473.997	2035.31
474.369	2071.24
474.74	2118.25
475.112	2158.25
475.484	2194.86
475.855	2261.97
476.227	2323.67
476.598	2419.03
476.97	2432.59
477.341	2514.62
477.713	2588.97
478.084	2624
478.455	2720.72
478.827	2722.3
479.198	2844.11
479.569	2860.83
479.94	3043.2
480.311	3075.74
480.682	3181.05
481.053	3285.45
481.424	3407.48
481.795	3447.25
482.166	3529.74
482.537	3636.85
482.908	3783.52
483.279	3856.73
483.65	4002.04
484.021	4109.38
484.391	4221.02
484.762	4310.96
485.133	4389.83
485.503	4513.21
485.874	4723.15
486.244	4810.16
486.615	4913.88
486.985	5063.48
487.356	5228.45
487.726	5350.03
488.097	5528.56
488.467	5612.39
488.837	5770.13
489.207	5979.16
489.578	6068.65
489.948	6285.6
490.318	6409.21
490.688	6568.75
491.058	6726.26
491.428	6873.83
491.798	7071.11
492.168	7253.71
492.538	7417.32
492.908	7545
493.278	7769.17
493.648	7902.05
494.017	8055.04
494.387	8240.35
494.757	8443.96
495.126	8627.23
495.496	8666.33
495.866	8886.21
496.235	9155.58
496.605	9224.96
496.974	9455.91
497.344	9577.71
497.713	9723.93
498.082	9928.21
498.452	10131.15
498.821	10164.59
499.19	10339.73
499.559	10571.13
499.928	10762.99
500.298	10849.55
500.667	11137.22
501.036	11159.37
501.405	11379.93
501.774	11436.42
502.143	11694.04
502.512	11804.77
502.88	11999.35
503.249	12176.52
503.618	12295.16
503.987	12466.9
504.356	12643.85
504.724	12685.88
505.093	12890.4
505.462	13040.67
505.83	13090.39
506.199	13356.15
506.567	13638.85
506.936	13618.29
507.304	13853.99
507.672	14024.38
508.041	14167.88
508.409	14352.73
508.777	14464.59
509.145	14644.25
509.514	14710.46
509.882	14957.91
510.25	14938.93
510.618	15294.63
510.986	15302.99
511.354	15532.13
511.722	15712.24
512.09	15889.64
512.458	15854.61
512.826	16182.96
513.193	16243.3
513.561	16312.9
513.929	16613.91
514.297	16779.56
514.664	16877.18
515.032	17047.35
515.4	17165.54
515.767	17292.77
516.135	17433.78
516.502	17461.57
516.869	17822.02
517.237	17900.21
517.604	17907.66
517.972	18166.19
518.339	18301.1
518.706	18376.35
519.073	18545.39
519.44	18692.73
519.808	18887.75
520.175	19036.45
520.542	19253.17
520.909	19413.16
521.276	19340.85
521.643	19724.79
522.009	19794.62
522.376	19979.02
522.743	20133.14
523.11	20264.89
523.477	20579.01
523.843	20698.1
524.21	20817.19
524.577	21113.23
524.943	21195.04
525.31	21341.92
525.676	21549.38
526.043	21629.6
526.409	21922.25
526.776	22075.01
527.142	22162.24
527.508	22290.83
527.874	22435.91
528.241	22628.9
528.607	22738.95
528.973	22924.93
529.339	22972.39
529.705	23233.17
530.071	23428.65
530.437	23604.01
530.803	23655.31
531.169	23745.25
531.535	23681.98
531.901	23918.13
532.267	23910.9
532.632	24064.56
532.998	24226.59
533.364	24366.48
533.73	24463.2
534.095	24662.29
534.461	24810.76
534.826	24940.47
535.192	25074.93
535.557	25271.99
535.923	25237.64
536.288	25310.86
536.653	25430.18
537.019	25438.99
537.384	25504.98
537.749	25723.5
538.114	25728.93
538.479	25792.2
538.845	26014.34
539.21	25832.43
539.575	26133.89
539.94	26184.06
540.305	26419.53
540.67	26326.88
541.034	26485.97
541.399	26612.75
541.764	26634.44
542.129	26838.28
542.494	26826.98
542.858	26985.62
543.223	26965.28
543.587	27171.6
543.952	27187.42
544.316	27354.87
544.681	27294.76
545.045	27461.31
545.41	27516
545.774	27657.24
546.138	27589.22
546.503	27807.97
546.867	27868.08
547.231	28078.92
547.595	28208.18
547.959	28143.33
548.324	28181.97
548.688	28243.89
549.052	28287.28
549.416	28466.94
549.779	28529.31
550.143	28698.34
550.507	28785.34
550.871	28783.54
551.235	28831.45
551.599	29248.38
551.962	29173.81
552.326	29167.71
552.689	29379.91
553.053	29323.64
553.417	29425.55
553.78	29749.84
554.143	29713.23
554.507	29742.16
554.87	29856.73
555.234	30183.95
555.597	30047.01
555.96	30169.26
556.323	30404.29
556.686	30373.55
557.05	30691.51
557.413	30764.73
557.776	30791.39
558.139	31016.47
558.502	31122.23
558.865	31143.02
559.228	31485.16
559.59	31553.41
559.953	31577.36
560.316	31861.87
560.679	31886.28
561.041	32039.27
561.404	32199.72
561.767	32367.4
562.129	32323.33
562.492	32677.9
562.854	32666.15
563.217	32663.89
563.579	32796.31
563.941	33049.87
564.304	33075.63
564.666	33435.84
565.028	33539.8
565.39	33560.13
565.753	33659.11
566.115	33892.1
566.477	34010.52
566.839	33947.69
567.201	34193.11
567.563	34283.96
567.925	34587.68
568.287	34676.94
568.648	34727.11
569.01	34920.32
569.372	35060.21
569.734	35154.67
570.095	35379.75
570.457	35361.9
570.819	35457.26
571.18	35446.64
571.542	35763.24
571.903	35769.57
572.265	35873.52
572.626	35965.72
572.987	35942.22
573.349	36158.26
573.71	36353.51
574.071	36345.15
574.432	36431.02
574.794	36766.38
575.155	36665.36
575.516	36688.87
575.877	36874.17
576.238	36761.41
576.599	36893.83
576.96	37093.37
577.32	37162.53
577.681	37173.82
578.042	37315.52
578.403	37237.33
578.763	37426.7
579.124	37571.1
579.485	37599.12
579.845	37743.3
580.206	37630.08
580.566	37664.21
580.927	37801.15
581.287	37897.42
581.648	37734.71
582.008	38060.81
582.368	37911.66
582.728	37885.44
583.089	38001.15
583.449	37939.23
583.809	38078.43
584.169	38158.88
584.529	38041.82
584.889	38258.09
585.249	38046.8
585.609	38052.22
585.969	38308.48
586.329	38085.21
586.688	38239.33
587.048	38189.17
587.408	38131.77
587.768	38183.29
588.127	38165.21
588.487	38099.45
588.846	38390.97
589.206	38098.32
589.565	38245.44
589.925	38422.38
590.284	38341.48
590.643	38370.86
591.003	38603.39
591.362	38483.62
591.721	38499.44
592.08	38603.39
592.44	38649.49
592.799	38669.6
593.158	38530.17
593.517	38586.67
593.876	38535.82
594.235	38545.54
594.593	38525.65
594.952	38709.15
595.311	38760.68
595.67	38698.76
596.029	38872.76
596.387	38965.19
596.746	39002.7
597.104	38769.72
597.463	38714.12
597.822	38986.88
598.18	38927.45
598.538	38824.63
598.897	39142.36
599.255	38898.3
599.613	39370.15
599.972	38981.69
600.33	39217.16
600.688	39225.97
601.046	39261.45
601.404	39511.84
601.762	39293.09
602.12	39452.18
602.478	39487.44
602.836	39461.45
603.194	39421.9
603.552	39476.59
603.91	39364.5
604.268	39649.01
604.625	39494.89
604.983	39759.97
605.341	39645.4
605.698	39927.2
606.056	39896.47
606.413	39843.81
606.771	39870.7
607.128	40000.19
607.485	39876.13
607.843	40142.56
608.2	40295.78
608.557	40429.33
608.914	40284.25
609.272	40531.93
609.629	40500.52
609.986	40729.44
610.343	40469.11
610.7	40763.11
611.057	40789.55
611.414	40704.13
611.771	40823.67
612.127	41032.93
612.484	40907.74
612.841	41147.51
613.198	40920.62
613.554	40996.78
613.911	41245.58
614.267	41265.92
614.624	41160.61
614.98	41401.74
615.337	41648.51
615.693	41503.88
616.05	41502.75
616.406	41728.73
616.762	41584.78
617.118	41590.21
617.475	41654.84
617.831	41794.72
618.187	41774.83
618.543	41917.65
618.899	41969.18
619.255	41982.74
619.611	42021.61
619.967	42178.66
620.323	42263.63
620.678	42251.88
621.034	42047.14
621.39	42182.05
621.746	41967.37
622.101	42542.72
622.457	42381.6
622.812	42277.19
623.168	42456.17
623.523	42441.26
623.879	42522.61
624.234	42361.71
624.589	42448.71
624.945	42476.96
625.3	42554.7
625.655	42614.81
626.01	42630.63
626.365	42726.45
626.72	42651.19
627.075	42715.37
627.43	42584.3
627.785	42453.01
628.14	42653.68
628.495	42636.96
628.85	42603.74
629.205	42575.94
629.559	42848.48
629.914	42524.42
630.269	42634.25
630.623	42580.01
630.978	42525.32
631.332	42718.54
631.687	42846.44
632.041	42678.31
632.396	42651.42
632.75	42521.03
633.104	42624.98
633.459	42486
633.813	42481.26
634.167	42359.23
634.521	42495.49
634.875	42512.22
635.229	42425.89
635.583	42299.79
635.937	42351.77
636.291	42334.59
636.645	42357.64
636.999	42297.31
637.352	42357.87
637.706	42058.44
638.06	42406.68
638.413	42226.35
638.767	42126.46
639.121	42154.71
639.474	41899.35
639.828	42071.55
640.181	42061.15
640.534	42099.35
640.888	42092.11
641.241	41744.55
641.594	41873.36
641.947	42012.57
642.301	41830.88
642.654	41970.31
643.007	41900.25
643.36	41806.02
643.713	41809.64
644.066	41950.65
644.419	41655.97
644.771	41370.1
645.124	41038.36
645.477	41065.25
645.83	40694.18
646.182	40657.12
646.535	40430.46
646.888	40544.81
647.24	40404.25
647.593	40661.42
647.945	40437.92
648.298	40385.72
648.65	40304.36
649.002	40249.68
649.355	40343.91
649.707	40260.3
650.059	40449.22
650.411	40985.93
650.763	40941.64
651.115	41519.47
651.467	41293.72
651.819	41161.29
652.171	41086.04
652.523	40927.17
652.875	40957.91
653.227	40897.57
653.578	41222.76
653.93	41001.75
654.282	40817.34
654.633	40862.99
654.985	40944.8
655.337	41039.94
655.688	40890.11
656.039	40980.28
656.391	40735.31
656.742	40788.42
657.094	40789.77
657.445	40782.54
657.796	40707.07
658.147	40648.31
658.498	40679.5
658.849	40882.2
659.2	40761.08
659.551	40691.02
659.902	40795.88
660.253	40620.06
660.604	40759.27
660.955	40540.06
661.306	40718.59
661.656	40700.51
662.007	40650.57
662.358	40683.34
662.708	40629.55
663.059	40480.18
663.409	40493.06
663.76	40659.16
664.11	40597.01
664.461	40607.86
664.811	40719.72
665.161	40571.93
665.511	40475.43
665.862	40491.7
666.212	40520.18
666.562	40674.52
666.912	40433.17
667.262	40379.84
667.612	40487.64
667.962	40379.16
668.312	40435.21
668.662	40525.15
669.011	40500.74
669.361	40314.08
669.711	40284.48
670.06	40255.78
670.41	40200.19
670.76	40210.13
671.109	40282.44
671.459	40225.72
671.808	40194.08
672.157	40281.54
672.507	39994.99
672.856	39923.81
673.205	40115.22
673.554	40215.33
673.904	40128.55
674.253	40288.09
674.602	40118.61
674.951	39584.38
675.3	39405.86
675.649	40153.86
675.998	39952.73
676.346	39945.28
676.695	40139.17
677.044	39732.4
677.393	40082
677.741	40090.36
678.09	39857.6
678.438	39945.96
678.787	39877.48
679.135	39853.75
679.484	39548.23
679.832	39894.66
680.181	39594.78
680.529	39739.18
680.877	39578.28
681.225	39493.54
681.573	39800.2
681.922	39330.38
682.27	39382.13
682.618	39288.12
682.966	39132.64
683.314	39188.69
683.661	39209.03
684.009	39020.33
684.357	38947.11
684.705	38932.2
685.053	39015.81
685.4	38967.22
685.748	38697.4
686.095	38622.37
686.443	38625.09
686.79	38374.02
687.138	38611.98
687.485	38524.3
687.832	38247.69
688.18	38471.19
688.527	38259.9
688.874	38160.92
689.221	38028.49
689.568	38142.61
689.915	37966.8
690.262	37986.01
690.609	37959.57
690.956	37789.85
691.303	37722.51
691.65	37617.88
691.997	37536.53
692.344	37468.73
692.69	37280.49
693.037	37311
693.383	37113.04
693.73	37241.85
694.077	36922.98
694.423	36980.61
694.769	36693.39
695.116	36731.8
695.462	36657
695.808	36617.68
696.155	36749.43
696.501	36332.27
696.847	36365.94
697.193	36243.91
697.539	36219.05
697.885	36081.42
698.231	36048.88
698.577	35838.04
698.923	35763.24
699.269	35575.22
699.614	35551.95
699.96	35553.75
700.306	35562.34
700.651	35349.24
700.997	35320.77
701.342	35207.1
701.688	35093.65
702.033	35085.29
702.379	35029.47
702.724	34856.6
703.069	34942.02
703.415	34649.37
703.76	34649.6
704.105	34650.28
704.45	34538.87
704.795	34333
705.14	34274.24
705.485	34216.84
705.83	34130.06
706.175	34086.45
706.52	34042.61
706.865	33921.03
707.209	33946.79
707.554	33752.67
707.899	33871.99
708.243	33723.29
708.588	33643.75
708.932	33369.18
709.277	33390.65
709.621	33250.76
709.966	33214.15
710.31	33307.49
710.654	32896.42
710.998	32919.02
711.342	32953.37
711.687	32752.92
712.031	32755.18
712.375	32755.64
712.719	32737.78
713.063	32638.58
713.407	32703.43
713.75	32467.28
714.094	32488.52
714.438	32342.09
714.782	32382.54
715.125	32249.43
715.469	32295.08
715.812	32126.5
716.156	32022.77
716.499	32021.19
716.843	32095.09
717.186	31867.07
717.53	31708.66
717.873	31913.85
718.216	31820.75
718.559	31580.3
718.902	31393.41
719.246	31512.73
719.589	31439.06
719.932	31200.42
720.275	31328.33
720.617	31258.95
720.96	31158.39
721.303	31215.34
721.646	31182.12
721.989	31013.76
722.331	31026.42
722.674	30833.65
723.016	30987.77
723.359	31005.17
723.701	30999.75
724.044	30679.53
724.386	30567.22
724.729	30660.32
725.071	30686.54
725.413	30658.74
725.755	30594.34
726.097	30492.87
726.439	30356.6
726.782	30291.97
727.124	30412.65
727.465	30316.6
727.807	30294.01
728.149	30202.93
728.491	30148.92
728.833	30182.37
729.175	29966.33
729.516	29964.07
729.858	29794.58
730.199	29983.05
730.541	29904.64
730.882	29856.05
731.224	29924.52
731.565	29743.51
731.906	29847.46
732.248	29702.83
732.589	29560.69
732.93	29458.55
733.271	29508.04
733.612	29547.58
733.953	29565.21
734.294	29355.73
734.635	29241.6
734.976	29400.24
735.317	29218.1
735.658	29225.11
735.999	29172.23
736.339	29107.6
736.68	29088.39
737.021	28973.81
737.361	29012.23
737.702	29101.27
738.042	28955.51
738.383	28906.47
738.723	28921.16
739.063	28762.52
739.404	28878.9
739.744	28758
740.084	28659.02
740.424	28777.44
740.764	28718.45
741.104	28621.28
741.444	28499.25
741.784	28430.55
742.124	28440.95
742.464	28322.53
742.804	28348.07
743.143	28246.38
743.483	28256.32
743.823	28190.78
744.162	28157.79
744.502	28160.73
744.841	28090.67
745.181	28151.01
745.52	27974.29
745.86	28045.48
746.199	27926.38
746.538	27877.8
746.877	27967.29
747.216	27849.78
747.556	27704.24
747.895	27781.76
748.234	27741.53
748.573	27567.98
748.911	27516.9
749.25	27599.39
749.589	27453.85
749.928	27399.62
750.267	27525.04
750.605	27327.08
750.944	27163.01
751.283	27173.18
751.621	27253.63
751.96	27102.45
752.298	27057.25
752.636	27068.33
752.975	26975
753.313	26893.87
753.651	27019.06
753.989	26874.66
754.327	26746.98
754.666	26628.34
755.004	26692.29
755.342	26725.96
755.679	26636.47
756.017	26539.3
756.355	26632.63
756.693	26458.4
757.031	26483.26
757.368	26193.1
757.706	26235.58
758.044	26060.22
758.381	26142.02
758.719	26038.52
759.056	26102.7
759.394	25959.66
759.731	25800.34
760.068	25839.43
760.405	25644.64
760.743	25620.91
761.08	25632.89
761.417	25505.88
761.754	25411.87
762.091	25307.24
762.428	25280.13
762.765	25112.9
763.102	25082.84
763.438	24996.29
763.775	24937.99
764.112	24819.35
764.449	24896.18
764.785	24672.68
765.122	24578
765.458	24593.36
765.795	24545
766.131	24494.84
766.467	24333.03
766.804	24283.54
767.14	24140.04
767.476	24160.16
767.812	24043.77
768.148	24048.75
768.485	23914.06
768.821	23685.82
769.157	23719.49
769.492	23617.35
769.828	23653.95
770.164	23453.73
770.5	23376
770.836	23409.21
771.171	23260.97
771.507	23221.65
771.842	23093.07
772.178	23035.44
772.513	23072.5
772.849	22979.4
773.184	22835.9
773.519	22847.87
773.855	22532.85
774.19	22670.48
774.525	22603.81
774.86	22480.2
775.195	22470.26
775.53	22275.23
775.865	22142.13
776.2	21997.27
776.535	21950.95
776.87	21967.67
777.205	21879.54
777.539	21765.87
777.874	21808.81
778.209	21644.52
778.543	21656.72
778.878	21284.75
779.212	21340.34
779.547	21303.96
779.881	21354.13
780.215	21082.27
780.55	21211.08
780.884	21017.41
781.218	21020.58
781.552	20846.57
781.886	20787.81
782.22	20726.57
782.554	20633.24
782.888	20456.98
783.222	20392.8
783.556	20294.49
783.889	20228.96
784.223	20182.63
784.557	20096.53
784.89	20040.49
785.224	19918.91
785.557	19876.65
785.891	19853.38
786.224	19830.78
786.558	19758.24
786.891	19633.27
787.224	19485.02
787.557	19526.38
787.891	19508.98
788.224	19387.63
788.557	19405.48
788.89	19317.8
789.223	19279.15
789.556	19040.29
789.888	19084.36
790.221	18965.04
790.554	18851.37
790.887	18828.77
791.219	18785.83
791.552	18677.14
791.884	18640.53
792.217	18588.55
792.549	18479.4
792.882	18448.22
793.214	18414.54
793.546	18383.36
793.879	18301.1
794.211	18144.27
794.543	18183.59
794.875	18123.48
795.207	18119.86
795.539	18028.79
795.871	17926.2
796.203	17819.76
796.535	17802.13
796.867	17736.6
797.198	17628.8
797.53	17623.6
797.862	17545.41
798.193	17563.27
798.525	17369.37
798.856	17448.47
799.188	17294.8
799.519	17302.03
799.85	17100.91
800.182	17151.07
800.513	17170.28
800.844	17020.91
801.175	17050.29
801.506	17122.37
801.837	16930.74
802.168	16873.34
802.499	16784.3
802.83	16683.74
803.161	16695.04
803.491	16694.36
803.822	16690.97
804.153	16619.56
804.483	16503.41
804.814	16425.9
805.145	16427.25
805.475	16253.7
805.805	16327.59
806.136	16307.71
806.466	16279.91
806.796	16204.43
807.126	16119.46
807.457	16087.37
807.787	16067.71
808.117	15975.74
808.447	15888.06
808.777	16023.19
809.107	15911.79
809.436	15878.34
809.766	15832.01
810.096	15751.79
810.426	15662.3
810.755	15739.36
811.085	15634.96
811.414	15657.55
811.744	15469.31
812.073	15486.49
812.403	15429.09
812.732	15302.08
813.061	15348.64
813.39	15209.43
813.719	15229.54
814.049	15218.92
814.378	15241.07
814.707	15186.15
815.036	15180.5
815.365	15094.86
815.693	14947.97
816.022	14933.28
816.351	14879.5
816.68	14818.03
817.008	14861.64
817.337	14773.51
817.665	14664.59
817.994	14773.06
818.322	14747.52
818.651	14667.07
818.979	14644.02
819.307	14587.53
819.636	14663.91
819.964	14595.89
820.292	14526.74
820.62	14538.94
820.948	14514.76
821.276	14510.47
821.604	14503.23
821.932	14524.93
822.259	14520.41
822.587	14418.94
822.915	14481.54
823.243	14457.13
823.57	14483.12
823.898	14441.99
824.225	14379.17
824.553	14449.68
824.88	14450.13
825.207	14466.63
825.535	14381.88
825.862	14441.54
826.189	14423.46
826.516	14462.56
826.843	14444.48
827.17	14388.21
827.497	14372.84
827.824	14364.71
828.151	14392.28
828.478	14400.64
828.805	14544.82
829.131	14354.31
829.458	14377.59
829.785	14302.79
830.111	14361.77
830.438	14415.1
830.764	14363.58
831.09	14340.75
831.417	14398.6
831.743	14307.53
832.069	14317.02
832.395	14190.7
832.722	14330.13
833.048	14208.55
833.374	14270.7
833.7	14139.18
834.026	14286.52
834.351	14274.54
834.677	14204.71
835.003	14204.26
835.329	14225.73
835.654	14121.1
835.98	14238.61
836.306	14060.31
836.631	14033.19
836.956	13996.36
837.282	14123.36
837.607	13981.21
837.932	13947.99
838.258	13977.82
838.583	13963.81
838.908	13923.36
839.233	13902.35
839.558	13928.33
839.883	13823.48
840.208	13787.77
840.533	13717.72
840.858	13814.67
841.182	13830.03
841.507	13816.92
841.832	13658.06
842.156	13660.32
842.481	13635.01
842.805	13626.42
843.13	13585.74
843.454	13527.89
843.778	13534.45
844.103	13527.89
844.427	13481.11
844.751	13475.46
845.075	13399.99
845.399	13368.8
845.723	13269.59
846.047	13272.31
846.371	13220.1
846.695	13178.75
847.019	13021.69
847.343	13030.05
847.666	13007.68
847.99	12910.28
848.313	12882.26
848.637	12761.13
848.96	12795.93
849.284	12771.08
849.607	12677.97
849.931	12687.69
850.254	12551.2
850.577	12472.1
850.9	12375.15
851.223	12351.43
851.546	12310.98
851.869	12225.1
852.192	12293.58
852.515	12122.96
852.838	12167.25
853.161	12173.13
853.483	12093.35
853.806	12053.58
854.129	12010.42
854.451	11978.78
854.774	11928.61
855.096	11861.72
855.419	11840.71
855.741	11785.34
856.063	11742.18
856.385	11742.18
856.708	11766.58
857.03	11642.52
857.352	11627.15
857.674	11607.72
857.996	11562.07
858.318	11462.86
858.64	11487.95
858.961	11485.91
859.283	11392.81
859.605	11406.82
859.926	11412.69
860.248	11292.7
860.57	11310.32
860.891	11338.8
861.212	11164.57
861.534	11180.61
861.855	11177.45
862.176	11169.08
862.498	11215.86
862.819	11122.08
863.14	11096.54
863.461	11101.74
863.782	11000.28
864.103	11067.62
864.424	10963.21
864.745	10967.73
865.065	10930.45
865.386	10954.63
865.707	10906.49
866.027	10895.87
866.348	10873.5
866.668	10908.07
866.989	10805.7
867.309	10667.63
867.63	10803.67
867.95	10769.77
868.27	10771.58
868.59	10766.84
868.91	10718.02
869.23	10720.74
869.55	10644.35
869.87	10654.52
870.19	10722.77
870.51	10616.56
870.83	10683
871.15	10589.67
871.469	10570.46
871.789	10615.43
872.109	10582.21
872.428	10506.5
872.748	10556.45
873.067	10504.92
873.386	10570.46
873.706	10474.19
874.025	10449.78
874.344	10479.16
874.663	10461.76
874.982	10393.74
875.301	10351.03
875.62	10320.52
875.939	10367.07
876.258	10328.65
876.577	10310.8
876.896	10311.93
877.214	10223.35
877.533	10340.86
877.852	10239.39
878.17	10198.94
878.489	10216.79
878.807	10187.64
879.125	10217.92
879.444	10201.2
879.762	10082.33
880.08	10124.59
880.398	10032.17
880.716	10092.5
881.034	10058.61
881.352	10050.92
881.67	9972.05
881.988	10061.77
882.306	9963.47
882.624	9976.12
882.941	9889.12
883.259	9845.5
883.577	9881.66
883.894	9750.82
884.212	9834.43
884.529	9826.07
884.846	9802.12
885.164	9830.36
885.481	9748.78
885.798	9762.34
886.115	9617.04
886.432	9626.75
886.75	9650.48
887.067	9639.86
887.383	9609.8
887.7	9605.06
888.017	9481.9
888.334	9572.52
888.651	9532.74
888.967	9511.73
889.284	9431.05
889.6	9411.39
889.917	9376.59
890.233	9371.62
890.55	9349.92
890.866	9335.91
891.182	9307.21
891.498	9325.07
891.815	9281.9
892.131	9233.77
892.447	9203.03
892.763	9126.2
893.079	9140.21
893.395	9107.22
893.71	9138.18
894.026	9083.94
894.342	9026.54
894.657	8977.28
894.973	8947.9
895.289	8961.01
895.604	8931.86
895.92	8873.1
896.235	8885.3
896.55	8827.68
896.865	8732.99
897.181	8792.42
897.496	8767.34
897.811	8703.61
898.126	8684.86
898.441	8694.12
898.756	8602.15
899.071	8610.28
899.386	8595.14
899.7	8530.74
900.015	8439.67
900.33	8433.79
900.644	8443.96
900.959	8421.36
901.273	8481.02
901.588	8345.66
901.902	8307.69
902.216	8311.76
902.531	8312.89
902.845	8208.94
903.159	8217.52
903.473	8107.24
903.787	8040.13
904.101	8064.31
904.415	8124.87
904.729	8070.41
905.042	7981.82
905.356	7949.73
905.67	7929.62
905.984	7900.47
906.297	7870.19
906.611	7885.56
906.924	7851.88
907.237	7789.74
907.551	7823.64
907.864	7747.93
908.177	7730.31
908.491	7686.01
908.804	7644.88
909.117	7581.16
909.43	7568.05
909.743	7536.41
910.056	7562.63
910.368	7506.36
910.681	7459.58
910.994	7432.23
911.307	7371.67
911.619	7377.09
911.932	7347.49
912.244	7321.28
912.557	7311.79
912.869	7287.6
913.181	7285.35
913.494	7244.89
913.806	7180.26
914.118	7147.04
914.43	7090.55
914.742	7059.81
915.054	7098.46
915.366	7073.6
915.678	6994.28
915.99	7006.48
916.302	6954.51
916.613	6922.87
916.925	6895.3
917.236	6895.52
917.548	6792.25
917.859	6823.21
918.171	6761.97
918.482	6717.9
918.794	6740.5
919.105	6684.91
919.416	6643.33
919.727	6675.42
920.038	6600.84
920.349	6618.24
920.66	6557.91
920.971	6539.6
921.282	6520.85
921.593	6439.49
921.903	6458.93
922.214	6424.12
922.525	6383.67
922.835	6323.34
923.146	6277.24
923.456	6283.34
923.767	6253.51
924.077	6263.23
924.387	6228.65
924.697	6176
925.008	6215.77
925.318	6152.04
925.628	6122.44
925.938	6108.2
926.248	6083.12
926.558	6063.68
926.867	6017.13
927.177	5973.52
927.487	6017.58
927.796	5950.92
928.106	5935.1
928.416	5908.66
928.725	5889.9
929.034	5829.56
929.344	5851.48
929.653	5867.53
929.962	5721.54
930.271	5784.82
930.581	5736.23
930.89	5645.61
931.199	5694.43
931.508	5666.18
931.817	5611.72
932.125	5602
932.434	5628.21
932.743	5534.88
933.051	5560.42
933.36	5483.81
933.669	5456.92
933.977	5409.01
934.286	5430.93
934.594	5390.03
934.902	5394.77
935.21	5345.96
935.519	5364.94
935.827	5319.07
936.135	5261.67
936.443	5241.78
936.751	5253.76
937.059	5253.08
937.367	5211.05
937.674	5195
937.982	5159.3
938.29	5147.1
938.597	5155.68
938.905	5098.96
939.213	5106.87
939.52	5041.79
939.827	5074.33
940.135	5030.26
940.442	5009.02
940.749	4981.68
941.056	4994.78
941.363	4883.6
941.67	4915.01
941.977	4842.92
942.284	4834.11
942.591	4835.47
942.898	4833.21
943.205	4813.32
943.511	4780.78
943.818	4782.81
944.125	4734.9
944.431	4725.86
944.738	4688.58
945.044	4703.94
945.35	4660.78
945.657	4658.75
945.963	4592.08
946.269	4617.84
946.575	4572.42
946.881	4557.96
947.187	4536.72
947.493	4529.26
947.799	4522.25
948.105	4465.76
948.41	4430.5
948.716	4464.63
949.022	4425.53
949.327	4395.03
949.633	4370.39
949.938	4372.43
950.244	4357.51
950.549	4321.13
950.854	4290.4
951.16	4270.06
951.465	4233.45
951.77	4261.92
952.075	4271.64
952.38	4246.33
952.685	4217.18
952.99	4163.62
953.294	4149.16
953.599	4162.04
953.904	4097.86
954.209	4132.66
954.513	4090.85
954.818	4089.95
955.122	4064.41
955.426	4054.92
955.731	4001.82
956.035	3976.28
956.339	3998.43
956.643	3958.2
956.948	3931.76
957.252	3950.29
957.556	3923.85
957.86	3914.36
958.163	3856.73
958.467	3868.94
958.771	3824.87
959.075	3869.62
959.378	3795.72
959.682	3826.45
959.985	3774.93
960.289	3756.4
960.592	3740.81
960.896	3739.9
961.199	3656.29
961.502	3691.54
961.805	3677.3
962.108	3680.24
962.411	3641.6
962.714	3637.08
963.017	3617.64
963.32	3624.65
963.623	3565.44
963.926	3582.17
964.228	3566.57
964.531	3571.32
964.833	3548.49
965.136	3520.25
965.438	3472.11
965.741	3499.91
966.043	3495.61
966.345	3456.07
966.648	3441.6
966.95	3416.07
967.252	3433.47
967.554	3392.79
967.856	3372
968.158	3350.99
968.46	3357.54
968.761	3339.23
969.063	3331.78
969.365	3283.19
969.666	3306.47
969.968	3285.68
970.269	3259.01
970.571	3253.13
970.872	3249.97
971.174	3222.18
971.475	3236.86
971.776	3216.07
972.077	3174.49
972.378	3202.97
972.679	3180.37
972.98	3142.86
973.281	3116.87
973.582	3122.74
973.883	3084.78
974.183	3090.65
974.484	3058.34
974.785	3081.39
975.085	3077.55
975.386	3066.47
975.686	3003.65
975.986	2973.82
976.287	2988.28
976.587	2971.79
976.887	2938.11
977.187	2958.68
977.487	2928.4
977.787	2908.29
978.087	2888.17
978.387	2867.83
978.687	2895.63
978.987	2886.82
979.286	2869.64
979.586	2795.07
979.885	2798.91
980.185	2804.79
980.484	2812.02
980.784	2810.89
981.083	2800.72
981.382	2810.66
981.682	2760.72
981.981	2749.42
982.28	2724.11
982.579	2677.78
982.878	2714.17
983.177	2752.81
983.475	2717.33
983.774	2680.04
984.073	2656.77
984.372	2680.72
984.67	2637.78
984.969	2619.25
985.267	2609.31
985.566	2589.88
985.864	2605.69
986.162	2574.28
986.461	2572.02
986.759	2597.33
987.057	2535.87
987.355	2524.11
987.653	2534.74
987.951	2505.36
988.249	2519.82
988.547	2462.65
988.844	2505.58
989.142	2465.36
989.44	2481.86
989.737	2466.71
990.035	2420.61
990.332	2426.49
990.63	2399.37
990.927	2399.15
991.224	2397.56
991.521	2351.69
991.819	2371.12
992.116	2360.28
992.413	2358.92
992.71	2304.46
993.006	2337.45
993.303	2322.99
993.6	2290.67
993.897	2283.89
994.193	2299.49
994.49	2278.7
994.787	2247.06
995.083	2247.06
995.379	2282.76
995.676	2254.74
995.972	2227.17
996.268	2211.58
996.565	2185.82
996.861	2185.59
997.157	2164.58
997.453	2140.85
997.749	2186.72
998.044	2136.78
998.34	2151.02
998.636	2116.89
998.932	2118.93
999.227	2096.56
999.523	2108.31
999.818	2092.94
1000.114	2096.56
1000.409	2042.32
1000.704	2057.46
1001	2031.47
1001.295	2041.87
1001.59	2018.14
1001.885	2011.81
1002.18	2012.72
1002.475	1996.44
1002.77	1968.2
1003.065	1941.53
1003.359	1945.82
1003.654	1929.1
1003.949	1930.68
1004.243	1917.12
1004.538	1911.7
1004.832	1926.62
1005.127	1885.04
1005.421	1866.96
1005.715	1890.01
1006.009	1847.3
1006.304	1869.67
1006.598	1845.04
1006.892	1816.11
1007.186	1851.59
1007.48	1818.37
1007.773	1803
1008.067	1776.34
1008.361	1759.84
1008.655	1763
1008.948	1753.29
1009.242	1742.67
1009.535	1733.63
1009.829	1742.44
1010.122	1721.88
1010.415	1683.23
1010.708	1727.3
1011.001	1699.73
1011.295	1677.81
1011.588	1641.65
1011.881	1639.84
1012.173	1645.72
1012.466	1621.54
1012.759	1666.06
1013.052	1635.55
1013.344	1635.32
1013.637	1605.95
1013.93	1580.18
1014.222	1605.04
1014.514	1577.7
1014.807	1566.4
1015.099	1560.52
1015.391	1527.76
1015.683	1558.04
1015.976	1580.64
1016.268	1528.66
1016.56	1532.73
1016.851	1498.6
1017.143	1490.47
1017.435	1506.06
1017.727	1480.75
1018.018	1458.38
1018.31	1462.45
1018.602	1442.33
1018.893	1433.07
1019.185	1443.24
1019.476	1430.36
1019.767	1414.99
1020.058	1416.57
1020.35	1414.54
1020.641	1393.52
1020.932	1377.48
1021.223	1368.44
1021.514	1406.86
1021.804	1349
1022.095	1348.1
1022.386	1338.61
1022.677	1330.25
1022.967	1299.97
1023.258	1290.7
1023.548	1325.5
1023.839	1329.34
1024.129	1306.52
1024.419	1295.45
1024.709	1299.74
1025	1242.57
1025.29	1246.63
1025.58	1255.45
1025.87	1229.23
1026.16	1242.57
1026.449	1208.67
1026.739	1226.75
1027.029	1175.9
1027.319	1177.71
1027.608	1215
1027.898	1204.83
1028.187	1201.44
1028.477	1174.77
1028.766	1138.61
1029.055	1186.3
1029.344	1135.22
1029.634	1134.09
1029.923	1148.33
1030.212	1130.03
1030.501	1181.55
1030.79	1113.53
1031.078	1109.46
1031.367	1095.45
1031.656	1099.29
1031.945	1067.66
1032.233	1080.08
1032.522	1066.3
1032.81	1047.54
1033.099	1043.48
1033.387	1059.75
1033.675	1048
1033.963	1061.78
1034.251	1036.92
1034.54	1007.77
1034.828	1004.38
1035.116	1018.62
1035.403	986.08
1035.691	1004.15
1035.979	987.66
1036.267	972.74
1036.554	965.74
1036.842	983.14
1037.129	976.36
1037.417	972.97
1037.704	960.77
1037.992	983.82
1038.279	952.63
1038.566	926.64
1038.853	926.64
1039.14	926.64
