Data from hue_34_FLMS001491_00089.txt Node
Date: Tue Feb 07 17:26:20 GMT 2017
User: dcchb
Spectrometer: FLMS00149
Trigger mode: 0
Integration Time (sec): 2.000000E-2
Scans to average: 10
Electric dark correction enabled: true
Nonlinearity correction enabled: false
Boxcar width: 0
XAxis mode: Wavelengths
Number of Pixels in Spectrum: 2048
>>>>>Begin Spectral Data<<<<<
341.393	-1.2
341.776	-1.2
342.16	-1.2
342.543	-62.67
342.927	-66.28
343.31	-72.39
343.693	-54.08
344.077	-69.67
344.46	-60.63
344.843	-52.95
345.226	-28.77
345.61	-24.48
345.993	-26.51
346.376	-7.08
346.759	4.22
347.142	23.21
347.525	29.99
347.908	74.96
348.291	88.51
348.674	83.32
349.057	92.36
349.44	141.17
349.823	156.54
350.206	168.29
350.588	189.3
350.971	207.61
351.354	198.57
351.737	259.81
352.119	246.48
352.502	268.4
352.884	263.65
353.267	280.15
353.65	305.91
354.032	312.01
354.414	318.11
354.797	309.75
355.179	316.76
355.562	328.73
355.944	328.73
356.326	343.42
356.709	329.86
357.091	330.54
357.473	352.91
357.855	346.13
358.238	345.91
358.62	339.58
359.002	367.38
359.384	352.24
359.766	347.26
360.148	353.14
360.53	340.49
360.912	334.38
361.294	337.55
361.676	320.82
362.057	339.13
362.439	328.73
362.821	315.63
363.203	317.21
363.584	324.89
363.966	326.7
364.348	307.94
364.729	332.35
365.111	300.03
365.493	323.31
365.874	304.33
366.256	307.94
366.637	308.4
367.019	308.62
367.4	320.15
367.781	310.2
368.163	328.28
368.544	296.87
368.925	316.08
369.306	323.99
369.688	300.03
370.069	307.27
370.45	327.6
370.831	322.18
371.212	314.5
371.593	319.92
371.974	319.02
372.355	321.73
372.736	326.7
373.117	332.12
373.498	333.25
373.879	316.98
374.26	325.57
374.641	302.29
375.021	324.21
375.402	333.03
375.783	325.12
376.163	349.07
376.544	345.23
376.925	316.31
377.305	312.92
377.686	339.36
378.066	328.73
378.447	328.51
378.827	331.45
379.208	331.9
379.588	330.54
379.968	340.94
380.349	355.85
380.729	349.98
381.109	334.16
381.489	338.23
381.87	343.42
382.25	349.3
382.63	354.27
383.01	338.9
383.39	352.24
383.77	345.23
384.15	339.81
384.53	359.92
384.91	357.21
385.29	351.11
385.67	337.32
386.049	348.62
386.429	356.53
386.809	342.07
387.189	358.34
387.568	355.4
387.948	364.67
388.328	354.5
388.707	350.88
389.087	334.61
389.466	345.91
389.846	340.49
390.225	358.34
390.605	355.63
390.984	361.5
391.363	360.82
391.743	394.95
392.122	359.02
392.501	384.33
392.881	363.08
393.26	369.64
393.639	372.57
394.018	375.74
394.397	386.59
394.776	383.42
395.155	398.11
395.534	384.1
395.913	383.2
396.292	383.87
396.671	390.43
397.05	384.33
397.429	385
397.808	396.53
398.186	396.53
398.565	370.99
398.944	376.42
399.323	412.57
399.701	404.44
400.08	385.68
400.458	396.3
400.837	385.23
401.215	399.01
401.594	416.64
401.972	409.18
402.351	411.44
402.729	406.25
403.107	425.45
403.486	406.7
403.864	420.26
404.242	424.33
404.62	408.96
404.999	436.3
405.377	444.66
405.755	420.26
406.133	441.05
406.511	402.4
406.889	434.04
407.267	428.84
407.645	443.76
408.023	445.34
408.401	427.49
408.779	439.47
409.156	441.05
409.534	443.31
409.912	452.12
410.29	462.52
410.667	446.47
411.045	458.9
411.422	458
411.8	459.13
412.178	458.9
412.555	468.17
412.933	458.9
413.31	469.52
413.687	470.65
414.065	482.85
414.442	486.24
414.819	492.12
415.197	490.31
415.574	478.79
415.951	493.48
416.328	480.59
416.705	493.25
417.082	484.89
417.46	479.92
417.837	505
418.214	481.95
418.591	516.07
418.967	506.36
419.344	518.11
419.721	520.37
420.098	504.1
420.475	511.78
420.852	504.77
421.228	542.74
421.605	529.63
421.982	534.15
422.358	542.97
422.735	533.93
423.111	546.36
423.488	554.49
423.864	555.4
424.241	548.84
424.617	568.95
424.994	560.59
425.37	567.37
425.746	545
426.123	575.06
426.499	573.93
426.875	574.15
427.251	596.3
427.627	577.77
428.003	583.42
428.379	588.16
428.756	596.3
429.132	602.85
429.507	611.44
429.883	592.46
430.259	628.84
430.635	636.75
431.011	625.45
431.387	643.75
431.763	629.52
432.138	629.07
432.514	628.16
432.89	636.97
433.265	645.34
433.641	681.72
434.016	658.67
434.392	673.13
434.767	676.52
435.143	668.84
435.518	676.3
435.894	664.77
436.269	685.56
436.644	706.58
437.02	711.1
437.395	681.72
437.77	708.16
438.145	733.02
438.52	714.94
438.895	734.15
439.271	728.72
439.646	732.79
440.021	741.38
440.395	750.87
440.77	733.47
441.145	743.86
441.52	746.8
441.895	760.14
442.27	760.81
442.645	744.32
443.019	760.59
443.394	761.49
443.769	797.87
444.143	793.35
444.518	786.12
444.892	795.16
445.267	779.57
445.641	801.72
446.016	811.21
446.39	799.46
446.764	794.03
447.139	829.74
447.513	809.85
447.887	839.68
448.262	834.94
448.636	816.86
449.01	825.67
449.384	840.13
449.758	853.47
450.132	883.3
450.506	841.94
450.88	855.95
451.254	854.82
451.628	863.64
452.002	883.97
452.376	888.49
452.75	888.95
453.123	898.66
453.497	902.96
453.871	902.05
454.244	953.12
454.618	927.59
454.992	937.98
455.365	965.1
455.739	952.9
456.112	969.62
456.486	974.37
456.859	979.34
457.232	1014.37
457.606	979.79
457.979	990.86
458.352	1031.77
458.725	1017.53
459.099	1049.39
459.472	1042.39
459.845	1078.09
460.218	1077.64
460.591	1078.77
460.964	1092.1
461.337	1118.54
461.71	1134.14
462.083	1127.81
462.456	1123.06
462.829	1148.37
463.201	1148.37
463.574	1143.4
463.947	1176.62
464.32	1208.71
464.692	1224.76
465.065	1210.75
465.438	1246.68
465.81	1261.59
466.183	1291.65
466.555	1287.13
466.928	1291.65
467.3	1311.08
467.672	1344.98
468.045	1343.85
468.417	1402.38
468.789	1370.29
469.161	1428.82
469.534	1399.21
469.906	1442.15
470.278	1484.41
470.65	1497.52
471.022	1507.69
471.394	1523.96
471.766	1525.09
472.138	1581.36
472.51	1603.5
472.882	1654.8
473.253	1665.42
473.625	1697.29
473.997	1731.41
474.369	1774.57
474.74	1781.13
475.112	1796.94
475.484	1833.78
475.855	1897.05
476.227	1888.69
476.598	1952.19
476.97	2003.27
477.341	2023.6
477.713	2095.47
478.084	2128.01
478.455	2170.04
478.827	2191.96
479.198	2264.05
479.569	2309.02
479.94	2371.17
480.311	2425.4
480.682	2466.98
481.053	2569.13
481.424	2618.39
481.795	2666.98
482.166	2729.35
482.537	2754.21
482.908	2844.6
483.279	2912.62
483.65	2966.41
484.021	3043.01
484.391	3123.24
484.762	3163.46
485.133	3210.01
485.503	3332.72
485.874	3385.83
486.244	3469.44
486.615	3556.22
486.985	3625.6
487.356	3692.71
487.726	3788.3
488.097	3868.3
488.467	3964.34
488.837	4048.64
489.207	4129.76
489.578	4212.93
489.948	4296.31
490.318	4364.11
490.688	4462.18
491.058	4525.23
491.428	4619.47
491.798	4727.04
492.168	4854.27
492.538	4875.51
492.908	4953.25
493.278	5072.34
493.648	5113.47
494.017	5239.34
494.387	5349.62
494.757	5372.9
495.126	5451.99
495.496	5507.81
495.866	5564.53
496.235	5610.86
496.605	5771.76
496.974	5781.7
497.344	5904.41
497.713	5967
498.082	6063.27
498.452	6158.86
498.821	6154.34
499.19	6180.11
499.559	6308.69
499.928	6417.61
500.298	6475.92
500.667	6521.34
501.036	6554.79
501.405	6665.06
501.774	6703.03
502.143	6774.21
502.512	6822.35
502.88	6865.51
503.249	6919.07
503.618	7015.56
503.987	7054.89
504.356	7118.39
504.724	7223.02
505.093	7237.25
505.462	7348.44
505.83	7382.11
506.199	7466.17
506.567	7496.91
506.936	7500.3
507.304	7617.81
507.672	7708.65
508.041	7716.34
508.409	7788.65
508.777	7870.91
509.145	7895.32
509.514	7875.43
509.882	8072.26
510.25	8044.01
510.618	8117.91
510.986	8178.7
511.354	8239.26
511.722	8340.5
512.09	8362.87
512.458	8347.51
512.826	8470.89
513.193	8489.65
513.561	8531
513.929	8535.52
514.297	8680.83
514.664	8745.46
515.032	8755.41
515.4	8812.81
515.767	8829.98
516.135	8886.7
516.502	8858.23
516.869	9041.27
517.237	9009.18
517.604	9076.98
517.972	9167.15
518.339	9228.39
518.706	9225
519.073	9256.64
519.44	9302.06
519.808	9400.36
520.175	9405.33
520.542	9528.72
520.909	9568.49
521.276	9590.19
521.643	9657.75
522.009	9761.25
522.376	9750.41
522.743	9727.13
523.11	9907.47
523.477	9981.36
523.843	10015.71
524.21	10066.56
524.577	10133
524.943	10172.32
525.31	10257.96
525.676	10300.9
526.043	10441.24
526.409	10384.06
526.776	10556.94
527.142	10598.75
527.508	10625.41
527.874	10784.5
528.241	10737.05
528.607	10788.8
528.973	10871.73
529.339	10900.66
529.705	11038.28
530.071	11112.86
530.437	11173.87
530.803	11254.77
531.169	11261.55
531.535	11230.14
531.901	11309.01
532.267	11370.7
532.632	11431.04
532.998	11464.49
533.364	11526.86
533.73	11605.95
534.095	11674.88
534.461	11684.37
534.826	11693.63
535.192	11809.34
535.557	11893.18
535.923	11864.48
536.288	11914.42
536.653	11996.45
537.019	12091.59
537.384	12096.11
537.749	12216.78
538.114	12240.06
538.479	12177.69
538.845	12292.26
539.21	12248.87
539.575	12283.45
539.94	12310.34
540.305	12516.21
540.67	12483.67
541.034	12527.74
541.399	12533.39
541.764	12550.79
542.129	12648.64
542.494	12728.63
542.858	12743.78
543.223	12865.58
543.587	12890.66
543.952	12886.6
544.316	12989.87
544.681	12964.56
545.045	13021.96
545.41	13109.42
545.774	13148.96
546.138	13239.36
546.503	13270.09
546.867	13279.81
547.231	13352.35
547.595	13422.18
547.959	13456.98
548.324	13500.59
548.688	13489.07
549.052	13469.63
549.416	13561.83
549.779	13578.78
550.143	13663.3
550.507	13813.58
550.871	13856.51
551.235	13773.8
551.599	13814.71
551.962	13959.11
552.326	14054.02
552.689	13929.96
553.053	14005.44
553.417	14024.87
553.78	14223.51
554.143	14166.11
554.507	14281.14
554.87	14326.78
555.234	14352.32
555.597	14282.94
555.96	14331.53
556.323	14513.22
556.686	14449.04
557.05	14526.33
557.413	14639.54
557.776	14715.47
558.139	14748.92
558.502	14785.3
558.865	14798.64
559.228	14928.35
559.59	14936.49
559.953	14972.87
560.316	15151.85
560.679	15117.5
561.041	15204.5
561.404	15192.3
561.767	15369.02
562.129	15282.69
562.492	15462.8
562.854	15406.08
563.217	15449.69
563.579	15515.23
563.941	15637.48
564.304	15612.4
564.666	15811.94
565.028	15752.51
565.39	15822.34
565.753	15827.31
566.115	15890.59
566.477	15910.92
566.839	16035.89
567.201	16098.26
567.563	16179.39
567.925	16314.53
568.287	16370.12
568.648	16261.2
569.01	16398.59
569.372	16514.3
569.734	16511.59
570.095	16612.15
570.457	16702.77
570.819	16680.39
571.18	16823.89
571.542	16806.04
571.903	16897.79
572.265	17053.72
572.626	17027.28
572.987	17062.98
573.349	17272.24
573.71	17320.83
574.071	17331.45
574.432	17574.83
574.794	17569.64
575.155	17630.2
575.516	17723.08
575.877	17767.15
576.238	17888.72
576.599	18001.49
576.96	18214.37
577.32	18237.87
577.681	18360.35
578.042	18509.27
578.403	18534.36
578.763	18716.27
579.124	18799.89
579.485	19029.49
579.845	19152.19
580.206	19347.67
580.566	19378.4
580.927	19551.51
581.287	19837.15
581.648	19816.81
582.008	20097.25
582.368	20157.14
582.728	20445.95
583.089	20495.44
583.449	20668.09
583.809	20894.52
584.169	21103.33
584.529	21203.21
584.889	21583.09
585.249	21642.75
585.609	21778.57
585.969	22200.93
586.329	22184.88
586.688	22566.12
587.048	22681.14
587.408	22858.09
587.768	23094.46
588.127	23414.68
588.487	23447.67
588.846	23905.29
589.206	23911.39
589.565	24268.44
589.925	24604.93
590.284	24759.28
590.643	25128.08
591.003	25307.51
591.362	25545.47
591.721	25661.18
592.08	26065.46
592.44	26314.04
592.799	26601.72
593.158	26684.43
593.517	26913.35
593.876	27226.11
594.235	27494.35
594.593	27744.28
594.952	28035.35
595.311	28150.15
595.67	28501.1
596.029	28807.08
596.387	29093.4
596.746	29441.64
597.104	29489.55
597.463	29687.06
597.822	29891.8
598.18	30085.69
598.538	30351.45
598.897	30761.61
599.255	30720.93
599.613	31332.89
599.972	31338.09
600.33	31684.52
600.688	31727.23
601.046	32013.1
601.404	32304.84
601.762	32395.01
602.12	32711.61
602.478	33044.94
602.836	33162.9
603.194	33018.04
603.552	33369.9
603.91	33616.22
604.268	33933.73
604.625	33918.36
604.983	34308.41
605.341	34166.26
605.698	34579.13
606.056	34769.41
606.413	34895.51
606.771	35131.21
607.128	35297.08
607.485	35232
607.843	35471.99
608.2	35855.48
608.557	35977.29
608.914	36039.66
609.272	36351.52
609.629	36591.51
609.986	36947.21
610.343	36695.46
610.7	37052.29
611.057	37143.13
611.414	37323.92
611.771	37367.76
612.127	37610.92
612.484	37668.09
612.841	38101.53
613.198	37990.79
613.554	38039.38
613.911	38427.17
614.267	38419.26
614.624	38510.56
614.98	38708.97
615.337	38879.81
615.693	38899.02
616.05	39032.12
616.406	39341.04
616.762	39161.16
617.118	39360.7
617.475	39466.69
617.831	39639.34
618.187	39708.94
618.543	39818.54
618.899	40076.62
619.255	40091.98
619.611	40032.1
619.967	40255.37
620.323	40413.33
620.678	40301.69
621.034	40399.77
621.39	40588.69
621.746	40469.83
622.101	40892.64
622.457	40787.56
622.812	40743.72
623.168	40936.03
623.523	41029.36
623.879	41091.96
624.234	40974.67
624.589	41155.23
624.945	41138.96
625.3	41340.54
625.655	41219.86
626.01	41356.13
626.365	41370.59
626.72	41415.34
627.075	41447.88
627.43	41460.08
627.785	41539.63
628.14	41533.98
628.495	41679.74
628.85	41599.29
629.205	41553.87
629.559	41971.93
629.914	41721.32
630.269	41731.49
630.623	41670.92
630.978	41515.45
631.332	41800.19
631.687	41877.7
632.041	41755.22
632.396	41916.57
632.75	41644.71
633.104	41806.29
633.459	41622.56
633.813	41705.05
634.167	41647.65
634.521	41677.03
634.875	41646.07
635.229	41731.04
635.583	41646.97
635.937	41584.82
636.291	41759.06
636.645	41679.51
636.999	41612.62
637.352	41811.71
637.706	41751.37
638.06	41695.78
638.413	41722.45
638.767	41530.59
639.121	41554.32
639.474	41384.15
639.828	41454.66
640.181	41579.4
640.534	41580.76
640.888	41477.48
641.241	41331.27
641.594	41263.03
641.947	41542.11
642.301	41479.97
642.654	41456.01
643.007	41473.19
643.36	41409.46
643.713	41272.97
644.066	41323.81
644.419	41119.98
644.771	40971.06
645.124	40593.66
645.477	40648.13
645.83	40414.01
646.182	40271.41
646.535	40124.52
646.888	40214.24
647.24	39989.39
647.593	40154.13
647.945	40120.91
648.298	39930.4
648.65	39889.05
649.002	39876.62
649.355	39920.46
649.707	39928.6
650.059	39970.63
650.411	40500.79
650.763	40666.43
651.115	40966.76
651.467	40785.98
651.819	40778.07
652.171	40793.43
652.523	40835.24
652.875	40793.43
653.227	40715.92
653.578	40657.39
653.93	40746.65
654.282	40503.72
654.633	40409.04
654.985	40477.74
655.337	40662.36
655.688	40568.81
656.039	40771.74
656.391	40423.73
656.742	40544.4
657.094	40494.91
657.445	40628.92
657.796	40511.63
658.147	40391.86
658.498	40478.41
658.849	40605.64
659.2	40369.26
659.551	40323.16
659.902	40426.89
660.253	40460.56
660.604	40507.56
660.955	40206.33
661.306	40511.86
661.656	40340.11
662.007	40363.61
662.358	40413.33
662.708	40451.52
663.059	40336.72
663.409	40073
663.76	40452.2
664.11	40286.55
664.461	40314.12
664.811	40391.64
665.161	40275.25
665.511	40181.02
665.862	40272.99
666.212	40392.77
666.562	40257.18
666.912	40281.58
667.262	40174.24
667.612	40283.16
667.962	40347.12
668.312	40164.52
668.662	40322.71
669.011	40280.45
669.361	40148.93
669.711	40187.57
670.06	40115.26
670.41	40136.28
670.76	40056.73
671.109	40096.73
671.459	40018.31
671.808	40018.99
672.157	39984.87
672.507	40051.53
672.856	40053.79
673.205	40062.15
673.554	40096.95
673.904	40011.76
674.253	40040.46
674.602	39998.65
674.951	39409.97
675.3	39109.41
675.649	39863.51
675.998	39886.34
676.346	39978.99
676.695	39924.76
677.044	39814.48
677.393	39788.04
677.741	39867.36
678.09	39785.32
678.438	39621.94
678.787	39757.75
679.135	39669.17
679.484	39501.26
679.832	39612.9
680.181	39430.31
680.529	39602.28
680.877	39538.55
681.225	39299.24
681.573	39609.51
681.922	39321.61
682.27	39267.15
682.618	39193.02
682.966	39036.87
683.314	39261.95
683.661	39068.05
684.009	38820.38
684.357	38821.96
684.705	38797.33
685.053	38886.59
685.4	38815.41
685.748	38600.5
686.095	38542.19
686.443	38478.01
686.79	38491.35
687.138	38574.96
687.485	38460.39
687.832	38284.12
688.18	38415.64
688.527	38166.16
688.874	38146.5
689.221	38116.67
689.568	37953.06
689.915	37942.21
690.262	38081.19
690.609	37837.35
690.956	37687.98
691.303	37678.49
691.65	37556.68
691.997	37433.52
692.344	37342
692.69	37197.6
693.037	37239.63
693.383	36886.64
693.73	37085.28
694.077	36889.35
694.423	36749.7
694.769	36736.59
695.116	36681.22
695.462	36608.68
695.808	36518.29
696.155	36641.45
696.501	36368.24
696.847	36321.69
697.193	36031.52
697.539	36267.22
697.885	35956.5
698.231	35775.49
698.577	35795.15
698.923	35819.33
699.269	35583.4
699.614	35372.33
699.96	35481.03
700.306	35458.43
700.651	35229.51
700.997	35179.12
701.342	35277.65
701.688	35018.44
702.033	34932.57
702.379	34911.55
702.724	34798.11
703.069	34812.35
703.415	34422.75
703.76	34446.71
704.105	34588.62
704.45	34447.61
704.795	34151.35
705.14	34261.18
705.485	34129.88
705.83	33977.79
706.175	34084.91
706.52	33976.44
706.865	33929.66
707.209	33847.63
707.554	33599.05
707.899	33833.62
708.243	33488.54
708.588	33503.91
708.932	33233.63
709.277	33324.93
709.621	33348.21
709.966	33129.68
710.31	33135.78
710.654	32866.64
710.998	32875
711.342	32982.11
711.687	32773.08
712.031	32768.11
712.375	32606.53
712.719	32522.46
713.063	32614.89
713.407	32564.72
713.75	32507.78
714.094	32453.31
714.438	32345.75
714.782	32356.37
715.125	32148.91
715.469	32218.29
715.812	32170.83
716.156	31877.06
716.499	32033.89
716.843	31896.27
717.186	31755.48
717.53	31932.42
717.873	31905.53
718.216	31680
718.559	31545.31
718.902	31546.9
719.246	31637.74
719.589	31335.6
719.932	31295.15
720.275	31291.76
720.617	31330.41
720.96	31167.92
721.303	31195.95
721.646	31086.57
721.989	30931.55
722.331	31072.78
722.674	30943.75
723.016	30896.97
723.359	30926.12
723.701	30881.38
724.044	30662.4
724.386	30588.05
724.729	30816.07
725.071	30753.02
725.413	30619.24
725.755	30507.38
726.097	30466.47
726.439	30348.06
726.782	30461.05
727.124	30643.87
727.465	30228.06
727.807	30205.69
728.149	30216.08
728.491	30140.15
728.833	30167.95
729.175	29989.2
729.516	29971.8
729.858	29877.56
730.199	30101.51
730.541	29880.73
730.882	29994.17
731.224	30045.02
731.565	29749.43
731.906	29811.8
732.248	29716.21
732.589	29668.75
732.93	29529.77
733.271	29490
733.612	29599.38
733.953	29524.35
734.294	29426.5
734.635	29313.06
734.976	29426.5
735.317	29245.04
735.658	29297.24
735.999	29320.29
736.339	29164.36
736.68	29265.83
737.021	29151.71
737.361	29028.77
737.702	29089.79
738.042	29083.01
738.383	29024.02
738.723	29051.59
739.063	28864.71
739.404	28951.94
739.744	28893.18
740.084	28714.65
740.424	28845.95
740.764	28652.74
741.104	28842.11
741.444	28674.66
741.784	28545.17
742.124	28666.29
742.464	28614.77
742.804	28463.36
743.143	28493.42
743.483	28473.08
743.823	28278.06
744.162	28264.04
744.502	28335.68
744.841	28256.14
745.181	28305.63
745.52	28066.31
745.86	28170.04
746.199	28137.95
746.538	28064.5
746.877	28149.7
747.216	28053.43
747.556	28037.38
747.895	28000.55
748.234	27887.78
748.573	27839.88
748.911	27788.35
749.25	27766.2
749.589	27709.71
749.928	27802.14
750.267	27848.91
750.605	27594.23
750.944	27624.97
751.283	27442.15
751.621	27547.68
751.96	27459.77
752.298	27434.24
752.636	27464.74
752.975	27274.47
753.313	27259.33
753.651	27305.65
753.989	27026.79
754.327	27093.68
754.666	26936.4
755.004	26968.03
755.342	26976.62
755.679	26979.11
756.017	26786.34
756.355	26779.34
756.693	26709.06
757.031	26753.8
757.368	26546.58
757.706	26559.91
758.044	26400.14
758.381	26542.28
758.719	26374.15
759.056	26388.16
759.394	26220.71
759.731	26015.06
760.068	26113.59
760.405	26080.37
760.743	25967.38
761.08	26054.61
761.417	25788.4
761.754	25794.96
762.091	25754.51
762.428	25642.87
762.765	25550.67
763.102	25648.52
763.438	25427.28
763.775	25422.54
764.112	25422.09
764.449	25273.62
764.785	25231.13
765.122	25090.12
765.458	24815.1
765.795	24856.68
766.131	24905.26
766.467	24787.53
766.804	24656.91
767.14	24686.74
767.476	24602.22
767.812	24492.39
768.148	24496.46
768.485	24429.12
768.821	24171.27
769.157	24148.45
769.492	24094.89
769.828	24054.66
770.164	23807.66
770.5	23828
770.836	23751.85
771.171	23661.23
771.507	23603.6
771.842	23426.88
772.178	23462.36
772.513	23411.74
772.849	23323.16
773.184	23023.05
773.519	23197.29
773.855	23030.06
774.19	23005.2
774.525	22835.49
774.86	22847.01
775.195	22819.44
775.53	22724.98
775.865	22586.23
776.2	22406.12
776.535	22442.5
776.87	22368.15
777.205	22262.62
777.539	22187.59
777.874	22239.34
778.209	22076.86
778.543	22066.92
778.878	21866.47
779.212	21767.27
779.547	21600.94
779.881	21680.26
780.215	21589.87
780.55	21513.26
780.884	21386.03
781.218	21448.86
781.552	21307.84
781.886	21199.37
782.22	21085.7
782.554	21015.2
782.888	20850
783.222	20731.36
783.556	20723
783.889	20760.29
784.223	20515.55
784.557	20510.58
784.89	20508.09
785.224	20447.98
785.557	20299.73
785.891	20241.43
786.224	20248.66
786.558	20171.38
786.891	19958.95
787.224	19921.89
787.557	19914.43
787.891	19843.25
788.224	19804.83
788.557	19829.69
788.89	19682.12
789.223	19683.71
789.556	19577.72
789.888	19514.9
790.221	19422.92
790.554	19200.55
790.887	19205.3
791.219	19231.51
791.552	19076.49
791.884	19080.33
792.217	18962.82
792.549	18917.85
792.882	18748.81
793.214	18787.01
793.546	18756.27
793.879	18657.29
794.211	18537.97
794.543	18671.75
794.875	18462.72
795.207	18557.41
795.539	18403.74
795.871	18476.28
796.203	18231.31
796.535	18226.57
796.867	18083.07
797.198	18111.77
797.53	18117.65
797.862	18019.79
798.193	18045.78
798.525	17824.55
798.856	17856.18
799.188	17638.34
799.519	17599.47
799.85	17494.38
800.182	17527.15
800.513	17496.19
800.844	17346.37
801.175	17443.99
801.506	17412.58
801.837	17285.58
802.168	17273.15
802.499	17207.84
802.83	17074.51
803.161	17054.62
803.491	17023.21
803.822	17107.5
804.153	16956.09
804.483	16785.93
804.814	16744.57
805.145	16792.03
805.475	16642.88
805.805	16621.87
806.136	16642.88
806.466	16575.31
806.796	16547.97
807.126	16467.74
807.457	16474.3
807.787	16361.53
808.117	16382.32
808.447	16225.27
808.777	16314.3
809.107	16183.91
809.436	16104.14
809.766	16090.58
810.096	16086.96
810.426	15960.19
810.755	15974.65
811.085	16084.7
811.414	15935.1
811.744	15818.04
812.073	15761.55
812.403	15760.64
812.732	15668.67
813.061	15674.09
813.39	15548.67
813.719	15568.79
814.049	15578.73
814.378	15491.5
814.707	15414.21
815.036	15438.17
815.365	15376.93
815.693	15308.23
816.022	15235.24
816.351	15193.43
816.68	15155.92
817.008	15203.37
817.337	15074.79
817.665	15022.36
817.994	15077.95
818.322	14990.95
818.651	14975.81
818.979	15025.52
819.307	14924.51
819.636	14925.86
819.964	14785.08
820.292	14924.73
820.62	14838.64
820.948	14835.02
821.276	14857.17
821.604	14724.06
821.932	14798.86
822.259	14793.89
822.587	14770.16
822.915	14663.95
823.243	14779.88
823.57	14721.12
823.898	14727
824.225	14663.05
824.553	14661.24
824.88	14673.89
825.207	14721.8
825.535	14748.02
825.862	14648.81
826.189	14647
826.516	14758.19
826.843	14668.92
827.17	14747.79
827.497	14747.56
827.824	14737.39
828.151	14722.71
828.478	14610.17
828.805	14723.16
829.131	14717.51
829.458	14609.49
829.785	14589.15
830.111	14653.56
830.438	14677.28
830.764	14671.63
831.09	14654.91
831.417	14546.44
831.743	14627.34
832.069	14549.15
832.395	14570.62
832.722	14534.46
833.048	14550.06
833.374	14604.74
833.7	14502.15
834.026	14480.45
834.351	14519.1
834.677	14516.61
835.003	14498.53
835.329	14440.68
835.654	14445.88
835.98	14373.34
836.306	14474.13
836.631	14377.4
836.956	14376.95
837.282	14350.29
837.607	14225.77
837.932	14242.27
838.258	14247.01
838.583	14218.76
838.908	14129.05
839.233	14173.34
839.558	14137.86
839.883	14092.67
840.208	14069.84
840.533	13990.97
840.858	14074.59
841.182	14142.61
841.507	14014.48
841.832	13978.54
842.156	13965.89
842.481	13945.78
842.805	13945.78
843.13	13867.36
843.454	13834.37
843.778	13840.47
844.103	13747.14
844.427	13729.51
844.751	13767.7
845.075	13630.08
845.399	13697.2
845.723	13522.29
846.047	13507.82
846.371	13560.02
846.695	13538.33
847.019	13303.99
847.343	13269.86
847.666	13199.36
847.99	13217.89
848.313	13150.54
848.637	13040.72
848.96	13057.67
849.284	13085.46
849.607	12952.58
849.931	12880.04
850.254	12840.5
850.577	12811.8
850.9	12708.97
851.223	12674.17
851.546	12599.15
851.869	12427.4
852.192	12617.68
852.515	12483.67
852.838	12438.7
853.161	12404.12
853.483	12410.45
853.806	12232.38
854.129	12283.22
854.451	12249.78
854.774	12127.75
855.096	12110.8
855.419	12115.99
855.741	12017.92
856.063	11987.41
856.385	11979.5
856.708	11991.7
857.03	11931.59
857.352	11907.64
857.674	11851.37
857.996	11746.06
858.318	11698.83
858.64	11719.4
858.961	11663.58
859.283	11702.9
859.605	11597.36
859.926	11673.97
860.248	11576.12
860.57	11554.2
860.891	11525.5
861.212	11462.68
861.534	11436.46
861.855	11402.57
862.176	11469.46
862.498	11401.89
862.819	11408.67
863.14	11298.39
863.461	11311.95
863.782	11352.17
864.103	11297.71
864.424	11218.84
864.745	11288.22
865.065	11211.84
865.386	11209.8
865.707	11214.32
866.027	11204.61
866.348	11174.55
866.668	11132.52
866.989	11120.77
867.309	11065.4
867.63	11106.98
867.95	11080.32
868.27	10954.44
868.59	11008
868.91	10927.78
869.23	10903.82
869.55	10913.54
869.87	10951.96
870.19	10950.6
870.51	10915.57
870.83	10969.81
871.15	10819.98
871.469	10831.96
871.789	10880.55
872.109	10736.6
872.428	10716.26
872.748	10733.66
873.067	10684.17
873.386	10699.99
873.706	10748.35
874.025	10697.95
874.344	10652.3
874.663	10645.07
874.982	10694.79
875.301	10659.08
875.62	10592.42
875.939	10574.57
876.258	10566.21
876.577	10460.45
876.896	10547
877.214	10518.52
877.533	10476.49
877.852	10480.56
878.17	10519.2
878.489	10438.75
878.807	10438.98
879.125	10348.58
879.444	10393.1
879.762	10300
880.08	10356.04
880.398	10270.17
880.716	10322.82
881.034	10249.15
881.352	10273.11
881.67	10296.61
881.988	10271.98
882.306	10167.12
882.624	10093.22
882.941	10135.48
883.259	10135.26
883.577	10079.89
883.894	10051.87
884.212	10054.35
884.529	10020
884.846	9993.56
885.164	10001.93
885.481	9921.93
885.798	9919.44
886.115	9876.28
886.432	9855.72
886.75	9860.46
887.067	9964.41
887.383	9768.94
887.7	9841.03
888.017	9770.97
888.334	9793.12
888.651	9777.53
888.967	9751.54
889.284	9695.49
889.6	9686.68
889.917	9567.36
890.233	9678.32
890.55	9563.07
890.866	9547.47
891.182	9502.28
891.498	9491.66
891.815	9465.67
892.131	9456.63
892.447	9411.89
892.763	9345.45
893.079	9382.06
893.395	9304.09
893.71	9312.23
894.026	9278.56
894.342	9231.1
894.657	9115.4
894.973	9165.56
895.289	9188.39
895.604	9178.45
895.92	9060.71
896.235	9037.66
896.55	8982.52
896.865	9022.52
897.181	8941.39
897.496	8980.48
897.811	8904.78
898.126	8837.21
898.441	8808.51
898.756	8875.4
899.071	8775.97
899.386	8773.03
899.7	8723.99
900.015	8689.19
900.33	8609.87
900.644	8665.01
900.959	8596.99
901.273	8594.05
901.588	8483.77
901.902	8602.42
902.216	8447.16
902.531	8462.98
902.845	8432.93
903.159	8378.47
903.473	8363.55
903.787	8262.31
904.101	8283.33
904.415	8321.52
904.729	8257.79
905.042	8219.37
905.356	8181.41
905.67	8131.92
905.984	8152.48
906.297	8110.45
906.611	8021.64
906.924	8016.22
907.237	8021.19
907.551	7997.91
907.864	7940.29
908.177	7876.56
908.491	7878.37
908.804	7838.59
909.117	7847.18
909.43	7739.16
909.743	7773.96
910.056	7750.46
910.368	7690.35
910.681	7657.13
910.994	7641.76
911.307	7600.86
911.619	7583.23
911.932	7555.44
912.244	7478.38
912.557	7466.85
912.869	7408.77
913.181	7321.54
913.494	7394.76
913.806	7293.3
914.118	7312.73
914.43	7285.61
914.742	7288.55
915.054	7185.5
915.366	7216.91
915.678	7161.1
915.99	7105.05
916.302	7062.12
916.613	7061.66
916.925	7040.42
917.236	7062.12
917.548	7066.41
917.859	6983.7
918.171	6956.81
918.482	6923.14
918.794	6855.57
919.105	6829.81
919.416	6822.35
919.727	6752.75
920.038	6727.66
920.349	6734.22
920.66	6729.7
920.971	6656.03
921.282	6693.09
921.593	6591.39
921.903	6611.28
922.214	6530.15
922.525	6472.75
922.835	6558.63
923.146	6430.95
923.456	6444.73
923.767	6387.78
924.077	6374.68
924.387	6347.33
924.697	6344.17
925.008	6295.58
925.318	6265.75
925.628	6275.92
925.938	6203.38
926.248	6154.12
926.558	6186.43
926.867	6140.11
927.177	6103.95
927.487	6151.41
927.796	6078.41
928.106	6070.05
928.416	6029.38
928.725	5997.29
929.034	5969.04
929.344	5990.73
929.653	5978.08
929.962	5883.16
930.271	5863.05
930.581	5830.96
930.89	5808.59
931.199	5814.47
931.508	5813.11
931.817	5760.91
932.125	5773.79
932.434	5697.18
932.743	5661.93
933.051	5647.01
933.36	5617.63
933.669	5587.81
933.977	5570.63
934.286	5577.64
934.594	5553.23
934.902	5501.93
935.21	5458.54
935.519	5504.87
935.827	5443.4
936.135	5395.49
936.443	5343.07
936.751	5344.65
937.059	5381.93
937.367	5331.31
937.674	5326.57
937.982	5311.43
938.29	5268.04
938.597	5244.54
938.905	5147.14
939.213	5141.49
939.52	5121.83
939.827	5096.29
940.135	5086.58
940.442	5079.8
940.749	5073.02
941.056	5081.38
941.363	4985.56
941.67	5001.61
941.977	5008.61
942.284	4952.79
942.591	4962.06
942.898	4937.65
943.205	4900.82
943.511	4942.17
943.818	4834.38
944.125	4809.52
944.431	4824.89
944.738	4772.46
945.044	4759.8
945.35	4745.12
945.657	4738.79
945.963	4723.65
946.269	4685
946.575	4656.53
946.881	4670.54
947.187	4636.87
947.493	4625.8
947.799	4619.47
948.105	4579.24
948.41	4539.7
948.716	4516.65
949.022	4514.61
949.327	4475.29
949.633	4459.25
949.938	4468.74
950.244	4413.6
950.549	4431.45
950.854	4380.61
951.16	4372.24
951.465	4350.32
951.77	4348.06
952.075	4308.52
952.38	4293.6
952.685	4316.43
952.99	4275.3
953.294	4244.11
953.599	4236.65
953.904	4265.13
954.209	4193.49
954.513	4199.37
954.818	4130.89
955.122	4149.42
955.426	4108.3
955.731	4096.32
956.035	4099.26
956.339	4084.57
956.643	4072.14
956.948	4002.54
957.252	3994.4
957.556	3986.49
957.86	3942.42
958.163	3997.56
958.467	3950.33
958.771	3920.05
959.075	3889.54
959.378	3891.13
959.682	3888.64
959.985	3889.54
960.289	3830.79
960.592	3797.34
960.896	3850.45
961.199	3830.34
961.502	3796.21
961.805	3759.38
962.108	3758.47
962.411	3751.24
962.714	3686.84
963.017	3706.5
963.32	3720.06
963.623	3657.01
963.926	3660.85
964.228	3632.38
964.531	3643.9
964.833	3640.29
965.136	3586.05
965.438	3570.91
965.741	3614.98
966.043	3553.51
966.345	3501.31
966.648	3523.23
966.95	3548.31
967.252	3477.13
967.554	3482.78
967.856	3431.48
968.158	3427.64
968.46	3452.04
968.761	3432.38
969.063	3395.55
969.365	3405.49
969.666	3381.76
969.968	3345.6
970.269	3336.56
970.571	3323.46
970.872	3311.71
971.174	3313.97
971.475	3290.69
971.776	3273.52
972.077	3240.07
972.378	3244.82
972.679	3221.31
972.98	3231.71
973.281	3175.67
973.582	3188.55
973.883	3132.5
974.183	3141.09
974.484	3140.64
974.785	3147.42
975.085	3133.18
975.386	3132.73
975.686	3063.13
975.986	3047.31
976.287	3074.88
976.587	3049.34
976.887	3050.24
977.187	3014.31
977.487	3007.99
977.787	2954.2
978.087	2937.25
978.387	3008.21
978.687	2959.4
978.987	2897.03
979.286	2904.71
979.586	2930.93
979.885	2900.87
980.185	2912.85
980.484	2897.93
980.784	2869.46
981.083	2814.09
981.382	2817.71
981.682	2837.82
981.981	2835.56
982.28	2766.41
982.579	2785.62
982.878	2756.24
983.177	2763.7
983.475	2763.7
983.774	2757.15
984.073	2704.49
984.372	2700.88
984.67	2726.19
984.969	2701.33
985.267	2729.35
985.566	2655.9
985.864	2650.03
986.162	2635.57
986.461	2648
986.759	2651.39
987.057	2561.44
987.355	2568.9
987.653	2556.7
987.951	2539.98
988.249	2556.02
988.547	2530.03
988.844	2530.94
989.142	2543.14
989.44	2495.23
989.737	2483.71
990.035	2502.46
990.332	2457.04
990.63	2473.76
990.927	2462.92
991.224	2455.91
991.521	2409.13
991.819	2414.56
992.116	2429.7
992.413	2419.75
992.71	2372.75
993.006	2360.09
993.303	2369.81
993.6	2341.34
993.897	2362.13
994.193	2304.95
994.49	2342.92
994.787	2313.99
995.083	2312.86
995.379	2287.1
995.676	2308.12
995.972	2285.74
996.268	2253.43
996.565	2262.69
996.861	2227.22
997.157	2219.76
997.453	2190.61
997.749	2204.62
998.044	2174.11
998.34	2199.42
998.636	2167.33
998.932	2124.17
999.227	2143.15
999.523	2138.86
999.818	2125.52
1000.114	2111.96
1000.409	2088.01
1000.704	2045.98
1001	2095.24
1001.295	2075.81
1001.59	2062.7
1001.885	2022.48
1002.18	2045.3
1002.475	2017.73
1002.77	2015.24
1003.065	2017.96
1003.359	2004.4
1003.654	2026.54
1003.949	1962.82
1004.243	1954.45
1004.538	1953.55
1004.832	1947.45
1005.127	1910.39
1005.421	1914.46
1005.715	1895.02
1006.009	1884.4
1006.304	1909.71
1006.598	1859.99
1006.892	1847.11
1007.186	1862.71
1007.48	1855.47
1007.773	1833.33
1008.067	1810.73
1008.361	1807.11
1008.655	1837.62
1008.948	1847.11
1009.242	1815.25
1009.535	1782.48
1009.829	1774.8
1010.122	1761.46
1010.415	1753.33
1010.708	1719.66
1011.001	1702.94
1011.295	1707.23
1011.588	1705.2
1011.881	1704.74
1012.173	1707.68
1012.466	1699.32
1012.759	1680.79
1013.052	1687.57
1013.344	1665.42
1013.637	1639.89
1013.93	1631.3
1014.222	1619.77
1014.514	1618.19
1014.807	1595.59
1015.099	1612.54
1015.391	1591.3
1015.683	1592.43
1015.976	1580.68
1016.268	1539.1
1016.56	1547.69
1016.851	1534.35
1017.143	1529.61
1017.435	1514.47
1017.727	1530.96
1018.018	1482.6
1018.31	1507.46
1018.602	1469.04
1018.893	1479.89
1019.185	1489.83
1019.476	1467.91
1019.767	1422.49
1020.058	1421.36
1020.35	1413.23
1020.641	1398.08
1020.932	1421.13
1021.223	1399.89
1021.514	1386.79
1021.804	1390.63
1022.095	1358.31
1022.386	1362.15
1022.677	1326.9
1022.967	1327.13
1023.258	1344.07
1023.548	1331.19
1023.839	1307.01
1024.129	1313.34
1024.419	1318.99
1024.709	1291.65
1025	1295.04
1025.29	1292.32
1025.58	1263.4
1025.87	1254.59
1026.16	1253.46
1026.449	1250.07
1026.739	1227.24
1027.029	1233.12
1027.319	1221.14
1027.608	1230.63
1027.898	1208.71
1028.187	1182.72
1028.477	1184.31
1028.766	1190.41
1029.055	1184.76
1029.344	1182.5
1029.634	1162.61
1029.923	1145.66
1030.212	1128.04
1030.501	1142.27
1030.79	1150.41
1031.078	1138.66
1031.367	1076.51
1031.656	1110.18
1031.945	1102.27
1032.233	1092.33
1032.522	1072.67
1032.81	1068.83
1033.099	1087.36
1033.387	1059.56
1033.675	1089.39
1033.963	1056.17
1034.251	1046.91
1034.54	1030.18
1034.828	1035.38
1035.116	1029.05
1035.403	1021.82
1035.691	1002.61
1035.979	1026.8
1036.267	995.61
1036.554	999.23
1036.842	956.06
1037.129	973.92
1037.417	980.24
1037.704	954.48
1037.992	934.82
1038.279	966.68
1038.566	932.56
1038.853	932.56
1039.14	932.56
