Data from hue_280_FLMS001491_00004.txt Node
Date: Tue Feb 07 15:54:43 GMT 2017
User: dcchb
Spectrometer: FLMS00149
Trigger mode: 0
Integration Time (sec): 2.000000E-2
Scans to average: 10
Electric dark correction enabled: true
Nonlinearity correction enabled: false
Boxcar width: 0
XAxis mode: Wavelengths
Number of Pixels in Spectrum: 2048
>>>>>Begin Spectral Data<<<<<
341.393	-21.1
341.776	-21.1
342.16	-21.1
342.543	-59.29
342.927	-58.39
343.31	-84.15
343.693	-65.39
344.077	-72.63
344.46	-55
344.843	-72.4
345.226	-49.57
345.61	-13.87
345.993	-14.77
346.376	-1.89
346.759	8.95
347.142	36.52
347.525	33.13
347.908	58.67
348.291	81.72
348.674	86.01
349.057	124.66
349.44	122.17
349.823	148.39
350.206	126.01
350.588	197.88
350.971	233.58
351.354	221.6
351.737	231.32
352.119	242.17
352.502	248.95
352.884	246.69
353.267	260.25
353.65	266.8
354.032	283.07
354.414	283.75
354.797	301.38
355.179	306.35
355.562	325.33
355.944	314.03
356.326	305.67
356.709	312
357.091	343.64
357.473	344.54
357.855	309.06
358.238	327.36
358.62	337.31
359.002	352
359.384	318.55
359.766	323.97
360.148	330.08
360.53	340.47
360.912	323.97
361.294	315.61
361.676	325.56
362.057	338.44
362.439	316.29
362.821	301.15
363.203	331.66
363.584	295.5
363.966	323.75
364.348	337.31
364.729	291.88
365.111	326.69
365.493	336.63
365.874	324.2
366.256	327.14
366.637	305.67
367.019	315.61
367.4	307.93
367.781	309.51
368.163	314.03
368.544	304.09
368.925	314.03
369.306	321.94
369.688	313.81
370.069	307.48
370.45	324.2
370.831	301.38
371.212	329.62
371.593	299.34
371.974	297.53
372.355	297.99
372.736	284.65
373.117	316.52
373.498	309.51
373.879	308.61
374.26	286.91
374.641	305.22
375.021	304.99
375.402	302.51
375.783	340.7
376.163	334.82
376.544	328.49
376.925	347.93
377.305	310.64
377.686	314.94
378.066	328.49
378.447	322.17
378.827	319.23
379.208	315.84
379.588	332.79
379.968	329.17
380.349	338.44
380.729	324.2
381.109	331.21
381.489	321.04
381.87	344.76
382.25	335.5
382.63	323.07
383.01	328.49
383.39	346.35
383.77	333.01
384.15	345.22
384.53	353.58
384.91	347.48
385.29	372.11
385.67	356.97
386.049	340.47
386.429	359.91
386.809	346.57
387.189	372.33
387.568	351.77
387.948	355.16
388.328	362.17
388.707	338.21
389.087	357.19
389.466	368.72
389.846	368.27
390.225	368.72
390.605	360.58
390.984	373.24
391.363	363.07
391.743	387.48
392.122	359
392.501	380.7
392.881	376.18
393.26	400.58
393.639	376.85
394.018	373.24
394.397	382.73
394.776	389.74
395.155	390.19
395.534	396.29
395.913	407.36
396.292	416.4
396.671	422.05
397.05	400.13
397.429	400.81
397.808	400.81
398.186	400.81
398.565	399.9
398.944	401.03
399.323	386.57
399.701	427.02
400.08	418.89
400.458	434.71
400.837	429.06
401.215	432.67
401.594	422.28
401.972	457.3
402.351	438.32
402.729	451.43
403.107	447.81
403.486	450.07
403.864	431.77
404.242	457.53
404.62	446.68
404.999	460.69
405.377	440.36
405.755	456.4
406.133	463.41
406.511	474.03
406.889	467.02
407.267	484.87
407.645	459.11
408.023	473.35
408.401	491.2
408.779	507.47
409.156	510.18
409.534	498.43
409.912	514.25
410.29	546.34
410.667	516.96
411.045	539.11
411.422	541.14
411.8	542.05
412.178	559.9
412.555	543.18
412.933	572.1
413.31	584.98
413.687	565.1
414.065	586.11
414.442	574.59
414.819	615.04
415.197	632.22
415.574	601.03
415.951	627.02
416.328	622.95
416.705	640.12
417.082	655.04
417.46	642.61
417.837	656.85
418.214	663.63
418.591	674.47
418.967	681.71
419.344	679.45
419.721	699.11
420.098	702.72
420.475	688.03
420.852	703.17
421.228	727.13
421.605	726.22
421.982	734.81
422.358	753.12
422.735	768.03
423.111	785.88
423.488	786.11
423.864	780.46
424.241	786.79
424.617	813.45
424.994	831.08
425.37	824.07
425.746	826.11
426.123	830.4
426.499	833.57
426.875	870.4
427.251	900
427.627	899.1
428.003	916.05
428.379	933.68
428.756	928.93
429.132	928.03
429.507	950.17
429.883	946.78
430.259	972.32
430.635	997.86
431.011	986.56
431.387	993.56
431.763	1022.49
432.138	1067.91
432.514	1064.52
432.89	1054.35
433.265	1076.27
433.641	1082.82
434.016	1087.12
434.392	1118.98
434.767	1136.38
435.143	1141.35
435.518	1152.2
435.894	1155.37
436.269	1178.87
436.644	1187.68
437.02	1220.9
437.395	1248.7
437.77	1246.89
438.145	1262.71
438.52	1256.15
438.895	1300.22
439.271	1286.89
439.646	1318.07
440.021	1311.52
440.395	1361.91
440.77	1339.77
441.145	1375.7
441.52	1373.89
441.895	1372.53
442.27	1386.09
442.645	1395.13
443.019	1394.23
443.394	1419.31
443.769	1435.36
444.143	1427.45
444.518	1450.05
444.892	1466.09
445.267	1458.18
445.641	1504.06
446.016	1488.01
446.39	1517.62
446.764	1504.96
447.139	1505.19
447.513	1532.98
447.887	1502.47
448.262	1537.73
448.636	1528.69
449.01	1541.8
449.384	1566.65
449.758	1579.53
450.132	1569.59
450.506	1557.61
450.88	1592.42
451.254	1651.62
451.628	1618.4
452.002	1613.66
452.376	1635.13
452.75	1642.58
453.123	1662.02
453.497	1677.84
453.871	1678.97
454.244	1742.69
454.618	1739.98
454.992	1765.52
455.365	1739.3
455.739	1799.42
456.112	1853.88
456.486	1826.08
456.859	1795.12
457.232	1836.93
457.606	1853.2
457.979	1892.29
458.352	1888.23
458.725	1881.67
459.099	1912.18
459.472	1936.59
459.845	1942.92
460.218	1974.78
460.591	1984.95
460.964	1978.17
461.337	2032.63
461.71	2058.17
462.083	2073.08
462.456	2085.28
462.829	2084.83
463.201	2153.98
463.574	2116.02
463.947	2133.64
464.32	2177.49
464.692	2179.52
465.065	2200.08
465.438	2197.37
465.81	2250.93
466.183	2253.64
466.555	2311.72
466.928	2324.15
467.3	2286.18
467.672	2369.34
468.045	2377.25
468.417	2378.61
468.789	2369.34
469.161	2443.47
469.534	2437.59
469.906	2498.15
470.278	2528.89
470.65	2533.18
471.022	2559.62
471.394	2567.76
471.766	2603.46
472.138	2604.82
472.51	2671.26
472.882	2718.49
473.253	2708.32
473.625	2742.67
473.997	2797.81
474.369	2798.94
474.74	2821.76
475.112	2905.38
475.484	2917.58
475.855	2967.07
476.227	2923.23
476.598	3045.26
476.97	3067.63
477.341	3119.83
477.713	3114.41
478.084	3158.02
478.455	3251.13
478.827	3240.51
479.198	3328.42
479.569	3336.1
479.94	3394.63
480.311	3444.12
480.682	3492.93
481.053	3502.2
481.424	3577
481.795	3591.46
482.166	3626.94
482.537	3675.3
482.908	3770.89
483.279	3727.95
483.65	3817.67
484.021	3848.4
484.391	3927.04
484.762	3899.93
485.133	3983.54
485.503	3968.4
485.874	4093.14
486.244	4116.64
486.615	4163.87
486.985	4182.18
487.356	4237.77
487.726	4227.37
488.097	4310.99
488.467	4328.61
488.837	4407.26
489.207	4426.24
489.578	4473.7
489.948	4491.32
490.318	4583.07
490.688	4570.64
491.058	4637.31
491.428	4716.18
491.798	4700.13
492.168	4772.22
492.538	4756.85
492.908	4853.8
493.278	4884.53
493.648	4882.05
494.017	4915.94
494.387	4988.26
494.757	4997.75
495.126	5110.06
495.496	5057.64
495.866	5131.53
496.235	5110.52
496.605	5183.28
496.974	5170.63
497.344	5197.29
497.713	5225.31
498.082	5265.54
498.452	5298.98
498.821	5343.96
499.19	5361.36
499.559	5397.29
499.928	5398.19
500.298	5418.08
500.667	5463.05
501.036	5438.19
501.405	5478.64
501.774	5501.92
502.143	5503.95
502.512	5531.07
502.88	5567.9
503.249	5597.51
503.618	5606.1
503.987	5670.5
504.356	5629.82
504.724	5676.83
505.093	5673.89
505.462	5667.79
505.83	5705.75
506.199	5745.53
506.567	5858.52
506.936	5832.08
507.304	5849.03
507.672	5851.06
508.041	5835.02
508.409	5945.52
508.777	5911.17
509.145	5917.95
509.514	6006.76
509.882	5989.14
510.25	6010.15
510.618	6005.41
510.986	5969.25
511.354	6050.6
511.722	6111.17
512.09	6159.98
512.458	6135.8
512.826	6131.28
513.193	6140.77
513.561	6171.73
513.929	6217.38
514.297	6249.69
514.664	6249.47
515.032	6245.17
515.4	6277.49
515.767	6349.13
516.135	6321.56
516.502	6276.36
516.869	6366.98
517.237	6318.85
517.604	6328.79
517.972	6400.65
518.339	6420.76
518.706	6418.5
519.073	6501.21
519.44	6447.66
519.808	6521.1
520.175	6486.75
520.542	6548.9
520.909	6571.95
521.276	6589.12
521.643	6609.46
522.009	6596.8
522.376	6644.94
522.743	6675.67
523.11	6732.39
523.477	6743.24
523.843	6724.26
524.21	6849.23
524.577	6829.57
524.943	6841.32
525.31	6927.42
525.676	6919.28
526.043	6888.77
526.409	6942.56
526.776	7057.36
527.142	7063.68
527.508	7062.33
527.874	7031.82
528.241	7110.01
528.607	7147.07
528.973	7105.27
529.339	7148.2
529.705	7229.78
530.071	7277.24
530.437	7298.25
530.803	7299.16
531.169	7328.76
531.535	7325.82
531.901	7331.25
532.267	7344.81
532.632	7356.33
532.998	7433.62
533.364	7465.71
533.73	7418.93
534.095	7530.34
534.461	7498.93
534.826	7590.22
535.192	7570.11
535.557	7615.31
535.923	7569.89
536.288	7582.09
536.653	7642.65
537.019	7620.51
537.384	7690.56
537.749	7685.36
538.114	7665.7
538.479	7711.12
538.845	7680.62
539.21	7775.3
539.575	7765.36
539.94	7758.58
540.305	7833.38
540.67	7845.58
541.034	7835.19
541.399	7859.14
541.764	7830.22
542.129	7850.33
542.494	7892.59
542.858	7901.85
543.223	7839.94
543.587	7949.08
543.952	7898.69
544.316	7972.59
544.681	7958.58
545.045	7998.57
545.41	8080.38
545.774	8076.09
546.138	8041.51
546.503	8057.1
546.867	8103.21
547.231	8128.06
547.595	8078.12
547.959	8069.31
548.324	8112.24
548.688	8116.31
549.052	8174.62
549.416	8210.55
549.779	8264.78
550.143	8196.76
550.507	8168.97
550.871	8306.59
551.235	8226.37
551.599	8320.83
551.962	8285.57
552.326	8302.07
552.689	8343.88
553.053	8249.42
553.417	8375.74
553.78	8447.38
554.143	8397.21
554.507	8428.62
554.87	8413.03
555.234	8462.97
555.597	8449.86
555.96	8458.68
556.323	8524.66
556.686	8515.4
557.05	8523.31
557.413	8563.31
557.776	8569.18
558.139	8605.56
558.502	8618.67
558.865	8706.58
559.228	8655.51
559.59	8666.58
559.953	8718.33
560.316	8784.32
560.679	8780.48
561.041	8858.21
561.404	8896.63
561.767	8925.56
562.129	8853.24
562.492	8973.92
562.854	8990.19
563.217	8882.85
563.579	8987.48
563.941	9045.33
564.304	8995.84
564.666	9054.82
565.028	9117.19
565.39	9131.88
565.753	9157.41
566.115	9141.6
566.477	9252.1
566.839	9260.01
567.201	9310.4
567.563	9252.78
567.925	9377.52
568.287	9388.37
568.648	9358.54
569.01	9390.85
569.372	9463.17
569.734	9459.33
570.095	9559.21
570.457	9575.03
570.819	9596.27
571.18	9634.01
571.542	9614.35
571.903	9635.59
572.265	9707.91
572.626	9742.26
572.987	9716.95
573.349	9769.83
573.71	9857.51
574.071	9892.76
574.432	9928.47
574.794	9949.71
575.155	9966.66
575.516	10013.66
575.877	10057.28
576.238	10097.28
576.599	10145.41
576.96	10180.89
577.32	10182.25
577.681	10252.08
578.042	10289.36
578.403	10302.02
578.763	10335.24
579.124	10435.8
579.485	10447.78
579.845	10513.31
580.206	10489.58
580.566	10474.44
580.927	10659.3
581.287	10643.03
581.648	10688.67
582.008	10768.22
582.368	10744.72
582.728	10869.01
583.089	10861.55
583.449	10936.12
583.809	11056.57
584.169	11043.47
584.529	11102.45
584.889	11191.03
585.249	11194.88
585.609	11290.69
585.969	11331.82
586.329	11346.28
586.688	11455.21
587.048	11520.29
587.408	11590.57
587.768	11647.74
588.127	11718.7
588.487	11726.84
588.846	11864.24
589.206	11828.3
589.565	11932.03
589.925	12055.87
590.284	12064.91
590.643	12188.3
591.003	12243.21
591.362	12323.21
591.721	12312.59
592.08	12394.62
592.44	12456.31
592.799	12537.89
593.158	12486.14
593.517	12639.58
593.876	12719.13
594.235	12785.34
594.593	12925.9
594.952	12899.24
595.311	12947.37
595.67	12941.72
596.029	13197.53
596.387	13205.44
596.746	13281.15
597.104	13207.25
597.463	13259.45
597.822	13461.93
598.18	13355.04
598.538	13496.74
598.897	13614.92
599.255	13532.21
599.613	13686.56
599.972	13739.89
600.33	13826.44
600.688	13788.48
601.046	13935.37
601.404	13983.73
601.762	14051.3
602.12	14077.96
602.478	14113.44
602.836	14147.34
603.194	14147.79
603.552	14113.22
603.91	14183.27
604.268	14350.05
604.625	14302.59
604.983	14404.51
605.341	14267.11
605.698	14430.5
606.056	14542.58
606.413	14507.78
606.771	14635.46
607.128	14607.67
607.485	14623.03
607.843	14742.58
608.2	14751.39
608.557	14810.37
608.914	14743.03
609.272	14875.68
609.629	14938.28
609.986	15087.88
610.343	14956.13
610.7	15149.8
611.057	15019.63
611.414	15031.38
611.771	15124.04
612.127	15167.43
612.484	15146.86
612.841	15224.37
613.198	15211.72
613.554	15262.56
613.911	15329.23
614.267	15276.35
614.624	15429.11
614.98	15331.72
615.337	15491.71
615.693	15433.86
616.05	15494.88
616.406	15513.63
616.762	15530.58
617.118	15542.33
617.475	15542.78
617.831	15608.77
618.187	15641.76
618.543	15666.62
618.899	15738.94
619.255	15694.42
619.611	15643.12
619.967	15701.88
620.323	15851.25
620.678	15782.78
621.034	15747.07
621.39	15750.24
621.746	15640.41
622.101	15930.57
622.457	15725.15
622.812	15851.25
623.168	15926.73
623.523	15919.95
623.879	15865.03
624.234	15886.96
624.589	15860.52
624.945	15943.68
625.3	15946.61
625.655	15894.86
626.01	15916.11
626.365	15907.07
626.72	15892.6
627.075	15937.58
627.43	15966.73
627.785	15952.72
628.14	15959.04
628.495	15950.91
628.85	15848.76
629.205	15812.38
629.559	16061.19
629.914	15959.5
630.269	15909.1
630.623	15822.32
630.978	15800.63
631.332	15879.95
631.687	15877.01
632.041	15821.65
632.396	15895.54
632.75	15773.29
633.104	15931.93
633.459	15823
633.813	15793.17
634.167	15798.37
634.521	15765.15
634.875	15822.32
635.229	15700.97
635.583	15703.68
635.937	15697.58
636.291	15703.68
636.645	15740.74
636.999	15612.61
637.352	15780.07
637.706	15602.44
638.06	15670.69
638.413	15580.07
638.767	15587.3
639.121	15609.45
639.474	15483.12
639.828	15552.05
640.181	15556.57
640.534	15584.59
640.888	15463.69
641.241	15396.12
641.594	15456.46
641.947	15533.07
642.301	15468.66
642.654	15500.98
643.007	15505.95
643.36	15438.83
643.713	15455.55
644.066	15432.5
644.419	15463.69
644.771	15323.58
645.124	15172.62
645.477	15187.54
645.83	15079.74
646.182	14946.87
646.535	14913.42
646.888	14954.55
647.24	14892.63
647.593	15035.23
647.945	14956.13
648.298	14831.16
648.65	14857.83
649.002	14757.72
649.355	14919.75
649.707	14922.91
650.059	15006.98
650.411	15176.01
650.763	15176.24
651.115	15333.52
651.467	15321.09
651.819	15344.14
652.171	15221.89
652.523	15237.71
652.875	15312.28
653.227	15246.29
653.578	15355.44
653.93	15261.43
654.282	15225.73
654.633	15208.78
654.985	15219.63
655.337	15298.04
655.688	15259.63
656.039	15342.56
656.391	15189.57
656.742	15288.33
657.094	15215.56
657.445	15346.18
657.796	15227.99
658.147	15322.22
658.498	15258.72
658.849	15284.49
659.2	15271.6
659.551	15231.61
659.902	15248.55
660.253	15374.43
660.604	15373.97
660.955	15301.43
661.306	15334.65
661.656	15341.88
662.007	15354.99
662.358	15298.5
662.708	15392.5
663.059	15405.84
663.409	15287.65
663.76	15409
664.11	15380.08
664.461	15374.43
664.811	15369.23
665.161	15351.38
665.511	15303.02
665.862	15418.04
666.212	15369
666.562	15490.81
666.912	15399.51
667.262	15338.95
667.612	15379.85
667.962	15500.52
668.312	15377.82
668.662	15431.6
669.011	15388.21
669.361	15360.19
669.711	15397.93
670.06	15304.6
670.41	15267.08
670.76	15230.7
671.109	15387.31
671.459	15282.23
671.808	15305.05
672.157	15372.39
672.507	15225.5
672.856	15211.27
673.205	15157.71
673.554	15237.71
673.904	15293.3
674.253	15263.69
674.602	15288.78
674.951	14997.04
675.3	14989.8
675.649	15283.58
675.998	15190.25
676.346	15133.08
676.695	15194.09
677.044	15098.5
677.393	15271.38
677.741	15165.39
678.09	15088.11
678.438	15029.8
678.787	15040.65
679.135	15106.41
679.484	15017.37
679.832	15001.78
680.181	14950.93
680.529	14896.25
680.877	14812.86
681.225	14887.43
681.573	14970.37
681.922	14872.74
682.27	14817.83
682.618	14769.7
682.966	14740.54
683.314	14746.65
683.661	14705.52
684.009	14660.09
684.357	14572.87
684.705	14646.99
685.053	14610.83
685.4	14612.86
685.748	14497.84
686.095	14464.17
686.443	14403.38
686.79	14450.16
687.138	14377.39
687.485	14372.19
687.832	14321.12
688.18	14336.94
688.527	14219.88
688.874	14164.51
689.221	14175.14
689.568	14069.6
689.915	14034.12
690.262	14074.35
690.609	13912.77
690.956	13981.02
691.303	14001.13
691.65	13864.64
691.997	13808.37
692.344	13816.05
692.69	13776.05
693.037	13741.47
693.383	13632.33
693.73	13647.01
694.077	13476.17
694.423	13674.58
694.769	13464.19
695.116	13454.7
695.462	13477.98
695.808	13464.42
696.155	13385.1
696.501	13280.47
696.847	13322.28
697.193	13234.82
697.539	13273.69
697.885	13172.22
698.231	13125.22
698.577	13118.67
698.923	13051.55
699.269	12975.85
699.614	12914.15
699.96	12874.15
700.306	12812.91
700.651	12770.88
700.997	12733.59
701.342	12808.62
701.688	12711.67
702.033	12644.1
702.379	12579.92
702.724	12555.07
703.069	12574.73
703.415	12431.68
703.76	12460.83
704.105	12431.9
704.45	12412.7
704.795	12292.02
705.14	12178.8
705.485	12295.86
705.83	12166.83
706.175	12136.77
706.52	12237.11
706.865	12159.6
707.209	12058.81
707.554	12014.06
707.899	11987.85
708.243	11923.9
708.588	11915.31
708.932	11867.17
709.277	11839.38
709.621	11908.08
709.966	11691.13
710.31	11797.57
710.654	11591.02
710.998	11696.1
711.342	11691.81
711.687	11572.72
712.031	11596.67
712.375	11511.93
712.719	11632.83
713.063	11544.47
713.407	11573.17
713.75	11422.67
714.094	11435.77
714.438	11405.94
714.782	11356.9
715.125	11372.72
715.469	11377.47
715.812	11332.95
716.156	11277.81
716.499	11256.34
716.843	11279.84
717.186	11251.82
717.53	11339.28
717.873	11214.54
718.216	11215.44
718.559	11156.46
718.902	11074.65
719.246	11139.51
719.589	11141.09
719.932	11035.78
720.275	11044.37
720.617	11070.36
720.96	11060.42
721.303	10964.82
721.646	11058.16
721.989	10944.94
722.331	11069.45
722.674	10942.9
723.016	10981.55
723.359	10951.27
723.701	10925.5
724.044	10941.77
724.386	10868.78
724.729	10956.92
725.071	10930.25
725.413	10834.43
725.755	10848.9
726.097	10821.33
726.439	10816.81
726.782	10853.19
727.124	10857.71
727.465	10890.7
727.807	10794.66
728.149	10798.73
728.491	10810.48
728.833	10779.52
729.175	10778.61
729.516	10739.07
729.858	10705.17
730.199	10711.72
730.541	10765.51
730.882	10745.85
731.224	10793.3
731.565	10648.45
731.906	10721.89
732.248	10762.12
732.589	10682.12
732.93	10667.88
733.271	10691.84
733.612	10756.02
733.953	10648
734.294	10645.51
734.635	10683.02
734.976	10706.07
735.317	10706.98
735.658	10648.67
735.999	10719.63
736.339	10686.19
736.68	10749.92
737.021	10687.32
737.361	10702.91
737.702	10737.03
738.042	10691.61
738.383	10715.79
738.723	10699.75
739.063	10739.29
739.404	10716.7
739.744	10733.42
740.084	10784.26
740.424	10780.2
740.764	10802.34
741.104	10746.75
741.444	10752.4
741.784	10729.12
742.124	10862
742.464	10796.47
742.804	10817.03
743.143	10899.74
743.483	10823.36
743.823	10801.67
744.162	10924.6
744.502	10950.14
744.841	10946.29
745.181	11005.73
745.52	11013.86
745.86	11114.2
746.199	11121.88
746.538	11135.89
746.877	11238.26
747.216	11276
747.556	11259.28
747.895	11365.94
748.234	11374.53
748.573	11425.38
748.911	11503.79
749.25	11565.94
749.589	11541.98
749.928	11711.7
750.267	11744.69
750.605	11802.99
750.944	11877.57
751.283	11966.38
751.621	12086.6
751.96	12083.21
752.298	12224.9
752.636	12331.79
752.975	12379.48
753.313	12477.33
753.651	12657.89
753.989	12643.88
754.327	12738.56
754.666	12911.89
755.004	12987.37
755.342	13183.3
755.679	13309.62
756.017	13330.19
756.355	13588.03
756.693	13650.63
757.031	13894.01
757.368	13876.84
757.706	14047.91
758.044	14204.29
758.381	14328.35
758.719	14508.91
759.056	14632.75
759.394	14741.45
759.731	14776.25
760.068	14966.75
760.405	15148.44
760.743	15265.5
761.08	15474.31
761.417	15590.69
761.754	15714.98
762.091	15837.01
762.428	15923.79
762.765	16089.66
763.102	16427.28
763.438	16437.45
763.775	16545.02
764.112	16625.01
764.449	16850.55
764.785	16928.96
765.122	17083.53
765.458	17161.05
765.795	17264.32
766.131	17470.42
766.467	17474.03
766.804	17643.97
767.14	17727.36
767.476	17888.94
767.812	17871.08
768.148	17986.33
768.485	18030.4
768.821	18083.06
769.157	18386.32
769.492	18349.26
769.828	18525.3
770.164	18507.68
770.5	18552.42
770.836	18806.2
771.171	18716.26
771.507	18779.99
771.842	18830.83
772.178	18935.46
772.513	18964.39
772.849	19064.05
773.184	19028.79
773.519	19084.84
773.855	19074.22
774.19	19163.93
774.525	19192.18
774.86	19340.65
775.195	19231.05
775.53	19303.14
775.865	19304.04
776.2	19309.01
776.535	19165.29
776.87	19350.82
777.205	19309.69
777.539	19298.84
777.874	19418.16
778.209	19250.03
778.543	19270.37
778.878	19345.4
779.212	19373.42
779.547	19292.29
779.881	19431.95
780.215	19327.09
780.55	19375.23
780.884	19288.9
781.218	19351.72
781.552	19334.32
781.886	19362.57
782.22	19315.11
782.554	19178.62
782.888	19079.64
783.222	19116.93
783.556	19093.2
783.889	19191.5
784.223	19021.34
784.557	19107.66
784.89	19091.84
785.224	19038.28
785.557	19011.62
785.891	18939.3
786.224	18982.24
786.558	18908.57
786.891	18788.57
787.224	18771.4
787.557	18737.05
787.891	18707.67
788.224	18788.57
788.557	18751.96
788.89	18706.32
789.223	18760.78
789.556	18542.03
789.888	18411.63
790.221	18477.4
790.554	18401.24
790.887	18416.83
791.219	18352.43
791.552	18331.64
791.884	18299.32
792.217	18251.64
792.549	18152.66
792.882	18063.17
793.214	18080.8
793.546	18033.11
793.879	18027.69
794.211	17910.4
794.543	17980.46
794.875	17806.9
795.207	17961.25
795.539	17951.31
795.871	17920.57
796.203	17649.39
796.535	17618.89
796.867	17742.27
797.198	17641.26
797.53	17575.27
797.862	17475.61
798.193	17467.93
798.525	17477.87
798.856	17406.24
799.188	17326.69
799.519	17255.73
799.85	17154.04
800.182	17202.17
800.513	17278.33
800.844	17058
801.175	17073.82
801.506	17093.03
801.837	17000.15
802.168	16993.82
802.499	16918.34
802.83	16797.21
803.161	16815.29
803.491	16749.98
803.822	16766.03
804.153	16810.32
804.483	16627.95
804.814	16642.64
805.145	16543.44
805.475	16612.36
805.805	16467.73
806.136	16472.7
806.466	16430.22
806.796	16483.55
807.126	16232.03
807.457	16218.7
807.787	16217.12
808.117	16203.78
808.447	16102.77
808.777	16180.96
809.107	16084.69
809.436	16132.6
809.766	16112.94
810.096	15949.1
810.426	16038.59
810.755	15988.2
811.085	15863.68
811.414	15898.93
811.744	15845.15
812.073	15763.79
812.403	15781.2
812.732	15726.51
813.061	15699.16
813.39	15497.36
813.719	15537.36
814.049	15708.2
814.378	15542.56
814.707	15467.31
815.036	15493.29
815.365	15481.09
815.693	15338.72
816.022	15301.43
816.351	15232.96
816.68	15215.56
817.008	15232.06
817.337	15134.66
817.665	15128.33
817.994	15183.47
818.322	15165.84
818.651	15013.53
818.979	15016.92
819.307	15062.34
819.636	15018.73
819.964	15002.01
820.292	15031.61
820.62	15022.12
820.948	14945.06
821.276	14927.66
821.604	14861.67
821.932	14924.04
822.259	14904.38
822.587	14882.46
822.915	14849.69
823.243	14919.3
823.57	14858.96
823.898	14855.57
824.225	14834.78
824.553	14886.76
824.88	14878.39
825.207	14866.42
825.535	14833.2
825.862	14941.67
826.189	14799.98
826.516	14817.38
826.843	14890.37
827.17	14947.54
827.497	14924.95
827.824	14937.38
828.151	14990.48
828.478	14953.87
828.805	14931.73
829.131	14918.85
829.458	14903.48
829.785	14882.46
830.111	14914.78
830.438	14942.12
830.764	14904.61
831.09	14949.8
831.417	14816.02
831.743	14949.13
832.069	14832.52
832.395	14882.46
832.722	14810.83
833.048	14786.19
833.374	14747.78
833.7	14729.25
834.026	14755.69
834.351	14762.46
834.677	14710.71
835.003	14778.06
835.329	14747.78
835.654	14707.55
835.98	14552.3
836.306	14708.23
836.631	14572.64
836.956	14689.02
837.282	14675.46
837.607	14624.16
837.932	14519.99
838.258	14574.9
838.583	14504.17
838.908	14487.67
839.233	14484.51
839.558	14417.84
839.883	14380.78
840.208	14341.69
840.533	14383.04
840.858	14319.54
841.182	14351.63
841.507	14250.84
841.832	14310.27
842.156	14234.12
842.481	14201.58
842.805	14179.2
843.13	14204.74
843.454	14075.48
843.778	14109.83
844.103	14032.09
844.427	14011.3
844.751	14007
845.075	13870.06
845.399	13949.83
845.723	13847.23
846.047	13919.55
846.371	13771.53
846.695	13657.64
847.019	13622.16
847.343	13642.27
847.666	13506.23
847.99	13352.33
848.313	13429.39
848.637	13313.46
848.96	13280.47
849.284	13266.23
849.607	13137.42
849.931	13169.51
850.254	13024.43
850.577	12994.15
850.9	12922.06
851.223	12953.02
851.546	12903.76
851.869	12764.33
852.192	12829.41
852.515	12787.6
852.838	12732.69
853.161	12767.49
853.483	12554.61
853.806	12570.43
854.129	12568.4
854.451	12558.46
854.774	12465.35
855.096	12365.92
855.419	12441.85
855.741	12385.13
856.063	12312.59
856.385	12244.79
856.708	12192.14
857.03	12214.74
857.352	12172.02
857.674	12139.03
857.996	12022.65
858.318	12035.08
858.64	12032.37
858.961	11990.79
859.283	11912.82
859.605	11888.19
859.926	11895.42
860.248	11838.02
860.57	11847.74
860.891	11750.79
861.212	11774.07
861.534	11592.83
861.855	11632.6
862.176	11647.74
862.498	11664.92
862.819	11668.31
863.14	11606.62
863.461	11612.94
863.782	11538.82
864.103	11543.11
864.424	11469.22
864.745	11537.69
865.065	11480.97
865.386	11451.14
865.707	11424.93
866.027	11507.41
866.348	11376.79
866.668	11438.48
866.989	11313.29
867.309	11319.84
867.63	11322.56
867.95	11328.2
868.27	11165.72
868.59	11313.29
868.91	11189.68
869.23	11202.78
869.55	11256.12
869.87	11209.79
870.19	11146.06
870.51	11075.1
870.83	11139.96
871.15	11035.56
871.469	11077.82
871.789	11098.38
872.109	11059.51
872.428	11029.91
872.748	11008.44
873.067	10947.88
873.386	10987.2
873.706	10982
874.025	10911.72
874.344	10936.35
874.663	10953.75
874.982	10848.67
875.301	10871.27
875.62	10793.76
875.939	10814.55
876.258	10858.16
876.577	10776.58
876.896	10820.42
877.214	10725.51
877.533	10717.37
877.852	10767.99
878.17	10673.98
878.489	10689.58
878.807	10707.2
879.125	10676.92
879.444	10650.26
879.762	10553.54
880.08	10607.32
880.398	10518.51
880.716	10524.84
881.034	10481.67
881.352	10587.21
881.67	10517.6
881.988	10442.58
882.306	10502.46
882.624	10344.28
882.941	10377.5
883.259	10372.75
883.577	10366.87
883.894	10357.38
884.212	10312.41
884.529	10323.03
884.846	10287.33
885.164	10227.22
885.481	10119.42
885.798	10203.49
886.115	10142.47
886.432	10128.24
886.75	10082.59
887.067	10134.11
887.383	10106.77
887.7	10045.75
888.017	10022.02
888.334	10012.08
888.651	10020.22
888.967	9954.46
889.284	9910.16
889.6	9872.65
889.917	9864.29
890.233	9899.09
890.55	9780.68
890.866	9826.1
891.182	9688.25
891.498	9693.45
891.815	9674.46
892.131	9675.59
892.447	9687.34
892.763	9593.79
893.079	9544.07
893.395	9549.04
893.71	9501.59
894.026	9471.76
894.342	9419.78
894.657	9412.1
894.973	9372.55
895.289	9372.32
895.604	9373.68
895.92	9262.5
896.235	9247.13
896.55	9293.23
896.865	9242.16
897.181	9254.36
897.496	9174.82
897.811	9143.63
898.126	9080.35
898.441	9005.55
898.756	9073.57
899.071	9083.29
899.386	9013.46
899.7	8841.72
900.015	8881.26
900.33	8809.4
900.644	8766.92
900.959	8848.72
901.273	8765.56
901.588	8723.08
901.902	8681.72
902.216	8610.54
902.531	8592.91
902.845	8550.2
903.159	8560.82
903.473	8439.69
903.787	8457.77
904.101	8394.95
904.415	8365.57
904.729	8439.24
905.042	8373.71
905.356	8317.44
905.67	8333.93
905.984	8326.48
906.297	8368.06
906.611	8225.46
906.924	8167.16
907.237	8130.77
907.551	8136.2
907.864	8080.83
908.177	8035.64
908.491	8081.74
908.804	7938.69
909.117	7904.11
909.43	7919.48
909.743	7902.76
910.056	7826.83
910.368	7838.58
910.681	7805.81
910.994	7711.12
911.307	7702.54
911.619	7693.05
911.932	7635.19
912.244	7665.7
912.557	7592.71
912.869	7567.17
913.181	7531.69
913.494	7524.01
913.806	7394.98
914.118	7437.23
914.43	7376.9
914.742	7399.27
915.054	7327.63
915.366	7362.43
915.678	7309.55
915.99	7255.54
916.302	7238.37
916.613	7178.48
916.925	7142.1
917.236	7146.17
917.548	7112.95
917.859	7065.72
918.171	7008.32
918.482	6970.13
918.794	6991.6
919.105	7007.19
919.416	6873.18
919.727	6899.62
920.038	6881.54
920.349	6835.67
920.66	6762.45
920.971	6848.77
921.282	6777.59
921.593	6713.41
921.903	6720.19
922.214	6621.44
922.525	6690.81
922.835	6599.52
923.146	6591.38
923.456	6629.12
923.767	6573.98
924.077	6548.22
924.387	6483.13
924.697	6455.11
925.008	6409.01
925.318	6389.13
925.628	6403.14
925.938	6359.07
926.248	6342.35
926.558	6302.57
926.867	6273.42
927.177	6235.46
927.487	6221.67
927.796	6174.67
928.106	6192.75
928.416	6109.13
928.725	6158.85
929.034	6059.87
929.344	6131.05
929.653	6019.42
929.962	6091.05
930.271	5960.44
930.581	5997.05
930.89	5952.75
931.199	5926.77
931.508	5913.21
931.817	5915.92
932.125	5838.18
932.434	5817.84
932.743	5833.43
933.051	5802.25
933.36	5736.26
933.669	5732.65
933.977	5664.85
934.286	5729.71
934.594	5728.13
934.902	5645.42
935.21	5616.26
935.519	5578.3
935.827	5600.9
936.135	5555.02
936.443	5445.2
936.751	5486.1
937.059	5480
937.367	5436.16
937.674	5443.61
937.982	5396.84
938.29	5341.24
938.597	5392.32
938.905	5287.23
939.213	5289.95
939.52	5308.7
939.827	5299.66
940.135	5239.1
940.442	5262.38
940.749	5223.05
941.056	5169.5
941.363	5118.65
941.67	5126.33
941.977	5125.43
942.284	5047.92
942.591	5057.86
942.898	5041.14
943.205	4967.47
943.511	5013.34
943.818	5002.95
944.125	4997.07
944.431	4926.11
944.738	4908.49
945.044	4914.81
945.35	4871.65
945.657	4826.91
945.963	4840.92
946.269	4794.14
946.575	4815.61
946.881	4752.33
947.187	4756.85
947.493	4769.51
947.799	4752.56
948.105	4661.26
948.41	4670.3
948.716	4678.66
949.022	4672.33
949.327	4594.14
949.633	4580.59
949.938	4522.51
950.244	4568.38
950.549	4513.24
950.854	4505.11
951.16	4522.06
951.465	4466.46
951.77	4437.99
952.075	4413.36
952.38	4396.64
952.685	4383.08
952.99	4350.99
953.294	4369.29
953.599	4331.78
953.904	4317.54
954.209	4276.19
954.513	4284.1
954.818	4202.74
955.122	4247.04
955.426	4181.95
955.731	4194.61
956.035	4193.7
956.339	4165.46
956.643	4137.66
956.948	4129.75
957.252	4061.05
957.556	4058.11
957.86	4097.43
958.163	4056.31
958.467	4011.11
958.771	4013.82
959.075	4015.18
959.378	3974.05
959.682	3981.51
959.985	3953.71
960.289	3969.08
960.592	3921.39
960.896	3891.56
961.199	3901.28
961.502	3873.49
961.805	3850.66
962.108	3821.06
962.411	3847.27
962.714	3791.23
963.017	3756.65
963.32	3762.75
963.623	3779.7
963.926	3764.11
964.228	3671.91
964.531	3727.27
964.833	3701.06
965.136	3662.87
965.438	3615.87
965.741	3619.48
966.043	3589.65
966.345	3590.78
966.648	3560.73
966.95	3573.38
967.252	3490.67
967.554	3533.83
967.856	3521.4
968.158	3480.28
968.46	3507.17
968.761	3492.7
969.063	3470.78
969.365	3402.76
969.666	3434.85
969.968	3421.07
970.269	3419.94
970.571	3394.63
970.872	3407.96
971.174	3336.55
971.475	3323.22
971.776	3304.01
972.077	3308.75
972.378	3326.83
972.679	3278.25
972.98	3272.6
973.281	3252.94
973.582	3259.26
973.883	3226.95
974.183	3217.91
974.484	3230.79
974.785	3214.07
975.085	3172.94
975.386	3200.28
975.686	3111.02
975.986	3119.16
976.287	3146.73
976.587	3091.13
976.887	3088.87
977.187	3087.52
977.487	3084.35
977.787	3050.23
978.087	3041.87
978.387	3009.78
978.687	3000.51
978.987	2995.32
979.286	2954.19
979.586	2982.66
979.885	2953.06
980.185	2951.48
980.484	2886.84
980.784	2921.87
981.083	2885.04
981.382	2873.51
981.682	2878.94
981.981	2860.86
982.28	2888.2
982.579	2830.35
982.878	2799.84
983.177	2810.46
983.475	2798.71
983.774	2757.13
984.073	2773.4
984.372	2767.3
984.67	2761.65
984.969	2761.65
985.267	2718.71
985.566	2735.89
985.864	2683.46
986.162	2707.19
986.461	2674.2
986.759	2650.02
987.057	2654.53
987.355	2629.68
987.653	2618.83
987.951	2594.2
988.249	2611.6
988.547	2591.94
988.844	2605.95
989.142	2564.82
989.44	2553.29
989.737	2509
990.035	2538.38
990.332	2508.32
990.63	2482.34
990.927	2511.49
991.224	2492.73
991.521	2489.12
991.819	2444.14
992.116	2431.26
992.413	2439.4
992.71	2451.83
993.006	2416.12
993.303	2425.39
993.6	2414.77
993.897	2400.3
994.193	2372.51
994.49	2370.02
994.787	2359.4
995.083	2319.85
995.379	2291.61
995.676	2327.54
995.972	2271.49
996.268	2281.44
996.565	2300.87
996.861	2286.86
997.157	2277.6
997.453	2233.53
997.749	2230.82
998.044	2236.01
998.34	2224.72
998.636	2196.24
998.932	2186.3
999.227	2166.41
999.523	2128.22
999.818	2132.51
1000.114	2149.69
1000.409	2126.19
1000.704	2117.6
1001	2117.15
1001.295	2088.45
1001.59	2090.26
1001.885	2078.05
1002.18	2027.88
1002.475	2052.06
1002.77	2038.28
1003.065	2034.44
1003.359	2039.86
1003.654	2020.65
1003.949	1972.07
1004.243	1953.99
1004.538	1949.47
1004.832	1958.73
1005.127	1949.69
1005.421	1916.48
1005.715	1941.79
1006.009	1947.43
1006.304	1888
1006.598	1888.91
1006.892	1908.57
1007.186	1862.24
1007.48	1860.43
1007.773	1863.82
1008.067	1838.51
1008.361	1821.34
1008.655	1808.46
1008.948	1815.01
1009.242	1802.58
1009.535	1775.24
1009.829	1807.55
1010.122	1777.27
1010.415	1778.17
1010.708	1730.27
1011.001	1735.46
1011.295	1719.19
1011.588	1708.34
1011.881	1692.75
1012.173	1699.76
1012.466	1692.3
1012.759	1682.36
1013.052	1678.29
1013.344	1673.77
1013.637	1647.56
1013.93	1624.51
1014.222	1637.16
1014.514	1598.97
1014.807	1607.56
1015.099	1635.58
1015.391	1587.44
1015.683	1578.18
1015.976	1554.68
1016.268	1573.21
1016.56	1563.94
1016.851	1522.59
1017.143	1508.8
1017.435	1537.5
1017.727	1487.33
1018.018	1485.53
1018.31	1483.27
1018.602	1501.12
1018.893	1468.35
1019.185	1464.51
1019.476	1473.77
1019.767	1494.34
1020.058	1444.17
1020.35	1417.96
1020.641	1414.79
1020.932	1408.69
1021.223	1374.34
1021.514	1423.15
1021.804	1415.92
1022.095	1384.06
1022.386	1365.08
1022.677	1369.37
1022.967	1388.35
1023.258	1335.25
1023.548	1315.13
1023.839	1343.61
1024.129	1327.56
1024.419	1275.81
1024.709	1299.09
1025	1317.39
1025.29	1270.62
1025.58	1265.42
1025.87	1246.89
1026.16	1266.32
1026.449	1269.71
1026.739	1235.59
1027.029	1217.74
1027.319	1217.96
1027.608	1225.19
1027.898	1197.17
1028.187	1205.99
1028.477	1190.84
1028.766	1199.88
1029.055	1178.42
1029.344	1184.06
1029.634	1175.25
1029.923	1154.01
1030.212	1135.93
1030.501	1152.2
1030.79	1102.49
1031.078	1114.91
1031.367	1117.17
1031.656	1113.56
1031.945	1104.52
1032.233	1103.39
1032.522	1067.46
1032.81	1083.73
1033.099	1109.72
1033.387	1074.69
1033.675	1081.92
1033.963	1062.71
1034.251	1037.63
1034.54	1024.52
1034.828	1013
1035.116	998.08
1035.403	1025.65
1035.691	1024.3
1035.979	1001.02
1036.267	1018.87
1036.554	991.98
1036.842	971.87
1037.129	988.59
1037.417	963.05
1037.704	961.25
1037.992	974.35
1038.279	937.97
1038.566	948.14
1038.853	948.14
1039.14	948.14
