Data from hue_290_FLMS001491_00043.txt Node
Date: Tue Feb 07 15:52:47 GMT 2017
User: dcchb
Spectrometer: FLMS00149
Trigger mode: 0
Integration Time (sec): 2.000000E-2
Scans to average: 10
Electric dark correction enabled: true
Nonlinearity correction enabled: false
Boxcar width: 0
XAxis mode: Wavelengths
Number of Pixels in Spectrum: 2048
>>>>>Begin Spectral Data<<<<<
341.393	-32.57
341.776	-32.57
342.16	-32.57
342.543	-33.7
342.927	-67.6
343.31	-90.65
343.693	-57.65
344.077	-57.2
344.46	-63.98
344.843	-42.74
345.226	-51.55
345.61	-30.31
345.993	7.43
346.376	2.91
346.759	-2.06
347.142	36.81
347.525	34.77
347.908	49.01
348.291	73.19
348.674	82.91
349.057	109.12
349.44	110.03
349.823	145.96
350.206	160.42
350.588	196.58
350.971	190.25
351.354	204.94
351.737	246.29
352.119	233.86
352.502	232.06
352.884	258.72
353.267	285.39
353.65	282.9
354.032	302.34
354.414	305.73
354.797	306.86
355.179	300.08
355.562	309.34
355.944	326.74
356.326	322.9
356.709	337.14
357.091	335.33
357.473	310.7
357.855	338.49
358.238	329.91
358.62	337.59
359.002	327.65
359.384	319.29
359.766	314.99
360.148	324.26
360.53	335.78
360.912	321.09
361.294	341.66
361.676	300.75
362.057	337.14
362.439	326.29
362.821	335.56
363.203	319.74
363.584	312.51
363.966	328.32
364.348	318.38
364.729	328.55
365.111	309.12
365.493	317.48
365.874	317.03
366.256	314.77
366.637	309.79
367.019	306.4
367.4	307.99
367.781	303.24
368.163	311.15
368.544	311.38
368.925	319.96
369.306	313.64
369.688	313.18
370.069	310.47
370.45	299.17
370.831	298.04
371.212	321.09
371.593	291.94
371.974	319.51
372.355	307.53
372.736	299.4
373.117	324.93
373.498	318.16
373.879	317.48
374.26	310.47
374.641	303.69
375.021	306.18
375.402	320.42
375.783	321.55
376.163	319.51
376.544	322.22
376.925	308.21
377.305	351.83
377.686	338.04
378.066	341.88
378.447	340.98
378.827	332.39
379.208	337.14
379.588	324.93
379.968	334.65
380.349	343.47
380.729	329.68
381.109	323.13
381.489	327.87
381.87	331.71
382.25	323.81
382.63	324.26
383.01	346.4
383.39	359.51
383.77	347.76
384.15	343.47
384.53	335.78
384.91	336.46
385.29	339.85
385.67	348.89
386.049	349.57
386.429	354.31
386.809	349.12
387.189	360.19
387.568	351.15
387.948	357.93
388.328	371.71
388.707	360.41
389.087	370.58
389.466	358.83
389.846	364.26
390.225	382.33
390.605	354.76
390.984	352.28
391.363	363.35
391.743	375.78
392.122	398.83
392.501	374.65
392.881	362.45
393.26	363.13
393.639	384.82
394.018	393.86
394.397	397.48
394.776	396.12
395.155	393.63
395.534	383.24
395.913	405.61
396.292	397.25
396.671	418.49
397.05	410.36
397.429	409.23
397.808	393.18
398.186	422.56
398.565	420.53
398.944	402.9
399.323	411.26
399.701	427.76
400.08	402.67
400.458	417.36
400.837	414.65
401.215	443.8
401.594	426.4
401.972	421.2
402.351	430.24
402.729	444.03
403.107	415.1
403.486	456.91
403.864	442.9
404.242	454.88
404.62	451.26
404.999	450.81
405.377	490.81
405.755	446.51
406.133	461.65
406.511	459.85
406.889	474.76
407.267	482.22
407.645	496
408.023	498.26
408.401	485.38
408.779	497.13
409.156	500.07
409.534	529
409.912	514.53
410.29	532.84
410.667	524.48
411.045	546.62
411.422	554.99
411.8	553.86
412.178	578.04
412.555	573.74
412.933	572.16
413.31	589.79
413.687	605.15
414.065	603.35
414.442	627.07
414.819	603.8
415.197	637.24
415.574	635.89
415.951	622.55
416.328	641.99
416.705	642.89
417.082	660.29
417.46	683.12
417.837	668.43
418.214	669.78
418.591	713.63
418.967	670.91
419.344	705.26
419.721	717.47
420.098	713.4
420.475	763.79
420.852	715.43
421.228	747.52
421.605	735.09
421.982	765.15
422.358	792.04
422.735	770.12
423.111	781.65
423.488	788.88
423.864	818.48
424.241	823.9
424.617	825.26
424.994	841.53
425.37	845.15
425.746	839.05
426.123	865.49
426.499	886.95
426.875	888.54
427.251	900.74
427.627	900.74
428.003	906.16
428.379	948.42
428.756	958.59
429.132	954.97
429.507	949.1
429.883	993.84
430.259	997.23
430.635	1010.11
431.011	1017.35
431.387	1022.77
431.763	1023.45
432.138	1040.17
432.514	1071.58
432.89	1082.43
433.265	1087.17
433.641	1099.38
434.016	1118.13
434.392	1134.18
434.767	1132.6
435.143	1179.6
435.518	1187.96
435.894	1204.01
436.269	1203.33
436.644	1233.39
437.02	1225.02
437.395	1255.31
437.77	1241.07
438.145	1277.45
438.52	1297.56
438.895	1280.62
439.271	1287.4
439.646	1341.41
440.021	1364
440.395	1353.16
440.77	1342.99
441.145	1367.17
441.52	1379.6
441.895	1385.7
442.27	1400.39
442.645	1394.51
443.019	1397.9
443.394	1393.16
443.769	1433.83
444.143	1429.76
444.518	1440.84
444.892	1433.15
445.267	1448.97
445.641	1472.25
446.016	1459.14
446.39	1488.07
446.764	1482.87
447.139	1501.4
447.513	1515.19
447.887	1504.79
448.262	1511.8
448.636	1526.71
449.01	1544.79
449.384	1548.18
449.758	1557.44
450.132	1557.9
450.506	1561.51
450.88	1598.35
451.254	1568.97
451.628	1594.73
452.002	1596.54
452.376	1637.89
452.75	1625.24
453.123	1642.87
453.497	1668.18
453.871	1654.17
454.244	1686.71
454.618	1676.76
454.992	1710.66
455.365	1691.23
455.739	1721.28
456.112	1751.79
456.486	1777.78
456.859	1789.3
457.232	1797.89
457.606	1783.43
457.979	1803.54
458.352	1827.49
458.725	1843.54
459.099	1883.76
459.472	1905.01
459.845	1906.36
460.218	1939.58
460.591	1956.08
460.964	1943.42
461.337	1981.39
461.71	1989.75
462.083	2015.96
462.456	2014.16
462.829	2056.19
463.201	2024.55
463.574	2062.52
463.947	2062.74
464.32	2117.66
464.692	2078.56
465.065	2139.12
465.438	2131.22
465.81	2191.55
466.183	2194.26
466.555	2246.24
466.928	2227.03
467.3	2226.81
467.672	2241.27
468.045	2305.67
468.417	2315.39
468.789	2313.36
469.161	2336.86
469.534	2377.76
469.906	2431.55
470.278	2445.11
470.65	2427.93
471.022	2489.17
471.394	2518.1
471.766	2541.6
472.138	2541.83
472.51	2592.67
472.882	2636.29
473.253	2626.57
473.625	2676.29
473.997	2736.85
474.369	2729.17
474.74	2744.76
475.112	2788.6
475.484	2801.03
475.855	2904.98
476.227	2859.78
476.598	2936.62
476.97	2970.29
477.341	2984.53
477.713	3047.8
478.084	3034.02
478.455	3081.47
478.827	3087.57
479.198	3234.24
479.569	3200.34
479.94	3301.13
480.311	3259.1
480.682	3319.88
481.053	3379.77
481.424	3434.46
481.795	3487.56
482.166	3458.86
482.537	3540.44
482.908	3586.32
483.279	3598.52
483.65	3641.68
484.021	3707.44
484.391	3752.19
484.762	3763.71
485.133	3752.64
485.503	3801.68
485.874	3895.69
486.244	3892.07
486.615	3962.81
486.985	4024.05
487.356	4056.59
487.726	4060.66
488.097	4145.85
488.467	4113.99
488.837	4242.57
489.207	4263.14
489.578	4312.4
489.948	4307.43
490.318	4416.8
490.688	4410.25
491.058	4414.32
491.428	4514.43
491.798	4518.95
492.168	4603.47
492.538	4602.11
492.908	4682.11
493.278	4672.17
493.648	4713.07
494.017	4768.89
494.387	4774.08
494.757	4800.75
495.126	4864.25
495.496	4816.79
495.866	4906.06
496.235	4880.75
496.605	5007.98
496.974	4962.55
497.344	5009.56
497.713	5028.31
498.082	5133.4
498.452	5088.88
498.821	5124.81
499.19	5100.4
499.559	5114.64
499.928	5170.91
500.298	5178.14
500.667	5238.93
501.036	5212.72
501.405	5281.87
501.774	5335.42
502.143	5321.64
502.512	5358.47
502.88	5395.76
503.249	5375.88
503.618	5418.59
503.987	5454.52
504.356	5468.3
504.724	5455.87
505.093	5506.04
505.462	5514.18
505.83	5558.47
506.199	5589.66
506.567	5632.37
506.936	5618.81
507.304	5655.19
507.672	5679.14
508.041	5651.57
508.409	5697.22
508.777	5744.23
509.145	5728.63
509.514	5728.18
509.882	5810.44
510.25	5783.55
510.618	5824.45
510.986	5875.98
511.354	5914.17
511.722	5896.54
512.09	5967.05
512.458	5914.84
512.826	5935.63
513.193	5965.24
513.561	5982.64
513.929	6045.69
514.297	6073.71
514.664	6123.65
515.032	6134.95
515.4	6152.8
515.767	6168.85
516.135	6187.38
516.502	6127.49
516.869	6215.63
517.237	6230.77
517.604	6187.38
517.972	6273.71
518.339	6297.21
518.706	6294.72
519.073	6266.25
519.44	6294.72
519.808	6395.28
520.175	6360.03
520.542	6450.42
520.909	6446.36
521.276	6436.64
521.643	6450.2
522.009	6506.47
522.376	6552.79
522.743	6552.79
523.11	6617.2
523.477	6691.55
523.843	6636.41
524.21	6715.05
524.577	6773.8
524.943	6796.18
525.31	6753.92
525.676	6842.28
526.043	6909.62
526.409	6920.24
526.776	6981.48
527.142	6973.8
527.508	7003.63
527.874	7025.78
528.241	7032.56
528.607	7141.48
528.973	7131.31
529.339	7167.24
529.705	7199.33
530.071	7204.98
530.437	7259.22
530.803	7294.92
531.169	7301.7
531.535	7338.76
531.901	7351.87
532.267	7392.77
532.632	7447.23
532.998	7432.54
533.364	7437.74
533.73	7455.14
534.095	7492.43
534.461	7583.73
534.826	7570.62
535.192	7585.99
535.557	7644.97
535.923	7658.3
536.288	7670.05
536.653	7721.58
537.019	7639.09
537.384	7725.19
537.749	7771.29
538.114	7780.33
538.479	7816.26
538.845	7814
539.21	7836.83
539.575	7905.07
539.94	7862.59
540.305	7836.6
540.67	7881.57
541.034	7907.56
541.399	7972.19
541.764	8013.32
542.129	8010.16
542.494	7994.56
542.858	8074.79
543.223	8112.07
543.587	8108.23
543.952	8109.82
544.316	8221.9
544.681	8158.85
545.045	8125.41
545.41	8134.22
545.774	8257.61
546.138	8228
546.503	8230.72
546.867	8226.2
547.231	8333.99
547.595	8284.5
547.959	8394.78
548.324	8422.35
548.688	8428.9
549.052	8432.29
549.416	8419.86
549.779	8425.51
550.143	8455.12
550.507	8538.5
550.871	8517.49
551.235	8519.97
551.599	8559.75
551.962	8586.86
552.326	8554.55
552.689	8706.41
553.053	8590.93
553.417	8556.36
553.78	8707.99
554.143	8744.37
554.507	8736.01
554.87	8709.8
555.234	8789.8
555.597	8700.08
555.96	8753.41
556.323	8833.19
556.686	8813.3
557.05	8851.94
557.413	8861.66
557.776	8913.18
558.139	8900.08
558.502	8946.63
558.865	8947.99
559.228	9036.57
559.59	8996.57
559.953	9021.66
560.316	9139.62
560.679	9115.66
561.041	9193.18
561.404	9221.65
561.767	9262.55
562.129	9175.78
562.492	9285.6
562.854	9263.68
563.217	9263.01
563.579	9328.99
563.941	9390.01
564.304	9395.66
564.666	9477.69
565.028	9425.49
565.39	9481.53
565.753	9525.37
566.115	9484.92
566.477	9538.03
566.839	9536.22
567.201	9625.71
567.563	9695.99
567.925	9767.17
568.287	9755.87
568.648	9749.32
569.01	9752.03
569.372	9824.8
569.734	9842.2
570.095	9865.02
570.457	10010.1
570.819	9997.9
571.18	10008.97
571.542	10004
571.903	10058.92
572.265	10127.16
572.626	10108.41
572.987	10140.27
573.349	10173.49
573.71	10297.55
574.071	10234.28
574.432	10372.81
574.794	10448.28
575.155	10457.55
575.516	10438.12
575.877	10527.83
576.238	10544.1
576.599	10648.51
576.96	10683.98
577.32	10703.87
577.681	10783.87
578.042	10876.75
578.403	10873.13
578.763	10893.24
579.124	11022.96
579.485	11140.02
579.845	11147.48
580.206	11192.9
580.566	11306.57
580.927	11328.26
581.287	11478.54
581.648	11466.79
582.008	11579.55
582.368	11668.14
582.728	11868.13
583.089	11917.17
583.449	11956.72
583.809	12053.67
584.169	12190.84
584.529	12215.7
584.889	12377.5
585.249	12465.63
585.609	12547.89
585.969	12749.02
586.329	12792.4
586.688	12901.1
587.048	13005.28
587.408	13078.5
587.768	13253.86
588.127	13363.01
588.487	13395.33
588.846	13698.82
589.206	13660.4
589.565	13781.76
589.925	14021.98
590.284	14111.69
590.643	14323.89
591.003	14509.19
591.362	14646.82
591.721	14747.61
592.08	14832.58
592.44	14991.44
592.799	15040.48
593.158	15216.52
593.517	15410.87
593.876	15552.33
594.235	15681.14
594.593	15872.1
594.952	15999.33
595.311	16098.76
595.67	16176.27
596.029	16403.61
596.387	16582.36
596.746	16748.01
597.104	16721.11
597.463	17013.99
597.822	17082.69
598.18	17123.59
598.538	17331.49
598.897	17482.68
599.255	17514.31
599.613	17797.02
599.972	17764.48
600.33	17859.84
600.688	17966.73
601.046	18173.05
601.404	18249.21
601.762	18286.5
602.12	18491.46
602.478	18700.05
602.836	18646.04
603.194	18729.2
603.552	18793.83
603.91	18892.13
604.268	19040.6
604.625	19057.78
604.983	19325.57
605.341	19241.27
605.698	19439.01
606.056	19609.85
606.413	19630.19
606.771	19766.01
607.128	19823.18
607.485	19798.55
607.843	19930.3
608.2	20170.29
608.557	20326.22
608.914	20198.08
609.272	20359.66
609.629	20409.38
609.986	20607.34
610.343	20519.66
610.7	20774.57
611.057	20815.92
611.414	20920.55
611.771	20954
612.127	21040.55
612.484	21102.47
612.841	21201.45
613.198	21133.65
613.554	21161
613.911	21332.97
614.267	21432.18
614.624	21415
614.98	21602.34
615.337	21638.72
615.693	21676.24
616.05	21619.52
616.406	21832.17
616.762	21771.6
617.118	21809.34
617.475	21816.57
617.831	22061.31
618.187	22073.29
618.543	22058.83
618.899	22257.01
619.255	22218.37
619.611	22172.72
619.967	22279.84
620.323	22442.77
620.678	22266.5
621.034	22357.12
621.39	22363.23
621.746	22452.94
622.101	22706.27
622.457	22475.99
622.812	22522.54
623.168	22662.2
623.523	22632.82
623.879	22713.27
624.234	22654.97
624.589	22715.08
624.945	22778.36
625.3	22706.27
625.655	22800.05
626.01	22715.98
626.365	22854.29
626.72	22834.4
627.075	22761.18
627.43	22777.45
627.785	22763.67
628.14	22882.99
628.495	22811.12
628.85	22741.75
629.205	22839.82
629.559	22923.66
629.914	22913.27
630.269	22843.66
630.623	22905.81
630.978	22848.18
631.332	22935.19
631.687	22898.13
632.041	22835.3
632.396	22939.71
632.75	22838.02
633.104	22828.3
633.459	22778.81
633.813	22734.06
634.167	22843.21
634.521	22861.97
634.875	22818.13
635.229	22784.68
635.583	22694.52
635.937	22765.02
636.291	22727.51
636.645	22671.01
636.999	22666.95
637.352	22832.14
637.706	22671.47
638.06	22671.01
638.413	22695.42
638.767	22613.39
639.121	22676.89
639.474	22504.92
639.828	22558.02
640.181	22581.75
640.534	22626.95
640.888	22619.49
641.241	22433.96
641.594	22580.39
641.947	22597.12
642.301	22509.89
642.654	22534.29
643.007	22624.46
643.36	22528.19
643.713	22306.28
644.066	22575.65
644.419	22288.43
644.771	22335.88
645.124	22142.67
645.477	22087.75
645.83	22041.65
646.182	21962.33
646.535	21846.18
646.888	21777.25
647.24	21687.09
647.593	21861.09
647.945	21805.95
648.298	21637.59
648.65	21696.35
649.002	21649.35
649.355	21835.56
649.707	21739.51
650.059	21810.7
650.411	21990.58
650.763	22121.42
651.115	22372.26
651.467	22311.7
651.819	22248.2
652.171	22211.37
652.523	22214.53
652.875	22209.78
653.227	22079.62
653.578	22310.12
653.93	22204.36
654.282	22133.63
654.633	22208.88
654.985	22216.56
655.337	22173.63
655.688	22324.81
656.039	22289.56
656.391	22120.97
656.742	22286.39
657.094	22210.24
657.445	22411.13
657.796	22225.15
658.147	22243.68
658.498	22294.75
658.849	22247.52
659.2	22352.38
659.551	22254.3
659.902	22261.31
660.253	22281.65
660.604	22202.55
660.955	22161.2
661.306	22266.5
661.656	22286.17
662.007	22271.02
662.358	22306.05
662.708	22294.75
663.059	22268.76
663.409	22292.27
663.76	22365.49
664.11	22396.22
664.461	22305.15
664.811	22415.2
665.161	22363.9
665.511	22321.64
665.862	22301.08
666.212	22379.5
666.562	22321.64
666.912	22246.17
667.262	22277.8
667.612	22340.18
667.962	22317.58
668.312	22431.92
668.662	22389.89
669.011	22277.8
669.361	22231.48
669.711	22359.38
670.06	22244.81
670.41	22143.8
670.76	22207.98
671.109	22335.2
671.459	22203.68
671.808	22153.29
672.157	22265.6
672.507	22118.03
672.856	22102.44
673.205	22129.56
673.554	22222.21
673.904	22039.62
674.253	22270.35
674.602	22175.21
674.951	21824.71
675.3	21651.61
675.649	22038.94
675.998	22032.61
676.346	22048.88
676.695	22084.14
677.044	21867.42
677.393	22024.7
677.741	22008.66
678.09	21887.53
678.438	21818.83
678.787	21865.84
679.135	21896.35
679.484	21837.82
679.832	21797.14
680.181	21648.22
680.529	21720.08
680.877	21703.13
681.225	21502.23
681.573	21817.03
681.922	21612.06
682.27	21521.89
682.618	21653.19
682.966	21469.01
683.314	21513.53
683.661	21464.49
684.009	21374.55
684.357	21305.85
684.705	21362.57
685.053	21367.09
685.4	21272.86
685.748	21167.78
686.095	21192.63
686.443	21166.65
686.79	21025.41
687.138	21102.92
687.485	21053.2
687.832	20951.96
688.18	20945.41
688.527	20791.06
688.874	20747.22
689.221	20727.56
689.568	20737.05
689.915	20652.08
690.262	20657.96
690.609	20536.83
690.956	20460.45
691.303	20404.41
691.65	20335.93
691.997	20322.6
692.344	20217.29
692.69	20149.5
693.037	20091.87
693.383	20029.05
693.73	20074.7
694.077	20006
694.423	19942.27
694.769	19834.48
695.116	19723.97
695.462	19898.66
695.808	19617.54
696.155	19848.72
696.501	19491.66
696.847	19586.58
697.193	19414.6
697.539	19501.38
697.885	19321.27
698.231	19180.26
698.577	19297.32
698.923	19215.96
699.269	19057.55
699.614	18961.51
699.96	18876.99
700.306	18942.3
700.651	18870.44
700.997	18714.06
701.342	18695.53
701.688	18619.37
702.033	18700.72
702.379	18706.37
702.724	18527.17
703.069	18512.48
703.415	18288.53
703.76	18346.83
704.105	18368.75
704.45	18272.03
704.795	18179.83
705.14	17989.1
705.485	18013.74
705.83	17988.2
706.175	17975.54
706.52	17858.26
706.865	17865.72
707.209	17901.65
707.554	17741.2
707.899	17776
708.243	17661.43
708.588	17604.93
708.932	17569
709.277	17565.61
709.621	17514.99
709.966	17408.55
710.31	17427.08
710.654	17199.52
710.998	17260.08
711.342	17260.76
711.687	17111.61
712.031	17053.08
712.375	17123.14
712.719	17093.99
713.063	16973.99
713.407	17119.3
713.75	16990.03
714.094	17008.11
714.438	16891.05
714.782	16825.74
715.125	16807.44
715.469	16895.8
715.812	16870.49
716.156	16681.57
716.499	16700.78
716.843	16699.42
717.186	16654.68
717.53	16652.87
717.873	16675.24
718.216	16573.77
718.559	16603.83
718.902	16497.39
719.246	16451.06
719.589	16379.88
719.932	16418.98
720.275	16329.26
720.617	16362.71
720.96	16318.64
721.303	16425.98
721.646	16352.54
721.989	16236.16
722.331	16303.27
722.674	16317.51
723.016	16265.76
723.359	16257.85
723.701	16319.09
724.044	16067.35
724.386	16117.51
724.729	16180.79
725.071	16000.23
725.413	16037.06
725.755	15987.12
726.097	15978.31
726.439	15870.74
726.782	15870.74
727.124	16104.86
727.465	15899.67
727.807	15924.52
728.149	15976.73
728.491	15879.1
728.833	15959.1
729.175	15886.11
729.516	15803.85
729.858	15855.37
730.199	15820.12
730.541	15781.25
730.882	15879.33
731.224	15910.51
731.565	15880.91
731.906	15794.36
732.248	15811.76
732.589	15807.47
732.93	15747.13
733.271	15758.2
733.612	15820.12
733.953	15819.44
734.294	15715.26
734.635	15662.61
734.976	15771.99
735.317	15709.16
735.658	15593.69
735.999	15710.75
736.339	15662.84
736.68	15764.08
737.021	15664.64
737.361	15588.26
737.702	15796.84
738.042	15696.51
738.383	15668.03
738.723	15801.36
739.063	15659.67
739.404	15729.05
739.744	15694.02
740.084	15609.05
740.424	15727.47
740.764	15638.88
741.104	15842.95
741.444	15659.45
741.784	15671.65
742.124	15792.1
742.464	15773.34
742.804	15752.78
743.143	15703.06
743.483	15810.18
743.823	15750.97
744.162	15837.07
744.502	15836.62
744.841	15887.69
745.181	15935.37
745.52	15890.18
745.86	15948.03
746.199	15961.36
746.538	16047.46
746.877	16114.58
747.216	16137.4
747.556	16169.72
747.895	16161.81
748.234	16234.8
748.573	16268.92
748.911	16298.75
749.25	16390.5
749.589	16381.91
749.928	16497.84
750.267	16570.38
750.605	16589.14
750.944	16704.17
751.283	16720.66
751.621	16893.99
751.96	16897.15
752.298	16969.47
752.636	17086.53
752.975	17109.13
753.313	17177.83
753.651	17352.28
753.989	17395.9
754.327	17509.57
754.666	17474.77
755.004	17651.49
755.342	17736.45
755.679	17950.23
756.017	17883.34
756.355	18097.35
756.693	18191.58
757.031	18226.61
757.368	18389.54
757.706	18415.98
758.044	18579.37
758.381	18674.28
758.719	18808.06
759.056	18936.87
759.394	19001.73
759.731	18971.68
760.068	19143.65
760.405	19193.82
760.743	19281.95
761.08	19441.49
761.417	19639.23
761.754	19601.94
762.091	19807.59
762.428	19768.04
762.765	19776.85
763.102	20029.95
763.438	19953.57
763.775	20046.45
764.112	20232.89
764.449	20400.79
764.785	20361.02
765.122	20343.39
765.458	20371.87
765.795	20484.63
766.131	20530.96
766.467	20576.38
766.804	20602.82
767.14	20668.58
767.476	20751.06
767.812	20749.48
768.148	20886.2
768.485	20890.04
768.821	20853.21
769.157	20909.48
769.492	21009.81
769.828	20909.48
770.164	20900.44
770.5	21069.93
770.836	20984.28
771.171	20895.69
771.507	21011.17
771.842	20892.98
772.178	21008.46
772.513	20888.91
772.849	20944.73
773.184	20925.07
773.519	20966.43
773.855	20888.46
774.19	20913.32
774.525	20921.91
774.86	20983.37
775.195	20945.41
775.53	20878.97
775.865	20872.19
776.2	20840.1
776.535	20782.25
776.87	20712.87
777.205	20728.47
777.539	20655.47
777.874	20823.61
778.209	20630.39
778.543	20574.35
778.878	20547.91
779.212	20492.77
779.547	20488.02
779.881	20531.86
780.215	20493.44
780.55	20418.42
780.884	20489.83
781.218	20309.49
781.552	20318.31
781.886	20259.78
782.22	20153.34
782.554	20116.73
782.888	19975.27
783.222	20011.42
783.556	19914.25
783.889	19868.6
784.223	19876.06
784.557	19770.53
784.89	19899.56
785.224	19721.26
785.557	19600.13
785.891	19593.13
786.224	19653.47
786.558	19561.04
786.891	19469.06
787.224	19364.89
787.557	19362.17
787.891	19350.2
788.224	19402.63
788.557	19212.35
788.89	19228.39
789.223	19207.38
789.556	19062.07
789.888	19067.27
790.221	19016.87
790.554	18852.58
790.887	18844.45
791.219	18800.61
791.552	18740.72
791.884	18675.86
792.217	18654.4
792.549	18499.82
792.882	18466.15
793.214	18387.96
793.546	18439.94
793.879	18334.4
794.211	18130.12
794.543	18312.71
794.875	18222.09
795.207	18353.16
795.539	18262.54
795.871	18124.24
796.203	18034.75
796.535	17887.64
796.867	17792.95
797.198	17811.48
797.53	17811.03
797.862	17730.58
798.193	17809
798.525	17661.88
798.856	17646.51
799.188	17516.12
799.519	17421.43
799.85	17298.27
800.182	17397.25
800.513	17352.28
800.844	17187.77
801.175	17345.05
801.506	17236.13
801.837	17156.13
802.168	17157.03
802.499	17025.96
802.83	16973.31
803.161	16980.77
803.491	16962.24
803.822	16946.42
804.153	16788.46
804.483	16736.48
804.814	16665.3
805.145	16759.98
805.475	16729.93
805.805	16539.42
806.136	16641.57
806.466	16596.82
806.796	16509.59
807.126	16460.56
807.457	16322.93
807.787	16330.62
808.117	16231.41
808.447	16244.97
808.777	16251.97
809.107	16163.39
809.436	16152.09
809.766	16025.54
810.096	16039.78
810.426	16007.91
810.755	15997.97
811.085	15956.16
811.414	15998.2
811.744	15856.73
812.073	15762.04
812.403	15856.96
812.732	15676.4
813.061	15660.12
813.39	15661.25
813.719	15574.7
814.049	15712.33
814.378	15571.54
814.707	15554.14
815.036	15500.36
815.365	15425.33
815.693	15289.97
816.022	15261.27
816.351	15307.59
816.68	15202.74
817.008	15292
817.337	15161.16
817.665	15116.64
817.994	15202.96
818.322	15105.34
818.651	15039.12
818.979	15048.16
819.307	15031.89
819.636	14980.37
819.964	14857.66
820.292	14867.83
820.62	14928.62
820.948	14844.55
821.276	14853.37
821.604	14833.03
821.932	14851.11
822.259	14897.43
822.587	14848.39
822.915	14786.48
823.243	14868.06
823.57	14795.97
823.898	14872.58
824.225	14774.95
824.553	14747.83
824.88	14808.62
825.207	14841.84
825.535	14705.57
825.862	14857.43
826.189	14800.03
826.516	14821.73
826.843	14896.98
827.17	14899.92
827.497	14850.43
827.824	14786.48
828.151	14799.36
828.478	14808.85
828.805	14855.63
829.131	14788.28
829.458	14777.44
829.785	14758.23
830.111	14764.56
830.438	14783.99
830.764	14796.19
831.09	14765.69
831.417	14662.41
831.743	14757.1
832.069	14763.88
832.395	14655.18
832.722	14726.82
833.048	14698.12
833.374	14716.42
833.7	14658.8
834.026	14662.19
834.351	14663.77
834.677	14645.46
835.003	14649.08
835.329	14540.61
835.654	14536.76
835.98	14573.37
836.306	14562.3
836.631	14502.64
836.956	14498.12
837.282	14534.28
837.607	14555.07
837.932	14480.72
838.258	14402.3
838.583	14390.78
838.908	14353.49
839.233	14287.28
839.558	14335.64
839.883	14226.26
840.208	14190.79
840.533	14235.53
840.858	14212.48
841.182	14221.07
841.507	14186.72
841.832	14103.56
842.156	14092.48
842.481	14063.33
842.805	14050.68
843.13	14042.09
843.454	13958.25
843.778	13982.43
844.103	13897.91
844.427	13887.74
844.751	13915.76
845.075	13863.11
845.399	13803.22
845.723	13733.85
846.047	13818.82
846.371	13663.79
846.695	13593.96
847.019	13518.71
847.343	13490.69
847.666	13395.78
847.99	13319.4
848.313	13356.68
848.637	13230.58
848.96	13175.44
849.284	13193.75
849.607	13019.97
849.931	13047.99
850.254	12928.45
850.577	12936.58
850.9	12854.1
851.223	12859.97
851.546	12733.87
851.869	12624.27
852.192	12746.08
852.515	12625.4
852.838	12612.07
853.161	12585.63
853.483	12403.26
853.806	12532.07
854.129	12404.84
854.451	12360.55
854.774	12372.98
855.096	12290.95
855.419	12298.41
855.741	12289.82
856.063	12112.2
856.385	12187.22
856.708	12079.43
857.03	12038.3
857.352	12055.02
857.674	11977.51
857.996	11984.06
858.318	11884.86
858.64	11878.53
858.961	11870.39
859.283	11784.29
859.605	11714.69
859.926	11803.73
860.248	11815.03
860.57	11648.93
860.891	11709.72
861.212	11605.77
861.534	11553.11
861.855	11580.46
862.176	11603.96
862.498	11600.12
862.819	11551.08
863.14	11450.52
863.461	11516.28
863.782	11381.82
864.103	11447.35
864.424	11356.96
864.745	11485.32
865.065	11300.24
865.386	11197.87
865.707	11323.29
866.027	11333.46
866.348	11239
866.668	11244.87
866.989	11224.99
867.309	11167.36
867.63	11114.26
867.95	11174.14
868.27	11057.53
868.59	11074.26
868.91	11074.26
869.23	11098.66
869.55	10973.47
869.87	11016.86
870.19	11017.08
870.51	10967.82
870.83	11034.26
871.15	10888.95
871.469	10928.05
871.789	10986.58
872.109	10896.86
872.428	10875.39
872.748	10906.35
873.067	10895.05
873.386	10805.34
873.706	10880.59
874.025	10748.84
874.344	10801.5
874.663	10777.77
874.982	10733.25
875.301	10710.42
875.62	10797.43
875.939	10686.02
876.258	10660.71
876.577	10692.35
876.896	10673.36
877.214	10665.45
877.533	10634.27
877.852	10649.64
878.17	10654.15
878.489	10653.48
878.807	10509.07
879.125	10559.24
879.444	10604.44
879.762	10457.1
880.08	10414.84
880.398	10490.32
880.716	10523.31
881.034	10390.66
881.352	10411
881.67	10351.34
881.988	10402.41
882.306	10309.76
882.624	10321.96
882.941	10242.87
883.259	10262.53
883.577	10254.17
883.894	10145.02
884.212	10182.75
884.529	10152.02
884.846	10203.09
885.164	10045.13
885.481	10105.92
885.798	10139.59
886.115	9990.44
886.432	9987.96
886.75	10065.47
887.067	10006.49
887.383	9925.13
887.7	9927.39
888.017	9879.49
888.334	9920.61
888.651	9821.18
888.967	9813.73
889.284	9748.64
889.6	9719.26
889.917	9664.12
890.233	9743.9
890.55	9622.54
890.866	9637.23
891.182	9656.22
891.498	9621.64
891.815	9604.69
892.131	9488.54
892.447	9466.62
892.763	9458.25
893.079	9521.3
893.395	9390.23
893.71	9409.67
894.026	9356.11
894.342	9359.5
894.657	9263.46
894.973	9247.86
895.289	9263.23
895.604	9266.85
895.92	9126.51
896.235	9179.84
896.55	9140.97
896.865	9084.25
897.181	9134.65
897.496	9105.95
897.811	8972.84
898.126	8973.52
898.441	8918.38
898.756	8926.97
899.071	8888.1
899.386	8846.07
899.7	8733.53
900.015	8768.1
900.33	8706.41
900.644	8672.29
900.959	8660.99
901.273	8628.67
901.588	8601.78
901.902	8592.29
902.216	8604.27
902.531	8551.16
902.845	8460.77
903.159	8417.38
903.473	8470.26
903.787	8396.14
904.101	8278.85
904.415	8346.87
904.729	8309.81
905.042	8255.57
905.356	8212.86
905.67	8278.17
905.984	8198.85
906.297	8210.15
906.611	8112.53
906.924	8119.98
907.237	8081.34
907.551	8093.77
907.864	7976.49
908.177	7963.83
908.491	7934
908.804	7876.15
909.117	7874.34
909.43	7830.05
909.743	7788.02
910.056	7808.13
910.368	7747.34
910.681	7756.38
910.994	7675.7
911.307	7668.7
911.619	7582.82
911.932	7629.15
912.244	7532.88
912.557	7569.26
912.869	7478.65
913.181	7471.64
913.494	7435.26
913.806	7398.2
914.118	7346.45
914.43	7358.42
914.742	7344.41
915.054	7294.02
915.366	7271.64
915.678	7265.54
915.99	7200.91
916.302	7126.34
916.613	7110.07
916.925	7106.68
917.236	7102.84
917.548	7007.47
917.859	6986.68
918.171	6976.29
918.482	6935.16
918.794	6901.71
919.105	6920.92
919.416	6892.22
919.727	6821.26
920.038	6840.47
920.349	6773.58
920.66	6793.69
920.971	6761.15
921.282	6682.51
921.593	6665.79
921.903	6615.17
922.214	6620.59
922.525	6581.95
922.835	6563.64
923.146	6538.1
923.456	6525.68
923.767	6468.95
924.077	6406.81
924.387	6412.68
924.697	6383.08
925.008	6377.88
925.318	6372.46
925.628	6322.74
925.938	6294.04
926.248	6255.4
926.558	6221.05
926.867	6221.05
927.177	6230.32
927.487	6184.89
927.796	6141.73
928.106	6137.66
928.416	6100.38
928.725	6059.25
929.034	5933.15
929.344	6101.96
929.653	5975.18
929.962	5886.82
930.271	5929.76
930.581	5833.94
930.89	5860.61
931.199	5816.09
931.508	5792.14
931.817	5806.6
932.125	5784.45
932.434	5758.92
932.743	5682.08
933.051	5661.52
933.36	5646.15
933.669	5616.1
933.977	5624.68
934.286	5630.78
934.594	5560.05
934.902	5525.48
935.21	5535.42
935.519	5525.7
935.827	5478.25
936.135	5462.43
936.443	5436.44
936.751	5424.46
937.059	5392.15
937.367	5385.14
937.674	5398.47
937.982	5350.34
938.29	5311.47
938.597	5297.91
938.905	5228.53
939.213	5247.74
939.52	5165.94
939.827	5201.87
940.135	5165.49
940.442	5151.7
940.749	5141.98
941.056	5075.77
941.363	5078.03
941.67	5068.31
941.977	5035.09
942.284	5014.76
942.591	5016.34
942.898	4984.7
943.205	4975.66
943.511	4965.49
943.818	4954.42
944.125	4887.53
944.431	4825.16
944.738	4865.83
945.044	4801.88
945.35	4802.11
945.657	4790.35
945.963	4731.37
946.269	4692.5
946.575	4765.27
946.881	4680.75
947.187	4647.08
947.493	4596.91
947.799	4622.68
948.105	4630.13
948.41	4600.3
948.716	4596.69
949.022	4548.78
949.327	4542.9
949.633	4507.88
949.938	4484.83
950.244	4473.07
950.549	4486.86
950.854	4428.1
951.16	4396.69
951.465	4405.51
951.77	4317.6
952.075	4328.67
952.38	4349.01
952.685	4316.47
952.99	4238.5
953.294	4286.86
953.599	4248.67
953.904	4209.13
954.209	4245.74
954.513	4189.69
954.818	4201.9
955.122	4155.34
955.426	4158.51
955.731	4139.75
956.035	4103.59
956.339	4127.77
956.643	4100.2
956.948	4042.35
957.252	4054.55
957.556	4061.33
957.86	3980.66
958.163	4009.58
958.467	3991.73
958.771	3957.83
959.075	3965.29
959.378	3903.6
959.682	3913.54
959.985	3871.96
960.289	3854.56
960.592	3867.21
960.896	3834.67
961.199	3837.61
961.502	3814.79
961.805	3816.14
962.108	3786.76
962.411	3758.07
962.714	3768.01
963.017	3753.77
963.32	3742.25
963.623	3719.65
963.926	3697.73
964.228	3661.57
964.531	3646.43
964.833	3637.39
965.136	3590.16
965.438	3598.07
965.741	3594.23
966.043	3561.69
966.345	3510.16
966.648	3547
966.95	3534.34
967.252	3477.85
967.554	3492.76
967.856	3514
968.158	3425.19
968.46	3454.57
968.761	3414.57
969.063	3406.89
969.365	3375.7
969.666	3408.47
969.968	3330.73
970.269	3380
970.571	3330.73
970.872	3335.03
971.174	3337.96
971.475	3280.79
971.776	3288.25
972.077	3273.33
972.378	3259.55
972.679	3254.35
972.98	3242.82
973.281	3203.05
973.582	3173.22
973.883	3179.1
974.183	3161.7
974.484	3149.95
974.785	3169.61
975.085	3129.38
975.386	3164.86
975.686	3064.75
975.986	3099.1
976.287	3078.76
976.587	3062.04
976.887	3019.55
977.187	3066.78
977.487	3013.68
977.787	2975.03
978.087	2992.89
978.387	2982.94
978.687	2992.66
978.987	2957.41
979.286	2939.78
979.586	2942.27
979.885	2956.05
980.185	2889.39
980.484	2877.41
980.784	2877.18
981.083	2869.95
981.382	2884.19
981.682	2844.19
981.981	2808.26
982.28	2827.24
982.579	2789.73
982.878	2829.73
983.177	2739.11
983.475	2762.61
983.774	2761.03
984.073	2716.96
984.372	2706.34
984.67	2712.22
984.969	2691.2
985.267	2657.75
985.566	2691.43
985.864	2660.24
986.162	2682.84
986.461	2615.72
986.759	2630.86
987.057	2597.42
987.355	2590.19
987.653	2575.5
987.951	2597.19
988.249	2577.31
988.547	2540.02
988.844	2561.94
989.142	2535.05
989.44	2502.5
989.737	2513.13
990.035	2476.97
990.332	2497.31
990.63	2478.78
990.927	2465.9
991.224	2471.09
991.521	2465.67
991.819	2408.04
992.116	2424.09
992.413	2384.99
992.71	2403.07
993.006	2393.13
993.303	2403.3
993.6	2406.91
993.897	2346.12
994.193	2333.92
994.49	2342.96
994.787	2330.76
995.083	2316.75
995.379	2305.22
995.676	2258.44
995.972	2272.68
996.268	2220.7
996.565	2276.52
996.861	2220.93
997.157	2254.15
997.453	2225.9
997.749	2217.54
998.044	2202.17
998.34	2188.16
998.636	2182.74
998.932	2149.97
999.227	2159.69
999.523	2169.86
999.818	2115.62
1000.114	2111.55
1000.409	2085.57
1000.704	2097.09
1001	2059.13
1001.295	2073.36
1001.59	2072.91
1001.885	2065.45
1002.18	2059.35
1002.475	2041.5
1002.77	2025.46
1003.065	1964.44
1003.359	1960.15
1003.654	1997.89
1003.949	1964.89
1004.243	1945.23
1004.538	1978.45
1004.832	1962.41
1005.127	1954.04
1005.421	1919.02
1005.715	1909.3
1006.009	1876.53
1006.304	1907.49
1006.598	1893.71
1006.892	1887.83
1007.186	1840.15
1007.48	1877.21
1007.773	1873.59
1008.067	1848.96
1008.361	1818.46
1008.655	1767.38
1008.948	1776.65
1009.242	1751.34
1009.535	1756.08
1009.829	1774.16
1010.122	1750.21
1010.415	1747.95
1010.708	1740.26
1011.001	1715.86
1011.295	1697.55
1011.588	1704.79
1011.881	1672.7
1012.173	1698.46
1012.466	1674.96
1012.759	1657.78
1013.052	1677.22
1013.344	1620.04
1013.637	1629.99
1013.93	1598.12
1014.222	1628.4
1014.514	1626.14
1014.807	1588.86
1015.099	1597.44
1015.391	1547.73
1015.683	1574.17
1015.976	1568.97
1016.268	1557.44
1016.56	1531.23
1016.851	1532.36
1017.143	1523.77
1017.435	1521.06
1017.727	1470.67
1018.018	1498.24
1018.31	1471.57
1018.602	1479.93
1018.893	1486.71
1019.185	1443.78
1019.476	1456.88
1019.767	1444.91
1020.058	1440.84
1020.35	1403.55
1020.641	1380.27
1020.932	1380.73
1021.223	1414.17
1021.514	1380.27
1021.804	1359.03
1022.095	1368.52
1022.386	1355.19
1022.677	1345.93
1022.967	1340.73
1023.258	1319.94
1023.548	1316.55
1023.839	1320.16
1024.129	1329.2
1024.419	1288.98
1024.709	1304.8
1025	1267.28
1025.29	1287.17
1025.58	1249.66
1025.87	1244.46
1026.16	1232.48
1026.449	1266.38
1026.739	1212.37
1027.029	1226.83
1027.319	1215.53
1027.608	1197.68
1027.898	1192.03
1028.187	1195.65
1028.477	1182.09
1028.766	1200.84
1029.055	1179.38
1029.344	1148.87
1029.634	1147.29
1029.923	1146.83
1030.212	1112.71
1030.501	1140.73
1030.79	1087.17
1031.078	1118.36
1031.367	1081.75
1031.656	1097.12
1031.945	1105.71
1032.233	1067.97
1032.522	1106.61
1032.81	1059.15
1033.099	1062.32
1033.387	1059.83
1033.675	1046.72
1033.963	1053.5
1034.251	1065.48
1034.54	1024.8
1034.828	1024.58
1035.116	1013.28
1035.403	1019.38
1035.691	1010.57
1035.979	1003.34
1036.267	1008.98
1036.554	973.73
1036.842	992.49
1037.129	963.79
1037.417	976.67
1037.704	1009.21
1037.992	953.39
1038.279	962.43
1038.566	942.77
1038.853	942.77
1039.14	942.77
