Data from hue_330_FLMS001491_1.txt Node
Date: Mon Feb 06 15:44:47 GMT 2017
User: dcchb
Spectrometer: FLMS00149
Trigger mode: 0
Integration Time (sec): 2.000000E-2
Scans to average: 10
Electric dark correction enabled: true
Nonlinearity correction enabled: false
Boxcar width: 0
XAxis mode: Wavelengths
Number of Pixels in Spectrum: 2048
>>>>>Begin Spectral Data<<<<<
341.393	-11.47
341.776	-11.47
342.16	-11.47
342.543	-63.67
342.927	-69.55
343.31	-70.9
343.693	-90.79
344.077	-55.76
344.46	-78.59
344.843	-54.86
345.226	-48.76
345.61	-46.95
345.993	-11.47
346.376	-10.79
346.759	7.74
347.142	36.44
347.525	50.9
347.908	68.3
348.291	80.96
348.674	110.34
349.057	114.18
349.44	118.92
349.823	148.3
350.206	160.28
350.588	200.73
350.971	208.19
351.354	232.59
351.737	228.07
352.119	243.67
352.502	268.3
352.884	266.26
353.267	289.99
353.65	290.9
354.032	295.64
354.414	314.62
354.797	312.36
355.179	335.87
355.562	313.72
355.944	318.01
356.326	335.87
356.709	320.27
357.091	317.11
357.473	343.32
357.855	347.62
358.238	341.29
358.62	351.69
359.002	350.78
359.384	342.87
359.766	337.22
360.148	331.12
360.53	333.38
360.912	338.58
361.294	338.35
361.676	332.93
362.057	332.25
362.439	325.92
362.821	318.92
363.203	332.03
363.584	326.83
363.966	336.77
364.348	310.33
364.729	316.43
365.111	325.7
365.493	298.81
365.874	318.01
366.256	329.77
366.637	299.94
367.019	307.62
367.4	329.54
367.781	295.87
368.163	309.65
368.544	321.18
368.925	309.2
369.306	326.83
369.688	291.57
370.069	312.36
370.45	320.5
370.831	325.7
371.212	320.05
371.593	308.97
371.974	302.42
372.355	304.91
372.736	315.53
373.117	319.6
373.498	318.92
373.879	308.07
374.26	300.39
374.641	310.56
375.021	330.67
375.402	331.35
375.783	318.01
376.163	309.65
376.544	333.38
376.925	341.97
377.305	339.26
377.686	327.28
378.066	308.97
378.447	329.09
378.827	321.4
379.208	326.6
379.588	328.64
379.968	331.57
380.349	313.49
380.729	335.64
381.109	343.78
381.489	336.32
381.87	339.48
382.25	335.64
382.63	326.6
383.01	354.62
383.39	342.65
383.77	341.06
384.15	369.54
384.53	344.23
384.91	348.75
385.29	329.09
385.67	369.54
386.049	360.05
386.429	375.64
386.809	357.34
387.189	351.23
387.568	348.52
387.948	355.3
388.328	357.79
388.707	344.91
389.087	346.94
389.466	356.66
389.846	371.35
390.225	340.16
390.605	355.75
390.984	358.69
391.363	362.31
391.743	366.37
392.122	366.15
392.501	404.11
392.881	363.66
393.26	371.12
393.639	397.56
394.018	365.7
394.397	393.72
394.776	377.45
395.155	384.23
395.534	360.05
395.913	372.48
396.292	402.98
396.671	367.28
397.05	388.75
397.429	392.59
397.808	385.81
398.186	380.39
398.565	390.55
398.944	390.1
399.323	420.38
399.701	382.87
400.08	393.94
400.458	407.5
400.837	402.08
401.215	407.28
401.594	390.55
401.972	408.41
402.351	390.78
402.729	410.44
403.107	413.38
403.486	394.17
403.864	415.64
404.242	419.48
404.62	437.79
404.999	434.85
405.377	448.86
405.755	421.74
406.133	425.81
406.511	430.1
406.889	448.63
407.267	472.59
407.645	449.08
408.023	456.54
408.401	476.2
408.779	488.86
409.156	455.86
409.534	452.25
409.912	472.59
410.29	500.38
410.667	495.64
411.045	487.73
411.422	478.69
411.8	479.37
412.178	501.51
412.555	493.38
412.933	506.94
413.31	514.62
413.687	506.71
414.065	537.67
414.442	548.29
414.819	553.04
415.197	546.71
415.574	553.49
415.951	548.74
416.328	552.58
416.705	566.82
417.082	567.27
417.46	569.76
417.837	576.31
418.214	602.07
418.591	586.48
418.967	606.14
419.344	607.72
419.721	604.33
420.098	596.2
420.475	614.96
420.852	635.75
421.228	633.26
421.605	640.49
421.982	659.7
422.358	649.08
422.735	642.07
423.111	655.63
423.488	661.28
423.864	676.87
424.241	658.34
424.617	654.95
424.994	693.6
425.37	677.55
425.746	676.2
426.123	718.68
426.499	701.51
426.875	728.17
427.251	695.63
427.627	735.63
428.003	743.77
428.379	756.19
428.756	745.35
429.132	750.55
429.507	792.35
429.883	765.01
430.259	789.19
430.635	785.57
431.011	759.58
431.387	801.84
431.763	839.36
432.138	837.1
432.514	818.11
432.89	834.38
433.265	855.18
433.641	863.08
434.016	862.41
434.392	880.71
434.767	889.07
435.143	863.31
435.518	894.95
435.894	893.82
436.269	925.91
436.644	899.92
437.02	904.67
437.395	927.04
437.77	936.53
438.145	940.82
438.52	937.21
438.895	952.8
439.271	960.03
439.646	1010.65
440.021	1003.87
440.395	1000.48
440.77	991.22
441.145	990.76
441.52	1017.88
441.895	1014.49
442.27	1011.1
442.645	1004.1
443.019	1028.96
443.394	1030.09
443.769	1052.01
444.143	1042.97
444.518	1053.81
444.892	1035.51
445.267	1060.82
445.641	1074.15
446.016	1084.77
446.39	1061.27
446.764	1098.56
447.139	1081.16
447.513	1093.14
447.887	1090.88
448.262	1097.88
448.636	1089.52
449.01	1120.03
449.384	1125.45
449.758	1112.57
450.132	1118.9
450.506	1143.53
450.88	1135.17
451.254	1113.7
451.628	1173.36
452.002	1153.92
452.376	1154.83
452.75	1181.72
453.123	1184.43
453.497	1186.24
453.871	1189.18
454.244	1201.83
454.618	1205
454.992	1236.63
455.365	1214.49
455.739	1243.64
456.112	1230.76
456.486	1249.29
456.859	1281.83
457.232	1282.51
457.606	1274.15
457.979	1295.84
458.352	1348.04
458.725	1326.58
459.099	1305.33
459.472	1341.72
459.845	1363.18
460.218	1335.39
460.591	1353.24
460.964	1357.53
461.337	1388.27
461.71	1401.83
462.083	1430.75
462.456	1409.96
462.829	1445.67
463.201	1446.35
463.574	1460.81
463.947	1475.5
464.32	1502.39
464.692	1477.08
465.065	1508.04
465.438	1534.25
465.81	1544.42
466.183	1555.27
466.555	1576.06
466.928	1575.61
467.3	1556.63
467.672	1584.2
468.045	1597.75
468.417	1635.95
468.789	1626.91
469.161	1671.2
469.534	1685.44
469.906	1696.51
470.278	1715.27
470.65	1710.75
471.022	1747.81
471.394	1771.99
471.766	1763.4
472.138	1815.15
472.51	1842.27
472.882	1850.86
473.253	1877.07
473.625	1903.51
473.997	1919.1
474.369	1923.85
474.74	1949.61
475.112	1981.02
475.484	2010.85
475.855	2040.23
476.227	2041.58
476.598	2044.97
476.97	2108.25
477.341	2136.27
477.713	2175.14
478.084	2128.81
478.455	2204.52
478.827	2216.04
479.198	2276.38
479.569	2282.71
479.94	2293.56
480.311	2357.51
480.682	2401.58
481.053	2381.69
481.424	2451.52
481.795	2480.22
482.166	2532.42
482.537	2533.1
482.908	2592.98
483.279	2621.46
483.65	2639.31
484.021	2669.14
484.391	2706.88
484.762	2712.98
485.133	2755.46
485.503	2765.86
485.874	2834.33
486.244	2816.93
486.615	2866.87
486.985	2929.92
487.356	2970.15
487.726	2953.2
488.097	3046.98
488.467	3017.6
488.837	3043.59
489.207	3098.28
489.578	3186.87
489.948	3155.68
490.318	3195.68
490.688	3227.32
491.058	3193.42
491.428	3269.12
491.798	3280.42
492.168	3351.15
492.538	3360.42
492.908	3421.44
493.278	3425.96
493.648	3433.86
494.017	3501.66
494.387	3463.47
494.757	3523.35
495.126	3573.07
495.496	3565.61
495.866	3604.48
496.235	3618.04
496.605	3632.5
496.974	3677.7
497.344	3719.05
497.713	3733.07
498.082	3734.65
498.452	3809.45
498.821	3787.75
499.19	3765.61
499.559	3805.83
499.928	3860.07
500.298	3833.18
500.667	3869.79
501.036	3877.02
501.405	3917.02
501.774	3890.35
502.143	3957.24
502.512	3983.68
502.88	3966.05
503.249	3976.9
503.618	3981.87
503.987	4056.22
504.356	4028.2
504.724	4038.37
505.093	4052.38
505.462	4108.65
505.83	4088.31
506.199	4098.03
506.567	4158.59
506.936	4183
507.304	4167.4
507.672	4218.25
508.041	4240.85
508.409	4210.79
508.777	4232.49
509.145	4265.03
509.514	4310.23
509.882	4307.51
510.25	4290.34
510.618	4329.66
510.986	4356.78
511.354	4390.68
511.722	4371.02
512.09	4420.05
512.458	4432.71
512.826	4508.41
513.193	4463.89
513.561	4487.17
513.929	4467.06
514.297	4474.06
514.664	4489.66
515.032	4532.59
515.4	4546.6
515.767	4541.86
516.135	4573.5
516.502	4499.37
516.869	4586.38
517.237	4575.53
517.604	4619.6
517.972	4616.43
518.339	4698.24
518.706	4656.21
519.073	4655.3
519.44	4692.81
519.808	4699.82
520.175	4721.29
520.542	4780.5
520.909	4769.2
521.276	4727.16
521.643	4814.17
522.009	4806.03
522.376	4822.75
522.743	4848.97
523.11	4889.42
523.477	4919.02
523.843	4898.23
524.21	4977.33
524.577	4995.86
524.943	5000.83
525.31	5023.88
525.676	5030.88
526.043	5084.44
526.409	5107.94
526.776	5119.02
527.142	5168.28
527.508	5142.07
527.874	5205.57
528.241	5236.98
528.607	5260.03
528.973	5263.42
529.339	5281.73
529.705	5308.62
530.071	5368.28
530.437	5343.87
530.803	5420.93
531.169	5403.53
531.535	5445.34
531.901	5448.5
532.267	5499.8
532.632	5515.84
532.998	5506.8
533.364	5587.25
533.73	5604.65
534.095	5628.38
534.461	5626.12
534.826	5690.75
535.192	5710.41
535.557	5677.42
535.923	5702.28
536.288	5747.25
536.653	5749.51
537.019	5763.52
537.384	5748.61
537.749	5811.66
538.114	5794.71
538.479	5819.34
538.845	5868.6
539.21	5916.29
539.575	5884.42
539.94	5945.66
540.305	5938.43
540.67	5971.88
541.034	6058.65
541.399	6037.64
541.764	6064.3
542.129	6111.53
542.494	6119.67
542.858	6144.3
543.223	6142.95
543.587	6187.69
543.952	6228.82
544.316	6253.23
544.681	6237.86
545.045	6234.24
545.41	6250.74
545.774	6371.19
546.138	6354.69
546.503	6320.57
546.867	6383.62
547.231	6453.22
547.595	6451.41
547.959	6472.88
548.324	6498.42
548.688	6513.11
549.052	6496.16
549.416	6539.77
549.779	6556.95
550.143	6601.92
550.507	6623.84
550.871	6624.06
551.235	6577.28
551.599	6704.29
551.962	6707.68
552.326	6706.77
552.689	6735.7
553.053	6765.08
553.417	6740.44
553.78	6856.37
554.143	6848.01
554.507	6805.08
554.87	6894.56
555.234	6936.82
555.597	6856.6
555.96	6928.91
556.323	6921.46
556.686	6992.19
557.05	7002.13
557.413	6983.15
557.776	6972.08
558.139	7028.57
558.502	7054.79
558.865	7058.63
559.228	7087.55
559.59	7156.93
559.953	7168.23
560.316	7235.8
560.679	7205.52
561.041	7252.75
561.404	7305.85
561.767	7336.36
562.129	7271.96
562.492	7390.14
562.854	7356.47
563.217	7435.57
563.579	7354.44
563.941	7434.44
564.304	7511.72
564.666	7506.3
565.028	7518.95
565.39	7517.37
565.753	7594.21
566.115	7600.08
566.477	7649.8
566.839	7627.2
567.201	7685.05
567.563	7701.55
567.925	7777.71
568.287	7743.13
568.648	7769.57
569.01	7825.84
569.372	7851.6
569.734	7805.27
570.095	7967.08
570.457	7935.44
570.819	7996.46
571.18	7989.45
571.542	8020.18
571.903	8047.08
572.265	8151.93
572.626	8206.85
572.987	8157.13
573.349	8264.47
573.71	8305.15
574.071	8302.44
574.432	8418.82
574.794	8495.65
575.155	8458.59
575.516	8475.09
575.877	8650.68
576.238	8645.03
576.599	8687.06
576.96	8763.44
577.32	8890.67
577.681	8900.61
578.042	9039.14
578.403	9125.92
578.763	9142.41
579.124	9254.28
579.485	9294.95
579.845	9500.37
580.206	9532.24
580.566	9622.85
580.927	9762.74
581.287	9856.52
581.648	10028.49
582.008	10129.73
582.368	10270.75
582.728	10438.43
583.089	10569.95
583.449	10691.53
583.809	10864.86
584.169	11030.05
584.529	11137.84
584.889	11466.65
585.249	11519.53
585.609	11714.78
585.969	11903.02
586.329	12097.14
586.688	12383.01
587.048	12650.57
587.408	12713.85
587.768	12975.08
588.127	13166.72
588.487	13429.08
588.846	13721.05
589.206	13843.08
589.565	14092.12
589.925	14401.94
590.284	14716.28
590.643	14919.44
591.003	15283.72
591.362	15511.06
591.721	15800.09
592.08	16036.25
592.44	16349.68
592.799	16624.93
593.158	16815.89
593.517	17082.32
593.876	17457
594.235	17647.95
594.593	17993.03
594.952	18328.16
595.311	18631.66
595.67	18868.71
596.029	19278.19
596.387	19628.24
596.746	19962.24
597.104	20135.35
597.463	20385.06
597.822	20736.91
598.18	20935.55
598.538	21277.46
598.897	21664.12
599.255	21855.98
599.613	22327.83
599.972	22492.57
600.33	22831.77
600.688	23025.89
601.046	23358.09
601.404	23672.2
601.762	23929.82
602.12	24233.09
602.478	24532.74
602.836	24874.66
603.194	24940.64
603.552	25246.17
603.91	25399.16
604.268	25773.84
604.625	26029.43
604.983	26315.52
605.341	26609.75
605.698	26847.71
606.056	27106.01
606.413	27287.7
606.771	27657.41
607.128	27858.08
607.485	27940.11
607.843	28214
608.2	28611.28
608.557	28878.62
608.914	28964.72
609.272	29375.33
609.629	29454.65
609.986	29750.69
610.343	29846.05
610.7	30279.71
611.057	30555.86
611.414	30545.92
611.771	30843.31
612.127	31039.47
612.484	31298.67
612.841	31568.72
613.198	31693.91
613.554	31773.46
613.911	31968.03
614.267	32264.52
614.624	32368.7
614.98	32588.13
615.337	32789.48
615.693	32868.12
616.05	32958.96
616.406	33231.5
616.762	33315.79
617.118	33442.57
617.475	33478.72
617.831	33872.16
618.187	33933.85
618.543	34068.99
618.899	34536.78
619.255	34481.64
619.611	34676.21
619.967	34744.91
620.323	35099.47
620.678	35052.24
621.034	35031.9
621.39	35080.94
621.746	35301.05
622.101	35761.15
622.457	35376.75
622.812	35704.88
623.168	35760.7
623.523	35967.47
623.879	35938.77
624.234	36012.22
624.589	36027.81
624.945	36305.09
625.3	36262.61
625.655	36371.08
626.01	36443.84
626.365	36469.61
626.72	36543.95
627.075	36573.11
627.43	36577.4
627.785	36661.47
628.14	36866.43
628.495	37041.79
628.85	36891.29
629.205	36851.06
629.559	37141.9
629.914	36986.43
630.269	37144.16
630.623	37100.32
630.978	37209.47
631.332	37242.47
631.687	37374.22
632.041	37259.87
632.396	37414.89
632.75	37335.35
633.104	37458.96
633.459	37273.88
633.813	37411.05
634.167	37344.16
634.521	37424.38
634.875	37419.19
635.229	37372.41
635.583	37195.46
635.937	37308.45
636.291	37396.81
636.645	37379.64
636.999	37382.58
637.352	37569.92
637.706	37159.98
638.06	37493.53
638.413	37437.26
638.767	37284.73
639.121	37312.75
639.474	37173.32
639.828	37323.14
640.181	37428
640.534	37393.42
640.888	37278.85
641.241	37124.05
641.594	37239.53
641.947	37308.91
642.301	37338.28
642.654	37199.98
643.007	37306.42
643.36	37360.2
643.713	37172.41
644.066	37470.26
644.419	37101.23
644.771	36916.6
645.124	36609.72
645.477	36566.78
645.83	36377.63
646.182	36162.5
646.535	36187.58
646.888	36169.5
647.24	35964.76
647.593	36274.36
647.945	36205.21
648.298	36028.49
648.65	36137.41
649.002	35937.42
649.355	36162.04
649.707	35990.75
650.059	36166.34
650.411	36502.37
650.763	36647.91
651.115	36963.83
651.467	36919.76
651.819	36909.59
652.171	36795.02
652.523	36903.04
652.875	36791.86
653.227	36698.53
653.578	36850.39
653.93	36783.95
654.282	36671.63
654.633	36550.73
654.985	36688.13
655.337	36704.18
655.688	36711.86
656.039	36926.09
656.391	36621.01
656.742	36679.54
657.094	36571.07
657.445	36680.9
657.796	36594.12
658.147	36559.1
658.498	36611.07
658.849	36616.27
659.2	36520.9
659.551	36618.3
659.902	36630.28
660.253	36581.24
660.604	36714.35
660.955	36503.73
661.306	36558.42
661.656	36569.26
662.007	36523.62
662.358	36511.64
662.708	36442.49
663.059	36498.98
663.409	36230.29
663.76	36492.43
664.11	36622.37
664.461	36554.8
664.811	36538.53
665.161	36558.87
665.511	36448.82
665.862	36432.32
666.212	36566.55
666.562	36611.98
666.912	36440.45
667.262	36493.11
667.612	36452.43
667.962	36420.12
668.312	36345.09
668.662	36527.46
669.011	36378.99
669.361	36411.75
669.711	36376.05
670.06	36282.72
670.41	36314.36
670.76	36298.54
671.109	36323.4
671.459	36278.2
671.808	36224.19
672.157	36487.68
672.507	36091.31
672.856	36280.91
673.205	36111.42
673.554	36335.82
673.904	36109.39
674.253	36305.09
674.602	36161.37
674.951	35814.48
675.3	35511.89
675.649	36165.89
675.998	36090.63
676.346	36065.1
676.695	36275.26
677.044	35922.95
677.393	36012.22
677.741	36162.72
678.09	35999.34
678.438	36022.39
678.787	36075.94
679.135	35926.8
679.484	35653.13
679.832	35854.71
680.181	35677.54
680.529	35864.65
680.877	35695.16
681.225	35732
681.573	35872.79
681.922	35643.64
682.27	35534.49
682.618	35562.74
682.966	35503.3
683.314	35489.74
683.661	35509.18
684.009	35244.78
684.357	35196.42
684.705	35101.51
685.053	35084.33
685.4	35119.13
685.748	34955.97
686.095	34929.99
686.443	34872.36
686.79	34872.59
687.138	34833.49
687.485	34917.33
687.832	34545.36
688.18	34836.65
688.527	34678.01
688.874	34405.25
689.221	34608.86
689.568	34450.22
689.915	34395.99
690.262	34385.59
690.609	34304.47
690.956	34177.24
691.303	34129.55
691.65	33997.81
691.997	33821.99
692.344	33880.3
692.69	33791.71
693.037	33807.08
693.383	33402.57
693.73	33558.27
694.077	33340.65
694.423	33439.4
694.769	33273.08
695.116	33215.68
695.462	33157.6
695.808	33034.67
696.155	33179.07
696.501	32843.03
696.847	32930.26
697.193	32551.07
697.539	32659.76
697.885	32505.87
698.231	32417.51
698.577	32448.92
698.923	32409.83
699.269	32210.51
699.614	32217.97
699.96	31933.91
700.306	31966.22
700.651	31964.41
700.997	31834.25
701.342	31827.24
701.688	31805.32
702.033	31683.07
702.379	31570.3
702.724	31489.17
703.069	31603.07
703.415	31236.07
703.76	31246.69
704.105	31253.92
704.45	31144.55
704.795	31080.6
705.14	30995.17
705.485	30981.84
705.83	30850.54
706.175	30847.38
706.52	30660.72
706.865	30521.74
707.209	30670.44
707.554	30418.24
707.899	30623.21
708.243	30340.05
708.588	30300.05
708.932	30206.49
709.277	30117.23
709.621	30095.76
709.966	29960.17
710.31	29989.55
710.654	29786.39
710.998	29832.72
711.342	29804.24
711.687	29676.79
712.031	29596.34
712.375	29547.98
712.719	29542.1
713.063	29439.73
713.407	29572.16
713.75	29487.64
714.094	29324.71
714.438	29250.13
714.782	29227.08
715.125	28988.9
715.469	28950.03
715.812	28988.67
716.156	28806.3
716.499	28879.3
716.843	28948.45
717.186	28791.16
717.53	28900.09
717.873	28844.27
718.216	28838.85
718.559	28732.41
718.902	28420.1
719.246	28589.81
719.589	28422.36
719.932	28372.64
720.275	28400.67
720.617	28268.92
720.96	28171.29
721.303	28282.02
721.646	28216.04
721.989	28057.4
722.331	28176.72
722.674	28038.19
723.016	28054.46
723.359	27927.68
723.701	27930.17
724.044	27753.23
724.386	27728.59
724.729	27786.22
725.071	27716.39
725.413	27773.11
725.755	27608.6
726.097	27540.58
726.439	27382.61
726.782	27458.32
727.124	27564.08
727.465	27373.35
727.807	27398.88
728.149	27257.87
728.491	27247.02
728.833	27286.8
729.175	27145.11
729.516	27073.69
729.858	27087.25
730.199	27157.99
730.541	27049.51
730.882	27136.07
731.224	27052.45
731.565	26803.19
731.906	26938.33
732.248	26824.44
732.589	26777.43
732.93	26673.03
733.271	26777.21
733.612	26696.76
733.953	26734.72
734.294	26622.41
734.635	26480.72
734.976	26568.62
735.317	26364.79
735.658	26476.42
735.999	26443.43
736.339	26400.72
736.68	26316.88
737.021	26321.85
737.361	26211.57
737.702	26437.55
738.042	26245.02
738.383	26115.53
738.723	26217.9
739.063	26058.13
739.404	26102.2
739.744	25954.85
740.084	25918.92
740.424	25890.45
740.764	25936.78
741.104	25974.29
741.444	25841.41
741.784	25765.03
742.124	25821.75
742.464	25704.92
742.804	25626.05
743.143	25616.33
743.483	25683
743.823	25611.36
744.162	25595.77
744.502	25478.71
744.841	25443.68
745.181	25513.96
745.52	25358.03
745.86	25327.98
746.199	25394.64
746.538	25332.05
746.877	25282.78
747.216	25337.24
747.556	25183.12
747.895	25202.33
748.234	25039.85
748.573	25097.93
748.911	24994.88
749.25	24887.09
749.589	24770.25
749.928	24903.81
750.267	24950.59
750.605	24748.56
750.944	24782.46
751.283	24665.85
751.621	24829.01
751.96	24712.18
752.298	24652.52
752.636	24533.65
752.975	24478.96
753.313	24461.33
753.651	24422.92
753.989	24321.45
754.327	24328.46
754.666	24153.55
755.004	24133.89
755.342	24299.53
755.679	24201.45
756.017	24013.66
756.355	24078.97
756.693	23997.17
757.031	24010.27
757.368	23799.88
757.706	23812.09
758.044	23682.6
758.381	23723.05
758.719	23598.08
759.056	23617.97
759.394	23521.02
759.731	23432.89
760.068	23368.26
760.405	23280.8
760.743	23355.37
761.08	23221.59
761.417	23087.13
761.754	23124.87
762.091	23149.73
762.428	22910.19
762.765	22780.47
763.102	22913.35
763.438	22743.41
763.775	22657.09
764.112	22687.37
764.449	22608.5
764.785	22565.56
765.122	22414.16
765.458	22226.36
765.795	22371.45
766.131	22281.28
766.467	22245.35
766.804	22028.4
767.14	22133.03
767.476	22028.18
767.812	21845.13
768.148	21879.93
768.485	21725.81
768.821	21606.04
769.157	21548.87
769.492	21569.21
769.828	21508.87
770.164	21368.08
770.5	21314.75
770.836	21355.43
771.171	21199.95
771.507	21056.68
771.842	20965.15
772.178	20968.32
772.513	20971.03
772.849	20850.81
773.184	20822.33
773.519	20682
773.855	20607.88
774.19	20453.3
774.525	20466.86
774.86	20367.66
775.195	20340.09
775.53	20303.25
775.865	20151.39
776.2	19987.78
776.535	19906.2
776.87	19935.58
777.205	19907.78
777.539	19789.82
777.874	19783.04
778.209	19590.73
778.543	19610.39
778.878	19524.06
779.212	19467.79
779.547	19339.89
779.881	19342.15
780.215	19110.97
780.55	19212.21
780.884	19091.31
781.218	19018.99
781.552	19058.31
781.886	18843.4
782.22	18801.6
782.554	18713.91
782.888	18643.18
783.222	18542.17
783.556	18520.02
783.889	18377.2
784.223	18282.29
784.557	18258.56
784.89	18306.69
785.224	18197.77
785.557	18181.95
785.891	18104.89
786.224	17966.14
786.558	17971.11
786.891	17815.41
787.224	17696.54
787.557	17761.17
787.891	17752.13
788.224	17639.82
788.557	17653.6
788.89	17600.27
789.223	17491.8
789.556	17417.9
789.888	17375.87
790.221	17301.75
790.554	17177.46
790.887	17219.94
791.219	17155.09
791.552	17038.7
791.884	16983.34
792.217	16917.13
792.549	16967.29
792.882	16767.75
793.214	16703.12
793.546	16759.16
793.879	16522.33
794.211	16421.55
794.543	16585.61
794.875	16367.76
795.207	16505.84
795.539	16412.51
795.871	16409.57
796.203	16272.62
796.535	16178.39
796.867	16204.15
797.198	16065.85
797.53	16059.97
797.862	15990.14
798.193	15983.82
798.525	15858.85
798.856	15864.95
799.188	15737.72
799.519	15653.66
799.85	15654.79
800.182	15621.79
800.513	15556.94
800.844	15462.47
801.175	15483.04
801.506	15506.54
801.837	15385.41
802.168	15319.43
802.499	15307
802.83	15202.82
803.161	15158.75
803.491	15091.64
803.822	15193.33
804.153	15086.44
804.483	14948.59
804.814	14958.76
805.145	14898.87
805.475	14911.53
805.805	14883.28
806.136	14778.42
806.466	14837.41
806.796	14791.98
807.126	14653.68
807.457	14626.34
807.787	14584.98
808.117	14525.1
808.447	14542.95
808.777	14558.09
809.107	14430.64
809.436	14365.33
809.766	14408.49
810.096	14370.3
810.426	14290.53
810.755	14358.32
811.085	14274.48
811.414	14146.13
811.744	14093.02
812.073	13995.62
812.403	14095.96
812.732	13962.18
813.061	13988.84
813.39	13880.6
813.719	13926.92
814.049	13939.13
814.378	13892.12
814.707	13786.36
815.036	13792.24
815.365	13728.74
815.693	13600.83
816.022	13588.17
816.351	13551.79
816.68	13423.88
817.008	13661.17
817.337	13462.53
817.665	13319.71
817.994	13420.27
818.322	13366.48
818.651	13374.85
818.979	13296.43
819.307	13393.6
819.636	13276.09
819.964	13273.15
820.292	13272.93
820.62	13207.17
820.948	13126.49
821.276	13250.33
821.604	13218.01
821.932	13184.79
822.259	13154.96
822.587	13116.77
822.915	13115.42
823.243	13175.08
823.57	13130.78
823.898	13143.44
824.225	13062.54
824.553	13115.87
824.88	13146.15
825.207	13163.55
825.535	13074.74
825.862	13135.08
826.189	13072.71
826.516	13168.52
826.843	13191.8
827.17	13185.02
827.497	13180.27
827.824	13107.73
828.151	13154.74
828.478	13091.69
828.805	13104.8
829.131	13072.71
829.458	13056.44
829.785	12997.23
830.111	13118.58
830.438	13143.89
830.764	13001.3
831.09	13112.93
831.417	13028.87
831.743	13141.86
832.069	13049.2
832.395	13022.31
832.722	13043.78
833.048	12940.51
833.374	13034.74
833.7	12938.7
834.026	12958.59
834.351	12938.7
834.677	12925.37
835.003	12977.79
835.329	12981.86
835.654	12879.72
835.98	12837.01
836.306	12913.39
836.631	12793.84
836.956	12784.35
837.282	12779.16
837.607	12683.34
837.932	12735.54
838.258	12703.23
838.583	12660.29
838.908	12629.33
839.233	12663.68
839.558	12545.04
839.883	12539.84
840.208	12570.8
840.533	12583.91
840.858	12432.95
841.182	12488.32
841.507	12532.38
841.832	12439.73
842.156	12415.32
842.481	12525.15
842.805	12335.55
843.13	12360.64
843.454	12280.19
843.778	12344.59
844.103	12246.29
844.427	12248.32
844.751	12249
845.075	12226.63
845.399	12194.09
845.723	12082.45
846.047	12079.74
846.371	12004.49
846.695	12010.59
847.019	11926.52
847.343	11861.67
847.666	11801.33
847.99	11712.06
848.313	11765.85
848.637	11665.74
848.96	11659.41
849.284	11624.38
849.607	11577.61
849.931	11523.14
850.254	11483.14
850.577	11418.06
850.9	11274.79
851.223	11286.99
851.546	11326.54
851.869	11157.96
852.192	11181.46
852.515	11107.11
852.838	11111.4
853.161	11089.48
853.483	11000.22
853.806	10930.39
854.129	10929.03
854.451	10859.43
854.774	10875.25
855.096	10797.29
855.419	10763.16
855.741	10732.88
856.063	10638.65
856.385	10673.67
856.708	10651.53
857.03	10601.13
857.352	10575.37
857.674	10549.84
857.996	10531.08
858.318	10452.66
858.64	10483.62
858.961	10414.47
859.283	10414.02
859.605	10321.37
859.926	10360.01
860.248	10358.88
860.57	10221.48
860.891	10247.7
861.212	10247.92
861.534	10195.27
861.855	10167.92
862.176	10254.02
862.498	10140.81
862.819	10108.27
863.14	10110.98
863.461	10065.78
863.782	10025.56
864.103	10097.42
864.424	10033.46
864.745	10042.73
865.065	9997.08
865.386	9896.52
865.707	9937.65
866.027	10007.93
866.348	9913.69
866.668	9938.78
866.989	9928.61
867.309	9818.1
867.63	9844.77
867.95	9833.7
868.27	9769.07
868.59	9858.33
868.91	9797.54
869.23	9715.73
869.55	9718.45
869.87	9733.13
870.19	9701.72
870.51	9681.61
870.83	9728.16
871.15	9636.41
871.469	9715.28
871.789	9683.87
872.109	9673.02
872.428	9585.79
872.748	9627.6
873.067	9583.08
873.386	9626.02
873.706	9568.84
874.025	9538.11
874.344	9508.28
874.663	9529.75
874.982	9426.7
875.301	9426.02
875.62	9407.27
875.939	9403.65
876.258	9396.87
876.577	9354.16
876.896	9370.43
877.214	9337.66
877.533	9374.05
877.852	9327.27
878.17	9369.08
878.489	9308.96
878.807	9349.42
879.125	9259.93
879.444	9242.07
879.762	9221.73
880.08	9259.02
880.398	9218.35
880.716	9217.89
881.034	9143.54
881.352	9148.52
881.67	9114.17
881.988	9158.46
882.306	9143.32
882.624	9148.74
882.941	9059.25
883.259	9047.28
883.577	8991.68
883.894	9011.57
884.212	8987.39
884.529	8989.65
884.846	8956.88
885.164	8909.43
885.481	8923.66
885.798	8967.96
886.115	8779.26
886.432	8869.43
886.75	8802.31
887.067	8825.14
887.383	8730
887.7	8752.14
888.017	8720.96
888.334	8793.27
888.651	8627.4
888.967	8673.73
889.284	8621.07
889.6	8639.15
889.917	8557.8
890.233	8606.16
890.55	8554.63
890.866	8522.09
891.182	8495.88
891.498	8503.11
891.815	8437.8
892.131	8453.85
892.447	8373.62
892.763	8372.04
893.079	8351.48
893.395	8295.43
893.71	8259.95
894.026	8248.65
894.342	8273.51
894.657	8256.11
894.973	8235.55
895.289	8235.77
895.604	8214.53
895.92	8119.84
896.235	8036
896.55	8105.15
896.865	8073.74
897.181	8029.68
897.496	7978.15
897.811	7977.25
898.126	7986.29
898.441	7890.92
898.756	7876.23
899.071	7846.18
899.386	7893.86
899.7	7787.2
900.015	7789
900.33	7733.19
900.644	7687.99
900.959	7697.26
901.273	7717.14
901.588	7640.76
901.902	7558.28
902.216	7554.89
902.531	7536.13
902.845	7509.46
903.159	7507.2
903.473	7457.04
903.787	7444.38
904.101	7365.74
904.415	7382.91
904.729	7354.67
905.042	7311.05
905.356	7349.02
905.67	7289.13
905.984	7262.24
906.297	7246.65
906.611	7193.09
906.924	7186.08
907.237	7168.91
907.551	7090.72
907.864	7055.69
908.177	7087.55
908.491	7074.45
908.804	7022.47
909.117	6926.88
909.43	6975.01
909.743	6914.22
910.056	6929.82
910.368	6841.46
910.681	6831.52
910.994	6782.25
911.307	6783.15
911.619	6675.36
911.932	6776.83
912.244	6681.01
912.557	6615.93
912.869	6630.84
913.181	6627
913.494	6616.61
913.806	6581.8
914.118	6532.77
914.43	6480.11
914.742	6496.83
915.054	6468.59
915.366	6408.02
915.678	6475.59
915.99	6354.47
916.302	6331.19
916.613	6339.55
916.925	6311.53
917.236	6292.55
917.548	6303.62
917.859	6193.57
918.171	6140.46
918.482	6221.59
918.794	6129.16
919.105	6153.57
919.416	6090.97
919.727	6084.42
920.038	6047.58
920.349	6007.81
920.66	6001.93
920.971	5982.5
921.282	5903.18
921.593	5944.31
921.903	5907.25
922.214	5850.98
922.525	5825.89
922.835	5822.95
923.146	5779.79
923.456	5775.27
923.767	5735.95
924.077	5693.69
924.387	5718.55
924.697	5689.85
925.008	5683.75
925.318	5676.52
925.628	5627.71
925.938	5572.79
926.248	5584.54
926.558	5548.39
926.867	5498.44
927.177	5483.75
927.487	5431.1
927.796	5382.06
928.106	5418.9
928.416	5385
928.725	5371.89
929.034	5358.33
929.344	5357.66
929.653	5342.97
929.962	5271.56
930.271	5268.17
930.581	5262.07
930.89	5230.88
931.199	5157.21
931.508	5169.64
931.817	5206.25
932.125	5142.52
932.434	5148.62
932.743	5152.24
933.051	5038.34
933.36	5079.92
933.669	5008.96
933.977	5024.56
934.286	4930.77
934.594	4986.37
934.902	4931.23
935.21	4879.02
935.519	4928.06
935.827	4930.1
936.135	4845.8
936.443	4824.79
936.751	4802.19
937.059	4822.98
937.367	4755.19
937.674	4761.51
937.982	4758.12
938.29	4699.82
938.597	4716.54
938.905	4656.43
939.213	4647.39
939.52	4655.08
939.827	4675.87
940.135	4609.65
940.442	4561.29
940.749	4544.34
941.056	4544.57
941.363	4535.53
941.67	4528.07
941.977	4512.25
942.284	4450.56
942.591	4447.62
942.898	4465.7
943.205	4416.44
943.511	4425.25
943.818	4353.61
944.125	4353.84
944.431	4327.17
944.738	4379.83
945.044	4325.59
945.35	4290.34
945.657	4239.04
945.963	4256.22
946.269	4244.46
946.575	4200.62
946.881	4199.95
947.187	4176.44
947.493	4157.24
947.799	4140.06
948.105	4106.62
948.41	4053.74
948.716	4125.37
949.022	4064.13
949.327	4084.47
949.633	4033.4
949.938	4029.56
950.244	4034.98
950.549	3962.89
950.854	3964.47
951.16	3932.16
951.465	3905.49
951.77	3926.51
952.075	3837.47
952.38	3851.48
952.685	3841.09
952.99	3821.2
953.294	3819.17
953.599	3808.54
953.904	3786.4
954.209	3727.87
954.513	3741.2
954.818	3765.16
955.122	3742.33
955.426	3720.86
955.731	3724.25
956.035	3677.25
956.339	3620.53
956.643	3613.29
956.948	3621.88
957.252	3589.11
957.556	3576.91
957.86	3592.5
958.163	3578.72
958.467	3557.93
958.771	3545.95
959.075	3514.77
959.378	3500.98
959.682	3507.31
959.985	3503.92
960.289	3470.7
960.592	3441.77
960.896	3429.12
961.199	3442.23
961.502	3363.58
961.805	3409.68
962.108	3391.61
962.411	3376.92
962.714	3326.07
963.017	3306.64
963.32	3319.97
963.623	3290.59
963.926	3280.2
964.228	3270.7
964.531	3273.19
964.833	3262.34
965.136	3232.97
965.438	3245.17
965.741	3193.42
966.043	3175.11
966.345	3194.77
966.648	3166.07
966.95	3135.34
967.252	3164.72
967.554	3095.79
967.856	3094.66
968.158	3109.13
968.46	3097.83
968.761	3072.52
969.063	3053.76
969.365	3038.17
969.666	2999.75
969.968	2984.38
970.269	3004.05
970.571	3010.37
970.872	3003.37
971.174	2987.32
971.475	2981.9
971.776	2939.87
972.077	2936.93
972.378	2943.03
972.679	2914.33
972.98	2895.57
973.281	2857.61
973.582	2876.82
973.883	2864.39
974.183	2822.81
974.484	2801.79
974.785	2831.62
975.085	2782.58
975.386	2795.46
975.686	2763.15
975.986	2767.44
976.287	2750.27
976.587	2732.41
976.887	2693.54
977.187	2737.39
977.487	2707.78
977.787	2687.44
978.087	2649.93
978.387	2677.27
978.687	2686.77
978.987	2630.95
979.286	2600.89
979.586	2628.91
979.885	2628.69
980.185	2630.04
980.484	2598.86
980.784	2582.14
981.083	2545.07
981.382	2559.31
981.682	2539.2
981.981	2531.06
982.28	2526.77
982.579	2529.48
982.878	2495.36
983.177	2483.16
983.475	2485.19
983.774	2475.25
984.073	2466.21
984.372	2457.62
984.67	2412.42
984.969	2456.26
985.267	2444.06
985.566	2426.66
985.864	2396.38
986.162	2341.69
986.461	2377.85
986.759	2363.16
987.057	2344.18
987.355	2332.2
987.653	2305.08
987.951	2350.05
988.249	2317.28
988.547	2319.09
988.844	2329.03
989.142	2314.8
989.44	2292.43
989.737	2252.88
990.035	2252.65
990.332	2257.85
990.63	2244.29
990.927	2212.88
991.224	2233.67
991.521	2194.35
991.819	2203.39
992.116	2201.35
992.413	2199.09
992.71	2162.03
993.006	2160.9
993.303	2164.75
993.6	2114.13
993.897	2126.1
994.193	2108.25
994.49	2089.95
994.787	2094.01
995.083	2089.49
995.379	2081.13
995.676	2057.18
995.972	2025.77
996.268	2068.48
996.565	2055.82
996.861	2008.82
997.157	2012.66
997.453	2011.76
997.749	1992.55
998.044	1994.81
998.34	2001.36
998.636	1981.7
998.932	1956.84
999.227	1951.42
999.523	1958.2
999.818	1915.49
1000.114	1910.06
1000.409	1924.07
1000.704	1869.84
1001	1865.09
1001.295	1880.23
1001.59	1864.64
1001.885	1854.25
1002.18	1854.7
1002.475	1818.31
1002.77	1857.18
1003.065	1825.09
1003.359	1807.24
1003.654	1812.21
1003.949	1769.73
1004.243	1793.46
1004.538	1789.16
1004.832	1754.13
1005.127	1787.13
1005.421	1761.37
1005.715	1748.94
1006.009	1711.2
1006.304	1711.42
1006.598	1720.46
1006.892	1701.03
1007.186	1710.75
1007.48	1696.96
1007.773	1710.29
1008.067	1684.31
1008.361	1638.88
1008.655	1629.17
1008.948	1653.57
1009.242	1607.47
1009.535	1619.22
1009.829	1596.17
1010.122	1588.94
1010.415	1607.92
1010.708	1597.98
1011.001	1605.89
1011.295	1560.02
1011.588	1570.64
1011.881	1547.81
1012.173	1564.99
1012.466	1542.61
1012.759	1535.16
1013.052	1498.32
1013.344	1513.91
1013.637	1506.23
1013.93	1463.97
1014.222	1489.06
1014.514	1481.37
1014.807	1460.58
1015.099	1447.48
1015.391	1454.48
1015.683	1452.45
1015.976	1441.37
1016.268	1436.85
1016.56	1421.04
1016.851	1388.95
1017.143	1401.6
1017.435	1381.49
1017.727	1391.21
1018.018	1382.39
1018.31	1363.41
1018.602	1343.3
1018.893	1373.13
1019.185	1347.82
1019.476	1340.36
1019.767	1329.51
1020.058	1307.14
1020.35	1322.96
1020.641	1288.16
1020.932	1328.84
1021.223	1296.52
1021.514	1283.19
1021.804	1265.79
1022.095	1263.75
1022.386	1263.98
1022.677	1246.13
1022.967	1223.3
1023.258	1203.64
1023.548	1219.46
1023.839	1203.87
1024.129	1214.94
1024.419	1183.53
1024.709	1190.53
1025	1202.28
1025.29	1168.61
1025.58	1150.08
1025.87	1167.26
1026.16	1155.51
1026.449	1131.78
1026.739	1141.95
1027.029	1140.14
1027.319	1138.11
1027.608	1124.77
1027.898	1126.35
1028.187	1103.98
1028.477	1075.96
1028.766	1097.65
1029.055	1071.89
1029.344	1054.27
1029.634	1061.05
1029.923	1044.1
1030.212	1046.81
1030.501	1059.01
1030.79	1061.95
1031.078	1024.89
1031.367	1007.94
1031.656	1006.58
1031.945	1034.38
1032.233	990.54
1032.522	994.83
1032.81	984.66
1033.099	998.45
1033.387	1018.79
1033.675	998.45
1033.963	997.09
1034.251	981.5
1034.54	969.75
1034.828	949.64
1035.116	949.41
1035.403	951.9
1035.691	905.34
1035.979	934.27
1036.267	917.77
1036.554	943.08
1036.842	910.99
1037.129	927.26
1037.417	896.08
1037.704	893.14
1037.992	874.38
1038.279	876.87
1038.566	898.34
1038.853	898.34
1039.14	898.34
