Data from hue_00_FLMS001491_72.txt Node
Date: Mon Feb 06 15:30:12 GMT 2017
User: dcchb
Spectrometer: FLMS00149
Trigger mode: 0
Integration Time (sec): 2.000000E-2
Scans to average: 10
Electric dark correction enabled: true
Nonlinearity correction enabled: false
Boxcar width: 0
XAxis mode: Wavelengths
Number of Pixels in Spectrum: 2048
>>>>>Begin Spectral Data<<<<<
341.393	-25.92
341.776	-25.92
342.16	-25.92
342.543	-54.39
342.927	-63.88
343.31	-67.72
343.693	-62.07
344.077	-57.55
344.46	-68.63
344.843	-64.79
345.226	-46.03
345.61	-30.44
345.993	-13.71
346.376	-3.77
346.759	-6.26
347.142	36.91
347.525	29.45
347.908	54.31
348.291	75.77
348.674	100.86
349.057	123.68
349.44	130.46
349.823	131.82
350.206	144.25
350.588	177.02
350.971	216.34
351.354	219.27
351.737	211.36
352.119	231.7
352.502	259.72
352.884	272.83
353.267	275.54
353.65	278.03
354.032	308.76
354.414	322.1
354.797	282.55
355.179	319.16
355.562	312.6
355.944	325.03
356.326	332.49
356.709	329.78
357.091	320.74
357.473	316.9
357.855	333.85
358.238	327.75
358.62	330.46
359.002	331.14
359.384	324.36
359.766	340.17
360.148	331.14
360.53	335.2
360.912	343.11
361.294	343.34
361.676	339.72
362.057	318.71
362.439	331.36
362.821	329.33
363.203	317.58
363.584	300.85
363.966	305.83
364.348	320.29
364.729	314.19
365.111	322.1
365.493	314.64
365.874	305.15
366.256	317.12
366.637	307.86
367.019	300.4
367.4	310.34
367.781	325.94
368.163	314.64
368.544	305.37
368.925	288.65
369.306	303.79
369.688	320.74
370.069	309.44
370.45	301.76
370.831	303.79
371.212	315.32
371.593	310.57
371.974	284.36
372.355	301.31
372.736	300.85
373.117	307.86
373.498	313.51
373.879	319.16
374.26	320.74
374.641	325.26
375.021	334.3
375.402	306.05
375.783	309.44
376.163	328.42
376.544	315.99
376.925	330.23
377.305	317.8
377.686	322.55
378.066	329.33
378.447	285.94
378.827	299.27
379.208	323.23
379.588	315.32
379.968	337.69
380.349	314.41
380.729	323.45
381.109	314.64
381.489	332.04
381.87	311.25
382.25	314.64
382.63	319.16
383.01	328.42
383.39	314.19
383.77	342.21
384.15	338.37
384.53	331.59
384.91	321.64
385.29	343.34
385.67	326.39
386.049	336.78
386.429	341.53
386.809	308.76
387.189	319.16
387.568	315.99
387.948	350.12
388.328	351.02
388.707	340.4
389.087	337.01
389.466	351.93
389.846	341.53
390.225	365.48
390.605	346.5
390.984	354.86
391.363	369.1
391.743	341.53
392.122	349.21
392.501	348.31
392.881	345.37
393.26	351.7
393.639	359.61
394.018	336.33
394.397	358.48
394.776	344.69
395.155	350.12
395.534	349.21
395.913	359.84
396.292	382.43
396.671	364.35
397.05	363.68
397.429	384.47
397.808	388.99
398.186	378.82
398.565	371.36
398.944	375.43
399.323	366.61
399.701	366.84
400.08	374.98
400.458	375.65
400.837	395.31
401.215	373.85
401.594	386.5
401.972	383.56
402.351	385.37
402.729	399.83
403.107	377.24
403.486	378.37
403.864	376.11
404.242	372.94
404.62	389.66
404.999	377.91
405.377	391.02
405.755	376.56
406.133	393.73
406.511	394.64
406.889	396.22
407.267	401.19
407.645	381.3
408.023	406.61
408.401	402.55
408.779	414.3
409.156	393.05
409.534	402.77
409.912	410.23
410.29	425.14
410.667	414.52
411.045	428.53
411.422	419.27
411.8	439.38
412.178	414.52
412.555	430.79
412.933	439.61
413.31	430.57
413.687	436.44
414.065	438.25
414.442	453.62
414.819	430.57
415.197	447.52
415.574	451.13
415.951	462.88
416.328	462.66
416.705	461.75
417.082	483.9
417.46	465.82
417.837	472.37
418.214	451.81
418.591	461.3
418.967	470.79
419.344	478.7
419.721	486.16
420.098	459.95
420.475	483.45
420.852	502.2
421.228	494.97
421.605	481.41
421.982	477.35
422.358	504.24
422.735	499.27
423.111	496.55
423.488	494.52
423.864	535.65
424.241	510.79
424.617	512.15
424.994	524.8
425.37	513.96
425.746	519.6
426.123	514.41
426.499	505.14
426.875	529.55
427.251	537.46
427.627	547.85
428.003	523.67
428.379	540.4
428.756	561.86
429.132	562.32
429.507	570.45
429.883	562.77
430.259	549.89
430.635	552.37
431.011	569.55
431.387	585.82
431.763	577.68
432.138	567.74
432.514	579.49
432.89	582.43
433.265	609.09
433.641	620.39
434.016	595.76
434.392	605.93
434.767	618.36
435.143	604.12
435.518	643.44
435.894	626.04
436.269	647.51
436.644	650.45
437.02	646.61
437.395	669.88
437.77	652.26
438.145	660.17
438.52	663.56
438.895	651.58
439.271	642.09
439.646	665.82
440.021	653.84
440.395	666.95
440.77	681.86
441.145	666.72
441.52	680.73
441.895	679.37
442.27	694.29
442.645	679.15
443.019	704.23
443.394	700.62
443.769	694.06
444.143	699.94
444.518	687.28
444.892	705.14
445.267	706.94
445.641	721.86
446.016	725.7
446.39	713.05
446.764	735.64
447.139	729.09
447.513	733.84
447.887	736.55
448.262	740.16
448.636	738.81
449.01	763.89
449.384	759.37
449.758	744.46
450.132	781.07
450.506	764.12
450.88	732.71
451.254	736.55
451.628	778.13
452.002	777.23
452.376	760.28
452.75	764.34
453.123	784.68
453.497	799.6
453.871	806.83
454.244	789.2
454.618	800.5
454.992	815.87
455.365	833.5
455.739	827.85
456.112	849.09
456.486	847.96
456.859	854.51
457.232	866.49
457.606	826.72
457.979	861.97
458.352	892.02
458.725	873.72
459.099	895.19
459.472	927.05
459.845	906.94
460.218	932.02
460.591	915.3
460.964	927.05
461.337	930.67
461.71	953.94
462.083	950.33
462.456	949.42
462.829	972.47
463.201	979.25
463.574	968.86
463.947	989.88
464.32	1007.05
464.692	1035.3
465.065	1028.97
465.438	1031
465.81	1028.97
466.183	1064.9
466.555	1062.64
466.928	1034.39
467.3	1073.49
467.672	1113.26
468.045	1112.36
468.417	1129.08
468.789	1101.74
469.161	1127.27
469.534	1153.71
469.906	1181.06
470.278	1156.65
470.65	1186.48
471.022	1199.81
471.394	1239.59
471.766	1246.37
472.138	1247.5
472.51	1267.38
472.882	1317.78
473.253	1322.52
473.625	1328.62
473.997	1362.97
474.369	1365.91
474.74	1370.2
475.112	1411.33
475.484	1400.49
475.855	1447.04
476.227	1445
476.598	1486.81
476.97	1504.21
477.341	1560.03
477.713	1561.16
478.084	1581.5
478.455	1612.01
478.827	1609.07
479.198	1682.74
479.569	1708.05
479.94	1723.42
480.311	1748.73
480.682	1771.78
481.053	1799.12
481.424	1846.58
481.795	1887.48
482.166	1913.92
482.537	1925.22
482.908	1962.73
483.279	1990.75
483.65	2029.4
484.021	2078.89
484.391	2083.63
484.762	2102.39
485.133	2140.13
485.503	2168.15
485.874	2194.36
486.244	2231.65
486.615	2271.88
486.985	2317.98
487.356	2334.25
487.726	2437.52
488.097	2454.92
488.467	2440.91
488.837	2493.34
489.207	2519.78
489.578	2560
489.948	2626.67
490.318	2665.99
490.688	2639.78
491.058	2678.42
491.428	2743.28
491.798	2794.57
492.168	2832.31
492.538	2828.47
492.908	2928.81
493.278	2887.68
493.648	2904.18
494.017	2976.72
494.387	2992.08
494.757	2994.79
495.126	3069.37
495.496	3066.88
495.866	3091.51
496.235	3091.74
496.605	3164.96
496.974	3155.69
497.344	3175.58
497.713	3250.15
498.082	3236.37
498.452	3316.59
498.821	3313.88
499.19	3319.76
499.559	3356.14
499.928	3350.94
500.298	3398.85
500.667	3428.23
501.036	3376.93
501.405	3445.86
501.774	3502.8
502.143	3500.32
502.512	3508.45
502.88	3503.26
503.249	3534.21
503.618	3534.44
503.987	3566.3
504.356	3584.61
504.724	3600.65
505.093	3619.64
505.462	3672.74
505.83	3673.19
506.199	3687.21
506.567	3714.55
506.936	3711.39
507.304	3802.46
507.672	3763.14
508.041	3751.16
508.409	3787.32
508.777	3846.3
509.145	3886.07
509.514	3890.82
509.882	3906.18
510.25	3882.68
510.618	3901.89
510.986	3914.32
511.354	3900.31
511.722	3973.75
512.09	3982.79
512.458	4013.52
512.826	4009.46
513.193	3997.03
513.561	4025.5
513.929	4066.86
514.297	4064.14
514.664	4043.35
515.032	4079.96
515.4	4122.22
515.767	4093.07
516.135	4133.07
516.502	4098.95
516.869	4182.33
517.237	4154.09
517.604	4153.41
517.972	4208.77
518.339	4224.59
518.706	4234.54
519.073	4229.34
519.44	4237.47
519.808	4259.17
520.175	4262.11
520.542	4298.26
520.909	4332.39
521.276	4293.74
521.643	4349.79
522.009	4344.59
522.376	4429.33
522.743	4372.39
523.11	4404.25
523.477	4465.94
523.843	4456.68
524.21	4517.01
524.577	4540.06
524.943	4514.3
525.31	4564.47
525.676	4580.74
526.043	4619.16
526.409	4602.21
526.776	4617.8
527.142	4665.26
527.508	4699.16
527.874	4706.39
528.241	4714.52
528.607	4740.28
528.973	4821.41
529.339	4804.24
529.705	4802.43
530.071	4878.36
530.437	4877
530.803	4871.58
531.169	4884.69
531.535	4931.24
531.901	4933.73
532.267	4954.06
532.632	5010.33
532.998	5020.5
533.364	5073.16
533.73	5073.61
534.095	5051.92
534.461	5112.25
534.826	5122.42
535.192	5138.24
535.557	5124
535.923	5164.91
536.288	5157.68
536.653	5229.09
537.019	5180.95
537.384	5221.63
537.749	5271.8
538.114	5280.61
538.479	5302.76
538.845	5321.74
539.21	5352.92
539.575	5361.51
539.94	5368.07
540.305	5371.68
540.67	5412.58
541.034	5406.71
541.399	5464.33
541.764	5451.45
542.129	5440.83
542.494	5477.89
542.858	5526.93
543.223	5546.82
543.587	5581.17
543.952	5618.68
544.316	5563.09
544.681	5641.96
545.045	5637.89
545.41	5692.58
545.774	5715.17
546.138	5732.35
546.503	5734.16
546.867	5757.66
547.231	5794.04
547.595	5828.39
547.959	5883.76
548.324	5837.21
548.688	5861.39
549.052	5891.44
549.416	5874.04
549.779	5946.81
550.143	5929.41
550.507	5977.09
550.871	6008.27
551.235	5990.42
551.599	6064.09
551.962	6081.49
552.326	6048.95
552.689	6050.53
553.053	6057.31
553.417	6134.6
553.78	6175.05
554.143	6162.85
554.507	6168.27
554.87	6128.5
555.234	6215.5
555.597	6268.38
555.96	6246.01
556.323	6210.53
556.686	6289.85
557.05	6321.03
557.413	6319
557.776	6355.84
558.139	6385.67
558.502	6344.99
558.865	6430.86
559.228	6438.09
559.59	6455.95
559.953	6458.88
560.316	6526
560.679	6541.59
561.041	6580.24
561.404	6636.73
561.767	6602.83
562.129	6573.46
562.492	6632.21
562.854	6612.55
563.217	6623.63
563.579	6688.26
563.941	6692.1
564.304	6738.2
564.666	6763.73
565.028	6748.59
565.39	6790.17
565.753	6858.42
566.115	6902.71
566.477	6897.06
566.839	6894.58
567.201	6912.21
567.563	6881.25
567.925	7013.45
568.287	6940
568.648	6983.39
569.01	7023.16
569.372	7120.56
569.734	7056.61
570.095	7147.68
570.457	7086.66
570.819	7173.22
571.18	7196.94
571.542	7251.18
571.903	7240.33
572.265	7320.56
572.626	7407.56
572.987	7417.95
573.349	7403.94
573.71	7497.27
574.071	7513.32
574.432	7501.34
574.794	7664.28
575.155	7651.17
575.516	7723.48
575.877	7752.86
576.238	7794.22
576.599	7902.01
576.96	7953.31
577.32	8069.91
577.681	8102.23
578.042	8196.47
578.403	8191.27
578.763	8309.68
579.124	8376.12
579.485	8558.72
579.845	8617.25
580.206	8724.36
580.566	8765.26
580.927	8871.02
581.287	9025.82
581.648	9101.75
582.008	9233.05
582.368	9387.85
582.728	9520.72
583.089	9674.17
583.449	9792.36
583.809	9956.19
584.169	10153.48
584.529	10306.01
584.889	10487.48
585.249	10564.09
585.609	10723.18
585.969	11004.3
586.329	11116.16
586.688	11349.6
587.048	11528.81
587.408	11665.98
587.768	11982.13
588.127	12209.47
588.487	12338.5
588.846	12713.41
589.206	12792.73
589.565	13086.28
589.925	13402.88
590.284	13637
590.643	13822.76
591.003	14128.74
591.362	14404.89
591.721	14582.29
592.08	14880.13
592.44	15242.16
592.799	15407.12
593.158	15717.17
593.517	15957.84
593.876	16226.54
594.235	16560.09
594.593	16789.46
594.952	17077.14
595.311	17347.86
595.67	17746.5
596.029	18037.79
596.387	18369.98
596.746	18567.04
597.104	18850.65
597.463	19110.98
597.822	19401.14
598.18	19767.01
598.538	19916.84
598.897	20344.62
599.255	20394.34
599.613	20992.51
599.972	21175.11
600.33	21469.79
600.688	21702.78
601.046	22018.25
601.404	22329.43
601.762	22528.97
602.12	22890.09
602.478	23182.96
602.836	23389.51
603.194	23527.36
603.552	23823.17
603.91	23989.04
604.268	24452.76
604.625	24508.35
604.983	24931.39
605.341	24971.62
605.698	25401.89
606.056	25686.17
606.413	25911.03
606.771	26187.86
607.128	26362.54
607.485	26540.16
607.843	26677.34
608.2	27034.39
608.557	27337.66
608.914	27516.18
609.272	27927.7
609.629	28017.64
609.986	28148.26
610.343	28318.42
610.7	28652.2
611.057	28869.14
611.414	29023.94
611.771	29117.95
612.127	29451.95
612.484	29589.58
612.841	29870.7
613.198	29951.15
613.554	30103.01
613.911	30440.63
614.267	30609.89
614.624	30604.69
614.98	30938.47
615.337	31261.4
615.693	31256.88
616.05	31217.78
616.406	31610.99
616.762	31576.42
617.118	31708.62
617.475	31807.6
617.831	32034.93
618.187	32265.44
618.543	32341.14
618.899	32521.93
619.255	32645.31
619.611	32748.14
619.967	32979.99
620.323	33142.7
620.678	33110.61
621.034	33040.11
621.39	33184.96
621.746	33304.73
622.101	33853.19
622.457	33591.73
622.812	33770.48
623.168	33987.88
623.523	33985.39
623.879	34188.32
624.234	34046.63
624.589	34096.58
624.945	34280.07
625.3	34421.09
625.655	34456.57
626.01	34432.39
626.365	34614.3
626.72	34649.1
627.075	34715.09
627.43	34736.78
627.785	34729.1
628.14	34705.6
628.495	34970.68
628.85	34885.71
629.205	34842.54
629.559	35355.98
629.914	35021.75
630.269	35185.81
630.623	35182.87
630.978	34954.41
631.332	35103.55
631.687	35291.8
632.041	35228.3
632.396	35323.21
632.75	35212.48
633.104	35325.24
633.459	35273.27
633.813	35204.79
634.167	35319.82
634.521	35336.32
634.875	35438.23
635.229	35287.5
635.583	35228.3
635.937	35135.64
636.291	35224.91
636.645	35245.7
636.999	35194.85
637.352	35365.02
637.706	35212.93
638.06	35414.28
638.413	35274.4
638.767	35158.24
639.121	35297.9
639.474	35107.62
639.828	35203.89
640.181	35226.94
640.534	35313.49
640.888	35155.76
641.241	35115.98
641.594	35231.91
641.947	35286.6
642.301	35158.92
642.654	35188.3
643.007	35256.54
643.36	35149.2
643.713	35060.39
644.066	35168.41
644.419	34986.27
644.771	34709.89
645.124	34520.52
645.477	34497.24
645.83	34318.72
646.182	34222.9
646.535	34093.86
646.888	34124.37
647.24	33968.67
647.593	34242.56
647.945	33983.58
648.298	33903.81
648.65	33860.42
649.002	33885.73
649.355	34024.49
649.707	33970.25
650.059	34088.89
650.411	34380.64
650.763	34493.17
651.115	34840.74
651.467	34836.89
651.819	34841.41
652.171	34708.31
652.523	34738.59
652.875	34604.81
653.227	34551.7
653.578	34723.68
653.93	34752.6
654.282	34612.04
654.633	34534.53
654.985	34619.27
655.337	34527.75
655.688	34448.88
656.039	34686.62
656.391	34389.22
656.742	34412.73
657.094	34419.73
657.445	34512.38
657.796	34458.37
658.147	34412.05
658.498	34428.77
658.849	34564.59
659.2	34525.72
659.551	34393.29
659.902	34490.69
660.253	34335.44
660.604	34399.62
660.955	34259.51
661.306	34380.86
661.656	34345.16
662.007	34250.47
662.358	34206.63
662.708	34268.32
663.059	34453.85
663.409	34167.31
663.76	34312.16
664.11	34279.4
664.461	34277.36
664.811	34353.07
665.161	34378.83
665.511	34298.6
665.862	34182
666.212	34341.09
666.562	34392.16
666.912	34212.05
667.262	34315.1
667.612	34189
667.962	34273.29
668.312	34282.79
668.662	34398.71
669.011	34205.72
669.361	34086.41
669.711	34142.22
670.06	34227.42
670.41	34056.35
670.76	34057.71
671.109	34200.53
671.459	34269.68
671.808	34134.09
672.157	34184.03
672.507	33925.05
672.856	33860.2
673.205	34002.11
673.554	34084.15
673.904	33977.03
674.253	34134.99
674.602	33968.89
674.951	33584.72
675.3	33399.87
675.649	33849.58
675.998	34043.92
676.346	33938.84
676.695	33970.25
677.044	33748.34
677.393	33887.09
677.741	33839.41
678.09	33906.07
678.438	33686.19
678.787	33682.8
679.135	33819.97
679.484	33577.72
679.832	33642.58
680.181	33528.23
680.529	33702.91
680.877	33597.83
681.225	33333.66
681.573	33661.56
681.922	33376.14
682.27	33353.54
682.618	33321.91
682.966	33211.85
683.314	33231.97
683.661	33325.52
684.009	33069.03
684.357	33041.24
684.705	32914.69
685.053	33012.08
685.4	32944.74
685.748	32782.26
686.095	32798.76
686.443	32701.13
686.79	32669.49
687.138	32605.54
687.485	32735.71
687.832	32538.88
688.18	32636.27
688.527	32477.63
688.874	32438.99
689.221	32383.85
689.568	32226.57
689.915	32239.9
690.262	32187.7
690.609	32020.47
690.956	31981.38
691.303	31905.45
691.65	31809.18
691.997	31822.28
692.344	31633.82
692.69	31650.09
693.037	31726.69
693.383	31387.95
693.73	31478.34
694.077	31309.3
694.423	31366.03
694.769	31207.39
695.116	31070.89
695.462	31119.48
695.808	31060.27
696.155	31073.38
696.501	30707.74
696.847	30768.98
697.193	30543.9
697.539	30800.62
697.885	30607.85
698.231	30334.41
698.577	30338.48
698.923	30294.42
699.269	30161.54
699.614	30020.3
699.96	30109.79
700.306	29963.35
700.651	29872.73
700.997	29763.13
701.342	29786.63
701.688	29602
702.033	29698.72
702.379	29651.72
702.724	29365.17
703.069	29561.33
703.415	29178.51
703.76	29209.7
704.105	29157.04
704.45	29154.56
704.795	28996.82
705.14	28979.65
705.485	28841.8
705.83	28788.01
706.175	28920.44
706.52	28792.08
706.865	28623.05
707.209	28600.22
707.554	28420.11
707.899	28512.32
708.243	28440
708.588	28419.44
708.932	28169.5
709.277	28194.81
709.621	28235.26
709.966	28013.8
710.31	28113.46
710.654	27846.8
710.998	27978.77
711.342	27940.8
711.687	27711.88
712.031	27661.94
712.375	27678.66
712.719	27576.29
713.063	27559.35
713.407	27646.12
713.75	27466.24
714.094	27443.64
714.438	27338.33
714.782	27304.66
715.125	27375.85
715.469	27263.76
715.812	27200.71
716.156	27009.53
716.499	27015.86
716.843	27025.35
717.186	26837.33
717.53	26927.27
717.873	26834.85
718.216	26816.99
718.559	26743.77
718.902	26531.12
719.246	26684.57
719.589	26593.95
719.932	26457.91
720.275	26485.02
720.617	26367.06
720.96	26381.98
721.303	26335.65
721.646	26335.88
721.989	26253.17
722.331	26242.54
722.674	26160.06
723.016	26129.33
723.359	26118.03
723.701	26146.73
724.044	25947.86
724.386	25854.08
724.729	26008.65
725.071	25876.68
725.413	25966.39
725.755	25765.04
726.097	25731.15
726.439	25622.22
726.782	25704.48
727.124	25753.97
727.465	25596.91
727.807	25655.89
728.149	25553.07
728.491	25419.29
728.833	25513.98
729.175	25353.3
729.516	25356.01
729.858	25371.83
730.199	25376.8
730.541	25367.31
730.882	25254.55
731.224	25292.06
731.565	25151.5
731.906	25127.77
732.248	25140.2
732.589	24952.63
732.93	24924.61
733.271	24932.97
733.612	25013.42
733.953	24839.19
734.294	24888.23
734.635	24888
734.976	24800.55
735.317	24754.67
735.658	24739.76
735.999	24705.64
736.339	24579.09
736.68	24761.68
737.021	24579.99
737.361	24516.04
737.702	24645.52
738.042	24563.27
738.383	24414.8
738.723	24434.23
739.063	24387.68
739.404	24397.17
739.744	24410.5
740.084	24300.67
740.424	24335.25
740.764	24197.85
741.104	24324.85
741.444	24255.03
741.784	24002.83
742.124	24215.93
742.464	24081.25
742.804	24069.49
743.143	24032.21
743.483	23902.94
743.823	23962.83
744.162	23821.82
744.502	23864.53
744.841	23724.64
745.181	23786.79
745.52	23642.61
745.86	23864.08
746.199	23757.19
746.538	23735.94
746.877	23755.15
747.216	23706.57
747.556	23561.48
747.895	23562.61
748.234	23493.69
748.573	23514.48
748.911	23418.21
749.25	23447.14
749.589	23408.49
749.928	23332.34
750.267	23392.9
750.605	23280.36
750.944	23236.52
751.283	23227.71
751.621	23194.04
751.96	22951.56
752.298	23178.44
752.636	22994.72
752.975	22930.32
753.313	22852.8
753.651	22925.57
753.989	22862.75
754.327	22845.35
754.666	22713.82
755.004	22754.05
755.342	22831.79
755.679	22736.42
756.017	22509.54
756.355	22641.28
756.693	22588.63
757.031	22487.16
757.368	22425.47
757.706	22383.89
758.044	22376.88
758.381	22304.79
758.719	22147.74
759.056	22229.32
759.394	22137.79
759.731	22093.73
760.068	21954.52
760.405	21967.18
760.743	21831.36
761.08	21919.72
761.417	21746.39
761.754	21826.84
762.091	21849.89
762.428	21600.86
762.765	21583.46
763.102	21505.72
763.438	21529.67
763.775	21369.45
764.112	21352.5
764.449	21372.16
764.785	21262.34
765.122	21023.92
765.458	20973.76
765.795	20946.64
766.131	20979.41
766.467	20862.8
766.804	20805.4
767.14	20725.85
767.476	20758.62
767.812	20517.95
768.148	20721.33
768.485	20459.42
768.821	20350.27
769.157	20303.04
769.492	20297.84
769.828	20344.17
770.164	20059.66
770.5	20151.86
770.836	20074.12
771.171	20004.97
771.507	19964.52
771.842	19783.05
772.178	19733.56
772.513	19713.68
772.849	19703.51
773.184	19515.49
773.519	19548.48
773.855	19495.15
774.19	19381.26
774.525	19320.47
774.86	19416.51
775.195	19255.38
775.53	19167.25
775.865	19066.46
776.2	18910.99
776.535	18779.69
776.87	18833.47
777.205	18809.07
777.539	18743.53
777.874	18627.15
778.209	18593.93
778.543	18553.93
778.878	18353.03
779.212	18316.65
779.547	18369.76
779.881	18356.42
780.215	18227.16
780.55	18136.54
780.884	18023.1
781.218	18027.85
781.552	17923.44
781.886	17842.31
782.22	17778.36
782.554	17625.82
782.888	17596.22
783.222	17595.54
783.556	17471.93
783.889	17446.39
784.223	17312.61
784.557	17253.4
784.89	17253.63
785.224	17249.33
785.557	17071.49
785.891	17019.74
786.224	17036.01
786.558	16965.95
786.891	16857.48
787.224	16814.54
787.557	16712.17
787.891	16704.49
788.224	16714.66
788.557	16683.7
788.89	16527.09
789.223	16596.02
789.556	16540.88
789.888	16383.82
790.221	16299.3
790.554	16231.06
790.887	16211.17
791.219	16199.87
791.552	16189.7
791.884	16005.53
792.217	15966.2
792.549	15934.34
792.882	15805.76
793.214	15871.74
793.546	15826.77
793.879	15717.17
794.211	15681.69
794.543	15689.38
794.875	15609.6
795.207	15620
795.539	15552.43
795.871	15485.99
796.203	15301.82
796.535	15342.94
796.867	15321.93
797.198	15189.5
797.53	15197.86
797.862	15101.59
798.193	15107.24
798.525	15048.49
798.856	15081.26
799.188	14852.79
799.519	14795.84
799.85	14727.14
800.182	14804.88
800.513	14797.2
800.844	14535.51
801.175	14596.52
801.506	14607.6
801.837	14576.18
802.168	14514.72
802.499	14406.47
802.83	14450.99
803.161	14362.63
803.491	14375.06
803.822	14379.35
804.153	14298.68
804.483	14128.06
804.814	14192.47
805.145	14054.84
805.475	14047.84
805.805	14034.96
806.136	14062.75
806.466	13993.6
806.796	13985.01
807.126	13816.2
807.457	13870.21
807.787	13891.91
808.117	13773.49
808.447	13731.01
808.777	13769.2
809.107	13719.71
809.436	13640.62
809.766	13669.99
810.096	13551.58
810.426	13497.57
810.755	13601.97
811.085	13470.45
811.414	13450.56
811.744	13291.47
812.073	13344.35
812.403	13279.27
812.732	13226.39
813.061	13177.13
813.39	13132.83
813.719	13122.66
814.049	13180.29
814.378	13111.59
814.707	13067.07
815.036	13014.64
815.365	13052.38
815.693	12824.82
816.022	12868.43
816.351	12839.28
816.68	12773.75
817.008	12851.71
817.337	12637.7
817.665	12648.78
817.994	12732.84
818.322	12710.24
818.651	12588.44
818.979	12616.91
819.307	12607.87
819.636	12596.58
819.964	12437.94
820.292	12541.89
820.62	12526.97
820.948	12482.91
821.276	12493.98
821.604	12427.54
821.932	12489.46
822.259	12436.35
822.587	12420.31
822.915	12411.27
823.243	12439.07
823.57	12371.27
823.898	12472.74
824.225	12442
824.553	12317.71
824.88	12476.13
825.207	12461.44
825.535	12380.76
825.862	12469.35
826.189	12354.55
826.516	12433.64
826.843	12404.49
827.17	12411.72
827.497	12458.73
827.824	12416.69
828.151	12485.62
828.478	12412.63
828.805	12488.56
829.131	12392.06
829.458	12334.66
829.785	12271.16
830.111	12397.26
830.438	12431.16
830.764	12350.93
831.09	12399.52
831.417	12339.63
831.743	12380.31
832.069	12368.11
832.395	12335.34
832.722	12339.63
833.048	12322.23
833.374	12285.85
833.7	12175.8
834.026	12228
834.351	12388.9
834.677	12220.77
835.003	12232.74
835.329	12244.27
835.654	12260.31
835.98	12169.47
836.306	12116.14
836.631	12140.77
836.956	12156.36
837.282	12190.94
837.607	12074.78
837.932	12037.27
838.258	12119.75
838.583	11979.87
838.908	12009.47
839.233	12041.79
839.558	11878.18
839.883	11915.92
840.208	11865.52
840.533	11828.01
840.858	11949.59
841.182	11895.8
841.507	11846.76
841.832	11784.17
842.156	11792.75
842.481	11764.51
842.805	11748.01
843.13	11694.9
843.454	11636.83
843.778	11649.03
844.103	11677.73
844.427	11527.9
844.751	11616.26
845.075	11551.86
845.399	11515.25
845.723	11517.28
846.047	11518.41
846.371	11370.62
846.695	11343.28
847.019	11315.25
847.343	11232.09
847.666	11138.53
847.99	11117.07
848.313	11166.1
848.637	11101.25
848.96	11073
849.284	11051.76
849.607	10921.59
849.931	10911.2
850.254	10900.57
850.577	10822.38
850.9	10668.49
851.223	10645.44
851.546	10677.53
851.869	10626.68
852.192	10660.13
852.515	10595.27
852.838	10471.89
853.161	10519.34
853.483	10439.34
853.806	10441.6
854.129	10361.83
854.451	10363.64
854.774	10292.91
855.096	10320.25
855.419	10213.36
855.741	10269.63
856.063	10116.87
856.385	10074.16
856.708	10162.52
857.03	10062.86
857.352	10120.03
857.674	10025.57
857.996	10025.34
858.318	10003.88
858.64	9978.11
858.961	9908.51
859.283	9880.94
859.605	9811.11
859.926	9831.68
860.248	9783.32
860.57	9779.93
860.891	9829.19
861.212	9758.46
861.534	9722.75
861.855	9655.64
862.176	9664.68
862.498	9649.53
862.819	9700.15
863.14	9608.18
863.461	9526.83
863.782	9586.03
864.103	9509.88
864.424	9550.55
864.745	9484.79
865.065	9449.54
865.386	9404.8
865.707	9464.45
866.027	9385.59
866.348	9358.69
866.668	9413.16
866.989	9381.29
867.309	9317.57
867.63	9275.53
867.95	9310.56
868.27	9261.07
868.59	9282.09
868.91	9244.8
869.23	9322.31
869.55	9194.18
869.87	9218.36
870.19	9228.98
870.51	9148.3
870.83	9278.47
871.15	9129.32
871.469	9103.56
871.789	9134.97
872.109	9156.89
872.428	9139.27
872.748	9131.81
873.067	9077.35
873.386	9112.37
873.706	9094.97
874.025	9042.09
874.344	9033.73
874.663	9054.3
874.982	9007.74
875.301	9018.82
875.62	8935.88
875.939	8969.78
876.258	8910.57
876.577	8914.64
876.896	8868.09
877.214	8814.3
877.533	8871.7
877.852	8858.37
878.17	8848.65
878.489	8839.39
878.807	8817.92
879.125	8786.05
879.444	8758.03
879.762	8744.93
880.08	8729.11
880.398	8676.9
880.716	8755.55
881.034	8681.2
881.352	8711.48
881.67	8715.55
881.988	8673.97
882.306	8672.61
882.624	8578.6
882.941	8584.93
883.259	8562.56
883.577	8525.72
883.894	8484.59
884.212	8538.83
884.529	8502.22
884.846	8492.05
885.164	8482.33
885.481	8462.22
885.798	8419.74
886.115	8400.3
886.432	8379.29
886.75	8386.29
887.067	8373.41
887.383	8334.77
887.7	8334.77
888.017	8238.27
888.334	8336.57
888.651	8210.93
888.967	8250.93
889.284	8213.41
889.6	8147.88
889.917	8109.46
890.233	8133.64
890.55	8163.25
890.866	8104.49
891.182	8074.43
891.498	8029.92
891.815	8042.8
892.131	7976.58
892.447	7999.86
892.763	7929.13
893.079	7922.12
893.395	7905.85
893.71	7890.71
894.026	7862.91
894.342	7858.85
894.657	7777.72
894.973	7772.3
895.289	7781.79
895.604	7732.52
895.92	7710.38
896.235	7610.72
896.55	7640.1
896.865	7578.85
897.181	7532.98
897.496	7593.77
897.811	7557.16
898.126	7521.91
898.441	7437.39
898.756	7451.63
899.071	7420.44
899.386	7461.57
899.7	7338.63
900.015	7365.3
900.33	7301.8
900.644	7287.79
900.959	7327.56
901.273	7322.14
901.588	7194.23
901.902	7185.42
902.216	7147
902.531	7190.62
902.845	7135.02
903.159	7050.28
903.473	7071.52
903.787	7048.7
904.101	6970.06
904.415	7021.81
904.729	6975.48
905.042	6917.4
905.356	6914.01
905.67	6915.59
905.984	6885.31
906.297	6829.72
906.611	6807.35
906.924	6802.83
907.237	6747.92
907.551	6752.89
907.864	6704.08
908.177	6639.67
908.491	6687.58
908.804	6634.47
909.117	6577.07
909.43	6542.5
909.743	6551.76
910.056	6512.67
910.368	6482.16
910.681	6465.66
910.994	6459.11
911.307	6388.83
911.619	6411.43
911.932	6400.35
912.244	6286.46
912.557	6380.02
912.869	6245.1
913.181	6313.58
913.494	6264.31
913.806	6227.7
914.118	6203.07
914.43	6158.55
914.742	6179.8
915.054	6165.78
915.366	6130.53
915.678	6109.51
915.99	6033.36
916.302	5969.86
916.613	5982.96
916.925	5979.57
917.236	5952.46
917.548	5917.66
917.859	5895.96
918.171	5807.83
918.482	5858.67
918.794	5844.66
919.105	5823.19
919.416	5759.02
919.727	5769.86
920.038	5754.72
920.349	5691.9
920.66	5745
920.971	5672.24
921.282	5659.36
921.593	5601.05
921.903	5598.57
922.214	5616.42
922.525	5554.73
922.835	5535.07
923.146	5485.12
923.456	5478.12
923.767	5483.54
924.077	5447.16
924.387	5385.24
924.697	5403.09
925.008	5363.32
925.318	5392.92
925.628	5313.38
925.938	5257.11
926.248	5248.29
926.558	5253.72
926.867	5263.21
927.177	5264.11
927.487	5205.13
927.796	5168.3
928.106	5192.02
928.416	5098.24
928.725	5148.18
929.034	5110.22
929.344	5071.58
929.653	5046.27
929.962	5060.28
930.271	5005.14
930.581	4985.93
930.89	4934.86
931.199	4935.99
931.508	4900.05
931.817	4941.41
932.125	4866.61
932.434	4926.49
932.743	4839.04
933.051	4768.08
933.36	4761.3
933.669	4748.42
933.977	4780.28
934.286	4716.78
934.594	4728.76
934.902	4685.15
935.21	4673.39
935.519	4676.56
935.827	4653.73
936.135	4622.55
936.443	4567.63
936.751	4512.95
937.059	4516.79
937.367	4538.71
937.674	4520.18
937.982	4479.73
938.29	4466.62
938.597	4470.46
938.905	4437.02
939.213	4413.97
939.52	4415.32
939.827	4425.04
940.135	4354.31
940.442	4329.9
940.749	4337.81
941.056	4336.68
941.363	4304.14
941.67	4293.29
941.977	4215.33
942.284	4206.97
942.591	4214.65
942.898	4224.14
943.205	4188.21
943.511	4173.97
943.818	4180.98
944.125	4077.93
944.431	4116.35
944.738	4091.04
945.044	4060.53
945.35	4052.62
945.657	4008.1
945.963	4060.08
946.269	4020.98
946.575	4036.12
946.881	3950.48
947.187	3954.99
947.493	3886.75
947.799	3911.61
948.105	3883.13
948.41	3886.97
948.716	3889.69
949.022	3839.29
949.327	3865.05
949.633	3801.1
949.938	3836.81
950.244	3779.63
950.549	3784.38
950.854	3738.05
951.16	3695.34
951.465	3755.68
951.77	3705.28
952.075	3665.74
952.38	3642.01
952.685	3644.95
952.99	3628.68
953.294	3643.14
953.599	3617.15
953.904	3620.54
954.209	3567.43
954.513	3580.32
954.818	3569.02
955.122	3500.09
955.426	3545.74
955.731	3526.98
956.035	3500.09
956.339	3478.62
956.643	3510.03
956.948	3445.63
957.252	3430.71
957.556	3477.95
957.86	3389.36
958.163	3394.78
958.467	3412.41
958.771	3349.14
959.075	3340.55
959.378	3322.02
959.682	3324.5
959.985	3338.29
960.289	3323.83
960.592	3293.32
960.896	3271.4
961.199	3251.06
961.502	3209.7
961.805	3221.91
962.108	3167.9
962.411	3227.33
962.714	3181.68
963.017	3191.85
963.32	3208.57
963.623	3114.11
963.926	3123.38
964.228	3140.1
964.531	3115.92
964.833	3054
965.136	3062.36
965.438	3063.27
965.741	3031.63
966.043	3023.49
966.345	3018.3
966.648	3019.88
966.95	3034.79
967.252	2969.26
967.554	2950.28
967.856	2956.15
968.158	2937.17
968.46	2919.77
968.761	2925.42
969.063	2944.4
969.365	2852.2
969.666	2884.74
969.968	2854.68
970.269	2859.2
970.571	2856.49
970.872	2853.78
971.174	2848.13
971.475	2803.16
971.776	2824.63
972.077	2818.53
972.378	2763.84
972.679	2769.94
972.98	2704.18
973.281	2754.57
973.582	2722.03
973.883	2691.07
974.183	2718.42
974.484	2718.42
974.785	2713.9
975.085	2682.49
975.386	2656.95
975.686	2638.42
975.986	2614.69
976.287	2657.4
976.587	2567.69
976.887	2588.48
977.187	2587.57
977.487	2571.98
977.787	2569.95
978.087	2591.87
978.387	2547.8
978.687	2534.24
978.987	2507.8
979.286	2515.03
979.586	2495.15
979.885	2490.85
980.185	2462.15
980.484	2453.11
980.784	2474.81
981.083	2478.42
981.382	2447.01
981.682	2432.55
981.981	2420.57
982.28	2403.85
982.579	2406.56
982.878	2405.21
983.177	2377.86
983.475	2391.19
983.774	2367.47
984.073	2334.92
984.372	2329.73
984.67	2332.21
984.969	2301.03
985.267	2369.05
985.566	2280.91
985.864	2288.37
986.162	2276.62
986.461	2293.34
986.759	2272.78
987.057	2280.91
987.355	2265.77
987.653	2220.8
987.951	2217.41
988.249	2201.14
988.547	2240.69
988.844	2185.78
989.142	2165.89
989.44	2167.47
989.737	2173.12
990.035	2141.71
990.332	2115.27
990.63	2114.14
990.927	2092.44
991.224	2109.62
991.521	2115.95
991.819	2093.8
992.116	2066.91
992.413	2049.51
992.71	2038.89
993.006	2028.04
993.303	2017.19
993.6	2045.21
993.897	2048.15
994.193	1998.44
994.49	2004.54
994.787	2000.24
995.083	1970.87
995.379	1971.32
995.676	1960.92
995.972	1967.25
996.268	1971.77
996.565	1943.52
996.861	1923.18
997.157	1926.8
997.453	1928.38
997.749	1914.6
998.044	1932
998.34	1866.91
998.636	1881.15
998.932	1881.83
999.227	1844.99
999.523	1848.38
999.818	1841.38
1000.114	1822.17
1000.409	1813.81
1000.704	1807.93
1001	1782.85
1001.295	1795.96
1001.59	1791.44
1001.885	1781.27
1002.18	1768.39
1002.475	1783.3
1002.77	1775.17
1003.065	1728.84
1003.359	1756.86
1003.654	1712.12
1003.949	1724.32
1004.243	1727.71
1004.538	1668.28
1004.832	1676.64
1005.127	1670.76
1005.421	1668.05
1005.715	1666.47
1006.009	1638.45
1006.304	1679.57
1006.598	1608.16
1006.892	1628.5
1007.186	1612.46
1007.48	1620.59
1007.773	1589.18
1008.067	1595.51
1008.361	1572.46
1008.655	1565.45
1008.948	1589.41
1009.242	1573.36
1009.535	1532.69
1009.829	1521.84
1010.122	1530.43
1010.415	1517.54
1010.708	1524.55
1011.001	1512.57
1011.295	1516.41
1011.588	1514.83
1011.881	1507.83
1012.173	1451.78
1012.466	1443.2
1012.759	1460.82
1013.052	1463.31
1013.344	1456.08
1013.637	1456.3
1013.93	1439.13
1014.222	1409.98
1014.514	1408.4
1014.807	1400.26
1015.099	1413.37
1015.391	1369.07
1015.683	1369.75
1015.976	1362.29
1016.268	1348.74
1016.56	1352.58
1016.851	1338.79
1017.143	1350.77
1017.435	1300.38
1017.727	1300.83
1018.018	1297.66
1018.31	1301.28
1018.602	1324.56
1018.893	1299.02
1019.185	1315.52
1019.476	1281.84
1019.767	1254.27
1020.058	1251.34
1020.35	1255.63
1020.641	1234.16
1020.932	1223.77
1021.223	1216.08
1021.514	1232.58
1021.804	1225.58
1022.095	1204.11
1022.386	1202.52
1022.677	1202.98
1022.967	1205.24
1023.258	1179.02
1023.548	1145.8
1023.839	1161.62
1024.129	1165.46
1024.419	1112.81
1024.709	1176.31
1025	1145.8
1025.29	1146.48
1025.58	1139.93
1025.87	1089.31
1026.16	1118.91
1026.449	1108.97
1026.739	1084.11
1027.029	1078.91
1027.319	1084.11
1027.608	1092.47
1027.898	1057.22
1028.187	1081.4
1028.477	1066.71
1028.766	1032.36
1029.055	1033.49
1029.344	1018.8
1029.634	1052.92
1029.923	1013.83
1030.212	1011.12
1030.501	1007.73
1030.79	1011.8
1031.078	1003.43
1031.367	980.38
1031.656	968.18
1031.945	988.52
1032.233	977.45
1032.522	993.72
1032.81	929.76
1033.099	940.61
1033.387	969.99
1033.675	954.85
1033.963	931.57
1034.251	950.33
1034.54	939.03
1034.828	901.97
1035.116	901.97
1035.403	909.2
1035.691	910.1
1035.979	905.36
1036.267	882.76
1036.554	871.69
1036.842	884.79
1037.129	875.08
1037.417	857.68
1037.704	869.65
1037.992	856.09
1038.279	858.13
1038.566	850.67
1038.853	850.67
1039.14	850.67
