Data from hue_100_FLMS001491_00020.txt Node
Date: Tue Feb 07 17:02:44 GMT 2017
User: dcchb
Spectrometer: FLMS00149
Trigger mode: 0
Integration Time (sec): 2.000000E-2
Scans to average: 10
Electric dark correction enabled: true
Nonlinearity correction enabled: false
Boxcar width: 0
XAxis mode: Wavelengths
Number of Pixels in Spectrum: 2048
>>>>>Begin Spectral Data<<<<<
341.393	0.11
341.776	0.11
342.16	0.11
342.543	-74.46
342.927	-71.75
343.31	-62.48
343.693	-78.3
344.077	-87.12
344.46	-43.05
344.843	-55.48
345.226	-56.38
345.61	-20.23
345.993	-20.68
346.376	1.69
346.759	7.57
347.142	38.3
347.525	55.48
347.908	36.72
348.291	78.08
348.674	102.26
349.057	103.61
349.44	114.01
349.823	146.32
350.206	151.97
350.588	197.4
350.971	201.46
351.354	236.49
351.737	225.64
352.119	244.17
352.502	284.17
352.884	277.85
353.267	289.82
353.65	310.84
354.032	288.92
354.414	317.17
354.797	302.93
355.179	355.36
355.562	319.2
355.944	322.14
356.326	344.96
356.709	341.57
357.091	360.33
357.473	334.79
357.855	336.83
358.238	337.28
358.62	344.74
359.002	353.55
359.384	339.31
359.766	372.31
360.148	352.65
360.53	324.62
360.912	348.58
361.294	361.69
361.676	339.31
362.057	361.01
362.439	351.74
362.821	310.16
363.203	330.05
363.584	329.82
363.966	349.48
364.348	325.53
364.729	315.36
365.111	327.34
365.493	339.09
365.874	339.09
366.256	311.97
366.637	301.8
367.019	324.4
367.4	316.26
367.781	312.42
368.163	324.85
368.544	316.71
368.925	303.83
369.306	325.53
369.688	325.75
370.069	301.12
370.45	322.82
370.831	331.63
371.212	307.45
371.593	310.16
371.974	327.79
372.355	322.14
372.736	351.52
373.117	326.66
373.498	311.29
373.879	332.53
374.26	305.64
374.641	318.52
375.021	327.34
375.402	324.17
375.783	323.27
376.163	321.01
376.544	337.51
376.925	339.77
377.305	338.86
377.686	325.98
378.066	329.82
378.447	326.66
378.827	325.75
379.208	335.25
379.588	351.52
379.968	340.67
380.349	339.99
380.729	323.72
381.109	354.91
381.489	333.21
381.87	342.93
382.25	345.19
382.63	342.25
383.01	340.67
383.39	350.84
383.77	346.09
384.15	341.8
384.53	345.64
384.91	359.43
385.29	368.46
385.67	374.34
386.049	361.23
386.429	355.13
386.809	368.69
387.189	377.96
387.568	369.14
387.948	367.33
388.328	355.13
388.707	360.33
389.087	363.49
389.466	389.26
389.846	363.72
390.225	376.15
390.605	382.48
390.984	350.61
391.363	367.79
391.743	370.27
392.122	382.48
392.501	402.36
392.881	387
393.26	385.64
393.639	401.68
394.018	393.32
394.397	396.71
394.776	393.32
395.155	375.7
395.534	402.59
395.913	386.32
396.292	399.88
396.671	389.71
397.05	411.85
397.429	394.23
397.808	402.81
398.186	415.02
398.565	407.11
398.944	404.85
399.323	400.33
399.701	421.34
400.08	424.28
400.458	417.28
400.837	409.14
401.215	436.49
401.594	430.16
401.972	421.8
402.351	424.73
402.729	421.8
403.107	433.1
403.486	458.63
403.864	439.2
404.242	449.37
404.62	433.55
404.999	443.04
405.377	451.63
405.755	452.53
406.133	441.91
406.511	430.16
406.889	424.96
407.267	465.64
407.645	461.57
408.023	451.17
408.401	464.51
408.779	487.78
409.156	460.89
409.534	470.38
409.912	474.22
410.29	465.41
410.667	464.06
411.045	492.3
411.422	478.97
411.8	500.21
412.178	497.28
412.555	497.5
412.933	480.55
413.31	499.08
413.687	512.87
414.065	523.72
414.442	508.57
414.819	526.65
415.197	522.36
415.574	513.09
415.951	553.32
416.328	532.3
416.705	528.91
417.082	522.36
417.46	547.9
417.837	563.49
418.214	524.17
418.591	550.38
418.967	556.26
419.344	551.74
419.721	536.82
420.098	558.97
420.475	558.06
420.852	590.15
421.228	587.67
421.605	557.16
421.982	579.31
422.358	594.45
422.735	582.02
423.111	587.67
423.488	590.15
423.864	617.72
424.241	611.4
424.617	598.74
424.994	593.32
425.37	626.09
425.746	632.86
426.123	644.16
426.499	624.5
426.875	615.24
427.251	634.45
427.627	658.85
428.003	666.99
428.379	671.51
428.756	656.59
429.132	691.85
429.507	678.51
429.883	680.55
430.259	685.97
430.635	704.5
431.011	692.3
431.387	701.11
431.763	718.74
432.138	700.89
432.514	722.35
432.89	712.18
433.265	734.78
433.641	731.85
434.016	731.85
434.392	753.54
434.767	761.67
435.143	769.13
435.518	765.74
435.894	776.82
436.269	801
436.644	788.11
437.02	789.47
437.395	803.48
437.77	859.75
438.145	828.79
438.52	823.37
438.895	838.06
439.271	838.74
439.646	843.03
440.021	853.88
440.395	821.56
440.77	865.85
441.145	873.31
441.52	887.1
441.895	890.26
442.27	908.56
442.645	895.91
443.019	908.34
443.394	885.51
443.769	911.95
444.143	923.03
444.518	923.93
444.892	946.53
445.267	939.98
445.641	952.86
446.016	951.95
446.39	954.44
446.764	953.08
447.139	968.45
447.513	946.75
447.887	1009.35
448.262	984.27
448.636	991.5
449.01	1016.58
449.384	1011.84
449.758	988.79
450.132	1034.89
450.506	1013.65
450.88	1044.15
451.254	1031.27
451.628	1025.85
452.002	1081.21
452.376	1042.8
452.75	1051.16
453.123	1099.75
453.497	1110.14
453.871	1129.35
454.244	1146.07
454.618	1146.52
454.992	1149.91
455.365	1156.69
455.739	1172.29
456.112	1217.26
456.486	1193.08
456.859	1218.84
457.232	1240.98
457.606	1238.72
457.979	1230.14
458.352	1272.4
458.725	1275.79
459.099	1294.09
459.472	1324.15
459.845	1339.51
460.218	1348.55
460.591	1361.89
460.964	1362.11
461.337	1387.42
461.71	1415.44
462.083	1408.66
462.456	1453.63
462.829	1417.02
463.201	1497.93
463.574	1494.31
463.947	1494.99
464.32	1548.32
464.692	1549.9
465.065	1555.1
465.438	1598.72
465.81	1624.7
466.183	1631.93
466.555	1696.34
466.928	1683.46
467.3	1661.09
467.672	1726.17
468.045	1795.09
468.417	1773.17
468.789	1802.55
469.161	1859.73
469.534	1866.96
469.906	1902.44
470.278	1937.92
470.65	2008.2
471.022	2015.43
471.394	2092.26
471.766	2085.71
472.138	2128.42
472.51	2176.33
472.882	2237.57
473.253	2294.06
473.625	2302.43
473.997	2387.85
474.369	2398.47
474.74	2487.05
475.112	2510.1
475.484	2545.13
475.855	2584.23
476.227	2670.55
476.598	2790.77
476.97	2810.21
477.341	2866.25
477.713	2959.58
478.084	2978.79
478.455	3097.66
478.827	3162.52
479.198	3304.21
479.569	3316.64
479.94	3479.34
480.311	3541.94
480.682	3622.39
481.053	3775.61
481.424	3837.75
481.795	3903.51
482.166	4043.85
482.537	4104.64
482.908	4270.74
483.279	4353.9
483.65	4476.83
484.021	4655.13
484.391	4726.99
484.762	4824.39
485.133	4923.15
485.503	5040.66
485.874	5228.9
486.244	5313.19
486.615	5484.04
486.985	5619.63
487.356	5777.36
487.726	5882.44
488.097	6045.83
488.467	6240.63
488.837	6372.37
489.207	6469.55
489.578	6649.43
489.948	6777.56
490.318	6928.29
490.688	7048.52
491.058	7232.47
491.428	7408.96
491.798	7571.44
492.168	7759.91
492.538	7876.97
492.908	8057.08
493.278	8193.12
493.648	8317.86
494.017	8448.48
494.387	8613.45
494.757	8801.46
495.126	8918.3
495.496	9047.33
495.866	9198.06
496.235	9262.47
496.605	9499.3
496.974	9550.37
497.344	9686.64
497.713	9892.73
498.082	9983.13
498.452	10165.04
498.821	10262.67
499.19	10375.89
499.559	10578.82
499.928	10697.91
500.298	10735.42
500.667	10930.45
501.036	10935.42
501.405	11113.49
501.774	11203.43
502.143	11364.56
502.512	11372.24
502.88	11543.99
503.249	11595.29
503.618	11692.69
503.987	11833.93
504.356	11892.68
504.724	12050.64
505.093	12059.46
505.462	12134.03
505.83	12182.39
506.199	12471.2
506.567	12568.82
506.936	12635.71
507.304	12744.86
507.672	12815.6
508.041	12878.19
508.409	12996.83
508.777	13025.99
509.145	13181.69
509.514	13213.32
509.882	13314.34
510.25	13308.24
510.618	13443.38
510.986	13485.41
511.354	13608.34
511.722	13695.8
512.09	13783.71
512.458	13679.08
512.826	13891.05
513.193	13969.69
513.561	13980.08
513.929	14101.44
514.297	14124.26
514.664	14222.34
515.032	14236.35
515.4	14378.49
515.767	14429.79
516.135	14376.68
516.502	14377.59
516.869	14579.16
517.237	14538.49
517.604	14550.01
517.972	14707.75
518.339	14746.17
518.706	14838.82
519.073	14766.28
519.44	14857.8
519.808	14950.23
520.175	14912.04
520.542	15015.31
520.909	15114.52
521.276	15061.86
521.643	15098.7
522.009	15200.17
522.376	15260.5
522.743	15369.43
523.11	15391.8
523.477	15532.36
523.843	15419.14
524.21	15647.61
524.577	15625.24
524.943	15702.75
525.31	15685.35
525.676	15787.27
526.043	15872.69
526.409	15856.42
526.776	15990.88
527.142	15928.28
527.508	15951.56
527.874	16070.2
528.241	16008.28
528.607	15978
528.973	16028.17
529.339	15989.75
529.705	16070.65
530.071	16127.15
530.437	16142.51
530.803	16199.69
531.169	16247.14
531.535	16171.44
531.901	16151.33
532.267	16164.43
532.632	16147.94
532.998	16118.56
533.364	16222.51
533.73	16180.48
534.095	16250.76
534.461	16181.38
534.826	16221.16
535.192	16267.03
535.557	16227.48
535.923	16134.38
536.288	16243.98
536.653	16171.44
537.019	16069.97
537.384	16078.11
537.749	16140.93
538.114	16014.83
538.479	16025.68
538.845	16101.84
539.21	15984.78
539.575	16054.15
539.94	15958.34
540.305	16050.09
540.67	15933.93
541.034	15938.22
541.399	15758.79
541.764	15925.8
542.129	15844.22
542.494	15847.15
542.858	15806.93
543.223	15788.85
543.587	15787.95
543.952	15703.88
544.316	15728.29
544.681	15662.3
545.045	15571.68
545.41	15684.9
545.774	15639.48
546.138	15562.87
546.503	15519.03
546.867	15399.48
547.231	15545.47
547.595	15437.67
547.959	15451.46
548.324	15408.97
548.688	15372.59
549.052	15351.57
549.416	15382.76
549.779	15255.08
550.143	15246.94
550.507	15208.75
550.871	15253.72
551.235	15166.72
551.599	15256.89
551.962	15198.13
552.326	15102.77
552.689	15092.82
553.053	15029.32
553.417	15049.43
553.78	15168.53
554.143	15002.66
554.507	15063.45
554.87	15030
555.234	15085.82
555.597	14986.16
555.96	14890.79
556.323	15078.36
556.686	14860.97
557.05	14997.01
557.413	14935.99
557.776	14931.92
558.139	14947.52
558.502	14925.14
558.865	14907.97
559.228	14999.94
559.59	14927.63
559.953	14971.24
560.316	15070.45
560.679	14922.43
561.041	15068.19
561.404	14964.01
561.767	14978.7
562.129	14973.05
562.492	15038.14
562.854	14966.95
563.217	15006.05
563.579	15011.92
563.941	15009.21
564.304	15091.69
564.666	15100.51
565.028	15048.53
565.39	15137.12
565.753	15131.69
566.115	15067.29
566.477	15196.32
566.839	15219.83
567.201	15218.92
567.563	15204.23
567.925	15221.63
568.287	15291.24
568.648	15277
569.01	15279.71
569.372	15388.18
569.734	15194.74
570.095	15348.41
570.457	15354.96
570.819	15389.76
571.18	15349.09
571.542	15409.65
571.903	15402.19
572.265	15557.22
572.626	15490.1
572.987	15476.09
573.349	15427.96
573.71	15454.4
574.071	15571.23
574.432	15541.17
574.794	15567.39
575.155	15460.05
575.516	15483.1
575.877	15453.94
576.238	15553.83
576.599	15639.7
576.96	15587.05
577.32	15638.12
577.681	15680.38
578.042	15607.61
578.403	15601.51
578.763	15636.31
579.124	15672.47
579.485	15715.18
579.845	15679.25
580.206	15672.47
580.566	15659.14
580.927	15631.79
581.287	15703.88
581.648	15661.85
582.008	15589.76
582.368	15620.49
582.728	15657.33
583.089	15616.2
583.449	15524.22
583.809	15575.52
584.169	15609.65
584.529	15509.76
584.889	15621.85
585.249	15518.35
585.609	15467.95
585.969	15520.61
586.329	15529.87
586.688	15530.1
587.048	15474.51
587.408	15554.96
587.768	15387.51
588.127	15510.44
588.487	15433.61
588.846	15552.92
589.206	15373.27
589.565	15422.31
589.925	15532.13
590.284	15482.64
590.643	15500.04
591.003	15493.94
591.362	15460.27
591.721	15367.17
592.08	15455.53
592.44	15381.18
592.799	15317.68
593.158	15327.85
593.517	15355.64
593.876	15362.19
594.235	15283.78
594.593	15372.82
594.952	15385.7
595.311	15282.87
595.67	15429.76
596.029	15474.06
596.387	15371.46
596.746	15343.21
597.104	15317.68
597.463	15266.38
597.822	15360.84
598.18	15250.56
598.538	15278.58
598.897	15365.13
599.255	15177.12
599.613	15333.72
599.972	15328.75
600.33	15407.39
600.688	15211.46
601.046	15288.3
601.404	15343.44
601.762	15197.45
602.12	15408.52
602.478	15289.43
602.836	15294.4
603.194	15331.46
603.552	15364.91
603.91	15255.76
604.268	15300.73
604.625	15304.57
604.983	15258.24
605.341	15273.84
605.698	15296.66
606.056	15411.23
606.413	15287.62
606.771	15386.83
607.128	15437.45
607.485	15325.13
607.843	15320.84
608.2	15375.08
608.557	15460.5
608.914	15375.53
609.272	15363.32
609.629	15466.15
609.986	15492.81
610.343	15412.14
610.7	15508.41
611.057	15460.5
611.414	15378.01
611.771	15391.8
612.127	15517.67
612.484	15495.3
612.841	15533.72
613.198	15440.61
613.554	15441.51
613.911	15638.57
614.267	15521.96
614.624	15525.13
614.98	15627.05
615.337	15670.44
615.693	15583.66
616.05	15623.43
616.406	15691
616.762	15689.42
617.118	15613.04
617.475	15619.59
617.831	15707.27
618.187	15668.18
618.543	15708.17
618.899	15762.86
619.255	15801.28
619.611	15679.47
619.967	15825.69
620.323	15790.88
620.678	15711.11
621.034	15725.35
621.39	15710.66
621.746	15677.21
622.101	15867.94
622.457	15760.83
622.812	15693.26
623.168	15795.86
623.523	15775.97
623.879	15813.26
624.234	15683.77
624.589	15839.92
624.945	15828.17
625.3	15817.78
625.655	15769.19
626.01	15815.52
626.365	15785.23
626.72	15697.55
627.075	15683.32
627.43	15791.34
627.785	15723.77
628.14	15780.26
628.495	15916.3
628.85	15753.15
629.205	15633.6
629.559	15711.11
629.914	15597.89
630.269	15757.66
630.623	15685.12
630.978	15572.58
631.332	15644
631.687	15704.56
632.041	15620.72
632.396	15649.87
632.75	15594.05
633.104	15559.03
633.459	15481.29
633.813	15542.53
634.167	15547.05
634.521	15520.61
634.875	15502.53
635.229	15475.41
635.583	15326.94
635.937	15396.32
636.291	15415.3
636.645	15392.48
636.999	15325.81
637.352	15399.26
637.706	15326.26
638.06	15357.45
638.413	15298.24
638.767	15288.07
639.121	15238.13
639.474	15090.56
639.828	15164.01
640.181	15258.69
640.534	15250.79
640.888	15233.61
641.241	15069.32
641.594	15133.5
641.947	15176.21
642.301	15138.92
642.654	15071.36
643.007	15134.63
643.36	15145.03
643.713	15113.16
644.066	15171.47
644.419	15100.96
644.771	14967.18
645.124	14911.81
645.477	14829.1
645.83	14724.92
646.182	14650.58
646.535	14606.28
646.888	14604.25
647.24	14505.95
647.593	14692.16
647.945	14598.15
648.298	14591.37
648.65	14596.11
649.002	14506.17
649.355	14635.21
649.707	14561.31
650.059	14697.81
650.411	14819.16
650.763	14878.59
651.115	15022.99
651.467	15028.42
651.819	14914.07
652.171	14898.25
652.523	14874.07
652.875	14902.32
653.227	14829.1
653.578	14881.76
653.93	14907.07
654.282	14876.78
654.633	14874.98
654.985	14876.33
655.337	14942.77
655.688	14840.4
656.039	14840.17
656.391	14878.37
656.742	14765.37
657.094	14870.91
657.445	14920.17
657.796	14849.67
658.147	14950.45
658.498	14771.02
658.849	14940.74
659.2	14921.08
659.551	14836.79
659.902	14919.27
660.253	14833.17
660.604	14921.08
660.955	14882.21
661.306	14956.33
661.656	14898.25
662.007	14975.99
662.358	14964.01
662.708	14941.87
663.059	14972.15
663.409	14825.94
663.76	14928.31
664.11	14979.61
664.461	14967.63
664.811	15038.14
665.161	14970.11
665.511	14905.03
665.862	14920.17
666.212	14946.84
666.562	14996.78
666.912	14903.45
667.262	14898.25
667.612	14973.28
667.962	14986.84
668.312	14959.27
668.662	15060.28
669.011	14999.94
669.361	14951.13
669.711	14936.67
670.06	14888.99
670.41	14891.47
670.76	14904.58
671.109	14893.28
671.459	14886.73
671.808	14834.53
672.157	14877.01
672.507	14904.81
672.856	14866.84
673.205	14856.22
673.554	14912.94
673.904	14869.78
674.253	14886.28
674.602	14825.26
674.951	14664.13
675.3	14491.71
675.649	14763.57
675.998	14699.16
676.346	14712.49
676.695	14767.41
677.044	14697.35
677.393	14792.04
677.741	14652.84
678.09	14623.68
678.438	14575.77
678.787	14630.24
679.135	14657.81
679.484	14595.21
679.832	14625.04
680.181	14471.37
680.529	14493.74
680.877	14445.16
681.225	14392.73
681.573	14549.33
681.922	14359.96
682.27	14349.79
682.618	14385.05
682.966	14288.32
683.314	14379.4
683.661	14343.69
684.009	14208.1
684.357	14180.98
684.705	14189.8
685.053	14159.97
685.4	14149.35
685.748	14055.11
686.095	14060.31
686.443	14019.86
686.79	13996.13
687.138	14056.01
687.485	14035.9
687.832	13959.07
688.18	13796.81
688.527	13839.52
688.874	13853.53
689.221	13759.98
689.568	13686.98
689.915	13732.86
690.262	13767.43
690.609	13762.01
690.956	13694.67
691.303	13602.47
691.65	13551.85
691.997	13519.98
692.344	13429.82
692.69	13416.71
693.037	13414.68
693.383	13238.86
693.73	13330.38
694.077	13171.74
694.423	13308.24
694.769	13167.22
695.116	13194.79
695.462	13083.84
695.808	13028.92
696.155	13091.29
696.501	12890.17
696.847	12978.3
697.193	12794.35
697.539	12847.01
697.885	12739.21
698.231	12713.68
698.577	12718.42
698.923	12698.31
699.269	12573.57
699.614	12564.75
699.96	12485.89
700.306	12436.17
700.651	12420.35
700.997	12416.06
701.342	12359.79
701.688	12314.37
702.033	12261.03
702.379	12210.64
702.724	12246.34
703.069	12249.28
703.415	12054.26
703.76	12019.01
704.105	12034.6
704.45	12007.71
704.795	11874.38
705.14	11942.85
705.485	11843.64
705.83	11833.02
706.175	11826.69
706.52	11714.16
706.865	11698.11
707.209	11700.37
707.554	11623.99
707.899	11687.26
708.243	11592.58
708.588	11551
708.932	11449.53
709.277	11540.6
709.621	11490.66
709.966	11418.8
710.31	11383.32
710.654	11278.69
710.998	11319.36
711.342	11260.16
711.687	11320.27
712.031	11192.81
712.375	11166.15
712.719	11194.62
713.063	11181.97
713.407	11158.69
713.75	11127.28
714.094	11106.71
714.438	11045.25
714.782	11016.32
715.125	11028.98
715.469	11039.14
715.812	10970.22
716.156	10977.45
716.499	10884.12
716.843	11005.25
717.186	10876.21
717.53	10853.39
717.873	10881.86
718.216	10852.48
718.559	10799.15
718.902	10741.98
719.246	10789.66
719.589	10751.69
719.932	10782.43
720.275	10785.59
720.617	10723.22
720.96	10721.64
721.303	10716.89
721.646	10727.97
721.989	10600.74
722.331	10707.18
722.674	10637.35
723.016	10688.19
723.359	10645.03
723.701	10703.79
724.044	10606.61
724.386	10507.86
724.729	10638.25
725.071	10605.26
725.413	10508.09
725.755	10541.76
726.097	10546.95
726.439	10472.61
726.782	10476
727.124	10528.42
727.465	10506.96
727.807	10489.1
728.149	10440.74
728.491	10460.4
728.833	10489.55
729.175	10433.74
729.516	10454.98
729.858	10462.66
730.199	10424.25
730.541	10412.04
730.882	10477.58
731.224	10494.53
731.565	10436
731.906	10378.6
732.248	10454.75
732.589	10329.11
732.93	10344.7
733.271	10326.17
733.612	10311.48
733.953	10373.17
734.294	10376.34
734.635	10336.34
734.976	10412.72
735.317	10350.35
735.658	10353.97
735.999	10318.71
736.339	10359.84
736.68	10337.47
737.021	10383.34
737.361	10318.49
737.702	10405.04
738.042	10376.11
738.383	10348.09
738.723	10431.48
739.063	10461.08
739.404	10478.71
739.744	10418.14
740.084	10394.42
740.424	10447.52
740.764	10486.16
741.104	10527.07
741.444	10442.55
741.784	10469.22
742.124	10555.09
742.464	10504.7
742.804	10489.78
743.143	10572.72
743.483	10588.99
743.823	10526.62
744.162	10629.44
744.502	10787.85
744.841	10718.93
745.181	10731.13
745.52	10737.23
745.86	10763.22
746.199	10866.27
746.538	10899.94
746.877	10970.9
747.216	11033.04
747.556	11063.78
747.895	11092.48
748.234	11123.89
748.573	11220.16
748.911	11190.55
749.25	11251.79
749.589	11351.9
749.928	11403.65
750.267	11491.79
750.605	11625.34
750.944	11683.42
751.283	11738.11
751.621	11837.54
751.96	11847.26
752.298	12034.6
752.636	12195.27
752.975	12143.3
753.313	12242.28
753.651	12478.2
753.989	12503.51
754.327	12613.11
754.666	12672.1
755.004	12889.72
755.342	13010.62
755.679	13211.29
756.017	13239.76
756.355	13521.79
756.693	13548.91
757.031	13817.15
757.368	13828.9
757.706	14064.6
758.044	14184.82
758.381	14437.47
758.719	14549.11
759.056	14663.23
759.394	14840.4
759.731	14942.32
760.068	15125.59
760.405	15244.68
760.743	15364.23
761.08	15671.79
761.417	15695.75
761.754	15912.91
762.091	16081.72
762.428	16317.42
762.765	16378.44
763.102	16705.44
763.438	16760.8
763.775	16936.39
764.112	17137.97
764.449	17299.55
764.785	17461.35
765.122	17514.91
765.458	17625.41
765.795	17867.21
766.131	18034.22
766.467	18144.72
766.804	18181.78
767.14	18271.05
767.476	18533.19
767.812	18594.43
768.148	18741.77
768.485	18833.97
768.821	19012.27
769.157	19071.48
769.492	19221.08
769.828	19277.8
770.164	19369.32
770.5	19504.91
770.836	19565.93
771.171	19586.49
771.507	19738.13
771.842	19807.73
772.178	19925.92
772.513	19985.8
772.849	19983.09
773.184	20148.51
773.519	20230.32
773.855	20268.28
774.19	20343.76
774.525	20301.27
774.86	20501.27
775.195	20571.55
775.53	20521.16
775.865	20514.38
776.2	20517.99
776.535	20498.56
776.87	20513.02
777.205	20630.98
777.539	20620.81
777.874	20691.32
778.209	20635.5
778.543	20615.16
778.878	20621.72
779.212	20741.94
779.547	20714.82
779.881	20783.97
780.215	20635.28
780.55	20846.12
780.884	20619.01
781.218	20795.27
781.552	20859.45
781.886	20790.75
782.22	20748.04
782.554	20649.29
782.888	20502.62
783.222	20612.23
783.556	20645.45
783.889	20553.47
784.223	20396.64
784.557	20441.38
784.89	20508.95
785.224	20454.72
785.557	20440.93
785.891	20451.55
786.224	20381.27
786.558	20392.35
786.891	20233.71
787.224	20213.14
787.557	20274.61
787.891	20287.49
788.224	20238
788.557	20287.26
788.89	20271.67
789.223	20281.84
789.556	20049.76
789.888	20098.34
790.221	19940.38
790.554	19844.11
790.887	19827.39
791.219	19912.81
791.552	19824.9
791.884	19812.47
792.217	19715.75
792.549	19668.75
792.882	19729.99
793.214	19589.43
793.546	19583.78
793.879	19517.79
794.211	19369.77
794.543	19546.49
794.875	19302.66
795.207	19447.06
795.539	19362.54
795.871	19433.5
796.203	19238.25
796.535	19171.36
796.867	19138.14
797.198	19107.86
797.53	19023.79
797.862	18951.71
798.193	19034.19
798.525	18880.29
798.856	18879.16
799.188	18703.58
799.519	18690.47
799.85	18574.99
800.182	18624.26
800.513	18649.11
800.844	18552.62
801.175	18656.35
801.506	18528.67
801.837	18514.88
802.168	18489.34
802.499	18340.65
802.83	18329.8
803.161	18238.28
803.491	18295
803.822	18300.87
804.153	18127.09
804.483	18047.1
804.814	18057.94
805.145	17937.72
805.475	17970.49
805.805	17856.82
806.136	17888.46
806.466	17855.91
806.796	17790.15
807.126	17706.09
807.457	17680.55
807.787	17718.07
808.117	17612.31
808.447	17556.49
808.777	17588.35
809.107	17528.69
809.436	17378.64
809.766	17426.77
810.096	17292.31
810.426	17331.18
810.755	17320.56
811.085	17342.26
811.414	17295.7
811.744	17172.09
812.073	17075.82
812.403	17149.72
812.732	17000.34
813.061	17067.91
813.39	16988.37
813.719	16845.32
814.049	16972.77
814.378	16925.77
814.707	16823.4
815.036	16984.53
815.365	16809.61
815.693	16657.3
816.022	16647.58
816.351	16594.7
816.68	16596.74
817.008	16655.04
817.337	16560.81
817.665	16487.59
817.994	16534.14
818.322	16429.06
818.651	16335.05
818.979	16387.48
819.307	16402.85
819.636	16425.22
819.964	16300.02
820.292	16374.37
820.62	16272.45
820.948	16272.45
821.276	16291.21
821.604	16212.57
821.932	16238.33
822.259	16211.44
822.587	16224.09
822.915	16201.72
823.243	16263.64
823.57	16138.9
823.898	16246.69
824.225	16132.12
824.553	16088.96
824.88	16147.94
825.207	16167.37
825.535	16222.51
825.862	16260.48
826.189	16177.77
826.516	16225.9
826.843	16300.25
827.17	16279.01
827.497	16210.99
827.824	16235.84
828.151	16308.61
828.478	16180.7
828.805	16312.45
829.131	16288.05
829.458	16235.62
829.785	15988.85
830.111	16253.92
830.438	16336.41
830.764	16251.89
831.09	16241.49
831.417	16162.17
831.743	16276.75
832.069	16207.6
832.395	16135.51
832.722	16162.85
833.048	16179.35
833.374	16140.48
833.7	16072.01
834.026	16142.74
834.351	16115.62
834.677	16088.05
835.003	16068.84
835.329	16076.07
835.654	15989.98
835.98	15981.61
836.306	16047.15
836.631	15963.08
836.956	15926.7
837.282	15961.28
837.607	15914.04
837.932	15954.27
838.258	15871.79
838.583	15918.79
838.908	15727.84
839.233	15808.28
839.558	15716.99
839.883	15665.92
840.208	15588.86
840.533	15598.12
840.858	15708.4
841.182	15733.71
841.507	15620.27
841.832	15520.61
842.156	15577.1
842.481	15574.39
842.805	15462.08
843.13	15418.69
843.454	15387.96
843.778	15280.16
844.103	15249.88
844.427	15228.41
844.751	15290.56
845.075	15246.49
845.399	15138.47
845.723	15108.42
846.047	15204.46
846.371	15030.68
846.695	14984.13
847.019	14867.74
847.343	14796.11
847.666	14691.48
847.99	14729.9
848.313	14717.92
848.637	14576.68
848.96	14609.45
849.284	14499.17
849.607	14428.21
849.931	14354.09
850.254	14237.03
850.577	14166.52
850.9	14114.54
851.223	14085.62
851.546	14034.77
851.869	13995.45
852.192	14038.61
852.515	13870.26
852.838	13802.01
853.161	13814.67
853.483	13727.21
853.806	13698.06
854.129	13702.13
854.451	13744.16
854.774	13666.19
855.096	13538.97
855.419	13460.32
855.741	13429.14
856.063	13348.46
856.385	13356.82
856.708	13396.37
857.03	13322.47
857.352	13287.22
857.674	13235.7
857.996	13165.64
858.318	13093.33
858.64	13132.88
858.961	13161.8
859.283	13067.57
859.605	13019.21
859.926	12926.55
860.248	12858.98
860.57	12863.5
860.891	12934.69
861.212	12734.02
861.534	12736.95
861.855	12844.07
862.176	12682.49
862.498	12727.69
862.819	12716.16
863.14	12660.12
863.461	12640.91
863.782	12644.3
864.103	12655.6
864.424	12571.31
864.745	12500.58
865.065	12495.83
865.386	12506.22
865.707	12557.97
866.027	12422.84
866.348	12439.33
866.668	12409.28
866.989	12380.35
867.309	12312.11
867.63	12408.37
867.95	12335.38
868.27	12237.08
868.59	12295.61
868.91	12280.47
869.23	12277.53
869.55	12222.62
869.87	12267.59
870.19	12188.27
870.51	12174.93
870.83	12127.03
871.15	12197.53
871.469	12118.44
871.789	12188.49
872.109	12116.4
872.428	12107.59
872.748	12096.29
873.067	12049.06
873.386	12073.69
873.706	12006.8
874.025	11891.55
874.344	11852
874.663	11882.06
874.982	11889.97
875.301	11850.42
875.62	11847.94
875.939	11805
876.258	11837.09
876.577	11826.69
876.896	11741.27
877.214	11748.05
877.533	11687.49
877.852	11721.61
878.17	11710.54
878.489	11640.26
878.807	11637.1
879.125	11560.04
879.444	11676.87
879.762	11560.71
880.08	11527.72
880.398	11608.17
880.716	11549.87
881.034	11501.28
881.352	11543.31
881.67	11405.24
881.988	11388.29
882.306	11401.4
882.624	11358.91
882.941	11305.35
883.259	11280.27
883.577	11344.22
883.894	11251.12
884.212	11279.59
884.529	11240.72
884.846	11240.5
885.164	11183.32
885.481	11062.87
885.798	11139.03
886.115	11105.13
886.432	11039.14
886.75	11045.02
887.067	11004.12
887.383	10975.42
887.7	10932.93
888.017	10972.48
888.334	10883.44
888.651	10918.47
888.967	10907.62
889.284	10798.7
889.6	10776.33
889.917	10689.55
890.233	10736.78
890.55	10650.68
890.866	10696.1
891.182	10629.44
891.498	10630.12
891.815	10534.53
892.131	10528.42
892.447	10572.94
892.763	10482.1
893.079	10486.39
893.395	10314.42
893.71	10419.95
894.026	10324.36
894.342	10352.16
894.657	10274.87
894.973	10168.21
895.289	10290.01
895.604	10263.12
895.92	10097.93
896.235	10093.41
896.55	10064.03
896.865	10034.2
897.181	10054.31
897.496	9991.94
897.811	9901.77
898.126	9980.87
898.441	9886.86
898.756	9859.29
899.071	9716.47
899.386	9738.61
899.7	9695.9
900.015	9685.96
900.33	9657.49
900.644	9587.66
900.959	9610.26
901.273	9540.65
901.588	9554.44
901.902	9433.54
902.216	9471.05
902.531	9492.52
902.845	9392.41
903.159	9384.5
903.473	9232.86
903.787	9242.13
904.101	9227.44
904.415	9223.37
904.729	9191.51
905.042	9093.21
905.356	9052.98
905.67	9084.39
905.984	9054.11
906.297	9036.94
906.611	8944.06
906.924	9013.21
907.237	8899.77
907.551	8906.09
907.864	8867.22
908.177	8809.37
908.491	8813.44
908.804	8744.97
909.117	8690.73
909.43	8636.95
909.743	8648.25
910.056	8526.89
910.368	8528.7
910.681	8493.45
910.994	8432.89
911.307	8456.16
911.619	8358.99
911.932	8410.97
912.244	8396.05
912.557	8309.73
912.869	8286.45
913.181	8166.23
913.494	8138.2
913.806	8155.38
914.118	8083.97
914.43	8104.98
914.742	8053.91
915.054	7967.14
915.366	8008.72
915.678	7950.19
915.99	7906.35
916.302	7846.23
916.613	7832.9
916.925	7781.6
917.236	7891.88
917.548	7786.57
917.859	7747.93
918.171	7643.3
918.482	7651.44
918.794	7603.98
919.105	7645.34
919.416	7507.94
919.727	7502.74
920.038	7449.41
920.349	7473.36
920.66	7454.61
920.971	7450.09
921.282	7441.27
921.593	7367.15
921.903	7277.66
922.214	7272.01
922.525	7255.52
922.835	7216.19
923.146	7176.42
923.456	7175.07
923.767	7131
924.077	7142.75
924.387	7060.27
924.697	7014.17
925.008	7046.48
925.318	6998.12
925.628	7012.36
925.938	6907.95
926.248	6907.05
926.558	6854.85
926.867	6869.54
927.177	6867.73
927.487	6766.04
927.796	6774.62
928.106	6715.64
928.416	6737.11
928.725	6717.68
929.034	6669.32
929.344	6609.88
929.653	6590.45
929.962	6571.24
930.271	6518.13
930.581	6506.16
930.89	6493.5
931.199	6454.86
931.508	6501.18
931.817	6432.71
932.125	6420.28
932.434	6347.74
932.743	6346.16
933.051	6283.79
933.36	6334.41
933.669	6208.54
933.977	6188.65
934.286	6215.99
934.594	6137.58
934.902	6167.18
935.21	6129.9
935.519	6110.01
935.827	6034.3
936.135	6069.56
936.443	6036.56
936.751	5978.94
937.059	5989.33
937.367	5951.14
937.674	5900.75
937.982	5924.7
938.29	5843.35
938.597	5799.73
938.905	5745.05
939.213	5823.69
939.52	5760.87
939.827	5737.14
940.135	5689.45
940.442	5669.57
940.749	5715.67
941.056	5686.07
941.363	5583.47
941.67	5631.15
941.977	5588.21
942.284	5493.08
942.591	5473.19
942.898	5519.52
943.205	5470.25
943.511	5428.67
943.818	5454.88
944.125	5418.5
944.431	5362.46
944.738	5335.34
945.044	5329.69
945.35	5315.23
945.657	5252.86
945.963	5225.29
946.269	5232.29
946.575	5223.93
946.881	5202.91
947.187	5205.17
947.493	5133.09
947.799	5132.18
948.105	5113.2
948.41	5065.06
948.716	5101.45
949.022	5034.78
949.327	5011.96
949.633	5022.58
949.938	4996.59
950.244	4981.68
950.549	4904.62
950.854	4889.48
951.16	4902.58
951.465	4877.72
951.77	4827.1
952.075	4855.13
952.38	4799.99
952.685	4881.11
952.99	4761.57
953.294	4802.02
953.599	4675.24
953.904	4729.71
954.209	4723.83
954.513	4690.16
954.818	4646.32
955.122	4644.96
955.426	4625.75
955.731	4607
956.035	4525.64
956.339	4550.5
956.643	4511.18
956.948	4506.89
957.252	4469.37
957.556	4468.02
957.86	4420.11
958.163	4420.34
958.467	4416.49
958.771	4375.37
959.075	4400.68
959.378	4383.27
959.682	4338.3
959.985	4302.82
960.289	4288.36
960.592	4277.06
960.896	4287.23
961.199	4233.9
961.502	4234.58
961.805	4199.78
962.108	4185.31
962.411	4182.38
962.714	4151.19
963.017	4133.34
963.32	4159.33
963.623	4059.67
963.926	4126.11
964.228	4010.4
964.531	4048.59
964.833	4026.22
965.136	3986.67
965.438	3965.43
965.741	3978.31
966.043	3937.18
966.345	3908.94
966.648	3910.52
966.95	3889.05
967.252	3872.1
967.554	3891.08
967.856	3859.9
968.158	3830.29
968.46	3846.79
968.761	3855.38
969.063	3797.53
969.365	3779
969.666	3738.09
969.968	3745.78
970.269	3710.3
970.571	3724.53
970.872	3686.8
971.174	3646.57
971.475	3659
971.776	3644.76
972.077	3600.7
972.378	3605.67
972.679	3596.4
972.98	3588.49
973.281	3551.88
973.582	3569.28
973.883	3571.54
974.183	3516.63
974.484	3479.8
974.785	3481.6
975.085	3464.65
975.386	3485.9
975.686	3433.24
975.986	3410.87
976.287	3448.61
976.587	3324.77
976.887	3344.88
977.187	3361.61
977.487	3356.86
977.787	3329.97
978.087	3320.03
978.387	3296.52
978.687	3270.99
978.987	3253.59
979.286	3208.39
979.586	3236.41
979.885	3192.57
980.185	3213.81
980.484	3202.74
980.784	3171.78
981.083	3141.5
981.382	3146.47
981.682	3107.6
981.981	3102.86
982.28	3090.43
982.579	3082.29
982.878	3059.02
983.177	3064.21
983.475	3073.7
983.774	3032.8
984.073	2998.23
984.372	2982.41
984.67	3017.66
984.969	2998
985.267	2962.75
985.566	2954.84
985.864	2965.68
986.162	2947.38
986.461	2919.13
986.759	2913.26
987.057	2881.85
987.355	2889.75
987.653	2855.86
987.951	2861.05
988.249	2861.28
988.547	2869.19
988.844	2827.84
989.142	2748.29
989.44	2803.43
989.737	2779.02
990.035	2733.83
990.332	2776.31
990.63	2739.7
990.927	2732.02
991.224	2693.38
991.521	2694.28
991.819	2705.58
992.116	2684.56
992.413	2642.3
992.71	2602.3
993.006	2627.16
993.303	2637.56
993.6	2620.84
993.897	2591.01
994.193	2585.58
994.49	2567.5
994.787	2570.67
995.083	2565.02
995.379	2525.7
995.676	2502.87
995.972	2494.96
996.268	2500.16
996.565	2447.73
996.861	2479.82
997.157	2494.74
997.453	2474.85
997.749	2427.62
998.044	2427.17
998.34	2383.33
998.636	2407.28
998.932	2393.5
999.227	2377.45
999.523	2318.47
999.818	2366.6
1000.114	2319.83
1000.409	2311.69
1000.704	2303.1
1001	2313.5
1001.295	2313.05
1001.59	2285.7
1001.885	2267.62
1002.18	2248.42
1002.475	2228.08
1002.77	2207.51
1003.065	2194.18
1003.359	2193.05
1003.654	2203.67
1003.949	2179.72
1004.243	2186.72
1004.538	2135.2
1004.832	2141.53
1005.127	2136.33
1005.421	2119.83
1005.715	2115.54
1006.009	2107.63
1006.304	2075.09
1006.598	2054.75
1006.892	2020.17
1007.186	2042.55
1007.48	2016.11
1007.773	2018.37
1008.067	1992.38
1008.361	1997.35
1008.655	1984.92
1008.948	1951.7
1009.242	1962.32
1009.535	1912.15
1009.829	1955.77
1010.122	1885.26
1010.415	1895.43
1010.708	1930.68
1011.001	1869.44
1011.295	1877.58
1011.588	1872.61
1011.881	1849.78
1012.173	1830.57
1012.466	1836.45
1012.759	1835.77
1013.052	1809.33
1013.344	1811.14
1013.637	1791.03
1013.93	1774.98
1014.222	1792.83
1014.514	1787.86
1014.807	1775.89
1015.099	1744.93
1015.391	1732.72
1015.683	1714.87
1015.976	1708.77
1016.268	1689.79
1016.56	1668.32
1016.851	1654.08
1017.143	1684.14
1017.435	1663.57
1017.727	1645.27
1018.018	1593.74
1018.31	1624.48
1018.602	1627.41
1018.893	1577.7
1019.185	1605.72
1019.476	1614.31
1019.767	1583.12
1020.058	1572.28
1020.35	1527.53
1020.641	1538.15
1020.932	1524.82
1021.223	1509.9
1021.514	1513.97
1021.804	1510.81
1022.095	1532.5
1022.386	1500.41
1022.677	1478.72
1022.967	1465.16
1023.258	1458.83
1023.548	1426.97
1023.839	1436.01
1024.129	1430.58
1024.419	1428.1
1024.709	1410.25
1025	1406.18
1025.29	1381.77
1025.58	1371.83
1025.87	1370.7
1026.16	1351.26
1026.449	1356.24
1026.739	1357.14
1027.029	1368.21
1027.319	1340.42
1027.608	1332.28
1027.898	1314.43
1028.187	1306.52
1028.477	1270.36
1028.766	1284.82
1029.055	1306.07
1029.344	1244.15
1029.634	1237.37
1029.923	1222.68
1030.212	1236.69
1030.501	1252.51
1030.79	1207.76
1031.078	1245.5
1031.367	1218.39
1031.656	1202.34
1031.945	1187.65
1032.233	1172.06
1032.522	1186.97
1032.81	1147.2
1033.099	1153.75
1033.387	1148.11
1033.675	1123.47
1033.963	1124.38
1034.251	1122.12
1034.54	1116.24
1034.828	1109.01
1035.116	1094.77
1035.403	1095.45
1035.691	1083.7
1035.979	1092.74
1036.267	1091.16
1036.554	1081.21
1036.842	1063.14
1037.129	1052.06
1037.417	1065.85
1037.704	1059.97
1037.992	1021.78
1038.279	1020.43
1038.566	1018.84
1038.853	1018.84
1039.14	1018.84
