Data from hue_250_FLMS001491_00093.txt Node
Date: Tue Feb 07 16:01:45 GMT 2017
User: dcchb
Spectrometer: FLMS00149
Trigger mode: 0
Integration Time (sec): 2.000000E-2
Scans to average: 10
Electric dark correction enabled: true
Nonlinearity correction enabled: false
Boxcar width: 0
XAxis mode: Wavelengths
Number of Pixels in Spectrum: 2048
>>>>>Begin Spectral Data<<<<<
341.393	-0.08
341.776	-0.08
342.16	-0.08
342.543	-41.89
342.927	-81.66
343.31	-55.9
343.693	-59.52
344.077	-66.3
344.46	-59.29
344.843	-59.07
345.226	-39.41
345.61	-34.89
345.993	-10.25
346.376	-5.06
346.759	9.86
347.142	-1.21
347.525	58.9
347.908	43.76
348.291	67.26
348.674	97.99
349.057	113.13
349.44	131.66
349.823	144.77
350.206	156.97
350.588	170.08
350.971	185.45
351.354	223.64
351.737	243.98
352.119	255.73
352.502	257.08
352.884	260.02
353.267	260.7
353.65	265.44
354.032	301.38
354.414	270.64
354.797	295.95
355.179	318.55
355.562	303.18
355.944	314.26
356.326	322.62
356.709	317.87
357.091	331.88
357.473	310.19
357.855	334.14
358.238	326.91
358.62	331.66
359.002	323.52
359.384	308.61
359.766	325.1
360.148	321.04
360.53	329.17
360.912	324.88
361.294	322.84
361.676	310.87
362.057	324.2
362.439	332.34
362.821	323.07
363.203	322.39
363.584	308.61
363.966	306.35
364.348	303.41
364.729	314.03
365.111	302.51
365.493	335.27
365.874	311.55
366.256	312.68
366.637	294.14
367.019	284.88
367.4	292.56
367.781	296.63
368.163	309.74
368.544	318.32
368.925	299.34
369.306	293.92
369.688	328.49
370.069	274.94
370.45	291.66
370.831	281.94
371.212	308.61
371.593	317.65
371.974	307.03
372.355	308.16
372.736	316.74
373.117	305.9
373.498	310.64
373.879	317.87
374.26	296.18
374.641	298.89
375.021	295.5
375.402	317.65
375.783	303.86
376.163	302.96
376.544	305.9
376.925	330.75
377.305	319
377.686	330.75
378.066	318.32
378.447	314.03
378.827	308.61
379.208	322.17
379.588	313.81
379.968	309.74
380.349	335.95
380.729	327.59
381.109	317.2
381.489	328.72
381.87	337.31
382.25	304.77
382.63	316.07
383.01	312.22
383.39	331.43
383.77	322.39
384.15	326.23
384.53	327.82
384.91	325.78
385.29	333.24
385.67	331.88
386.049	337.08
386.429	345.89
386.809	331.66
387.189	345.22
387.568	367.59
387.948	344.09
388.328	363.97
388.707	346.35
389.087	350.41
389.466	344.54
389.846	352.45
390.225	375.72
390.605	369.85
390.984	355.16
391.363	358.55
391.743	361.04
392.122	365.56
392.501	358.78
392.881	358.78
393.26	361.71
393.639	358.1
394.018	359.23
394.397	356.06
394.776	359.23
395.155	368.95
395.534	366.46
395.913	370.08
396.292	378.44
396.671	382.05
397.05	377.76
397.429	390.41
397.808	383.63
398.186	392
398.565	373.69
398.944	384.09
399.323	389.06
399.701	399.45
400.08	395.16
400.458	385.89
400.837	385.67
401.215	416.63
401.594	407.36
401.972	410.53
402.351	417.98
402.729	406.91
403.107	420.47
403.486	426.34
403.864	389.51
404.242	408.49
404.62	428.83
404.999	422.73
405.377	422.05
405.755	425.89
406.133	434.03
406.511	426.34
406.889	428.38
407.267	453.69
407.645	428.15
408.023	441.94
408.401	475.16
408.779	464.99
409.156	477.87
409.534	463.86
409.912	465.21
410.29	478.09
410.667	484.42
411.045	512.9
411.422	506.12
411.8	490.52
412.178	500.02
412.555	509.96
412.933	511.31
413.31	506.34
413.687	539.11
414.065	535.27
414.442	549.96
414.819	566
415.197	551.09
415.574	556.06
415.951	566.68
416.328	550.41
416.705	578.21
417.082	583.18
417.46	613.91
417.837	615.49
418.214	604.42
418.591	620.69
418.967	599
419.344	627.47
419.721	622.27
420.098	632.89
420.475	639.67
420.852	649.62
421.228	648.94
421.605	661.14
421.982	677.64
422.358	685.09
422.735	687.13
423.111	689.39
423.488	711.31
423.864	736.39
424.241	737.3
424.617	768.48
424.994	747.47
425.37	754.02
425.746	765.77
426.123	793.34
426.499	780.01
426.875	791.76
427.251	820.01
427.627	810.29
428.003	796.5
428.379	847.35
428.756	853.23
429.132	852.1
429.507	851.19
429.883	822.27
430.259	889.38
430.635	860.46
431.011	876.5
431.387	907.91
431.763	936.84
432.138	938.2
432.514	943.17
432.89	958.76
433.265	985.43
433.641	975.71
434.016	997.4
434.392	1017.06
434.767	1039.21
435.143	1032.43
435.518	1035.37
435.894	1059.32
436.269	1084.86
436.644	1101.13
437.02	1136.61
437.395	1127.57
437.77	1156.72
438.145	1169.83
438.52	1208.7
438.895	1175.7
439.271	1217.06
439.646	1216.61
440.021	1245.53
440.395	1256.15
440.77	1250.05
441.145	1265.19
441.52	1270.16
441.895	1297.51
442.27	1304.51
442.645	1331.86
443.019	1323.5
443.394	1353.78
443.769	1365.53
444.143	1342.03
444.518	1397.84
444.892	1387.22
445.267	1380.22
445.641	1389.03
446.016	1384.29
446.39	1429.71
446.764	1425.19
447.139	1419.09
447.513	1467.22
447.887	1457.73
448.262	1452.31
448.636	1469.03
449.01	1509.48
449.384	1512.42
449.758	1509.48
450.132	1542.02
450.506	1531.63
450.88	1556.26
451.254	1580.66
451.628	1561.91
452.002	1591.96
452.376	1613.88
452.75	1619.08
453.123	1641
453.497	1673.77
453.871	1656.14
454.244	1666.09
454.618	1708.12
454.992	1712.86
455.365	1703.83
455.739	1753.99
456.112	1771.62
456.486	1793.09
456.859	1798.74
457.232	1824.27
457.606	1832.64
457.979	1816.14
458.352	1851.62
458.725	1913.76
459.099	1911.5
459.472	1946.76
459.845	1946.98
460.218	1948.79
460.591	1961.22
460.964	2010.03
461.337	2027.21
461.71	2061.1
462.083	2069.47
462.456	2091.39
462.829	2069.92
463.201	2149.69
463.574	2120.76
463.947	2179.07
464.32	2224.49
464.692	2202.12
465.065	2228.56
465.438	2236.92
465.81	2283.47
466.183	2308.33
466.555	2367.08
466.928	2342.68
467.3	2389.46
467.672	2409.57
468.045	2471.04
468.417	2482.79
468.789	2488.89
469.161	2523.01
469.534	2515.33
469.906	2566.63
470.278	2631.48
470.65	2633.97
471.022	2671.71
471.394	2680.75
471.766	2724.36
472.138	2761.65
472.51	2811.82
472.882	2871.25
473.253	2841.2
473.625	2937.92
473.997	2958.93
474.369	2981.31
474.74	3019.5
475.112	3058.37
475.484	3067.63
475.855	3127.97
476.227	3169.1
476.598	3252.49
476.97	3255.2
477.341	3280.73
477.713	3361.18
478.084	3356.21
478.455	3478.24
478.827	3514.17
479.198	3540.39
479.569	3587.17
479.94	3641.85
480.311	3691.57
480.682	3762.08
481.053	3856.54
481.424	3844.33
481.795	3899.47
482.166	3948.29
482.537	3977.21
482.908	4059.7
483.279	4084.33
483.65	4166.13
484.021	4246.13
484.391	4220.37
484.762	4278.22
485.133	4319.58
485.503	4338.33
485.874	4488.61
486.244	4493.13
486.615	4553.92
486.985	4608.38
487.356	4691.09
487.726	4687.25
488.097	4766.57
488.467	4783.29
488.837	4919.56
489.207	4899.67
489.578	5003.17
489.948	5003.63
490.318	5091.76
490.688	5103.06
491.058	5140.8
491.428	5208.37
491.798	5247.23
492.168	5374.92
492.538	5348.93
492.908	5416.27
493.278	5517.28
493.648	5464.63
494.017	5509.6
494.387	5581.24
494.757	5609.26
495.126	5660.33
495.496	5656.72
495.866	5719.99
496.235	5709.6
496.605	5786.43
496.974	5831.63
497.344	5876.6
497.713	5939.87
498.082	5895.81
498.452	5963.15
498.821	5961.34
499.19	5981.9
499.559	6036.82
499.928	6053.09
500.298	6103.71
500.667	6099.64
501.036	6106.87
501.405	6109.59
501.774	6162.92
502.143	6192.07
502.512	6227.77
502.88	6287.21
503.249	6315.46
503.618	6284.5
503.987	6314.78
504.356	6333.76
504.724	6363.59
505.093	6387.09
505.462	6380.09
505.83	6432.51
506.199	6435.9
506.567	6539.18
506.936	6479.07
507.304	6554.09
507.672	6566.52
508.041	6613.98
508.409	6632.74
508.777	6645.16
509.145	6665.5
509.514	6683.58
509.882	6740.08
510.25	6698.72
510.618	6716.8
510.986	6754.09
511.354	6778.49
511.722	6865.95
512.09	6864.82
512.458	6836.57
512.826	6877.02
513.193	6858.49
513.561	6931.03
513.929	6960.86
514.297	6972.84
514.664	6944.37
515.032	6993.63
515.4	7005.15
515.767	7039.05
516.135	7034.08
516.502	6973.74
516.869	7061.88
517.237	7075.89
517.604	7039.96
517.972	7162.66
518.339	7114.98
518.706	7149.33
519.073	7136
519.44	7189.56
519.808	7172.16
520.175	7174.42
520.542	7247.86
520.909	7250.12
521.276	7255.32
521.643	7278.37
522.009	7314.3
522.376	7254.41
522.743	7386.61
523.11	7351.36
523.477	7359.04
523.843	7419.16
524.21	7436.33
524.577	7468.87
524.943	7486.05
525.31	7514.52
525.676	7486.5
526.043	7504.8
526.409	7568.76
526.776	7583.9
527.142	7565.37
527.508	7599.72
527.874	7586.38
528.241	7714.51
528.607	7680.62
528.973	7696.66
529.339	7665.25
529.705	7691.24
530.071	7785.02
530.437	7779.15
530.803	7694.4
531.169	7719.94
531.535	7653.73
531.901	7680.62
532.267	7681.07
532.632	7665.25
532.998	7680.62
533.364	7766.94
533.73	7780.05
534.095	7722.42
534.461	7719.03
534.826	7735.53
535.192	7720.84
535.557	7817.79
535.923	7851.23
536.288	7792.7
536.653	7797.68
537.019	7731.24
537.384	7735.31
537.749	7742.76
538.114	7692.14
538.479	7705.48
538.845	7734.4
539.21	7679.26
539.575	7661.41
539.94	7721.07
540.305	7701.41
540.67	7682.2
541.034	7660.28
541.399	7646.72
541.764	7611.47
542.129	7666.38
542.494	7733.95
542.858	7710.67
543.223	7688.53
543.587	7733.72
543.952	7662.54
544.316	7696.44
544.681	7643.78
545.045	7618.02
545.41	7614.63
545.774	7668.19
546.138	7616.66
546.503	7632.71
546.867	7520.4
547.231	7578.25
547.595	7667.74
547.959	7632.48
548.324	7586.16
548.688	7591.13
549.052	7576.89
549.416	7563.11
549.779	7573.28
550.143	7478.81
550.507	7565.82
550.871	7505.93
551.235	7486.72
551.599	7531.24
551.962	7569.21
552.326	7453.5
552.689	7513.84
553.053	7511.36
553.417	7492.15
553.78	7565.82
554.143	7530.11
554.507	7505.25
554.87	7518.36
555.234	7582.09
555.597	7497.35
555.96	7542.32
556.323	7524.01
556.686	7507.29
557.05	7552.71
557.413	7526.5
557.776	7549.77
558.139	7587.96
558.502	7585.25
558.865	7498.02
559.228	7605.82
559.59	7544.8
559.953	7542.77
560.316	7611.24
560.679	7622.99
561.041	7667.51
561.404	7629.32
561.767	7602.43
562.129	7581.41
562.492	7704.57
562.854	7656.21
563.217	7690.11
563.579	7666.83
563.941	7719.49
564.304	7770.78
564.666	7769.65
565.028	7747.96
565.39	7784.8
565.753	7804.46
566.115	7825.25
566.477	7815.75
566.839	7866.6
567.201	7931.23
567.563	7878.35
567.925	7937.79
568.287	7894.85
568.648	7910.22
569.01	7917.45
569.372	7975.75
569.734	7985.02
570.095	7973.26
570.457	7994.96
570.819	8004.68
571.18	8046.03
571.542	8043.77
571.903	8058.46
572.265	8100.72
572.626	8101.62
572.987	8091
573.349	8166.48
573.71	8184.11
574.071	8217.1
574.432	8200.6
574.794	8221.85
575.155	8271.11
575.516	8217.33
575.877	8269.75
576.238	8234.95
576.599	8299.58
576.96	8340.49
577.32	8415.06
577.681	8357.44
578.042	8412.58
578.403	8371.9
578.763	8377.77
579.124	8388.4
579.485	8388.4
579.845	8428.62
580.206	8477.43
580.566	8474.72
580.927	8468.39
581.287	8494.83
581.648	8427.94
582.008	8470.65
582.368	8488.51
582.728	8563.53
583.089	8529.63
583.449	8594.49
583.809	8507.71
584.169	8607.6
584.529	8579.12
584.889	8685.56
585.249	8604.66
585.609	8624.77
585.969	8660.25
586.329	8642.17
586.688	8669.07
587.048	8699.57
587.408	8682.4
587.768	8651.21
588.127	8687.14
588.487	8617.54
588.846	8763.98
589.206	8727.14
589.565	8734.83
589.925	8819.57
590.284	8728.73
590.643	8802.85
591.003	8813.92
591.362	8852.79
591.721	8786.35
592.08	8817.54
592.44	8862.51
592.799	8902.51
593.158	8791.77
593.517	8792.9
593.876	8890.08
594.235	8877.42
594.593	8859.34
594.952	8925.33
595.311	8815.95
595.67	8850.53
596.029	8911.09
596.387	8906.12
596.746	8900.25
597.104	8917.87
597.463	8878.55
597.822	8980.02
598.18	8930.53
598.538	8963.97
598.897	8948.15
599.255	8896.18
599.613	8965.78
599.972	8913.13
600.33	9004.65
600.688	8914.03
601.046	8931.21
601.404	9001.26
601.762	8997.87
602.12	9022.73
602.478	9050.98
602.836	9093.01
603.194	9033.35
603.552	9009.17
603.91	8973.01
604.268	9037.64
604.625	8985.44
604.983	9034.71
605.341	8982.28
605.698	9062.95
606.056	9069.51
606.413	9025.67
606.771	9115.38
607.128	9064.99
607.485	9026.57
607.843	9069.73
608.2	9105.66
608.557	9167.81
608.914	9057.76
609.272	9222.05
609.629	9155.61
609.986	9128.49
610.343	9183.4
610.7	9234.7
611.057	9243.29
611.414	9193.57
611.771	9209.84
612.127	9233.34
612.484	9219.33
612.841	9269.95
613.198	9196.74
613.554	9208.03
613.911	9207.36
614.267	9282.84
614.624	9236.73
614.98	9257.07
615.337	9300.46
615.693	9313.57
616.05	9225.89
616.406	9369.84
616.762	9236.96
617.118	9281.25
617.475	9262.5
617.831	9360.35
618.187	9392.44
618.543	9340.69
618.899	9439.22
619.255	9370.74
619.611	9336.17
619.967	9414.36
620.323	9430.18
620.678	9375.94
621.034	9307.69
621.39	9378.2
621.746	9336.84
622.101	9462.04
622.457	9395.6
622.812	9431.08
623.168	9407.58
623.523	9392.21
623.879	9426.11
624.234	9370.29
624.589	9395.6
624.945	9452.55
625.3	9440.34
625.655	9349.73
626.01	9428.37
626.365	9348.82
626.72	9377.97
627.075	9267.92
627.43	9317.64
627.785	9346.11
628.14	9302.5
628.495	9364.64
628.85	9327.58
629.205	9380.01
629.559	9385.21
629.914	9306.56
630.269	9302.95
630.623	9261.82
630.978	9276.28
631.332	9335.04
631.687	9289.61
632.041	9273.12
632.396	9286.22
632.75	9221.14
633.104	9225.44
633.459	9264.98
633.813	9226.11
634.167	9205.32
634.521	9244.64
634.875	9175.27
635.229	9182.05
635.583	9106.34
635.937	9179.11
636.291	9130.52
636.645	9109.73
636.999	9115.38
637.352	9135.72
637.706	9037.64
638.06	9044.42
638.413	9122.39
638.767	9094.82
639.121	9065.44
639.474	9076.96
639.828	9086.23
640.181	9022.95
640.534	9035.38
640.888	8903.86
641.241	8966.01
641.594	9010.3
641.947	8945.89
642.301	8977.76
642.654	8974.82
643.007	8955.39
643.36	8872.45
643.713	8902.05
644.066	9005.78
644.419	8940.02
644.771	8920.36
645.124	8800.81
645.477	8770.53
645.83	8652.8
646.182	8715.39
646.535	8681.49
646.888	8661.16
647.24	8589.29
647.593	8611.67
647.945	8626.58
648.298	8611.67
648.65	8652.12
649.002	8602.63
649.355	8610.99
649.707	8627.03
650.059	8630.2
650.411	8766.01
650.763	8752.68
651.115	8849.85
651.467	8798.33
651.819	8821.6
652.171	8779.12
652.523	8757.88
652.875	8714.49
653.227	8740.02
653.578	8766.69
653.93	8792
654.282	8706.58
654.633	8763.75
654.985	8760.81
655.337	8780.02
655.688	8820.7
656.039	8814.82
656.391	8726.69
656.742	8738.22
657.094	8705.9
657.445	8787.71
657.796	8802.4
658.147	8733.7
658.498	8729.63
658.849	8801.94
659.2	8748.84
659.551	8736.63
659.902	8802.62
660.253	8815.28
660.604	8786.58
660.955	8751.55
661.306	8811.66
661.656	8780.48
662.007	8812.79
662.358	8781.83
662.708	8760.81
663.059	8758.33
663.409	8708.84
663.76	8803.98
664.11	8790.19
664.461	8834.71
664.811	8749.97
665.161	8777.99
665.511	8742.28
665.862	8811.66
666.212	8763.75
666.562	8823.19
666.912	8796.29
667.262	8725.34
667.612	8783.64
667.962	8796.52
668.312	8721.72
668.662	8807.37
669.011	8825.9
669.361	8745.67
669.711	8715.84
670.06	8718.78
670.41	8773.24
670.76	8768.72
671.109	8760.59
671.459	8691.44
671.808	8686.47
672.157	8764.66
672.507	8620.48
672.856	8683.98
673.205	8699.57
673.554	8723.08
673.904	8692.34
674.253	8688.05
674.602	8636.98
674.951	8573.25
675.3	8488.51
675.649	8640.82
675.998	8655.51
676.346	8662.96
676.695	8640.14
677.044	8592.68
677.393	8604.21
677.741	8572.35
678.09	8608.95
678.438	8578.67
678.787	8565.79
679.135	8586.36
679.484	8490.99
679.832	8542.97
680.181	8507.26
680.529	8493.93
680.877	8514.04
681.225	8480.6
681.573	8547.26
681.922	8412.12
682.27	8410.77
682.618	8388.17
682.966	8441.95
683.314	8393.59
683.661	8368.51
684.009	8349.98
684.357	8315.85
684.705	8314.27
685.053	8312.92
685.4	8287.61
685.748	8280.38
686.095	8296.42
686.443	8173.49
686.79	8206.25
687.138	8188.63
687.485	8218.23
687.832	8189.53
688.18	8199.25
688.527	8085.58
688.874	8155.18
689.221	8147.95
689.568	8059.14
689.915	8062.75
690.262	8073.38
690.609	8027.27
690.956	8003.77
691.303	7993.6
691.65	7914.51
691.997	7958.12
692.344	7889.88
692.69	7870.89
693.037	7829.99
693.383	7836.55
693.73	7814.63
694.077	7748.19
694.423	7710.45
694.769	7714.74
695.116	7630.9
695.462	7710.45
695.808	7634.29
696.155	7646.95
696.501	7554.97
696.847	7570.11
697.193	7515.42
697.539	7534.41
697.885	7540.06
698.231	7462.54
698.577	7493.28
698.923	7361.3
699.269	7349.1
699.614	7310.46
699.96	7399.27
700.306	7303.9
700.651	7320.17
700.997	7262.1
701.342	7283.11
701.688	7217.8
702.033	7168.09
702.379	7244.47
702.724	7138.94
703.069	7175.77
703.415	7073.63
703.76	7110.91
704.105	7134.64
704.45	7071.37
704.795	7051.93
705.14	6999.73
705.485	6966.74
705.83	6946.63
706.175	6965.61
706.52	6955.89
706.865	6867.98
707.209	6867.31
707.554	6858.94
707.899	6872.95
708.243	6843.35
708.588	6796.35
708.932	6787.53
709.277	6786.86
709.621	6736.46
709.966	6719.51
710.31	6745.27
710.654	6667.31
710.998	6645.62
711.342	6667.31
711.687	6634.77
712.031	6610.36
712.375	6623.24
712.719	6625.5
713.063	6586.18
713.407	6598.16
713.75	6624.6
714.094	6538.05
714.438	6515
714.782	6533.75
715.125	6531.49
715.469	6528.11
715.812	6519.52
716.156	6474.1
716.499	6451.27
716.843	6471.16
717.186	6450.14
717.53	6420.31
717.873	6451.27
718.216	6448.11
718.559	6400.42
718.902	6390.48
719.246	6360.88
719.589	6341.44
719.932	6351.61
720.275	6320.88
720.617	6352.52
720.96	6308.68
721.303	6349.13
721.646	6312.29
721.989	6327.43
722.331	6283.59
722.674	6286.53
723.016	6295.34
723.359	6312.74
723.701	6248.79
724.044	6213.54
724.386	6239.3
724.729	6265.51
725.071	6256.25
725.413	6242.91
725.755	6216.47
726.097	6204.95
726.439	6158.17
726.782	6159.75
727.124	6221.45
727.465	6227.55
727.807	6214.67
728.149	6133.77
728.491	6183.26
728.833	6165.85
729.175	6127.66
729.516	6183.48
729.858	6203.59
730.199	6155.69
730.541	6154.78
730.882	6170.83
731.224	6189.81
731.565	6106.87
731.906	6138.74
732.248	6133.54
732.589	6153.65
732.93	6132.64
733.271	6102.13
733.612	6159.98
733.953	6154.56
734.294	6080.89
734.635	6117.95
734.976	6113.88
735.317	6131.05
735.658	6141.67
735.999	6085.18
736.339	6058.06
736.68	6150.94
737.021	6107.1
737.361	6095.35
737.702	6105.52
738.042	6163.59
738.383	6144.61
738.723	6105.29
739.063	6066.2
739.404	6157.04
739.744	6133.77
740.084	6132.86
740.424	6135.12
740.764	6155.01
741.104	6175.12
741.444	6171.28
741.784	6152.97
742.124	6145.29
742.464	6175.12
742.804	6167.89
743.143	6225.06
743.483	6249.02
743.823	6207.89
744.162	6220.99
744.502	6220.09
744.841	6223.71
745.181	6281.56
745.52	6270.94
745.86	6350.93
746.199	6335.79
746.538	6304.61
746.877	6381.89
747.216	6472.97
747.556	6432.51
747.895	6517.03
748.234	6511.83
748.573	6553.64
748.911	6535.34
749.25	6633.19
749.589	6605.39
749.928	6650.81
750.267	6760.42
750.605	6792.28
750.944	6825.27
751.283	6835.22
751.621	6958.83
751.96	6978.71
752.298	6979.62
752.636	7084.93
752.975	7086.51
753.313	7143
753.651	7192.49
753.989	7294.41
754.327	7390.23
754.666	7403.34
755.004	7519.27
755.342	7608.75
755.679	7715.87
756.017	7769.2
756.355	7868.86
756.693	7898.24
757.031	8012.59
757.368	8101.62
757.706	8261.17
758.044	8268.4
758.381	8372.12
758.719	8447.83
759.056	8622.29
759.394	8679.24
759.731	8804.88
760.068	8819.57
760.405	8895.27
760.743	8998.77
761.08	9173.01
761.417	9222.27
761.754	9300.46
762.091	9423.62
762.428	9473.34
762.765	9600.79
763.102	9726.89
763.438	9828.81
763.775	9897.73
764.112	10066.77
764.449	10118.75
764.785	10162.81
765.122	10200.78
765.458	10356.25
765.795	10497.94
766.131	10521.22
766.467	10665.4
766.804	10682.8
767.14	10735
767.476	10822.46
767.812	10895.9
768.148	10991.26
768.485	11067.19
768.821	11126.63
769.157	11238.26
769.492	11297.02
769.828	11396.45
770.164	11356.68
770.5	11450.01
770.836	11563.68
771.171	11521.87
771.507	11612.27
771.842	11631.47
772.178	11693.39
772.513	11687.97
772.849	11749.44
773.184	11781.98
773.519	11852.26
773.855	11876.21
774.19	11896.55
774.525	11945.36
774.86	11894.52
775.195	12010.22
775.53	11949.43
775.865	12010.67
776.2	12033.27
776.535	11974.52
776.87	11998.47
777.205	12079.15
777.539	12103.55
777.874	12159.82
778.209	12029.88
778.543	12088.41
778.878	12077.34
779.212	12111.24
779.547	12139.48
779.881	12156.21
780.215	12130.67
780.55	12169.54
780.884	12128.64
781.218	12129.99
781.552	12167.05
781.886	12140.61
782.22	12141.29
782.554	12121.86
782.888	12048.86
783.222	12008.64
783.556	11964.8
783.889	11988.53
784.223	11956.66
784.557	11971.35
784.89	12025.59
785.224	11913.73
785.557	11904.24
785.891	11951.01
786.224	11933.39
786.558	11926.38
786.891	11871.24
787.224	11841.64
787.557	11773.17
787.891	11805.48
788.224	11864.01
788.557	11801.41
788.89	11903.56
789.223	11734.07
789.556	11765.93
789.888	11815.65
790.221	11610.01
790.554	11547.41
790.887	11674.41
791.219	11609.78
791.552	11676.9
791.884	11596.67
792.217	11592.83
792.549	11552.61
792.882	11513.51
793.214	11443.68
793.546	11457.92
793.879	11440.52
794.211	11363.91
794.543	11416.11
794.875	11403.46
795.207	11387.86
795.539	11328.66
795.871	11297.02
796.203	11261.99
796.535	11236.46
796.867	11240.52
797.198	11154.2
797.53	11203.46
797.862	11080.53
798.193	11128.89
798.525	11040.3
798.856	11111.71
799.188	10993.98
799.519	10974.77
799.85	10937.48
800.182	10954.2
800.513	10934.32
800.844	10916.01
801.175	10938.61
801.506	10858.16
801.837	10825.17
802.168	10796.92
802.499	10817.26
802.83	10749.24
803.161	10713.98
803.491	10697.26
803.822	10739.97
804.153	10702.91
804.483	10583.82
804.814	10576.36
805.145	10540.66
805.475	10525.74
805.805	10465.63
806.136	10485.97
806.466	10438.74
806.796	10493.65
807.126	10322.13
807.457	10371.17
807.787	10407.1
808.117	10406.65
808.447	10305.86
808.777	10335.69
809.107	10278.06
809.436	10272.41
809.766	10287.78
810.096	10189.03
810.426	10274.22
810.755	10201
811.085	10254.33
811.414	10216.82
811.744	10101.8
812.073	10134.34
812.403	10081.91
812.732	10011.63
813.061	10045.75
813.39	9992.87
813.719	9909.03
814.049	10006.43
814.378	9981.8
814.707	9854.8
815.036	9883.72
815.365	9826.1
815.693	9835.36
816.022	9858.19
816.351	9852.99
816.68	9782.26
817.008	9784.52
817.337	9662.94
817.665	9728.92
817.994	9671.07
818.322	9711.07
818.651	9676.95
818.979	9706.1
819.307	9698.87
819.636	9603.96
819.964	9608.93
820.292	9626.33
820.62	9575.71
820.948	9615.03
821.276	9619.55
821.604	9596.27
821.932	9573.9
822.259	9580.91
822.587	9597.18
822.915	9542.26
823.243	9537.07
823.57	9602.6
823.898	9595.82
824.225	9463.17
824.553	9512.66
824.88	9513.79
825.207	9524.64
825.535	9537.07
825.862	9521.02
826.189	9551.08
826.516	9544.98
826.843	9606.22
827.17	9541.81
827.497	9608.02
827.824	9578.65
828.151	9598.08
828.478	9523.28
828.805	9615.71
829.131	9579.78
829.458	9523.05
829.785	9549.95
830.111	9547.23
830.438	9586.1
830.764	9535.48
831.09	9575.48
831.417	9521.25
831.743	9541.36
832.069	9598.98
832.395	9500.68
832.722	9568.93
833.048	9565.31
833.374	9458.42
833.7	9453.9
834.026	9550.17
834.351	9498.65
834.677	9428.59
835.003	9405.32
835.329	9447.58
835.654	9423.17
835.98	9483.51
836.306	9403.74
836.631	9387.92
836.956	9465.66
837.282	9418.42
837.607	9383.4
837.932	9297.3
838.258	9362.61
838.583	9413.68
838.908	9263.85
839.233	9329.84
839.558	9326.9
839.883	9309.05
840.208	9220.69
840.533	9196.28
840.858	9230.63
841.182	9343.17
841.507	9274.25
841.832	9215.04
842.156	9136.17
842.481	9220.92
842.805	9093.91
843.13	9170.75
843.454	9139.56
843.778	9080.81
844.103	9075.16
844.427	9026.8
844.751	9045.1
845.075	8999.23
845.399	9007.81
845.723	8897.31
846.047	8943.41
846.371	8896.63
846.695	8904.54
847.019	8809.18
847.343	8781.83
847.666	8754.49
847.99	8725.79
848.313	8735.5
848.637	8589.75
848.96	8650.76
849.284	8620.71
849.607	8516.75
849.931	8537.09
850.254	8460.48
850.577	8363.09
850.9	8305.23
851.223	8387.72
851.546	8267.95
851.869	8285.35
852.192	8387.94
852.515	8227.95
852.838	8170.1
853.161	8230.89
853.483	8198.12
853.806	8159.7
854.129	8104.56
854.451	8062.53
854.774	8068.4
855.096	8068.18
855.419	8047.39
855.741	8016.2
856.063	7976.2
856.385	7972.14
856.708	7939.82
857.03	7949.31
857.352	7877.9
857.674	7868.63
857.996	7905.7
858.318	7797.22
858.64	7812.37
858.961	7730.33
859.283	7730.56
859.605	7740.05
859.926	7817.56
860.248	7718.81
860.57	7660.73
860.891	7669.77
861.212	7675.42
861.534	7532.82
861.855	7545.03
862.176	7679.04
862.498	7567.85
862.819	7568.3
863.14	7518.59
863.461	7502.77
863.782	7534.18
864.103	7489.66
864.424	7458.93
864.745	7542.09
865.065	7373.96
865.386	7466.61
865.707	7453.96
866.027	7490.79
866.348	7417.8
866.668	7460.96
866.989	7449.66
867.309	7382.32
867.63	7342.77
867.95	7315.88
868.27	7265.26
868.59	7337.12
868.91	7258.48
869.23	7347.07
869.55	7262.78
869.87	7298.48
870.19	7319.04
870.51	7333.96
870.83	7315.66
871.15	7182.55
871.469	7204.25
871.789	7209.9
872.109	7215.09
872.428	7206.51
872.748	7216.9
873.067	7187.75
873.386	7183.46
873.706	7126.73
874.025	7120.18
874.344	7134.42
874.663	7192.27
874.982	7059.16
875.301	7155.89
875.62	7065.27
875.939	7057.36
876.258	7091.71
876.577	7049
876.896	7041.76
877.214	7029.79
877.533	7011.03
877.852	6992.27
878.17	6984.14
878.489	7004.93
878.807	6984.14
879.125	7000.41
879.444	6926.29
879.762	6896.68
880.08	6916.12
880.398	6918.6
880.716	6948.66
881.034	6848.77
881.352	6914.76
881.67	6827.31
881.988	6870.24
882.306	6875.89
882.624	6822.33
882.941	6732.39
883.259	6799.28
883.577	6778.95
883.894	6741.21
884.212	6714.31
884.529	6736.46
884.846	6670.7
885.164	6728.33
885.481	6669.34
885.798	6645.62
886.115	6626.63
886.432	6595
886.75	6626.86
887.067	6599.29
887.383	6574.21
887.7	6613.07
888.017	6590.48
888.334	6561.32
888.651	6549.57
888.967	6564.49
889.284	6496.02
889.6	6491.5
889.917	6460.31
890.233	6437.94
890.55	6350.93
890.866	6444.72
891.182	6362.23
891.498	6400.65
891.815	6336.92
892.131	6307.55
892.447	6332.63
892.763	6290.15
893.079	6248.79
893.395	6230.49
893.71	6286.98
894.026	6205.63
894.342	6184.16
894.657	6185.74
894.973	6129.25
895.289	6180.32
895.604	6225.97
895.92	6029.36
896.235	6025.75
896.55	6070.04
896.865	6033.43
897.181	6000.89
897.496	6044.95
897.811	6025.29
898.126	5943.49
898.441	5953.66
898.756	5934.9
899.071	5888.12
899.386	5842.7
899.7	5846.32
900.015	5793.66
900.33	5824.85
900.644	5779.65
900.959	5853.09
901.273	5726.09
901.588	5723.61
901.902	5762.48
902.216	5702.59
902.531	5705.98
902.845	5696.94
903.159	5663.95
903.473	5633.67
903.787	5596.6
904.101	5579.88
904.415	5569.26
904.729	5516.15
905.042	5550.96
905.356	5555.48
905.67	5485.42
905.984	5489.71
906.297	5500.11
906.611	5439.32
906.924	5385.08
907.237	5397.97
907.551	5379.43
907.864	5357.74
908.177	5340.11
908.491	5328.14
908.804	5303.5
909.117	5256.27
909.43	5255.37
909.743	5225.99
910.056	5225.31
910.368	5180.8
910.681	5175.37
910.994	5136.96
911.307	5103.74
911.619	5111.19
911.932	5105.32
912.244	5031.87
912.557	5054.25
912.869	5022.83
913.181	5016.51
913.494	4984.19
913.806	4928.37
914.118	4913.68
914.43	4910.29
914.742	4910.75
915.054	4878.88
915.366	4875.04
915.678	4858.09
915.99	4776.51
916.302	4825.1
916.613	4748.94
916.925	4792.33
917.236	4746.01
917.548	4706.68
917.859	4718.66
918.171	4657.19
918.482	4693.13
918.794	4635.27
919.105	4644.31
919.416	4608.16
919.727	4595.27
920.038	4573.35
920.349	4554.37
920.66	4528.61
920.971	4555.95
921.282	4530.19
921.593	4475.28
921.903	4461.27
922.214	4404.77
922.525	4413.13
922.835	4446.13
923.146	4381.04
923.456	4410.87
923.767	4361.38
924.077	4393.92
924.387	4365.22
924.697	4349.18
925.008	4284.32
925.318	4305.79
925.628	4299.24
925.938	4255.4
926.248	4206.81
926.558	4214.27
926.867	4217.66
927.177	4186.92
927.487	4147.83
927.796	4118
928.106	4161.39
928.416	4126.36
928.725	4141.95
929.034	4083.65
929.344	4086.36
929.653	4075.51
929.962	4024.89
930.271	4060.83
930.581	4007.27
930.89	4019.47
931.199	3966.82
931.508	3974.05
931.817	3943.09
932.125	3927.27
932.434	3909.64
932.743	3915.74
933.051	3824.9
933.36	3850.66
933.669	3844.11
933.977	3830.32
934.286	3838.01
934.594	3818.35
934.902	3772.7
935.21	3789.87
935.519	3756.65
935.827	3744.9
936.135	3725.69
936.443	3724.56
936.751	3662.19
937.059	3671.91
937.367	3685.69
937.674	3662.64
937.982	3641.4
938.29	3603.66
938.597	3624.23
938.905	3616.77
939.213	3559.82
939.52	3562.99
939.827	3573.38
940.135	3501.07
940.442	3520.5
940.749	3521.18
941.056	3455.19
941.363	3467.85
941.67	3438.24
941.977	3433.72
942.284	3435.08
942.591	3426.04
942.898	3419.03
943.205	3388.3
943.511	3375.65
943.818	3388.3
944.125	3359.83
944.431	3332.71
944.738	3340.62
945.044	3285.93
945.35	3328.64
945.657	3275.54
945.963	3227.4
946.269	3276.89
946.575	3262.2
946.881	3256.78
947.187	3219.27
947.493	3232.6
947.799	3195.99
948.105	3171.13
948.41	3188.31
948.716	3124.58
949.022	3136.78
949.327	3137.91
949.633	3106.95
949.938	3128.65
950.244	3088.42
950.549	3094.07
950.854	3092.72
951.16	3049.33
951.465	3020.63
951.77	3016.56
952.075	3015.88
952.38	3000.97
952.685	3026.05
952.99	2949.22
953.294	2994.41
953.599	2932.27
953.904	2937.01
954.209	2935.66
954.513	2900.4
954.818	2884.59
955.122	2922.32
955.426	2859.95
955.731	2850.91
956.035	2908.54
956.339	2836.9
956.643	2843.23
956.948	2818.6
957.252	2799.62
957.556	2816.79
957.86	2735.89
958.163	2781.54
958.467	2762.1
958.771	2748.77
959.075	2723.69
959.378	2723.01
959.682	2731.37
959.985	2713.74
960.289	2684.36
960.592	2703.12
960.896	2644.82
961.199	2661.31
961.502	2645.27
961.805	2657.7
962.108	2638.26
962.411	2618.38
962.714	2621.99
963.017	2615.44
963.32	2605.04
963.623	2569.79
963.926	2551.49
964.228	2519.4
964.531	2507.87
964.833	2554.88
965.136	2495.22
965.438	2544.26
965.741	2503.35
966.043	2496.8
966.345	2481.43
966.648	2480.75
966.95	2485.95
967.252	2445.27
967.554	2450.25
967.856	2441.88
968.158	2401.21
968.46	2374.32
968.761	2390.81
969.063	2396.01
969.365	2363.24
969.666	2380.19
969.968	2336.8
970.269	2318.27
970.571	2330.93
970.872	2325.96
971.174	2313.53
971.475	2307.88
971.776	2257.71
972.077	2285.28
972.378	2283.25
972.679	2293.87
972.98	2280.08
973.281	2222.23
973.582	2268.33
973.883	2239.86
974.183	2212.06
974.484	2210.7
974.785	2226.98
975.085	2184.26
975.386	2206.41
975.686	2199.86
975.986	2164.15
976.287	2204.83
976.587	2125.96
976.887	2147.43
977.187	2163.93
977.487	2127.32
977.787	2116.7
978.087	2148.11
978.387	2101.55
978.687	2080.09
978.987	2074.21
979.286	2076.24
979.586	2096.36
979.885	2031.05
980.185	2050.71
980.484	2010.71
980.784	2052.06
981.083	2051.16
981.382	2040.77
981.682	2024.49
981.981	2019.07
982.28	2027.88
982.579	1990.15
982.878	1967.55
983.177	1953.08
983.475	1953.76
983.774	1936.81
984.073	1933.88
984.372	1917.15
984.67	1893.65
984.969	1924.84
985.267	1924.38
985.566	1921.9
985.864	1907.66
986.162	1901.79
986.461	1867.21
986.759	1860.43
987.057	1867.21
987.355	1855.91
987.653	1866.08
987.951	1845.52
988.249	1853.88
988.547	1863.82
988.844	1816.14
989.142	1807.78
989.44	1803.26
989.737	1775.01
990.035	1794.44
990.332	1806.42
990.63	1749.25
990.927	1769.36
991.224	1759.64
991.521	1765.74
991.819	1748.12
992.116	1728.91
992.413	1731.4
992.71	1702.92
993.006	1734.56
993.303	1703.15
993.6	1673.32
993.897	1695.69
994.193	1701.34
994.49	1656.82
994.787	1678.74
995.083	1632.87
995.379	1633.32
995.676	1659.98
995.972	1667.67
996.268	1655.92
996.565	1613.21
996.861	1614.34
997.157	1643.71
997.453	1596.03
997.749	1572.08
998.044	1585.18
998.34	1568.69
998.636	1554.22
998.932	1592.64
999.227	1574.11
999.523	1536.37
999.818	1523.27
1000.114	1513.32
1000.409	1495.02
1000.704	1540.67
1001	1503.83
1001.295	1529.14
1001.59	1518.75
1001.885	1496.83
1002.18	1476.71
1002.475	1449.37
1002.77	1476.94
1003.065	1459.54
1003.359	1439.88
1003.654	1457.96
1003.949	1433.55
1004.243	1408.92
1004.538	1434.23
1004.832	1398.07
1005.127	1418.86
1005.421	1401.69
1005.715	1393.32
1006.009	1386.32
1006.304	1365.98
1006.598	1365.08
1006.892	1343.38
1007.186	1356.49
1007.48	1366.66
1007.773	1347.45
1008.067	1333.89
1008.361	1308.13
1008.655	1307.9
1008.948	1312.65
1009.242	1317.39
1009.535	1292.54
1009.829	1287.11
1010.122	1267.23
1010.415	1271.97
1010.708	1249.83
1011.001	1283.27
1011.295	1248.92
1011.588	1260.45
1011.881	1237.4
1012.173	1258.41
1012.466	1241.01
1012.759	1230.62
1013.052	1210.5
1013.344	1232.43
1013.637	1208.47
1013.93	1187.91
1014.222	1179.55
1014.514	1207.57
1014.807	1176.16
1015.099	1153.56
1015.391	1172.77
1015.683	1154.01
1015.976	1154.24
1016.268	1154.01
1016.56	1157.85
1016.851	1153.11
1017.143	1129.15
1017.435	1130.96
1017.727	1098.19
1018.018	1100.68
1018.31	1131.41
1018.602	1100
1018.893	1113.11
1019.185	1111.3
1019.476	1089.6
1019.767	1092.77
1020.058	1077.4
1020.35	1063.84
1020.641	1077.85
1020.932	1066.1
1021.223	1047.12
1021.514	1050.51
1021.804	1022.71
1022.095	1025.43
1022.386	1003.05
1022.677	1016.61
1022.967	989.95
1023.258	1010.28
1023.548	1007.35
1023.839	994.47
1024.129	998.99
1024.419	980.23
1024.709	983.84
1025	977.06
1025.29	987.23
1025.58	947.91
1025.87	948.59
1026.16	974.35
1026.449	956.27
1026.739	937.29
1027.029	919.21
1027.319	896.61
1027.608	923.73
1027.898	928.03
1028.187	907.01
1028.477	868.59
1028.766	905.2
1029.055	890.97
1029.344	898.65
1029.634	871.76
1029.923	855.71
1030.212	870.4
1030.501	877.63
1030.79	876.28
1031.078	872.43
1031.367	852.1
1031.656	857.52
1031.945	833.57
1032.233	844.64
1032.522	823.62
1032.81	828.14
1033.099	817.07
1033.387	808.93
1033.675	806.22
1033.963	811.19
1034.251	815.49
1034.54	809.84
1034.828	812.55
1035.116	797.86
1035.403	788.37
1035.691	783.85
1035.979	759.67
1036.267	792.21
1036.554	753.12
1036.842	751.99
1037.129	759.9
1037.417	755.38
1037.704	750.4
1037.992	745.88
1038.279	740.23
1038.566	724.19
1038.853	724.19
1039.14	724.19
