Data from hue_230_FLMS001491_00007.txt Node
Date: Tue Feb 07 16:36:44 GMT 2017
User: dcchb
Spectrometer: FLMS00149
Trigger mode: 0
Integration Time (sec): 2.000000E-2
Scans to average: 10
Electric dark correction enabled: true
Nonlinearity correction enabled: false
Boxcar width: 0
XAxis mode: Wavelengths
Number of Pixels in Spectrum: 2048
>>>>>Begin Spectral Data<<<<<
341.393	-11.16
341.776	-11.16
342.16	-11.16
342.543	-52.51
342.927	-76.47
343.31	-80.31
343.693	-75.56
344.077	-63.36
344.46	-76.69
344.843	-44.38
345.226	-49.35
345.61	-17.94
345.993	-23.36
346.376	2.4
346.759	21.16
347.142	33.59
347.525	48.28
347.908	68.61
348.291	69.52
348.674	91.89
349.057	95.51
349.44	133.92
349.823	145
350.206	167.82
350.588	196.29
350.971	221.38
351.354	235.16
351.737	237.42
352.119	239.23
352.502	265.44
352.884	270.42
353.267	257.76
353.65	288.95
354.032	287.59
354.414	311.32
354.797	299.12
355.179	334.37
355.562	333.24
355.944	311.32
356.326	298.89
356.709	332.56
357.091	325.33
357.473	339.34
357.855	330.75
358.238	342.51
358.62	327.36
359.002	356.29
359.384	325.56
359.766	317.87
360.148	326.46
360.53	317.2
360.912	321.94
361.294	342.28
361.676	314.26
362.057	332.34
362.439	302.96
362.821	325.78
363.203	340.25
363.584	311.77
363.966	333.01
364.348	322.39
364.729	323.52
365.111	313.58
365.493	311.09
365.874	299.57
366.256	294.37
366.637	315.61
367.019	294.6
367.4	302.73
367.781	306.8
368.163	303.41
368.544	319.23
368.925	330.75
369.306	302.51
369.688	316.07
370.069	291.88
370.45	284.43
370.831	297.99
371.212	324.88
371.593	300.02
371.974	315.84
372.355	301.15
372.736	307.25
373.117	282.17
373.498	307.03
373.879	295.27
374.26	328.72
374.641	292.79
375.021	299.79
375.402	304.31
375.783	312.68
376.163	345.22
376.544	333.01
376.925	333.47
377.305	330.08
377.686	331.43
378.066	324.2
378.447	325.56
378.827	334.14
379.208	326.46
379.588	335.5
379.968	324.43
380.349	324.43
380.729	329.4
381.109	369.4
381.489	319.91
381.87	327.82
382.25	340.25
382.63	340.47
383.01	310.87
383.39	337.76
383.77	333.69
384.15	361.71
384.53	354.26
384.91	346.57
385.29	344.99
385.67	337.99
386.049	361.04
386.429	350.19
386.809	361.71
387.189	366.69
387.568	338.66
387.948	350.41
388.328	369.17
388.707	378.66
389.087	340.7
389.466	374.59
389.846	360.36
390.225	374.14
390.605	335.73
390.984	374.59
391.363	389.06
391.743	365.1
392.122	373.01
392.501	364.2
392.881	399.9
393.26	373.24
393.639	382.5
394.018	368.95
394.397	363.52
394.776	383.63
395.155	414.82
395.534	393.13
395.913	395.84
396.292	416.4
396.671	406.23
397.05	407.14
397.429	403.97
397.808	402.39
398.186	413.92
398.565	383.86
398.944	406.46
399.323	398.1
399.701	384.31
400.08	424.54
400.458	393.58
400.837	416.85
401.215	397.42
401.594	424.31
401.972	418.89
402.351	410.3
402.729	414.37
403.107	407.59
403.486	416.63
403.864	417.98
404.242	428.6
404.62	431.54
404.999	438.55
405.377	463.86
405.755	465.89
406.133	450.98
406.511	455.27
406.889	474.03
407.267	484.65
407.645	474.25
408.023	480.58
408.401	476.96
408.779	493.69
409.156	490.52
409.534	498.21
409.912	503.63
410.29	532.33
410.667	519.68
411.045	537.08
411.422	534.82
411.8	537.98
412.178	539.79
412.555	545.44
412.933	555.15
413.31	553.57
413.687	575.04
414.065	582.72
414.442	589.28
414.819	608.94
415.197	592.67
415.574	615.04
415.951	591.76
416.328	611.88
416.705	622.05
417.082	618.88
417.46	625.21
417.837	656.85
418.214	635.15
418.591	649.39
418.967	658.88
419.344	659.56
419.721	703.17
420.098	691.42
420.475	687.13
420.852	685.55
421.228	709.73
421.605	719.44
421.982	715.38
422.358	722.83
422.735	745.43
423.111	764.41
423.488	763.96
423.864	792.89
424.241	798.76
424.617	798.09
424.994	802.15
425.37	823.17
425.746	818.88
426.123	849.84
426.499	834.02
426.875	865.43
427.251	902.94
427.627	886.9
428.003	899.1
428.379	934.81
428.756	913.11
429.132	903.62
429.507	936.84
429.883	944.07
430.259	961.92
430.635	957.86
431.011	968.48
431.387	989.27
431.763	997.63
432.138	1037.4
432.514	1041.02
432.89	1070.17
433.265	1075.59
433.641	1089.38
434.016	1076.72
434.392	1101.36
434.767	1147.23
435.143	1143.16
435.518	1148.36
435.894	1187
436.269	1206.66
436.644	1227.91
437.02	1238.53
437.395	1210.5
437.77	1263.61
438.145	1286.66
438.52	1318.98
438.895	1303.84
439.271	1312.65
439.646	1352.65
440.021	1331.63
440.395	1372.53
440.77	1394.23
441.145	1397.39
441.52	1434
441.895	1401.23
442.27	1468.8
442.645	1438.75
443.019	1484.4
443.394	1499.31
443.769	1514.23
444.143	1525.52
444.518	1542.47
444.892	1538.18
445.267	1555.81
445.641	1575.02
446.016	1588.35
446.39	1608.46
446.764	1608.69
447.139	1616.37
447.513	1623.83
447.887	1634.67
448.262	1620.66
448.636	1648.69
449.01	1668.35
449.384	1690.27
449.758	1671.51
450.132	1704.73
450.506	1736.14
450.88	1724.62
451.254	1730.27
451.628	1772.07
452.002	1795.35
452.376	1797.61
452.75	1809.13
453.123	1817.04
453.497	1828.79
453.871	1836.48
454.244	1913.76
454.618	1890.49
454.992	1935.68
455.365	1939.53
455.739	1952.63
456.112	1978.62
456.486	1978.62
456.859	1985.17
457.232	2049.58
457.606	2085.96
457.979	2074.89
458.352	2127.32
458.725	2143.59
459.099	2120.54
459.472	2196.92
459.845	2213.64
460.218	2193.3
460.591	2252.29
460.964	2268.1
461.337	2279.86
461.71	2306.97
462.083	2331.61
462.456	2335.9
462.829	2341.55
463.201	2419.74
463.574	2418.16
463.947	2407.99
464.32	2467.87
464.692	2492.05
465.065	2546.97
465.438	2593.97
465.81	2606.4
466.183	2593.29
466.555	2675.33
466.928	2679.62
467.3	2693.4
467.672	2687.98
468.045	2781.09
468.417	2779.28
468.789	2798.03
469.161	2842.33
469.534	2832.38
469.906	2931.14
470.278	2958.03
470.65	2997.12
471.022	3020.4
471.394	3082.55
471.766	3092.04
472.138	3133.62
472.51	3187.63
472.882	3188.98
473.253	3220.62
473.625	3313.95
473.997	3371.35
474.369	3379.71
474.74	3414.74
475.112	3452.25
475.484	3455.19
475.855	3579.71
476.227	3602.53
476.598	3705.35
476.97	3682.98
477.341	3774.28
477.713	3813.6
478.084	3840.72
478.455	3935.86
478.827	3955.97
479.198	4047.27
479.569	4073.48
479.94	4166.36
480.311	4185.57
480.682	4267.37
481.053	4353.25
481.424	4397.09
481.795	4427.37
482.166	4463.98
482.537	4524.32
482.908	4641.38
483.279	4653.58
483.65	4731.32
484.021	4792.78
484.391	4852.22
484.762	4885.66
485.133	4918.66
485.503	4967.69
485.874	5038.88
486.244	5087.92
486.615	5173.56
486.985	5256.95
487.356	5340.11
487.726	5321.81
488.097	5476.83
488.467	5466.66
488.837	5549.83
489.207	5634.12
489.578	5662.37
489.948	5719.76
490.318	5775.36
490.688	5776.49
491.058	5870.04
491.428	5906.2
491.798	6004.05
492.168	6096.7
492.538	6112.3
492.908	6146.65
493.278	6199.07
493.648	6282.24
494.017	6286.98
494.387	6316.59
494.757	6378.96
495.126	6442.68
495.496	6453.76
495.866	6509.8
496.235	6560.65
496.605	6583.92
496.974	6614.88
497.344	6677.93
497.713	6718.16
498.082	6719.06
498.452	6788.44
498.821	6797.48
499.19	6807.87
499.559	6869.34
499.928	6951.6
500.298	6995.44
500.667	7016
501.036	6957.02
501.405	7032.05
501.774	6968.55
502.143	7098.94
502.512	7058.94
502.88	7141.2
503.249	7192.04
503.618	7189.78
503.987	7191.59
504.356	7241.08
504.724	7218.03
505.093	7294.19
505.462	7305.94
505.83	7264.13
506.199	7386.84
506.567	7401.3
506.936	7453.28
507.304	7483.56
507.672	7536.67
508.041	7522.2
508.409	7597.68
508.777	7554.97
509.145	7647.85
509.514	7605.36
509.882	7619.83
510.25	7618.92
510.618	7699.6
510.986	7640.62
511.354	7722.88
511.722	7846.04
512.09	7884
512.458	7792.25
512.826	7869.99
513.193	7871.57
513.561	7865.47
513.929	7895.53
514.297	7925.81
514.664	7974.62
515.032	8000.61
515.4	8029.76
515.767	8020.5
516.135	8065.24
516.502	7986.6
516.869	8100.95
517.237	8031.57
517.604	8060.04
517.972	8124
518.339	8111.57
518.706	8141.17
519.073	8100.27
519.44	8123.77
519.808	8233.6
520.175	8202.64
520.542	8235.18
520.909	8284.22
521.276	8211.68
521.643	8274.27
522.009	8368.51
522.376	8333.03
522.743	8332.35
523.11	8315.63
523.477	8435.63
523.843	8440.82
524.21	8474.95
524.577	8559.69
524.943	8512.46
525.31	8522.18
525.676	8522.63
526.043	8612.34
526.409	8554.49
526.776	8615.28
527.142	8589.97
527.508	8655.73
527.874	8641.95
528.241	8683.53
528.607	8625.23
528.973	8717.2
529.339	8737.54
529.705	8759.01
530.071	8781.15
530.437	8713.36
530.803	8785.67
531.169	8791.77
531.535	8793.13
531.901	8707.26
532.267	8723.75
532.632	8844.88
532.998	8776.18
533.364	8758.56
533.73	8806.24
534.095	8844.65
534.461	8842.62
534.826	8859.12
535.192	8848.5
535.557	8882.62
535.923	8846.46
536.288	8833.36
536.653	8767.14
537.019	8763.98
537.384	8829.97
537.749	8848.27
538.114	8779.35
538.479	8794.26
538.845	8820.7
539.21	8738.22
539.575	8775.28
539.94	8741.83
540.305	8780.25
540.67	8753.58
541.034	8788.38
541.399	8747.93
541.764	8776.63
542.129	8712
542.494	8705
542.858	8749.29
543.223	8726.47
543.587	8747.26
543.952	8648.5
544.316	8754.94
544.681	8693.02
545.045	8761.72
545.41	8643.76
545.774	8710.19
546.138	8687.82
546.503	8673.36
546.867	8616.86
547.231	8717.65
547.595	8680.14
547.959	8671.33
548.324	8593.36
548.688	8619.58
549.052	8711.32
549.416	8609.41
549.779	8635.85
550.143	8580.25
550.507	8587.03
550.871	8588.16
551.235	8569.41
551.599	8616.64
551.962	8570.31
552.326	8557.2
552.689	8583.42
553.053	8554.72
553.417	8549.52
553.78	8674.72
554.143	8575.96
554.507	8565.11
554.87	8587.71
555.234	8611.89
555.597	8560.82
555.96	8574.15
556.323	8605.56
556.686	8583.87
557.05	8601.27
557.413	8603.08
557.776	8630.87
558.139	8572.57
558.502	8627.94
558.865	8594.94
559.228	8597.88
559.59	8629.74
559.953	8636.98
560.316	8633.13
560.679	8676.75
561.041	8741.83
561.404	8752.45
561.767	8724.88
562.129	8758.33
562.492	8814.6
562.854	8749.97
563.217	8752.23
563.579	8788.38
563.941	8795.84
564.304	8853.24
564.666	8843.75
565.028	8879
565.39	8933.92
565.753	8869.06
566.115	8923.07
566.477	9007.36
566.839	8948.38
567.201	8981.6
567.563	9034.93
567.925	9086.46
568.287	9068.38
568.648	8982.5
569.01	9086
569.372	9134.36
569.734	9065.89
570.095	9174.82
570.457	9172.1
570.819	9144.08
571.18	9194.7
571.542	9183.18
571.903	9276.06
572.265	9279.67
572.626	9286.9
572.987	9289.39
573.349	9295.49
573.71	9396.05
574.071	9380.91
574.432	9361.03
574.794	9382.72
575.155	9433.34
575.516	9317.41
575.877	9430.18
576.238	9448.48
576.599	9531.64
576.96	9499.55
577.32	9441.25
577.681	9540
578.042	9548.14
578.403	9568.48
578.763	9575.48
579.124	9565.99
579.485	9635.82
579.845	9674.01
580.206	9612.54
580.566	9650.73
580.927	9692.32
581.287	9735.03
581.648	9729.38
582.008	9743.39
582.368	9770.73
582.728	9783.61
583.089	9739.09
583.449	9762.82
583.809	9874.23
584.169	9836.04
584.529	9813.67
584.889	9816.15
585.249	9874.23
585.609	9779.09
585.969	9911.52
586.329	9851.41
586.688	9939.99
587.048	9885.31
587.408	9910.39
587.768	9909.49
588.127	9900.9
588.487	9945.19
588.846	10017.28
589.206	9905.42
589.565	9953.33
589.925	10033.32
590.284	10037.39
590.643	10036.04
591.003	10020.44
591.362	10018.63
591.721	10030.84
592.08	10101.8
592.44	10076.94
592.799	10054.34
593.158	10015.47
593.517	10018.63
593.876	10120.55
594.235	10038.97
594.593	10098.86
594.952	10114.68
595.311	10084.62
595.67	10106.77
596.029	10090.05
596.387	10164.85
596.746	10235.13
597.104	10097.5
597.463	10194.68
597.822	10185.41
598.18	10093.44
598.538	10115.58
598.897	10192.64
599.255	10118.07
599.613	10255.92
599.972	10184.73
600.33	10096.6
600.688	10142.7
601.046	10238.06
601.404	10219.08
601.762	10256.82
602.12	10270.61
602.478	10291.62
602.836	10251.62
603.194	10201.45
603.552	10277.61
603.91	10245.52
604.268	10301.57
604.625	10210.04
604.983	10307.89
605.341	10247.1
605.698	10285.52
606.056	10289.14
606.413	10294.11
606.771	10339.76
607.128	10292.53
607.485	10317.84
607.843	10272.64
608.2	10367.55
608.557	10398.29
608.914	10351.06
609.272	10360.55
609.629	10406.87
609.986	10495.23
610.343	10364.84
610.7	10475.57
611.057	10473.09
611.414	10449.13
611.771	10388.79
612.127	10445.74
612.484	10525.29
612.841	10581.56
613.198	10476.93
613.554	10450.04
613.911	10492.75
614.267	10521.9
614.624	10447.78
614.98	10478.74
615.337	10565.06
615.693	10604.83
616.05	10479.41
616.406	10602.8
616.762	10501.79
617.118	10556.93
617.475	10580.2
617.831	10571.16
618.187	10568.22
618.543	10648.9
618.899	10636.7
619.255	10695.23
619.611	10669.69
619.967	10730.48
620.323	10694.78
620.678	10662.23
621.034	10632.63
621.39	10670.37
621.746	10629.24
622.101	10771.61
622.457	10623.59
622.812	10604.16
623.168	10644.16
623.523	10608.45
623.879	10673.98
624.234	10629.24
624.589	10685.06
624.945	10595.34
625.3	10669.24
625.655	10641.9
626.01	10647.54
626.365	10652.97
626.72	10591.5
627.075	10619.07
627.43	10605.06
627.785	10603.93
628.14	10603.25
628.495	10590.82
628.85	10596.7
629.205	10552.18
629.559	10638.05
629.914	10572.29
630.269	10573.2
630.623	10558.73
630.978	10495.68
631.332	10591.28
631.687	10583.14
632.041	10565.29
632.396	10563.25
632.75	10483.03
633.104	10464.27
633.459	10430.83
633.813	10479.64
634.167	10507.44
634.521	10461.11
634.875	10512.41
635.229	10478.06
635.583	10420.43
635.937	10378.63
636.291	10350.38
636.645	10385.4
636.999	10341.56
637.352	10418.17
637.706	10348.34
638.06	10378.85
638.413	10408.68
638.767	10287.55
639.121	10287.78
639.474	10267.44
639.828	10253.43
640.181	10245.3
640.534	10199.87
640.888	10253.2
641.241	10166.65
641.594	10179.99
641.947	10215.24
642.301	10189.7
642.654	10182.7
643.007	10169.82
643.36	10162.59
643.713	10162.13
644.066	10190.38
644.419	10107.67
644.771	10137.73
645.124	9997.62
645.477	9955.59
645.83	9949.94
646.182	9834.91
646.535	9817.51
646.888	9825.65
647.24	9757.4
647.593	9843.72
647.945	9790.17
648.298	9732.54
648.65	9748.36
649.002	9744.07
649.355	9811.86
649.707	9845.31
650.059	9784.74
650.411	9950.16
650.763	9967.11
651.115	10025.19
651.467	10024.51
651.819	10052.08
652.171	10000.1
652.523	9973.21
652.875	9970.27
653.227	9979.31
653.578	10034
653.93	10041.01
654.282	9932.31
654.633	9962.82
654.985	9923.72
655.337	10011.18
655.688	9985.19
656.039	10017.96
656.391	9932.54
656.742	9999.43
657.094	9897.51
657.445	10008.69
657.796	9983.61
658.147	9942.03
658.498	9898.41
658.849	9924.85
659.2	10009.14
659.551	9942.93
659.902	9915.59
660.253	9967.11
660.604	9931.18
660.955	9942.93
661.306	9968.47
661.656	9942.7
662.007	9971.86
662.358	9941.35
662.708	9976.15
663.059	9981.57
663.409	9876.27
663.76	9993.32
664.11	9919.43
664.461	9977.05
664.811	10014.57
665.161	9939.99
665.511	9904.06
665.862	9973.44
666.212	9954.23
666.562	9989.03
666.912	9960.33
667.262	9907
667.612	10001.91
667.962	9941.12
668.312	9921.24
668.662	10009.6
669.011	9998.07
669.361	9831.52
669.711	9942.93
670.06	9916.72
670.41	9957.85
670.76	9855.93
671.109	9956.49
671.459	9952.87
671.808	9892.08
672.157	9905.87
672.507	9848.47
672.856	9864.06
673.205	9828.81
673.554	9872.88
673.904	9820.22
674.253	9862.48
674.602	9831.75
674.951	9689.6
675.3	9729.83
675.649	9841.92
675.998	9783.61
676.346	9835.36
676.695	9856.61
677.044	9836.04
677.393	9829.26
677.741	9846.66
678.09	9711.75
678.438	9751.52
678.787	9768.92
679.135	9729.15
679.484	9610.28
679.832	9647.8
680.181	9682.15
680.529	9687.12
680.877	9590.62
681.225	9583.62
681.573	9687.12
681.922	9638.08
682.27	9554.69
682.618	9573.22
682.966	9530.51
683.314	9547.23
683.661	9490.97
684.009	9413
684.357	9388.14
684.705	9406.9
685.053	9452.77
685.4	9391.08
685.748	9344.53
686.095	9337.3
686.443	9267.24
686.79	9353.34
687.138	9383.62
687.485	9316.96
687.832	9259.56
688.18	9269.5
688.527	9224.08
688.874	9214.36
689.221	9111.77
689.568	9156.06
689.915	9093.69
690.262	9110.86
690.609	9073.35
690.956	9048.26
691.303	9052.11
691.65	9009.17
691.997	9005.55
692.344	8916.97
692.69	8869.96
693.037	8917.65
693.383	8792.23
693.73	8817.31
694.077	8752.91
694.423	8759.46
694.769	8778.89
695.116	8777.31
695.462	8700.7
695.808	8681.27
696.155	8740.02
696.501	8661.61
696.847	8637.65
697.193	8563.76
697.539	8569.41
697.885	8575.73
698.231	8470.88
698.577	8438.11
698.923	8441.05
699.269	8363.76
699.614	8312.92
699.96	8325.8
700.306	8301.39
700.651	8316.98
700.997	8248.06
701.342	8246.93
701.688	8242.86
702.033	8175.97
702.379	8194.73
702.724	8202.41
703.069	8146.37
703.415	8040.61
703.76	8025.01
704.105	8088.74
704.45	7974.85
704.795	7964.68
705.14	7949.31
705.485	7942.53
705.83	7937.33
706.175	7872.7
706.52	7852.14
706.865	7862.53
707.209	7797.9
707.554	7813.72
707.899	7801.97
708.243	7717.45
708.588	7767.62
708.932	7718.58
709.277	7711.58
709.621	7698.7
709.966	7576.67
710.31	7640.39
710.654	7518.81
710.998	7621.64
711.342	7544.58
711.687	7585.25
712.031	7541.86
712.375	7532.37
712.719	7503.9
713.063	7514.75
713.407	7530.56
713.75	7446.05
714.094	7479.27
714.438	7415.77
714.782	7410.79
715.125	7401.08
715.469	7392.49
715.812	7365.37
716.156	7324.69
716.499	7374.64
716.843	7335.09
717.186	7328.08
717.53	7320.63
717.873	7253.06
718.216	7300.29
718.559	7310.91
718.902	7227.52
719.246	7253.74
719.589	7236.79
719.932	7165.6
720.275	7166.96
720.617	7175.09
720.96	7206.28
721.303	7208.09
721.646	7219.61
721.989	7155.66
722.331	7221.19
722.674	7080.18
723.016	7210.12
723.359	7153.17
723.701	7125.83
724.044	7098.94
724.386	7034.08
724.729	7125.15
725.071	7119.73
725.413	7031.59
725.755	7120.63
726.097	7051.48
726.439	7006.28
726.782	6991.6
727.124	7056.23
727.465	7026.85
727.807	7027.75
728.149	7015.78
728.491	6970.35
728.833	7026.4
729.175	7000.86
729.516	7034.98
729.858	7001.54
730.199	7035.66
730.541	6946.63
730.882	7044.25
731.224	6993.86
731.565	6983.91
731.906	6978.71
732.248	7026.17
732.589	6955.89
732.93	6944.82
733.271	6962.22
733.612	6960.86
733.953	6972.16
734.294	6982.78
734.635	6981.88
734.976	7019.84
735.317	6938.26
735.658	6965.61
735.999	6975.78
736.339	6951.37
736.68	6994.31
737.021	6923.8
737.361	6892.62
737.702	6968.09
738.042	6943.91
738.383	6906.4
738.723	7008.09
739.063	6938.04
739.404	7002.89
739.744	7012.16
740.084	6940.98
740.424	6956.34
740.764	7008.54
741.104	7020.97
741.444	6956.12
741.784	6989.56
742.124	7028.43
742.464	7051.48
742.804	7008.09
743.143	7044.48
743.483	7053.29
743.823	7035.89
744.162	7041.09
744.502	7096.9
744.841	7201.76
745.181	7178.71
745.52	7167.18
745.86	7173.51
746.199	7244.02
746.538	7251.93
746.877	7240.4
747.216	7263.68
747.556	7342.55
747.895	7398.82
748.234	7395.2
748.573	7389.78
748.911	7436.1
749.25	7471.13
749.589	7519.27
749.928	7623.44
750.267	7665.93
750.605	7731.69
750.944	7776.66
751.283	7760.16
751.621	7829.31
751.96	7852.82
752.298	7970.1
752.636	8009.2
752.975	8050.33
753.313	8070.66
753.651	8305.23
753.989	8334.61
754.327	8322.63
754.666	8448.51
755.004	8490.54
755.342	8618.45
755.679	8695.51
756.017	8801.94
756.355	8986.8
756.693	8981.15
757.031	9162.16
757.368	9184.31
757.706	9311.99
758.044	9412.32
758.381	9479.67
758.719	9598.76
759.056	9771.18
759.394	9862.71
759.731	9973.44
760.068	10016.6
760.405	10124.62
760.743	10237.84
761.08	10366.42
761.417	10542.24
761.754	10592.18
762.091	10723.93
762.428	10867.65
762.765	10982.23
763.102	11114.2
763.438	11227.87
763.775	11339.96
764.112	11468.31
764.449	11650.46
764.785	11672.6
765.122	11800.96
765.458	11871.24
765.795	11957.11
766.131	12160.05
766.467	12178.35
766.804	12285.24
767.14	12433.71
767.476	12521.39
767.812	12545.12
768.148	12770.88
768.485	12774.49
768.821	12790.77
769.157	12985.11
769.492	13009.52
769.828	13105.79
770.164	13199.79
770.5	13308.49
770.836	13373.35
771.171	13270.07
771.507	13476.62
771.842	13546
772.178	13614.25
772.513	13667.58
772.849	13698.99
773.184	13734.7
773.519	13876.61
773.855	13854.01
774.19	13800.46
774.525	13871.19
774.86	14074.8
775.195	14052.2
775.53	14013.78
775.865	14060.79
776.2	14046.1
776.535	14011.07
776.87	14115.48
777.205	14106.89
777.539	14094.69
777.874	14236.38
778.209	14144.85
778.543	14196.6
778.878	14135.36
779.212	14246.09
779.547	14291.06
779.881	14340.78
780.215	14279.31
780.55	14232.76
780.884	14280.67
781.218	14311.63
781.552	14332.65
781.886	14283.61
782.22	14288.35
782.554	14283.61
782.888	14163.61
783.222	14170.62
783.556	14142.82
783.889	14195.93
784.223	14134.46
784.557	14087.23
784.89	14170.16
785.224	14189.37
785.557	14086.55
785.891	14107.11
786.224	14099.88
786.558	14159.32
786.891	14002.94
787.224	13916.84
787.557	13997.29
787.891	13934.24
788.224	14010.62
788.557	14043.84
788.89	14027.79
789.223	13985.08
789.556	13911.41
789.888	13939.89
790.221	13840.91
790.554	13798.87
790.887	13811.08
791.219	13752.77
791.552	13785.99
791.884	13694.24
792.217	13707.8
792.549	13712.1
792.882	13684.98
793.214	13572.44
793.546	13665.77
793.879	13477.3
794.211	13489.28
794.543	13535.15
794.875	13514.14
795.207	13589.39
795.539	13420.58
795.871	13564.08
796.203	13403.63
796.535	13270.53
796.867	13282.96
797.198	13303.97
797.53	13305.55
797.862	13287.02
798.193	13238.21
798.525	13161.83
798.856	13199.12
799.188	13025.56
799.519	13049.97
799.85	12984.43
800.182	13011.1
800.513	12991.21
800.844	12852.01
801.175	12910.76
801.506	12883.87
801.837	12844.1
802.168	12875.96
802.499	12771.1
802.83	12726.81
803.161	12680.26
803.491	12722.52
803.822	12656.08
804.153	12620.83
804.483	12501.28
804.814	12442.98
805.145	12554.84
805.475	12461.96
805.805	12453.6
806.136	12491.34
806.466	12521.62
806.796	12406.37
807.126	12341.96
807.457	12384.45
807.787	12355.97
808.117	12287.28
808.447	12336.54
808.777	12253.6
809.107	12206.15
809.436	12153.49
809.766	12215.19
810.096	12141.06
810.426	12090.22
810.755	12091.35
811.085	12048.86
811.414	12161.4
811.744	11968.87
812.073	11977.91
812.403	11974.06
812.732	11898.13
813.061	11948.08
813.39	11913.27
813.719	11810.45
814.049	11904.69
814.378	11907.4
814.707	11756.44
815.036	11807.51
815.365	11723.22
815.693	11677.57
816.022	11689.55
816.351	11616.33
816.68	11582.21
817.008	11649.1
817.337	11566.39
817.665	11562.32
817.994	11484.59
818.322	11565.03
818.651	11375.44
818.979	11419.5
819.307	11529.33
819.636	11392.16
819.964	11441.42
820.292	11401.42
820.62	11369.56
820.948	11349.45
821.276	11417.24
821.604	11413.17
821.932	11341.54
822.259	11368.43
822.587	11293.18
822.915	11331.59
823.243	11332.27
823.57	11356.45
823.898	11346.28
824.225	11399.84
824.553	11315.32
824.88	11293.86
825.207	11321.43
825.535	11319.62
825.862	11341.54
826.189	11349.45
826.516	11321.88
826.843	11370.69
827.17	11439.61
827.497	11468.77
827.824	11422.67
828.151	11407.52
828.478	11415.43
828.805	11501.53
829.131	11381.76
829.458	11390.58
829.785	11350.13
830.111	11388.77
830.438	11415.43
830.764	11391.03
831.09	11387.19
831.417	11308.09
831.743	11388.77
832.069	11363.01
832.395	11310.35
832.722	11347.87
833.048	11303.12
833.374	11285.72
833.7	11276.23
834.026	11288.21
834.351	11310.35
834.677	11322.33
835.003	11263.12
835.329	11340.86
835.654	11279.39
835.98	11193.29
836.306	11225.61
836.631	11123.92
836.956	11214.31
837.282	11240.75
837.607	11167.31
837.932	11162.11
838.258	11117.36
838.583	11070.81
838.908	11105.84
839.233	11108.78
839.558	11032.17
839.883	11073.07
840.208	10986.29
840.533	10974.99
840.858	10986.29
841.182	10991.49
841.507	10989.46
841.832	10930.93
842.156	10905.39
842.481	10919.4
842.805	10919.18
843.13	10863.81
843.454	10821.55
843.778	10735.68
844.103	10789.69
844.427	10741.33
844.751	10820.2
845.075	10692.52
845.399	10676.02
845.723	10678.96
846.047	10648.67
846.371	10546.3
846.695	10567.32
847.019	10498.62
847.343	10416.14
847.666	10383.82
847.99	10335.69
848.313	10355.8
848.637	10207.33
848.96	10260.89
849.284	10177.73
849.607	10157.16
849.931	10124.62
850.254	10023.38
850.577	9959.43
850.9	9934.34
851.223	10023.38
851.546	9929.15
851.869	9791.52
852.192	9883.27
852.515	9821.58
852.838	9787.68
853.161	9768.02
853.483	9701.58
853.806	9631.53
854.129	9621.13
854.451	9621.13
854.774	9579.1
855.096	9560.34
855.419	9453.23
855.741	9488.03
856.063	9446.9
856.385	9408.71
856.708	9419.55
857.03	9423.85
857.352	9429.72
857.674	9409.39
857.996	9316.51
858.318	9217.98
858.64	9246
858.961	9184.53
859.283	9200.8
859.605	9157.41
859.926	9146.79
860.248	9147.47
860.57	9096.17
860.891	9112.44
861.212	9063.41
861.534	9024.99
861.855	9026.34
862.176	9048.26
862.498	9027.02
862.819	8970.07
863.14	8970.3
863.461	8931.21
863.782	8959.68
864.103	8917.42
864.424	8885.11
864.745	8946.57
865.065	8835.84
865.386	8852.11
865.707	8885.56
866.027	8851.43
866.348	8791.32
866.668	8803.53
866.989	8694.38
867.309	8741.15
867.63	8746.8
867.95	8740.7
868.27	8675.62
868.59	8676.75
868.91	8653.7
869.23	8690.31
869.55	8652.34
869.87	8598.56
870.19	8650.08
870.51	8602.85
870.83	8586.58
871.15	8544.1
871.469	8582.06
871.789	8519.24
872.109	8551.55
872.428	8482.63
872.748	8490.77
873.067	8499.58
873.386	8523.08
873.706	8415.97
874.025	8444.89
874.344	8447.83
874.663	8471.1
874.982	8396.08
875.301	8358.79
875.62	8381.39
875.939	8396.98
876.258	8346.81
876.577	8302.75
876.896	8366.02
877.214	8329.41
877.533	8355.4
877.852	8257.78
878.17	8298.45
878.489	8272.92
878.807	8315.85
879.125	8209.42
879.444	8279.7
879.762	8195.63
880.08	8283.77
880.398	8160.15
880.716	8185.91
881.034	8157.21
881.352	8158.34
881.67	8131
881.988	8145.92
882.306	8112.02
882.624	8034.96
882.941	8063.21
883.259	8006.94
883.577	8033.38
883.894	7988.41
884.212	8029.99
884.529	8021.85
884.846	7934.62
885.164	7908.41
885.481	7831.12
885.798	7896.2
886.115	7919.48
886.432	7860.27
886.75	7796.09
887.067	7849.65
887.383	7855.98
887.7	7806.26
888.017	7790.67
888.334	7834.06
888.651	7760.62
888.967	7736.89
889.284	7671.58
889.6	7654.86
889.917	7627.51
890.233	7607.85
890.55	7544.12
890.866	7584.35
891.182	7606.27
891.498	7479.04
891.815	7493.73
892.131	7496.89
892.447	7444.01
892.763	7418.7
893.079	7413.51
893.395	7397.69
893.71	7350.23
894.026	7339.38
894.342	7381.42
894.657	7287.86
894.973	7248.54
895.289	7248.09
895.604	7235.66
895.92	7191.36
896.235	7211.03
896.55	7144.81
896.865	7122.67
897.181	7118.6
897.496	7169.22
897.811	7108.43
898.126	7087.19
898.441	7045.83
898.756	6975.1
899.071	6968.55
899.386	6976.45
899.7	6931.94
900.015	6929.45
900.33	6867.08
900.644	6880.64
900.959	6817.14
901.273	6756.12
901.588	6805.84
901.902	6750.25
902.216	6761.09
902.531	6712.06
902.845	6642
903.159	6683.81
903.473	6601.1
903.787	6547.77
904.101	6581.89
904.415	6532.4
904.729	6485.62
905.042	6433.19
905.356	6447.43
905.67	6490.37
905.984	6480.65
906.297	6382.57
906.611	6383.02
906.924	6371.73
907.237	6375.57
907.551	6325.62
907.864	6271.84
908.177	6294.89
908.491	6256.93
908.804	6200.66
909.117	6226.87
909.43	6181.9
909.743	6121.79
910.056	6151.39
910.368	6102.35
910.681	6061.22
910.994	6070.72
911.307	6012.19
911.619	5978.52
911.932	6036.14
912.244	5933.09
912.557	5950.04
912.869	5897.84
913.181	5856.03
913.494	5839.31
913.806	5781.23
914.118	5813.1
914.43	5756.83
914.742	5754.11
915.054	5747.56
915.366	5698.07
915.678	5680.22
915.99	5655.81
916.302	5622.14
916.613	5643.16
916.925	5561.12
917.236	5607.68
917.548	5548.02
917.859	5539.66
918.171	5484.52
918.482	5490.17
918.794	5503.5
919.105	5484.29
919.416	5369.49
919.727	5388.02
920.038	5404.52
920.349	5353.67
920.66	5339.66
920.971	5354.58
921.282	5357.06
921.593	5289.49
921.903	5277.74
922.214	5256.95
922.525	5289.27
922.835	5191.87
923.146	5196.84
923.456	5162.04
923.767	5109.84
924.077	5131.31
924.387	5117.97
924.697	5067.8
925.008	5071.87
925.318	5011.99
925.628	5026.9
925.938	5005.43
926.248	4980.8
926.558	4940.35
926.867	4962.95
927.177	4902.61
927.487	4872.33
927.796	4863.52
928.106	4800.24
928.416	4791.43
928.725	4824.42
929.034	4769.06
929.344	4798.89
929.653	4752.11
929.962	4734.93
930.271	4710.75
930.581	4685.89
930.89	4614.71
931.199	4638.44
931.508	4637.31
931.817	4671.43
932.125	4585.56
932.434	4631.21
932.743	4532
933.051	4516.18
933.36	4534.49
933.669	4501.27
933.977	4495.39
934.286	4457.65
934.594	4477.76
934.902	4398.9
935.21	4401.83
935.519	4421.04
935.827	4412.23
936.135	4396.18
936.443	4328.16
936.751	4346.47
937.059	4324.55
937.367	4292.23
937.674	4286.13
937.982	4292.91
938.29	4269.18
938.597	4253.36
938.905	4201.61
939.213	4214.95
939.52	4188.28
939.827	4169.75
940.135	4157.32
940.442	4096.3
940.749	4145.12
941.056	4143.76
941.363	4059.24
941.67	4054.5
941.977	4033.26
942.284	4033.71
942.591	4018.34
942.898	3988.51
943.205	3999.81
943.511	3964.56
943.818	3953.26
944.125	3936.53
944.431	3929.76
944.738	3924.56
945.044	3895.63
945.35	3856.99
945.657	3842.3
945.963	3838.23
946.269	3795.75
946.575	3755.3
946.881	3748.07
947.187	3782.41
947.493	3753.04
947.799	3789.42
948.105	3757.78
948.41	3696.09
948.716	3672.14
949.022	3711
949.327	3711.23
949.633	3620.39
949.938	3644.34
950.244	3620.39
950.549	3593.72
950.854	3561.18
951.16	3556.21
951.465	3563.21
951.77	3551.46
952.075	3526.83
952.38	3534.51
952.685	3539.03
952.99	3452.93
953.294	3450.67
953.599	3433.5
953.904	3443.89
954.209	3419.71
954.513	3414.51
954.818	3382.43
955.122	3383.1
955.426	3374.29
955.731	3334.97
956.035	3344.01
956.339	3332.26
956.643	3357.12
956.948	3290
957.252	3281.86
957.556	3239.38
957.86	3248.87
958.163	3267.63
958.467	3244.12
958.771	3213.62
959.075	3221.98
959.378	3179.04
959.682	3162.32
959.985	3166.84
960.289	3137.01
960.592	3140.4
960.896	3126.16
961.199	3098.36
961.502	3135.88
961.805	3083
962.108	3071.7
962.411	3029.21
962.714	3049.33
963.017	3012.04
963.32	3045.03
963.623	3042.1
963.926	3011.36
964.228	2988.76
964.531	2925.71
964.833	2952.15
965.136	2939.05
965.438	2902.21
965.741	2926.62
966.043	2940.63
966.345	2858.6
966.648	2902.66
966.95	2903.12
967.252	2827.41
967.554	2849.78
967.856	2793.97
968.158	2810.01
968.46	2797.58
968.761	2793.29
969.063	2802.78
969.365	2787.19
969.666	2777.02
969.968	2728.21
970.269	2716.45
970.571	2715.78
970.872	2724.36
971.174	2715.32
971.475	2691.6
971.776	2675.78
972.077	2604.37
972.378	2652.05
972.679	2660.64
972.98	2634.87
973.281	2636.46
973.582	2574.54
973.883	2612.95
974.183	2587.19
974.484	2591.03
974.785	2565.72
975.085	2567.08
975.386	2564.82
975.686	2542.9
975.986	2530.24
976.287	2504.48
976.587	2530.24
976.887	2509.23
977.187	2515.1
977.487	2497.02
977.787	2444.14
978.087	2484.82
978.387	2473.07
978.687	2471.71
978.987	2433.75
979.286	2400.76
979.586	2417.93
979.885	2370.93
980.185	2410.7
980.484	2361.44
980.784	2353.98
981.083	2339.29
981.382	2366.86
981.682	2319.85
981.981	2307.88
982.28	2308.1
982.579	2303.13
982.878	2301.78
983.177	2288.44
983.475	2262.45
983.774	2279.18
984.073	2280.08
984.372	2218.39
984.67	2230.59
984.969	2239.63
985.267	2208.9
985.566	2221.55
985.864	2196.69
986.162	2188.56
986.461	2199.41
986.759	2190.82
987.057	2159.63
987.355	2115.57
987.653	2136.58
987.951	2127.54
988.249	2131.84
988.547	2095.68
988.844	2113.53
989.142	2107.2
989.44	2105.62
989.737	2068.11
990.035	2068.79
990.332	2051.16
990.63	2060.43
990.927	2018.39
991.224	2035.12
991.521	2045.96
991.819	2018.17
992.116	2006.87
992.413	2019.52
992.71	1980.65
993.006	1996.47
993.303	1953.99
993.6	1960.32
993.897	1969.13
994.193	1944.04
994.49	1931.39
994.787	1954.89
995.083	1915.35
995.379	1915.12
995.676	1902.69
995.972	1911.05
996.268	1896.36
996.565	1875.35
996.861	1891.39
997.157	1859.53
997.453	1855.69
997.749	1826.31
998.044	1845.97
998.34	1848.45
998.636	1791.51
998.932	1798.29
999.227	1831.05
999.523	1796.25
999.818	1788.57
1000.114	1797.61
1000.409	1792.41
1000.704	1720.32
1001	1737.04
1001.295	1738.63
1001.59	1744.05
1001.885	1720.77
1002.18	1716.48
1002.475	1700.66
1002.77	1647.78
1003.065	1670.38
1003.359	1683.03
1003.654	1650.04
1003.949	1656.37
1004.243	1627.22
1004.538	1635.35
1004.832	1629.02
1005.127	1632.19
1005.421	1632.41
1005.715	1619.76
1006.009	1574.11
1006.304	1605.75
1006.598	1564.39
1006.892	1562.81
1007.186	1558.52
1007.48	1536.37
1007.773	1548.58
1008.067	1521.68
1008.361	1525.07
1008.655	1509.25
1008.948	1513.77
1009.242	1501.8
1009.535	1489.82
1009.829	1477.62
1010.122	1459.54
1010.415	1484.4
1010.708	1478.75
1011.001	1456.6
1011.295	1456.15
1011.588	1436.94
1011.881	1446.66
1012.173	1408.69
1012.466	1419.99
1012.759	1380.9
1013.052	1396.49
1013.344	1379.09
1013.637	1376.6
1013.93	1372.76
1014.222	1363.95
1014.514	1346.32
1014.807	1350.61
1015.099	1351.07
1015.391	1358.98
1015.683	1341.8
1015.976	1337.06
1016.268	1324.85
1016.56	1295.7
1016.851	1276.04
1017.143	1300.67
1017.435	1315.13
1017.727	1269.49
1018.018	1288.02
1018.31	1269.26
1018.602	1254.35
1018.893	1233.33
1019.185	1252.76
1019.476	1218.19
1019.767	1228.81
1020.058	1210.28
1020.35	1198.08
1020.641	1213.89
1020.932	1224.06
1021.223	1177.96
1021.514	1194.46
1021.804	1169.83
1022.095	1154.69
1022.386	1165.31
1022.677	1143.84
1022.967	1145.87
1023.258	1131.86
1023.548	1161.47
1023.839	1114.69
1024.129	1118.08
1024.419	1121.02
1024.709	1095.93
1025	1089.15
1025.29	1090.73
1025.58	1080.56
1025.87	1078.08
1026.16	1057.29
1026.449	1086.21
1026.739	1046.67
1027.029	1030.62
1027.319	1037.63
1027.608	1028.59
1027.898	1022.94
1028.187	1042.37
1028.477	1012.77
1028.766	1038.08
1029.055	997.4
1029.344	983.84
1029.634	995.82
1029.923	989.04
1030.212	966.9
1030.501	999.66
1030.79	961.7
1031.078	975.26
1031.367	939.33
1031.656	963.28
1031.945	937.97
1032.233	946.33
1032.522	917.18
1032.81	924.18
1033.099	899.33
1033.387	919.89
1033.675	902.94
1033.963	902.26
1034.251	923.05
1034.54	920.12
1034.828	876.05
1035.116	887.12
1035.403	897.07
1035.691	890.51
1035.979	891.19
1036.267	885.77
1036.554	880.8
1036.842	861.81
1037.129	838.76
1037.417	849.16
1037.704	835.15
1037.992	870.4
1038.279	829.72
1038.566	838.76
1038.853	838.76
1039.14	838.76
