Data from hue_260_FLMS001491_00092.txt Node
Date: Tue Feb 07 15:59:53 GMT 2017
User: dcchb
Spectrometer: FLMS00149
Trigger mode: 0
Integration Time (sec): 2.000000E-2
Scans to average: 10
Electric dark correction enabled: true
Nonlinearity correction enabled: false
Boxcar width: 0
XAxis mode: Wavelengths
Number of Pixels in Spectrum: 2048
>>>>>Begin Spectral Data<<<<<
341.393	-7.97
341.776	-7.97
342.16	-7.97
342.543	-49.09
342.927	-61.07
343.31	-61.3
343.693	-78.7
344.077	-55.2
344.46	-51.81
344.843	-44.35
345.226	-46.16
345.61	-39.15
345.993	-23.56
346.376	-8.19
346.759	3.79
347.142	20.51
347.525	45.37
347.908	60.28
348.291	86.04
348.674	80.85
349.057	111.58
349.44	140.73
349.823	139.6
350.206	157.68
350.588	181.86
350.971	206.27
351.354	214.18
351.737	248.07
352.119	241.29
352.502	246.94
352.884	285.81
353.267	302.99
353.65	298.01
354.032	286.72
354.414	323.78
354.797	312.48
355.179	324.68
355.562	322.19
355.944	333.95
356.326	324.23
356.709	322.87
357.091	361.97
357.473	326.71
357.855	342.31
358.238	328.3
358.62	333.27
359.002	340.05
359.384	333.95
359.766	341.86
360.148	338.01
360.53	357
360.912	331.69
361.294	329.88
361.676	325.36
362.057	326.94
362.439	329.65
362.821	317.45
363.203	324.68
363.584	321.52
363.966	328.97
364.348	337.11
364.729	315.64
365.111	328.97
365.493	331.46
365.874	328.52
366.256	317.9
366.637	313.16
367.019	313.61
367.4	324.68
367.781	287.39
368.163	301.18
368.544	300.05
368.925	297.56
369.306	293.27
369.688	335.53
370.069	311.12
370.45	312.25
370.831	286.94
371.212	323.55
371.593	301.18
371.974	305.7
372.355	322.19
372.736	314.51
373.117	318.35
373.498	337.34
373.879	328.52
374.26	330.78
374.641	330.33
375.021	312.7
375.402	322.42
375.783	284.46
376.163	322.42
376.544	310.44
376.925	317.22
377.305	333.04
377.686	320.39
378.066	322.19
378.447	327.39
378.827	324.23
379.208	337.11
379.588	328.97
379.968	328.97
380.349	356.09
380.729	345.92
381.109	323.55
381.489	352.25
381.87	330.78
382.25	333.27
382.63	349.76
383.01	331.23
383.39	349.54
383.77	327.62
384.15	361.97
384.53	343.44
384.91	328.97
385.29	338.47
385.67	350.22
386.049	339.6
386.429	343.66
386.809	332.59
387.189	355.64
387.568	345.92
387.948	352.02
388.328	369.2
388.707	372.59
389.087	354.28
389.466	369.43
389.846	379.59
390.225	371.01
390.605	360.61
390.984	353.38
391.363	350.44
391.743	367.17
392.122	384.79
392.501	365.36
392.881	375.98
393.26	391.57
393.639	354.51
394.018	392.48
394.397	365.13
394.776	380.95
395.155	391.12
395.534	375.53
395.913	386.15
396.292	391.57
396.671	393.83
397.05	393.83
397.429	380.27
397.808	413.49
398.186	398.58
398.565	379.82
398.944	396.77
399.323	407.84
399.701	409.42
400.08	406.71
400.458	441.06
400.837	393.83
401.215	419.82
401.594	420.5
401.972	420.05
402.351	434.73
402.729	412.59
403.107	447.39
403.486	443.1
403.864	442.19
404.242	436.99
404.62	439.93
404.999	446.94
405.377	447.16
405.755	478.8
406.133	436.99
406.511	464.56
406.889	488.74
407.267	463.43
407.645	462.76
408.023	490.33
408.401	492.36
408.779	478.57
409.156	516.99
409.534	509.99
409.912	496.65
410.29	530.78
410.667	519.93
411.045	510.66
411.422	527.39
411.8	512.47
412.178	532.36
412.555	531.68
412.933	562.87
413.31	561.74
413.687	577.1
414.065	558.8
414.442	574.62
414.819	593.37
415.197	598.57
415.574	621.85
415.951	609.87
416.328	624.56
416.705	624.33
417.082	627.95
417.46	651
417.837	648.29
418.214	672.24
418.591	667.95
418.967	663.2
419.344	680.83
419.721	692.35
420.098	685.58
420.475	693.03
420.852	724.44
421.228	725.8
421.605	735.07
421.982	750.21
422.358	753.6
422.735	761.05
423.111	746.82
423.488	745.91
423.864	791.34
424.241	785.01
424.617	794.95
424.994	803.99
425.37	857.55
425.746	836.08
426.123	816.87
426.499	861.16
426.875	861.39
427.251	871.11
427.627	887.83
428.003	900.48
428.379	886.7
428.756	916.3
429.132	934.83
429.507	944.78
429.883	947.04
430.259	967.38
430.635	967.15
431.011	982.06
431.387	1010.09
431.763	1023.42
432.138	1042.4
432.514	1045.79
432.89	1046.7
433.265	1113.36
433.641	1087.37
434.016	1110.65
434.392	1109.97
434.767	1137.31
435.143	1139.57
435.518	1167.6
435.894	1164.88
436.269	1222.06
436.644	1226.13
437.02	1202.4
437.395	1241.27
437.77	1283.53
438.145	1279.23
438.52	1309.06
438.895	1321.49
439.271	1325.11
439.646	1354.48
440.021	1374.37
440.395	1401.04
440.77	1370.53
441.145	1414.6
441.52	1413.01
441.895	1404.88
442.27	1456.18
442.645	1443.07
443.019	1468.83
443.394	1464.54
443.769	1467.02
444.143	1502.5
444.518	1523.52
444.892	1520.81
445.267	1521.49
445.641	1560.13
446.016	1570.3
446.39	1553.57
446.764	1582.5
447.139	1589.28
447.513	1596.29
447.887	1614.82
448.262	1631.77
448.636	1637.64
449.01	1674.93
449.384	1655.27
449.758	1693.91
450.132	1692.78
450.506	1696.4
450.88	1705.21
451.254	1693.01
451.628	1748.15
452.002	1761.48
452.376	1750.86
452.75	1777.98
453.123	1800.8
453.497	1822.95
453.871	1834.7
454.244	1870.63
454.618	1864.53
454.992	1894.13
455.365	1911.08
455.739	1965.99
456.112	1957.41
456.486	1985.65
456.859	1976.39
457.232	2016.84
457.606	2018.2
457.979	2023.85
458.352	2077.18
458.725	2084.18
459.099	2095.03
459.472	2122.83
459.845	2157.17
460.218	2170.28
460.591	2200.79
460.964	2203.5
461.337	2251.86
461.71	2286.44
462.083	2299.54
462.456	2309.94
462.829	2322.37
463.201	2357.4
463.574	2373.21
463.947	2406.66
464.32	2472.42
464.692	2451.18
465.065	2476.94
465.438	2505.64
465.81	2518.52
466.183	2534.79
466.555	2619.99
466.928	2614.79
467.3	2636.71
467.672	2627.45
468.045	2734.33
468.417	2756.03
468.789	2738.85
469.161	2753.77
469.534	2814.78
469.906	2865.4
470.278	2866.76
470.65	2908.34
471.022	2952.18
471.394	3008.9
471.766	3023.82
472.138	3079.64
472.51	3118.51
472.882	3179.97
473.253	3187.66
473.625	3215.68
473.997	3296.81
474.369	3296.81
474.74	3285.05
475.112	3389.46
475.484	3415.45
475.855	3447.54
476.227	3498.16
476.598	3602.33
476.97	3639.62
477.341	3685.95
477.713	3777.25
478.084	3745.16
478.455	3826.51
478.827	3820.18
479.198	3942.21
479.569	3990.35
479.94	4007.52
480.311	4108.54
480.682	4157.57
481.053	4244.35
481.424	4258.14
481.795	4330.45
482.166	4383.11
482.537	4421.52
482.908	4475.76
483.279	4507.62
483.65	4599.6
484.021	4665.58
484.391	4685.02
484.762	4775.41
485.133	4753.49
485.503	4860.38
485.874	4923.88
486.244	4960.27
486.615	5074.84
486.985	5065.35
487.356	5204.55
487.726	5230.09
488.097	5295.62
488.467	5320.71
488.837	5460.82
489.207	5442.74
489.578	5521.83
489.948	5581.27
490.318	5607.71
490.688	5602.06
491.058	5723.63
491.428	5753.01
491.798	5839.56
492.168	5924.08
492.538	5904.42
492.908	5980.13
493.278	6031.42
493.648	6039.78
494.017	6120.01
494.387	6129.05
494.757	6213.57
495.126	6240.46
495.496	6261.02
495.866	6290.4
496.235	6361.36
496.605	6421.24
496.974	6403.39
497.344	6503.73
497.713	6549.6
498.082	6536.72
498.452	6551.41
498.821	6608.13
499.19	6574.91
499.559	6620.33
499.928	6688.58
500.298	6737.39
500.667	6816.71
501.036	6697.85
501.405	6784.85
501.774	6788.01
502.143	6855.36
502.512	6819.43
502.88	6919.08
503.249	6869.82
503.618	6858.29
503.987	6987.1
504.356	6988.69
504.724	7016.71
505.093	7023.71
505.462	7094.22
505.83	7077.95
506.199	7178.74
506.567	7268.9
506.936	7202.01
507.304	7251.73
507.672	7236.36
508.041	7275.91
508.409	7324.5
508.777	7309.58
509.145	7336.25
509.514	7349.58
509.882	7349.81
510.25	7361.56
510.618	7462.8
510.986	7374.44
511.354	7483.81
511.722	7551.16
512.09	7539.18
512.458	7506.86
512.826	7566.3
513.193	7597.71
513.561	7591.16
513.929	7634.09
514.297	7699.4
514.664	7688.33
515.032	7665.73
515.4	7743.92
515.767	7746.41
516.135	7747.08
516.502	7632.96
516.869	7769.91
517.237	7788.21
517.604	7753.41
517.972	7795.22
518.339	7849
518.706	7863.69
519.073	7842
519.44	7846.97
519.808	7881.77
520.175	7879.51
520.542	7966.06
520.909	8003.35
521.276	7991.15
521.643	8035.44
522.009	8009.9
522.376	8009
522.743	8060.07
523.11	8119.73
523.477	8117.7
523.843	8152.95
524.21	8159.5
524.577	8265.04
524.943	8201.99
525.31	8281.53
525.676	8266.84
526.043	8357.01
526.409	8289.44
526.776	8361.53
527.142	8328.31
527.508	8388.42
527.874	8341.65
528.241	8333.51
528.607	8416.45
528.973	8448.76
529.339	8366.05
529.705	8455.31
530.071	8443.11
530.437	8445.37
530.803	8521.75
531.169	8477.69
531.535	8466.61
531.901	8521.75
532.267	8495.31
532.632	8489.89
532.998	8494.64
533.364	8552.26
533.73	8473.17
534.095	8510.23
534.461	8477.46
534.826	8594.52
535.192	8532.6
535.557	8528.31
535.923	8543.22
536.288	8522.66
536.653	8542.77
537.019	8500.28
537.384	8445.6
537.749	8470
538.114	8576.89
538.479	8474.3
538.845	8499.38
539.21	8435.88
539.575	8496.22
539.94	8511.58
540.305	8545.48
540.67	8427.74
541.034	8476.33
541.399	8445.15
541.764	8471.81
542.129	8486.05
542.494	8475.2
542.858	8454.86
543.223	8460.29
543.587	8445.82
543.952	8459.83
544.316	8447.41
544.681	8373.28
545.045	8469.55
545.41	8447.63
545.774	8404.47
546.138	8408.76
546.503	8430.46
546.867	8372.38
547.231	8363.34
547.595	8431.81
547.959	8442.43
548.324	8388.88
548.688	8432.72
549.052	8362.44
549.416	8319.05
549.779	8399.27
550.143	8370.34
550.507	8400.17
550.871	8284.92
551.235	8315.88
551.599	8350.68
551.962	8368.31
552.326	8340.06
552.689	8333.28
553.053	8288.99
553.417	8291.25
553.78	8388.2
554.143	8256.9
554.507	8347.07
554.87	8296
555.234	8383
555.597	8286.05
555.96	8270.23
556.323	8261.87
556.686	8270.69
557.05	8329.44
557.413	8341.42
557.776	8371.93
558.139	8389.33
558.502	8301.65
558.865	8367.41
559.228	8440.85
559.59	8378.93
559.953	8425.48
560.316	8407.86
560.679	8404.24
561.041	8416.9
561.404	8455.54
561.767	8463.9
562.129	8452.83
562.492	8524.01
562.854	8517.91
563.217	8453.28
563.579	8456.9
563.941	8538.7
564.304	8564.01
564.666	8601.98
565.028	8601.53
565.39	8586.61
565.753	8586.16
566.115	8624.35
566.477	8663.44
566.839	8633.61
567.201	8732.6
567.563	8676.55
567.925	8733.27
568.287	8756.1
568.648	8789.99
569.01	8766.94
569.372	8828.64
569.734	8795.87
570.095	8895.08
570.457	8836.77
570.819	8900.95
571.18	8832.93
571.542	8942.53
571.903	8875.87
572.265	8987.96
572.626	8954.06
572.987	8983.89
573.349	9023.21
573.71	9021.85
574.071	9048.75
574.432	9069.31
574.794	9131.68
575.155	9108.86
575.516	9075.64
575.877	9112.47
576.238	9154.73
576.599	9164.22
576.96	9275.63
577.32	9217.78
577.681	9310.66
578.042	9307.72
578.403	9303.43
578.763	9312.69
579.124	9318.57
579.485	9311.11
579.845	9382.75
580.206	9316.08
580.566	9397.21
580.927	9372.13
581.287	9444.89
581.648	9382.52
582.008	9524.21
582.368	9484.21
582.728	9565.12
583.089	9499.58
583.449	9526.25
583.809	9551.33
584.169	9573.48
584.529	9557.43
584.889	9681.27
585.249	9530.09
585.609	9585.91
585.969	9703.42
586.329	9601.5
586.688	9717.65
587.048	9651.89
587.408	9674.94
587.768	9669.52
588.127	9723.98
588.487	9720.37
588.846	9801.72
589.206	9747.26
589.565	9747.48
589.925	9778.22
590.284	9819.57
590.643	9780.7
591.003	9847.37
591.362	9883.75
591.721	9811.21
592.08	9846.46
592.44	9857.99
592.799	9918.33
593.158	9908.16
593.517	9926.69
593.876	9966.46
594.235	9944.31
594.593	9962.17
594.952	9984.54
595.311	9909.74
595.67	10018.21
596.029	10014.14
596.387	10057.98
596.746	9972.11
597.104	10034.03
597.463	9931.66
597.822	9994.03
598.18	10027.48
598.538	9948.16
598.897	10111.09
599.255	9989.51
599.613	10100.02
599.972	10082.16
600.33	10137.3
600.688	10070.41
601.046	10175.04
601.404	10148.6
601.762	10139.79
602.12	10188.83
602.478	10186.34
602.836	10195.61
603.194	10111.32
603.552	10159.45
603.91	10124.42
604.268	10202.39
604.625	10106.12
604.983	10157.19
605.341	10066.12
605.698	10203.07
606.056	10222.95
606.413	10206.23
606.771	10204.19
607.128	10181.14
607.485	10149.06
607.843	10227.7
608.2	10243.97
608.557	10330.52
608.914	10296.17
609.272	10282.39
609.629	10311.99
609.986	10385.21
610.343	10318.77
610.7	10424.53
611.057	10376.62
611.414	10321.93
611.771	10335.94
612.127	10436.28
612.484	10399.44
612.841	10395.15
613.198	10438.99
613.554	10396.51
613.911	10401.48
614.267	10438.31
614.624	10375.72
614.98	10411.87
615.337	10516.73
615.693	10521.47
616.05	10475.37
616.406	10522.6
616.762	10502.27
617.118	10477.18
617.475	10485.32
617.831	10527.35
618.187	10550.17
618.543	10533.68
618.899	10549.5
619.255	10592.89
619.611	10520.12
619.967	10605.54
620.323	10587.69
620.678	10591.08
621.034	10524.64
621.39	10548.82
621.746	10502.49
622.101	10684.41
622.457	10612.77
622.812	10573.9
623.168	10607.12
623.523	10577.74
623.879	10560.57
624.234	10486.67
624.589	10626.56
624.945	10540.46
625.3	10566.9
625.655	10539.78
626.01	10546.11
626.365	10558.99
626.72	10547.24
627.075	10598.99
627.43	10601.47
627.785	10515.6
628.14	10537.07
628.495	10551.76
628.85	10501.59
629.205	10448.26
629.559	10581.13
629.914	10463.85
630.269	10493.23
630.623	10454.13
630.978	10398.54
631.332	10549.27
631.687	10563.28
632.041	10464.75
632.396	10485.32
632.75	10449.84
633.104	10465.21
633.459	10334.81
633.813	10407.81
634.167	10408.26
634.521	10364.87
634.875	10410.74
635.229	10324.87
635.583	10339.78
635.937	10298.2
636.291	10291.42
636.645	10315.83
636.999	10278.54
637.352	10285.1
637.706	10290.75
638.06	10286.68
638.413	10233.12
638.767	10241.48
639.121	10272.44
639.474	10135.72
639.828	10177.75
640.181	10144.31
640.534	10180.69
640.888	10184.31
641.241	10088.04
641.594	10046.46
641.947	10169.85
642.301	10186.79
642.654	10116.29
643.007	10149.28
643.36	10096.85
643.713	10067.7
644.066	10078.55
644.419	10159.9
644.771	10028.61
645.124	9897.31
645.477	9924.2
645.83	9829.97
646.182	9837.65
646.535	9738.22
646.888	9761.49
647.24	9728.5
647.593	9770.76
647.945	9725.79
648.298	9704.55
648.65	9707.71
649.002	9714.04
649.355	9717.88
649.707	9728.73
650.059	9798.1
650.411	9877.65
650.763	9847.37
651.115	9932.56
651.467	9926.46
651.819	9960.81
652.171	9916.52
652.523	9972.11
652.875	9909.97
653.227	9856.86
653.578	9907.48
653.93	9874.71
654.282	9862.74
654.633	9866.35
654.985	9814.83
655.337	9938.44
655.688	9867.93
656.039	9922.62
656.391	9817.54
656.742	9859.35
657.094	9903.41
657.445	9921.94
657.796	9933.47
658.147	9868.16
658.498	9899.8
658.849	9923.3
659.2	9876.52
659.551	9919
659.902	9877.2
660.253	9970.53
660.604	9963.52
660.955	9895.95
661.306	9944.31
661.656	9972.79
662.007	9928.95
662.358	9909.97
662.708	9960.81
663.059	9931.43
663.409	9965.78
663.76	9988.83
664.11	9934.15
664.461	9948.83
664.811	9910.19
665.161	9897.76
665.511	9895.95
665.862	9942.96
666.212	9939.34
666.562	9988.83
666.912	9937.31
667.262	9947.25
667.612	9946.12
667.962	9992.68
668.312	9964.88
668.662	9998.78
669.011	9924.88
669.361	9971.66
669.711	9884.66
670.06	9866.12
670.41	9871.32
670.76	9941.38
671.109	9886.69
671.459	9896.86
671.808	9860.7
672.157	9879.91
672.507	9827.71
672.856	9908.84
673.205	9915.84
673.554	9907.48
673.904	9776.18
674.253	9866.35
674.602	9791.32
674.951	9698.67
675.3	9556.75
675.649	9786.8
675.998	9730.99
676.346	9801.72
676.695	9855.28
677.044	9783.42
677.393	9802.17
677.741	9782.96
678.09	9728.28
678.438	9587.94
678.787	9714.04
679.135	9790.87
679.484	9648.96
679.832	9688.05
680.181	9612.57
680.529	9635.85
680.877	9646.24
681.225	9659.35
681.573	9642.63
681.922	9584.78
682.27	9522.18
682.618	9606.02
682.966	9503.2
683.314	9533.93
683.661	9545.46
684.009	9468.4
684.357	9415.74
684.705	9424.55
685.053	9479.24
685.4	9394.72
685.748	9376.65
686.095	9381.62
686.443	9297.78
686.79	9269.3
687.138	9261.39
687.485	9249.42
687.832	9239.93
688.18	9227.5
688.527	9187.05
688.874	9179.82
689.221	9141.62
689.568	9118.57
689.915	9142.75
690.262	9143.88
690.609	9093.04
690.956	9053.04
691.303	8994.74
691.65	8972.59
691.997	8922.65
692.344	8890.56
692.69	8923.78
693.037	8856.21
693.383	8837
693.73	8846.49
694.077	8827.73
694.423	8751.35
694.769	8783.22
695.116	8690.56
695.462	8673.84
695.808	8667.96
696.155	8717.68
696.501	8602.43
696.847	8546.39
697.193	8527.63
697.539	8607.4
697.885	8434.75
698.231	8487.4
698.577	8444.47
698.923	8441.53
699.269	8368.99
699.614	8332.83
699.96	8283.12
700.306	8317.24
700.651	8279.27
700.997	8238.37
701.342	8184.81
701.688	8254.87
702.033	8166.06
702.379	8200.63
702.724	8119.96
703.069	8161.54
703.415	8045.61
703.76	8031.14
704.105	7982.33
704.45	7990.47
704.795	7903.92
705.14	7908.66
705.485	7923.13
705.83	7892.84
706.175	7845.61
706.52	7845.84
706.865	7797.48
707.209	7734.2
707.554	7815.78
707.899	7735.79
708.243	7683.36
708.588	7731.04
708.932	7660.99
709.277	7637.48
709.621	7593.19
709.966	7578.28
710.31	7585.73
710.654	7500.99
710.998	7496.02
711.342	7495.79
711.687	7505.73
712.031	7489.69
712.375	7503.48
712.719	7501.89
713.063	7437.71
713.407	7436.58
713.75	7375.57
714.094	7383.48
714.438	7389.81
714.782	7416.25
715.125	7338.51
715.469	7331.73
715.812	7344.84
716.156	7307.77
716.499	7334.89
716.843	7289.24
717.186	7192.3
717.53	7284.95
717.873	7311.39
718.216	7264.61
718.559	7247.89
718.902	7140.32
719.246	7191.62
719.589	7132.19
719.932	7150.26
720.275	7103.03
720.617	7110.04
720.96	7113.2
721.303	7096.71
721.646	7134.45
721.989	7105.29
722.331	7105.52
722.674	7103.94
723.016	7114.33
723.359	7085.63
723.701	7048.12
724.044	6997.95
724.386	7035.01
724.729	7043.83
725.071	7006.76
725.413	7039.08
725.755	7046.76
726.097	7017.84
726.439	6957.5
726.782	6996.82
727.124	7033.66
727.465	6913.89
727.807	6971.74
728.149	6925.64
728.491	6987.56
728.833	6929.7
729.175	6955.01
729.516	6898.75
729.858	6932.19
730.199	6884.73
730.541	6950.95
730.882	6949.14
731.224	6978.29
731.565	6997.27
731.906	6891.74
732.248	6914.56
732.589	6909.14
732.93	6865.07
733.271	6948.91
733.612	6904.17
733.953	6919.08
734.294	6923.6
734.635	6875.47
734.976	6930.38
735.317	6905.07
735.658	6878.63
735.999	6895.81
736.339	6909.37
736.68	6884.96
737.021	6836.37
737.361	6905.52
737.702	6955.69
738.042	6916.82
738.383	6925.41
738.723	6895.36
739.063	6919.99
739.404	6942.81
739.744	6948.24
740.084	6936.94
740.424	6975.81
740.764	6950.5
741.104	7030.04
741.444	7001.79
741.784	6976.26
742.124	7054.22
742.464	6994.34
742.804	7021.45
743.143	7016.93
743.483	7063.71
743.823	7006.76
744.162	7063.03
744.502	7119.3
744.841	7072.3
745.181	7203.37
745.52	7136.25
745.86	7196.82
746.199	7238.62
746.538	7196.82
746.877	7335.34
747.216	7289.47
747.556	7282.01
747.895	7447.66
748.234	7427.32
748.573	7481.1
748.911	7480.42
749.25	7464.38
749.589	7569.91
749.928	7647.2
750.267	7731.49
750.605	7769.68
750.944	7737.59
751.283	7827.53
751.621	7872.5
751.96	7882.45
752.298	8059.17
752.636	8049.9
752.975	8182.78
753.313	8206.73
753.651	8319.05
753.989	8405.37
754.327	8450.34
754.666	8492.83
755.004	8681.3
755.342	8742.31
755.679	8840.62
756.017	8899.6
756.355	9027.05
756.693	9083.77
757.031	9260.72
757.368	9334.16
757.706	9405.12
758.044	9595.4
758.381	9716.07
758.719	9829.29
759.056	9908.38
759.394	10035.84
759.731	10104.54
760.068	10231.54
760.405	10336.85
760.743	10445.32
761.08	10710.17
761.417	10720.11
761.754	10900.67
762.091	11025.19
762.428	11162.59
762.765	11173.21
763.102	11460.43
763.438	11485.07
763.775	11603.03
764.112	11807.77
764.449	11864.72
764.785	11956.24
765.122	12059.97
765.458	12203.92
765.795	12301.77
766.131	12478.26
766.467	12534.76
766.804	12665.37
767.14	12665.15
767.476	12814.3
767.812	12911.02
768.148	13048.41
768.485	13089.09
768.821	13199.37
769.157	13287.73
769.492	13321.85
769.828	13466.03
770.164	13527.95
770.5	13562.75
770.836	13715.74
771.171	13772.46
771.507	13796.64
771.842	13723.65
772.178	13904.66
772.513	14011.1
772.849	14141.49
773.184	14065.11
773.519	14259
773.855	14160.25
774.19	14190.76
774.525	14273.92
774.86	14334.03
775.195	14368.83
775.53	14413.8
775.865	14425.55
776.2	14333.35
776.535	14347.59
776.87	14386.23
777.205	14447.7
777.539	14495.83
777.874	14561.14
778.209	14519.34
778.543	14558.88
778.878	14446.12
779.212	14561.37
779.547	14574.93
779.881	14665.32
780.215	14508.04
780.55	14609.05
780.884	14677.98
781.218	14592.1
781.552	14680.46
781.886	14634.36
782.22	14635.49
782.554	14621.71
782.888	14490.86
783.222	14484.99
783.556	14446.57
783.889	14506.23
784.223	14475.72
784.557	14422.84
784.89	14484.31
785.224	14486.12
785.557	14537.41
785.891	14428.94
786.224	14428.94
786.558	14406.57
786.891	14330.87
787.224	14294.93
787.557	14274.14
787.891	14298.32
788.224	14316.63
788.557	14300.36
788.89	14302.17
789.223	14249.96
789.556	14181.49
789.888	14269.17
790.221	14136.07
790.554	14014.26
790.887	14086.35
791.219	14063.08
791.552	14036.64
791.884	13996.86
792.217	13961.61
792.549	13979.01
792.882	13831.9
793.214	13801.61
793.546	13920.48
793.879	13825.12
794.211	13806.81
794.543	13806.59
794.875	13775.63
795.207	13894.04
795.539	13749.86
795.871	13753.93
796.203	13704.44
796.535	13541.28
796.867	13564.56
797.198	13529.31
797.53	13525.24
797.862	13466.03
798.193	13481.62
798.525	13432.36
798.856	13439.59
799.188	13390.1
799.519	13305.36
799.85	13257.9
800.182	13239.6
800.513	13269.88
800.844	13159.82
801.175	13259.48
801.506	13194.62
801.837	13073.72
802.168	13095.64
802.499	13063.78
802.83	12967.29
803.161	13021.75
803.491	12938.81
803.822	13032.82
804.153	12923.22
804.483	12782.43
804.814	12874.18
805.145	12870.79
805.475	12814.97
805.805	12707.86
806.136	12801.87
806.466	12744.47
806.796	12687.75
807.126	12689.1
807.457	12551.7
807.787	12636.45
808.117	12534.98
808.447	12469.45
808.777	12573.62
809.107	12503.12
809.436	12463.8
809.766	12446.62
810.096	12484.59
810.426	12399.62
810.755	12425.38
811.085	12274.2
811.414	12346.96
811.744	12205.05
812.073	12267.87
812.403	12284.59
812.732	12138.61
813.061	12142.22
813.39	12149.23
813.719	12096.57
814.049	12161.43
814.378	12086.41
814.707	11957.6
815.036	11980.19
815.365	12028.33
815.693	11858.39
816.022	11971.38
816.351	11899.74
816.68	11814.32
817.008	11863.81
817.337	11743.14
817.665	11808.22
817.994	11763.93
818.322	11678.73
818.651	11745.62
818.979	11680.54
819.307	11838.5
819.636	11703.82
819.964	11711.95
820.292	11680.31
820.62	11755.11
820.948	11638.28
821.276	11643.48
821.604	11650.94
821.932	11618.17
822.259	11633.31
822.587	11549.02
822.915	11546.31
823.243	11495.69
823.57	11622.69
823.898	11533.2
824.225	11521.67
824.553	11536.82
824.88	11591.05
825.207	11619.75
825.535	11549.92
825.862	11596.02
826.189	11575.68
826.516	11656.13
826.843	11686.87
827.17	11713.53
827.497	11703.82
827.824	11624.04
828.151	11614.78
828.478	11653.42
828.805	11699.52
829.131	11610.03
829.458	11635.34
829.785	11631.28
830.111	11601.67
830.438	11676.02
830.764	11590.37
831.09	11629.69
831.417	11500.21
831.743	11601.67
832.069	11685.29
832.395	11551.05
832.722	11626.98
833.048	11528.91
833.374	11624.04
833.7	11515.35
834.026	11565.52
834.351	11540.21
834.677	11446.87
835.003	11475.57
835.329	11453.2
835.654	11468.12
835.98	11434.9
836.306	11432.41
836.631	11419.53
836.956	11457.95
837.282	11513.31
837.607	11404.16
837.932	11416.59
838.258	11407.78
838.583	11371.17
838.908	11338.18
839.233	11381.57
839.558	11320.32
839.883	11276.71
840.208	11174.56
840.533	11190.16
840.858	11199.88
841.182	11195.81
841.507	11207.78
841.832	11138.18
842.156	11129.37
842.481	11116.04
842.805	11153.77
843.13	11131.18
843.454	11054.79
843.778	11010.73
844.103	10930.5
844.427	10948.58
844.751	10916.04
845.075	10933.89
845.399	10919.43
845.723	10787.23
846.047	10860.67
846.371	10749.27
846.695	10772.54
847.019	10688.7
847.343	10623.17
847.666	10590.63
847.99	10538.2
848.313	10593.34
848.637	10414.81
848.96	10456.62
849.284	10405.77
849.607	10361.48
849.931	10318.32
850.254	10255.27
850.577	10204.42
850.9	10175.04
851.223	10110.19
851.546	10134.14
851.869	10020.47
852.192	10105.89
852.515	9969.4
852.838	10005.78
853.161	9957.42
853.483	9906.12
853.806	9882.62
854.129	9799.46
854.451	9777.09
854.774	9779.57
855.096	9751.33
855.419	9679.91
855.741	9679.01
856.063	9638.56
856.385	9594.04
856.708	9626.58
857.03	9530.77
857.352	9597.66
857.674	9541.39
857.996	9459.36
858.318	9386.14
858.64	9474.04
858.961	9441.73
859.283	9310.43
859.605	9373.71
859.926	9356.53
860.248	9381.39
860.57	9279.47
860.891	9284.22
861.212	9263.43
861.534	9220.94
861.855	9214.84
862.176	9193.37
862.498	9135.3
862.819	9227.27
863.14	9192.47
863.461	9168.29
863.782	9194.96
864.103	9068.63
864.424	9121.29
864.745	9146.37
865.065	8985.7
865.386	9006.03
865.707	9015.53
866.027	8952.25
866.348	8942.08
866.668	8985.7
866.989	8927.62
867.309	8931.01
867.63	8919.03
867.95	8898.92
868.27	8815.76
868.59	8892.82
868.91	8805.59
869.23	8853.72
869.55	8802.88
869.87	8833.61
870.19	8797.23
870.51	8797.23
870.83	8854.4
871.15	8686.04
871.469	8725.36
871.789	8726.95
872.109	8744.12
872.428	8675.65
872.748	8683.56
873.067	8723.56
873.386	8675.42
873.706	8672.03
874.025	8613.05
874.344	8618.47
874.663	8624.8
874.982	8613.95
875.301	8590.23
875.62	8565.37
875.939	8611.69
876.258	8554.52
876.577	8498.93
876.896	8467.29
877.214	8493.05
877.533	8452.6
877.852	8475.88
878.17	8522.88
878.489	8537.8
878.807	8486.27
879.125	8367.63
879.444	8383.68
879.762	8411.7
880.08	8365.37
880.398	8345.49
880.716	8331.48
881.034	8372.6
881.352	8289.22
881.67	8284.92
881.988	8318.14
882.306	8265.04
882.624	8232.95
882.941	8213.74
883.259	8136
883.577	8178.49
883.894	8137.58
884.212	8166.73
884.529	8176
884.846	8121.99
885.164	8083.12
885.481	8056.23
885.798	8123.35
886.115	7992.95
886.432	8018.04
886.75	7965.61
887.067	8040.64
887.383	7953.63
887.7	7980.75
888.017	7959.28
888.334	7940.07
888.651	7930.81
888.967	7889.91
889.284	7861.43
889.6	7864.37
889.917	7805.61
890.233	7837.48
890.55	7789.57
890.866	7811.72
891.182	7745.5
891.498	7733.07
891.815	7644.04
892.131	7675
892.447	7656.01
892.763	7567.88
893.079	7622.79
893.395	7534.66
893.71	7524.04
894.026	7488.56
894.342	7512.51
894.657	7439.75
894.973	7380.31
895.289	7480.65
895.604	7461.44
895.92	7361.56
896.235	7296.7
896.55	7333.31
896.865	7267.55
897.181	7290.37
897.496	7247.21
897.811	7258.06
898.126	7235.46
898.441	7137.16
898.756	7151.62
899.071	7122.69
899.386	7115.69
899.7	7092.64
900.015	7042.02
900.33	7004.51
900.644	7002.92
900.959	7009.25
901.273	6975.35
901.588	6926.32
901.902	6887.45
902.216	6873.89
902.531	6806.32
902.845	6873.89
903.159	6772.42
903.473	6740.56
903.787	6767.9
904.101	6754.79
904.415	6700.78
904.729	6629.15
905.042	6572.88
905.356	6597.28
905.67	6599.09
905.984	6629.37
906.297	6501.47
906.611	6527.68
906.924	6489.26
907.237	6502.15
907.551	6449.04
907.864	6476.61
908.177	6391.64
908.491	6380.79
908.804	6353.67
909.117	6314.35
909.43	6290.85
909.743	6267.58
910.056	6310.74
910.368	6250.63
910.681	6188.26
910.994	6200.68
911.307	6106.22
911.619	6089.5
911.932	6152.55
912.244	6080.46
912.557	6088.37
912.869	6022.61
913.181	5967.92
913.494	5979.22
913.806	5958.43
914.118	5907.58
914.43	5868.94
914.742	5931.31
915.054	5842.95
915.366	5850.86
915.678	5790.3
915.99	5798.89
916.302	5740.13
916.613	5751.2
916.925	5716.63
917.236	5716.18
917.548	5637.76
917.859	5680.25
918.171	5628.72
918.482	5548.27
918.794	5588.05
919.105	5540.81
919.416	5545.11
919.727	5548.27
920.038	5488.84
920.349	5451.1
920.66	5463.08
920.971	5427.6
921.282	5442.74
921.593	5402.97
921.903	5369.97
922.214	5301.73
922.525	5327.94
922.835	5285.68
923.146	5271.44
923.456	5265.79
923.767	5212.24
924.077	5208.62
924.387	5204.55
924.697	5200.26
925.008	5122.07
925.318	5130.43
925.628	5115.52
925.938	5089.08
926.248	5072.58
926.558	5074.39
926.867	5016.99
927.177	5025.57
927.487	5012.24
927.796	4933.15
928.106	4959.36
928.416	4951
928.725	4924.56
929.034	4854.28
929.344	4878.69
929.653	4869.42
929.962	4794.17
930.271	4820.61
930.581	4790.78
930.89	4763.43
931.199	4741.06
931.508	4721.18
931.817	4746.94
932.125	4738.12
932.434	4705.81
932.743	4664.91
933.051	4596.66
933.36	4658.58
933.669	4578.35
933.977	4568.64
934.286	4581.97
934.594	4511.92
934.902	4514.63
935.21	4527.73
935.519	4520.28
935.827	4480.73
936.135	4496.32
936.443	4415.42
936.751	4392.37
937.059	4396.66
937.367	4360.73
937.674	4398.25
937.982	4350.34
938.29	4320.51
938.597	4355.54
938.905	4246.16
939.213	4259.49
939.52	4257.46
939.827	4261.75
940.135	4214.52
940.442	4195.99
940.749	4195.77
941.056	4181.98
941.363	4188.53
941.67	4149.89
941.977	4120.74
942.284	4078.03
942.591	4110.34
942.898	4078.48
943.205	4023.11
943.511	4039.61
943.818	4042.78
944.125	3981.53
944.431	3973.4
944.738	3951.93
945.044	3923.68
945.35	3926.17
945.657	3867.41
945.963	3926.85
946.269	3846.4
946.575	3876
946.881	3828.54
947.187	3854.53
947.493	3826.06
947.799	3817.47
948.105	3787.87
948.41	3785.15
948.716	3791.93
949.022	3731.37
949.327	3731.82
949.633	3687.98
949.938	3697.47
950.244	3669.45
950.549	3633.07
950.854	3634.42
951.16	3615.22
951.465	3624.03
951.77	3568.89
952.075	3592.62
952.38	3577.93
952.685	3567.53
952.99	3539.74
953.294	3559.4
953.599	3514.43
953.904	3477.14
954.209	3448.44
954.513	3498.16
954.818	3415.45
955.122	3429.91
955.426	3407.31
955.731	3389.91
956.035	3393.98
956.339	3354.66
956.643	3377.71
956.948	3354.66
957.252	3344.04
957.556	3340.87
957.86	3309.01
958.163	3306.3
958.467	3263.36
958.771	3253.87
959.075	3249.35
959.378	3243.93
959.682	3262
959.985	3212.74
960.289	3184.94
960.592	3166.41
960.896	3177.71
961.199	3167.09
961.502	3149.69
961.805	3161.22
962.108	3071.73
962.411	3149.69
962.714	3103.14
963.017	3079.64
963.32	3084.83
963.623	3082.57
963.926	3042.12
964.228	3003.25
964.531	3040.99
964.833	3009.58
965.136	2957.15
965.438	3008.9
965.741	2950.6
966.043	2942.92
966.345	2931.17
966.648	2938.4
966.95	2948.57
967.252	2911.96
967.554	2888.46
967.856	2883.48
968.158	2858.4
968.46	2840.09
968.761	2767.1
969.063	2818.63
969.365	2850.94
969.666	2804.39
969.968	2748.8
970.269	2761
970.571	2791.96
970.872	2754.67
971.174	2769.36
971.475	2710.15
971.776	2736.37
972.077	2747.22
972.378	2710.83
972.679	2693.21
972.98	2685.75
973.281	2668.57
973.582	2639.87
973.883	2684.17
974.183	2619.54
974.484	2647.33
974.785	2575.69
975.085	2631.51
975.386	2602.36
975.686	2568.24
975.986	2554.68
976.287	2563.49
976.587	2516.49
976.887	2552.42
977.187	2513.32
977.487	2506.32
977.787	2540.44
978.087	2486.88
978.387	2485.3
978.687	2461.57
978.987	2450.5
979.286	2445.08
979.586	2443.04
979.885	2401.24
980.185	2401.91
980.484	2427.9
980.784	2404.85
981.083	2406.66
981.382	2391.07
981.682	2348.36
981.981	2345.19
982.28	2348.36
982.579	2317.4
982.878	2325.53
983.177	2277.4
983.475	2340.45
983.774	2280.79
984.073	2287.79
984.372	2253.9
984.67	2257.06
984.969	2253.44
985.267	2258.42
985.566	2223.61
985.864	2214.35
986.162	2200.79
986.461	2204.86
986.759	2194.69
987.057	2159.89
987.355	2178.64
987.653	2168.47
987.951	2165.76
988.249	2144.29
988.547	2151.07
988.844	2145.88
989.142	2122.83
989.44	2107.01
989.737	2066.56
990.035	2071.98
990.332	2112.66
990.63	2080.11
990.927	2045.54
991.224	2050.51
991.521	2058.87
991.819	2030.4
992.116	2012.77
992.413	2057.29
992.71	1990.85
993.006	2013.9
993.303	1994.02
993.6	1977.74
993.897	2003.28
994.193	1960.34
994.49	1945.43
994.787	1957.18
995.083	1929.84
995.379	1926.45
995.676	1923.06
995.972	1916.73
996.268	1876.05
996.565	1899.55
996.861	1872.89
997.157	1836.05
997.453	1835.38
997.749	1834.92
998.044	1827.01
998.34	1843.06
998.636	1842.15
998.932	1829.05
999.227	1797.41
999.523	1790.18
999.818	1786.34
1000.114	1770.97
1000.409	1775.72
1000.704	1744.08
1001	1772.1
1001.295	1781.82
1001.59	1711.08
1001.885	1717.64
1002.18	1732.33
1002.475	1701.82
1002.77	1703.85
1003.065	1683.74
1003.359	1711.31
1003.654	1684.42
1003.949	1663.85
1004.243	1668.83
1004.538	1663.4
1004.832	1632.22
1005.127	1633.12
1005.421	1636.51
1005.715	1639.9
1006.009	1621.82
1006.304	1606.23
1006.598	1594.03
1006.892	1558.55
1007.186	1577.76
1007.48	1606.23
1007.773	1549.28
1008.067	1548.15
1008.361	1554.25
1008.655	1513.58
1008.948	1517.64
1009.242	1512.67
1009.535	1519
1009.829	1522.84
1010.122	1503.41
1010.415	1495.27
1010.708	1459.11
1011.001	1495.5
1011.295	1430.64
1011.588	1438.32
1011.881	1449.85
1012.173	1438.78
1012.466	1432.9
1012.759	1411.66
1013.052	1424.99
1013.344	1414.82
1013.637	1386.35
1013.93	1377.31
1014.222	1386.12
1014.514	1387.93
1014.807	1342.96
1015.099	1362.85
1015.391	1340.47
1015.683	1362.39
1015.976	1319.91
1016.268	1331.89
1016.56	1307.03
1016.851	1342.28
1017.143	1312.68
1017.435	1271.32
1017.727	1269.74
1018.018	1266.58
1018.31	1283.3
1018.602	1245.79
1018.893	1272.45
1019.185	1244.2
1019.476	1229.74
1019.767	1248.05
1020.058	1229.06
1020.35	1196.75
1020.641	1209.4
1020.932	1189.97
1021.223	1201.95
1021.514	1203.53
1021.804	1170.76
1022.095	1162.62
1022.386	1192.45
1022.677	1181.61
1022.967	1142.51
1023.258	1142.51
1023.548	1161.95
1023.839	1155.39
1024.129	1135.28
1024.419	1118.33
1024.709	1106.36
1025	1120.14
1025.29	1062.74
1025.58	1095.51
1025.87	1076.98
1026.16	1077.66
1026.449	1085.56
1026.739	1073.59
1027.029	1049.86
1027.319	1041.27
1027.608	1039.46
1027.898	1051.89
1028.187	1036.3
1028.477	1045.11
1028.766	1028.17
1029.055	1011.67
1029.344	1008.28
1029.634	1024.55
1029.923	985.68
1030.212	984.32
1030.501	967.83
1030.79	997.88
1031.078	979.8
1031.367	956.3
1031.656	980.93
1031.945	970.09
1032.233	963.08
1032.522	944.33
1032.81	931.67
1033.099	942.29
1033.387	943.65
1033.675	929.41
1033.963	916.08
1034.251	904.78
1034.54	914.5
1034.828	905.23
1035.116	885.8
1035.403	890.77
1035.691	886.25
1035.979	904.1
1036.267	879.02
1036.554	855.29
1036.842	837.89
1037.129	893.71
1037.417	852.58
1037.704	853.71
1037.992	837.89
1038.279	807.15
1038.566	823.2
1038.853	823.2
1039.14	823.2
