Data from hue_36_FLMS001491_00046.txt Node
Date: Tue Feb 07 17:29:51 GMT 2017
User: dcchb
Spectrometer: FLMS00149
Trigger mode: 0
Integration Time (sec): 2.000000E-2
Scans to average: 10
Electric dark correction enabled: true
Nonlinearity correction enabled: false
Boxcar width: 0
XAxis mode: Wavelengths
Number of Pixels in Spectrum: 2048
>>>>>Begin Spectral Data<<<<<
341.393	0.76
341.776	0.76
342.16	0.76
342.543	-75.39
342.927	-83.98
343.31	-83.08
343.693	-80.59
344.077	-56.18
344.46	-74.94
344.843	-48.5
345.226	-33.59
345.61	-29.07
345.993	-18.45
346.376	-23.87
346.759	26.52
347.142	26.75
347.525	45.06
347.908	55
348.291	90.03
348.674	95.68
349.057	109.23
349.44	132.28
349.823	137.93
350.206	146.3
350.588	191.94
350.971	203.7
351.354	219.74
351.737	229.01
352.119	267.87
352.502	271.94
352.884	254.54
353.267	276.69
353.65	295.22
354.032	301.32
354.414	312.62
354.797	318.95
355.179	320.08
355.562	299.74
355.944	320.75
356.326	330.92
356.709	319.17
357.091	345.84
357.473	327.31
357.855	341.09
358.238	323.92
358.62	349
359.002	363.92
359.384	335.67
359.766	334.77
360.148	347.65
360.53	349
360.912	366.4
361.294	345.16
361.676	354.65
362.057	335.22
362.439	353.75
362.821	334.31
363.203	330.25
363.584	337.93
363.966	326.18
364.348	325.5
364.729	314.2
365.111	322.34
365.493	325.27
365.874	315.1
366.256	310.81
366.637	318.04
367.019	333.64
367.4	325.73
367.781	315.56
368.163	306.29
368.544	320.53
368.925	325.73
369.306	318.27
369.688	307.2
370.069	310.36
370.45	311.04
370.831	315.1
371.212	306.52
371.593	315.1
371.974	325.5
372.355	320.98
372.736	329.79
373.117	324.82
373.498	319.85
373.879	294.99
374.26	323.69
374.641	307.2
375.021	327.76
375.402	314.65
375.783	303.81
376.163	319.85
376.544	332.05
376.925	337.03
377.305	334.77
377.686	334.77
378.066	338.83
378.447	338.61
378.827	331.38
379.208	342.9
379.588	342.9
379.968	344.03
380.349	349
380.729	346.29
381.109	342.9
381.489	338.38
381.87	326.63
382.25	355.78
382.63	334.77
383.01	335.9
383.39	340.19
383.77	361.21
384.15	322.11
384.53	348.32
384.91	343.35
385.29	353.75
385.67	334.99
386.049	341.32
386.429	345.39
386.809	341.54
387.189	350.58
387.568	375.22
387.948	338.83
388.328	363.47
388.707	347.87
389.087	344.71
389.466	342
389.846	359.17
390.225	357.82
390.605	362.79
390.984	360.75
391.363	355.1
391.743	367.76
392.122	367.76
392.501	377.7
392.881	383.35
393.26	379.96
393.639	367.98
394.018	372.73
394.397	389
394.776	360.08
395.155	374.09
395.534	377.7
395.913	371.15
396.292	387.87
396.671	388.1
397.05	389.45
397.429	375.67
397.808	387.65
398.186	402.79
398.565	407.76
398.944	387.87
399.323	395.78
399.701	382
400.08	400.53
400.458	387.19
400.837	411.37
401.215	393.07
401.594	396.46
401.972	412.96
402.351	410.7
402.729	421.77
403.107	401.66
403.486	418.6
403.864	414.54
404.242	410.24
404.62	423.35
404.999	429.9
405.377	416.12
405.755	410.02
406.133	423.58
406.511	414.31
406.889	415.44
407.267	414.76
407.645	409.79
408.023	423.58
408.401	429.9
408.779	453.41
409.156	441.66
409.534	441.88
409.912	431.94
410.29	454.08
410.667	437.14
411.045	448.89
411.422	456.57
411.8	441.43
412.178	465.61
412.555	459.73
412.933	457.25
413.31	457.02
413.687	461.09
414.065	478.49
414.442	467.42
414.819	487.3
415.197	489.56
415.574	491.6
415.951	474.65
416.328	484.59
416.705	498.38
417.082	520.52
417.46	494.54
417.837	479.39
418.214	504.7
418.591	507.42
418.967	496.57
419.344	509.68
419.721	507.42
420.098	517.36
420.475	520.3
420.852	504.48
421.228	529.34
421.605	544.7
421.982	533.4
422.358	528.88
422.735	551.93
423.111	512.61
423.488	536.79
423.864	545.83
424.241	551.03
424.617	544.25
424.994	555.55
425.37	533.63
425.746	545.16
426.123	546.06
426.499	582.22
426.875	565.27
427.251	561.43
427.627	591.71
428.003	598.49
428.379	580.86
428.756	578.83
429.132	602.78
429.507	592.84
429.883	617.02
430.259	587.19
430.635	608.88
431.011	627.41
431.387	613.4
431.763	644.36
432.138	635.32
432.514	599.39
432.89	636.23
433.265	634.42
433.641	651.14
434.016	665.83
434.392	666.73
434.767	657.47
435.143	675.1
435.518	673.06
435.894	673.97
436.269	676.9
436.644	694.76
437.02	687.3
437.395	719.84
437.77	705.83
438.145	719.84
438.52	721.65
438.895	718.03
439.271	722.33
439.646	708.31
440.021	737.47
440.395	740.18
440.77	738.6
441.145	746.73
441.52	752.16
441.895	756
442.27	771.36
442.645	761.42
443.019	757.58
443.394	779.05
443.769	769.78
444.143	759.16
444.518	777.01
444.892	772.49
445.267	804.81
445.641	803.68
446.016	813.4
446.39	821.76
446.764	796.45
447.139	782.44
447.513	806.17
447.887	835.54
448.262	824.92
448.636	822.44
449.01	815.88
449.384	832.38
449.758	845.49
450.132	864.47
450.506	829.22
450.88	873.06
451.254	837.8
451.628	863.79
452.002	850.91
452.376	887.52
452.75	856.33
453.123	903.56
453.497	899.95
453.871	915.31
454.244	912.38
454.618	925.48
454.992	952.83
455.365	948.53
455.739	966.61
456.112	952.15
456.486	980.4
456.859	977.23
457.232	985.14
457.606	995.09
457.979	1005.26
458.352	993.73
458.725	1014.75
459.099	1033.28
459.472	1031.02
459.845	1059.72
460.218	1046.84
460.591	1071.24
460.964	1080.51
461.337	1088.19
461.71	1105.82
462.083	1120.28
462.456	1129.32
462.829	1129.32
463.201	1168.42
463.574	1162.99
463.947	1158.47
464.32	1183.1
464.692	1205.7
465.065	1212.93
465.438	1223.1
465.81	1238.24
466.183	1229.88
466.555	1259.71
466.928	1297.9
467.3	1307.62
467.672	1353.04
468.045	1369.77
468.417	1351.91
468.789	1381.29
469.161	1398.01
469.534	1429.88
469.906	1441.63
470.278	1461.29
470.65	1499.25
471.022	1516.88
471.394	1527.95
471.766	1583.09
472.138	1598.46
472.51	1607.05
472.882	1669.87
473.253	1657.67
473.625	1709.64
473.997	1730.66
474.369	1734.95
474.74	1807.95
475.112	1835.52
475.484	1863.54
475.855	1920.71
476.227	1957.1
476.598	1997.32
476.97	2034.16
477.341	2085.68
477.713	2142.18
478.084	2146.69
478.455	2220.14
478.827	2266.47
479.198	2319.35
479.569	2339.23
479.94	2453.58
480.311	2473.01
480.682	2563.18
481.053	2644.08
481.424	2656.74
481.795	2720.01
482.166	2811.08
482.537	2885.88
482.908	2940.35
483.279	3019.21
483.65	3080.46
484.021	3191.64
484.391	3269.6
484.762	3355.93
485.133	3409.71
485.503	3481.8
485.874	3586.66
486.244	3647.45
486.615	3785.07
486.985	3858.97
487.356	3894.67
487.726	4020.09
488.097	4122.01
488.467	4166.3
488.837	4307.54
489.207	4443.58
489.578	4478.39
489.948	4573.07
490.318	4672.28
490.688	4755.67
491.058	4845.83
491.428	4948.43
491.798	5062.78
492.168	5224.81
492.538	5305.71
492.908	5339.38
493.278	5460.51
493.648	5538.7
494.017	5672.48
494.387	5734.62
494.757	5850.33
495.126	5938.69
495.496	6011.68
495.866	6103.88
496.235	6225.01
496.605	6311.33
496.974	6374.15
497.344	6515.85
497.713	6599.01
498.082	6636.52
498.452	6700.93
498.821	6826.35
499.19	6866.12
499.559	6946.34
499.928	7058.66
500.298	7173
500.667	7234.47
501.036	7213.91
501.405	7393.56
501.774	7441.92
502.143	7489.61
502.512	7594.69
502.88	7666.55
503.249	7740.9
503.618	7804.63
503.987	7888.69
504.356	7947.22
504.724	8030.16
505.093	8122.36
505.462	8166.42
505.83	8237.83
506.199	8314.67
506.567	8461.11
506.936	8484.38
507.304	8662
507.672	8600.08
508.041	8682.34
508.409	8786.29
508.777	8879.17
509.145	8885.95
509.514	8945.39
509.882	9046.17
510.25	9092.73
510.618	9124.36
510.986	9178.15
511.354	9337.24
511.722	9353.74
512.09	9408.42
512.458	9519.61
512.826	9579.95
513.193	9645.93
513.561	9663.56
513.929	9732.03
514.297	9839.15
514.664	9899.94
515.032	9852.26
515.4	10033.49
515.767	10087.28
516.135	10151.23
516.502	10097.9
516.869	10248.18
517.237	10314.16
517.604	10299.93
517.972	10380.6
518.339	10412.24
518.706	10451.79
519.073	10607.72
519.44	10581.5
519.808	10645.45
520.175	10799.57
520.542	10821.72
520.909	10840.25
521.276	10879.57
521.643	10992.56
522.009	11093.35
522.376	11108.27
522.743	11182.16
523.11	11320.47
523.477	11378.32
523.843	11443.17
524.21	11555.26
524.577	11669.16
524.943	11696.5
525.31	11811.07
525.676	11822.15
526.043	11925.19
526.409	11971.75
526.776	12129.94
527.142	12158.18
527.508	12181.69
527.874	12295.58
528.241	12317.28
528.607	12464.62
528.973	12541.68
529.339	12546.65
529.705	12673.65
530.071	12755.46
530.437	12764.95
530.803	12894.43
531.169	12961.78
531.535	12967.2
531.901	13008.33
532.267	13068.44
532.632	13166.52
532.998	13265.5
533.364	13258.04
533.73	13351.37
534.095	13389.11
534.461	13453.52
534.826	13493.06
535.192	13521.76
535.557	13645.15
535.923	13625.72
536.288	13706.39
536.653	13773.28
537.019	13763.11
537.384	13852.15
537.749	13865.71
538.114	13989.32
538.479	14042.2
538.845	14078.13
539.21	14088.53
539.575	14205.59
539.94	14200.39
540.305	14259.6
540.67	14273.61
541.034	14359.93
541.399	14424.79
541.764	14531.68
542.129	14602.86
542.494	14547.72
542.858	14718.12
543.223	14702.3
543.587	14765.8
543.952	14739.36
544.316	14899.35
544.681	14865.46
545.045	14889.18
545.41	15046.69
545.774	15079.69
546.138	15095.51
546.503	15211.66
546.867	15247.14
547.231	15287.14
547.595	15306.12
547.959	15381.15
548.324	15405.56
548.688	15415.95
549.052	15626.34
549.416	15589.51
549.779	15677.41
550.143	15690.75
550.507	15788.6
550.871	15876.5
551.235	15873.57
551.599	15920.34
551.962	16034.01
552.326	15960.8
552.689	16121.92
553.053	16109.72
553.417	16141.58
553.78	16363.5
554.143	16262.93
554.507	16367.56
554.87	16425.64
555.234	16590.38
555.597	16453.89
555.96	16480.33
556.323	16697.95
556.686	16646.88
557.05	16804.39
557.413	16832.18
557.776	16890.26
558.139	17073.31
558.502	17011.84
558.865	17095
559.228	17194.43
559.59	17179.97
559.953	17191.27
560.316	17415.67
560.679	17404.82
561.041	17497.7
561.404	17608.21
561.767	17637.81
562.129	17607.76
562.492	17834.64
562.854	17759.39
563.217	17727.75
563.579	17813.85
563.941	17992.83
564.304	17942.21
564.666	18127.97
565.028	18240.51
565.39	18239.15
565.753	18390.34
566.115	18390.56
566.477	18283.67
566.839	18405.02
567.201	18534.29
567.563	18636.43
567.925	18659.48
568.287	18776.31
568.648	18769.08
569.01	18918.91
569.372	19088.4
569.734	19026.25
570.095	19138.34
570.457	19251.56
570.819	19304.89
571.18	19271.22
571.542	19503.3
571.903	19364.77
572.265	19608.38
572.626	19695.39
572.987	19795.72
573.349	19783.07
573.71	19891.77
574.071	20010.41
574.432	19956.85
574.794	20172.89
575.155	20302.83
575.516	20294.92
575.877	20472.31
576.238	20475.25
576.599	20694
576.96	20785.98
577.32	20814.68
577.681	21006.09
578.042	21131.05
578.403	21185.52
578.763	21351.61
579.124	21573.3
579.485	21677.25
579.845	21882.22
580.206	21975.55
580.566	22043.8
580.927	22169.22
581.287	22306.16
581.648	22486.5
582.008	22774.18
582.368	22762.65
582.728	22946.37
583.089	23107.27
583.449	23231.11
583.809	23510.2
584.169	23610.99
584.529	23772.12
584.889	24203.29
585.249	24092.11
585.609	24345.43
585.969	24629.72
586.329	24803.73
586.688	25024.29
587.048	25247.56
587.408	25476.48
587.768	25751.72
588.127	25840.76
588.487	26065.39
588.846	26332.5
589.206	26390.58
589.565	26616.56
589.925	26963.67
590.284	27066.94
590.643	27433.26
591.003	27753.93
591.362	28039.35
591.721	28128.84
592.08	28339.9
592.44	28596.85
592.799	28847.91
593.158	28928.36
593.517	29178.75
593.876	29421.46
594.235	29534
594.593	29833.88
594.952	30215.34
595.311	30263.02
595.67	30586.63
596.029	31005.6
596.387	30998.59
596.746	31331.69
597.104	31555.64
597.463	31625.24
597.822	31960.6
598.18	32074.5
598.538	32263.19
598.897	32673.8
599.255	32533.69
599.613	33137.29
599.972	33134.81
600.33	33513.55
600.688	33456.83
601.046	33834.68
601.404	34037.83
601.762	34249.13
602.12	34426.3
602.478	34560.76
602.836	34687.31
603.194	34728.66
603.552	35010.01
603.91	35084.13
604.268	35410.91
604.625	35487.29
604.983	35720.73
605.341	35796.88
605.698	36071.68
606.056	36210.21
606.413	36250.21
606.771	36467.83
607.128	36850.64
607.485	36729.06
607.843	36828.04
608.2	37247.47
608.557	37280.91
608.914	37331.76
609.272	37638.87
609.629	37838.64
609.986	38150.49
610.343	38044.73
610.7	38420.09
611.057	38385.97
611.414	38379.64
611.771	38686.53
612.127	38876.58
612.484	38970.36
612.841	39203.35
613.198	39076.12
613.554	39341.42
613.911	39537.12
614.267	39619.83
614.624	39603.34
614.98	39854.4
615.337	39991.58
615.693	40159.48
616.05	40084.45
616.406	40462.3
616.762	40293.94
617.118	40487.16
617.475	40511.11
617.831	40679.47
618.187	40791.33
618.543	40870.2
618.899	41133.01
619.255	40952.68
619.611	41101.15
619.967	41268.83
620.323	41379.79
620.678	41392.67
621.034	41328.04
621.39	41420.46
621.746	41558.54
622.101	42047.79
622.457	41613.68
622.812	41785.2
623.168	41814.35
623.523	41959.89
623.879	42195.13
624.234	41880.34
624.589	42109.03
624.945	42131.41
625.3	42326.2
625.655	42296.37
626.01	42328.92
626.365	42451.17
626.72	42375.69
627.075	42420.66
627.43	42403.49
627.785	42385.18
628.14	42430.16
628.495	42409.37
628.85	42501.57
629.205	42442.36
629.559	42670.15
629.914	42526.2
630.269	42547.89
630.623	42478.74
630.978	42377.95
631.332	42451.4
631.687	42798.51
632.041	42498.85
632.396	42710.37
632.75	42613.65
633.104	42606.2
633.459	42529.81
633.813	42581.56
634.167	42462.47
634.521	42479.19
634.875	42699.98
635.229	42544.73
635.583	42432.87
635.937	42570.72
636.291	42436.48
636.645	42513.09
636.999	42403.49
637.352	42514.67
637.706	42329.59
638.06	42419.99
638.413	42374.79
638.767	42277.39
639.121	42295.7
639.474	42071.97
639.828	42233.78
640.181	42134.12
640.534	42275.58
640.888	42062.03
641.241	42030.39
641.594	42133.21
641.947	42219.09
642.301	42191.52
642.654	42207.79
643.007	42139.99
643.36	42083.27
643.713	42147.23
644.066	42276.26
644.419	42143.84
644.771	41787.46
645.124	41416.4
645.477	41329.17
645.83	41203.3
646.182	41002.62
646.535	40966.01
646.888	40888.05
647.24	40677.43
647.593	40978.22
647.945	40815.06
648.298	40764.44
648.65	40675.63
649.002	40646.02
649.355	40705.46
649.707	40714.27
650.059	40785.23
650.411	41278.55
650.763	41367.58
651.115	41746.56
651.467	41664.53
651.819	41635.83
652.171	41544.76
652.523	41445.77
652.875	41384.99
653.227	41257.98
653.578	41493.01
653.93	41407.58
654.282	41250.75
654.633	41304.08
654.985	41316.74
655.337	41454.36
655.688	41368.71
656.039	41417.53
656.391	41229.51
656.742	41237.87
657.094	41247.14
657.445	41428.83
657.796	41288.49
658.147	41340.01
658.498	41080.81
658.849	41221.6
659.2	41066.58
659.551	40988.16
659.902	41269.28
660.253	41238.77
660.604	41317.42
660.955	41055.95
661.306	41235.38
661.656	41151.09
662.007	41168.72
662.358	41163.75
662.708	41197.65
663.059	41023.86
663.409	40982.06
663.76	41213.46
664.11	41029.74
664.461	41164.88
664.811	41099.57
665.161	41186.8
665.511	41141.15
665.862	40971.44
666.212	41198.1
666.562	41191.32
666.912	40999.68
667.262	41053.47
667.612	41046.92
667.962	41038.55
668.312	40956.97
668.662	41136.63
669.011	40981.83
669.361	40905.68
669.711	40993.58
670.06	40947.93
670.41	40803.98
670.76	40658.68
671.109	41070.64
671.459	40807.15
671.808	40714.95
672.157	40871.55
672.507	40590.2
672.856	40598.57
673.205	40720.14
673.554	40899.12
673.904	40676.98
674.253	40962.17
674.602	40692.57
674.951	40385.92
675.3	40091.01
675.649	40626.81
675.998	40612.58
676.346	40566.93
676.695	40738.67
677.044	40439.02
677.393	40450.32
677.741	40510.66
678.09	40490.77
678.438	40459.59
678.787	40526.25
679.135	40484.44
679.484	40116.32
679.832	40388.4
680.181	40117.9
680.529	40194.96
680.877	40175.75
681.225	40143.89
681.573	40389.76
681.922	40119.93
682.27	40058.69
682.618	39957.9
682.966	39872.71
683.314	39962.65
683.661	39787.29
684.009	39743.22
684.357	39705.48
684.705	39540.29
685.053	39640.17
685.4	39655.77
685.748	39448.31
686.095	39262.56
686.443	39228.21
686.79	39217.13
687.138	39170.35
687.485	39356.79
687.832	39059.85
688.18	39188.66
688.527	38891.04
688.874	38938.5
689.221	38752.51
689.568	38769.91
689.915	38668.22
690.262	38656.92
690.609	38652.63
690.956	38502.35
691.303	38360.88
691.65	38215.35
691.997	38161.34
692.344	37983.04
692.69	37942.14
693.037	37930.39
693.383	37661.24
693.73	37700.56
694.077	37404.75
694.423	37546.44
694.769	37401.59
695.116	37430.29
695.462	37388.03
695.808	37256.73
696.155	37158.2
696.501	37005.44
696.847	37057.19
697.193	36669.86
697.539	36948.72
697.885	36774.94
698.231	36537.2
698.577	36563.19
698.923	36523.42
699.269	36343.31
699.614	36198.23
699.96	36065.58
700.306	36191.9
700.651	35904.68
700.997	35927.28
701.342	35925.24
701.688	35806.6
702.033	35643.44
702.379	35696.1
702.724	35454.75
703.069	35544.69
703.415	35217.46
703.76	35359.16
704.105	35331.36
704.45	35207.52
704.795	35110.8
705.14	34836
705.485	34912.84
705.83	34762.79
706.175	34788.32
706.52	34632.17
706.865	34489.57
707.209	34538.16
707.554	34344.49
707.899	34375.23
708.243	34185.17
708.588	34178.62
708.932	33996.03
709.277	33893.43
709.621	34100.43
709.966	33717.16
710.31	33749.93
710.654	33508.58
710.998	33674.23
711.342	33667.67
711.687	33459.09
712.031	33414.35
712.375	33199.44
712.719	33421.58
713.063	33309.49
713.407	33372.31
713.75	32982.95
714.094	33215.93
714.438	32967.13
714.782	33051.19
715.125	32758.32
715.469	32967.81
715.812	32735.04
716.156	32604.88
716.499	32599.91
716.843	32583.41
717.186	32314.72
717.53	32650.07
717.873	32552.68
718.216	32398.55
718.559	32288.05
718.902	32060.71
719.246	32118.79
719.589	32134.83
719.932	31931.9
720.275	31969.41
720.617	31933.71
720.96	31815.97
721.303	31895.97
721.646	31836.54
721.989	31669.99
722.331	31754.73
722.674	31680.83
723.016	31558.35
723.359	31566.03
723.701	31533.04
724.044	31296.89
724.386	31235.65
724.729	31314.97
725.071	31324.01
725.413	31363.33
725.755	31284.01
726.097	31035.2
726.439	30960.4
726.782	31021.19
727.124	31207.4
727.465	31044.69
727.807	30899.39
728.149	30871.14
728.491	30813.06
728.833	30841.99
729.175	30613.07
729.516	30501.43
729.858	30579.39
730.199	30611.94
730.541	30576
730.882	30542.33
731.224	30563.8
731.565	30237.26
731.906	30355.44
732.248	30325.84
732.589	30221.21
732.93	30086.75
733.271	30160.87
733.612	30171.49
733.953	30277.93
734.294	30006.75
734.635	29874.1
734.976	30110.71
735.317	29967.88
735.658	29839.3
735.999	29753.2
736.339	29811.28
736.68	29814.44
737.021	29797.49
737.361	29567.67
737.702	29775.8
738.042	29621
738.383	29569.93
738.723	29515.01
739.063	29433.66
739.404	29474.34
739.744	29482.02
740.084	29350.95
740.424	29392.98
740.764	29350.27
741.104	29410.38
741.444	29181.24
741.784	29132.43
742.124	29182.59
742.464	29193.44
742.804	29158.19
743.143	29093.11
743.483	29045.2
743.823	28828.93
744.162	28901.02
744.502	28871.19
744.841	28851.3
745.181	28912.54
745.52	28721.82
745.86	28961.58
746.199	28713.91
746.538	28729.95
746.877	28744.41
747.216	28678.2
747.556	28501.48
747.895	28543.97
748.234	28526.11
748.573	28462.84
748.911	28385.55
749.25	28429.17
749.589	28205.44
749.928	28271.88
750.267	28291.77
750.605	28154.37
750.944	28112.34
751.283	28064.66
751.621	28025.56
751.96	27956.86
752.298	27948.5
752.636	27860.82
752.975	27750.99
753.313	27592.13
753.651	27798.9
753.989	27662.18
754.327	27713.93
754.666	27452.02
755.004	27486.14
755.342	27587.38
755.679	27430.55
756.017	27225.81
756.355	27474.39
756.693	27200.5
757.031	27279.59
757.368	27046.38
757.706	27137.9
758.044	27046.15
758.381	27027.17
758.719	27109.65
759.056	26952.14
759.394	26800.28
759.731	26663.34
760.068	26664.92
760.405	26511.7
760.743	26538.37
761.08	26502.89
761.417	26374.31
761.754	26345.83
762.091	26319.62
762.428	26099.06
762.765	25895
763.102	25998.27
763.438	25953.3
763.775	25904.04
764.112	25786.07
764.449	25775.68
764.785	25814.55
765.122	25477.15
765.458	25435.12
765.795	25415.69
766.131	25378.63
766.467	25336.37
766.804	25095.02
767.14	25011.63
767.476	25111.06
767.812	24989.48
768.148	24877.4
768.485	24783.39
768.821	24717.63
769.157	24683.28
769.492	24617.06
769.828	24623.62
770.164	24343.17
770.5	24396.28
770.836	24304.3
771.171	24228.6
771.507	24142.5
771.842	23869.29
772.178	23956.07
772.513	23839.23
772.849	23672.46
773.184	23691.89
773.519	23653.7
773.855	23606.47
774.19	23402.18
774.525	23354.05
774.86	23330.77
775.195	23251.68
775.53	23184.11
775.865	22967.62
776.2	22831.35
776.535	22726.49
776.87	22786.83
777.205	22723.1
777.539	22531.7
777.874	22545.71
778.209	22426.84
778.543	22340.51
778.878	22354.53
779.212	22204.02
779.547	22148.2
779.881	22150.01
780.215	21921.99
780.55	21954.08
780.884	21818.04
781.218	21806.97
781.552	21797.03
781.886	21650.14
782.22	21548.9
782.554	21495.11
782.888	21229.36
783.222	21159.53
783.556	21120.89
783.889	21077.72
784.223	20914.34
784.557	20941.68
784.89	20915.69
785.224	20847.22
785.557	20703.95
785.891	20637.28
786.224	20635.93
786.558	20538.75
786.891	20414.24
787.224	20279.55
787.557	20235.48
787.891	20252.89
788.224	20143.51
788.557	20081.59
788.89	20038.2
789.223	20010.18
789.556	19823.74
789.888	19833.24
790.221	19758.21
790.554	19564.99
790.887	19654.71
791.219	19515.73
791.552	19506.69
791.884	19447.93
792.217	19371.55
792.549	19269.86
792.882	19106.02
793.214	19026.03
793.546	19215.17
793.879	19043.43
794.211	18857.22
794.543	18826.48
794.875	18877.78
795.207	18854.73
795.539	18675.3
795.871	18665.13
796.203	18543.78
796.535	18428.98
796.867	18445.48
797.198	18473.05
797.53	18393.05
797.862	18236.67
798.193	18271.69
798.525	18213.17
798.856	18200.74
799.188	17962.32
799.519	17884.36
799.85	17849.56
800.182	17834.87
800.513	17856.56
800.844	17671.03
801.175	17694.76
801.506	17706.06
801.837	17615.44
802.168	17596.23
802.499	17580.41
802.83	17488.66
803.161	17403.69
803.491	17414.77
803.822	17340.19
804.153	17266.98
804.483	17132.52
804.814	17102.23
805.145	17160.31
805.475	17051.16
805.805	17016.59
806.136	16967.1
806.466	16958.96
806.796	16991.95
807.126	16781.11
807.457	16763.49
807.787	16776.82
808.117	16655.01
808.447	16571.85
808.777	16624.28
809.107	16503.61
809.436	16435.81
809.766	16461.57
810.096	16379.99
810.426	16300.22
810.755	16340.67
811.085	16310.39
811.414	16284.63
811.744	16081.24
812.073	16153.11
812.403	15993.79
812.732	16037.18
813.061	16053.67
813.39	15912.21
813.719	15926.45
814.049	16019.78
814.378	15828.14
814.707	15769.84
815.036	15721.25
815.365	15644.42
815.693	15561.26
816.022	15596.74
816.351	15495.27
816.68	15490.3
817.008	15474.93
817.337	15355.39
817.665	15202.85
817.994	15360.81
818.322	15345.67
818.651	15250.53
818.979	15147.26
819.307	15259.34
819.636	15086.92
819.964	15132.12
820.292	15125.56
820.62	15085.56
820.948	15041.05
821.276	15169.86
821.604	15044.21
821.932	15002.85
822.259	15014.15
822.587	15086.47
822.915	15059.8
823.243	15031.33
823.57	14981.39
823.898	15022.97
824.225	14923.76
824.553	14947.26
824.88	14985
825.207	14960.82
825.535	14949.07
825.862	15042.63
826.189	14924.66
826.516	15072.23
826.843	15065.9
827.17	15012.35
827.497	15036.53
827.824	15034.27
828.151	15030.88
828.478	15025.68
828.805	15019.58
829.131	14898.9
829.458	14951.78
829.785	14883.99
830.111	15013.02
830.438	14920.82
830.764	14890.77
831.09	14953.59
831.417	14903.2
831.743	14899.81
832.069	14935.74
832.395	14832.24
832.722	14965.11
833.048	14955.4
833.374	14867.94
833.7	14805.8
834.026	14779.58
834.351	14849.86
834.677	14894.61
835.003	14776.65
835.329	14771.22
835.654	14763.99
835.98	14649.87
836.306	14633.82
836.631	14643.99
836.956	14636.08
837.282	14612.36
837.607	14547.72
837.932	14579.14
838.258	14611.9
838.583	14493.26
838.908	14439.48
839.233	14545.47
839.558	14401.51
839.883	14336.66
840.208	14290.1
840.533	14300.73
840.858	14283.33
841.182	14300.27
841.507	14299.82
841.832	14196.1
842.156	14162.2
842.481	14213.95
842.805	14213.5
843.13	14151.8
843.454	14097.79
843.778	14072.71
844.103	14039.26
844.427	13966.95
844.751	14014.18
845.075	13969.89
845.399	13901.64
845.723	13815.09
846.047	13823.9
846.371	13739.38
846.695	13661.65
847.019	13613.51
847.343	13583.91
847.666	13446.51
847.99	13388.66
848.313	13504.59
848.637	13415.33
848.96	13364.25
849.284	13289
849.607	13183.92
849.931	13079.29
850.254	13106.18
850.577	12991.38
850.9	12916.58
851.223	12919.52
851.546	12901.21
851.869	12750.26
852.192	12889.46
852.515	12731.28
852.838	12700.09
853.161	12707.55
853.483	12642.92
853.806	12501.68
854.129	12507.1
854.451	12533.09
854.774	12468.91
855.096	12328.57
855.419	12258.52
855.741	12337.39
856.063	12237.5
856.385	12174.23
856.708	12185.08
857.03	12061.01
857.352	12189.37
857.674	12101.46
857.996	12003.38
858.318	11876.83
858.64	11925.42
858.961	11941.01
859.283	11906.89
859.605	11846.55
859.926	11843.84
860.248	11849.94
860.57	11738.31
860.891	11680.23
861.212	11598.2
861.534	11684.3
861.855	11697.63
862.176	11585.77
862.498	11674.13
862.819	11572.21
863.14	11555.26
863.461	11464.87
863.782	11519.33
864.103	11445.43
864.424	11475.26
864.745	11447.02
865.065	11468.03
865.386	11390.29
865.707	11391.65
866.027	11378.32
866.348	11407.92
866.668	11360.01
866.989	11361.59
867.309	11182.62
867.63	11272.33
867.95	11263.07
868.27	11192.56
868.59	11101.49
868.91	11194.14
869.23	11156.63
869.55	11139.45
869.87	11255.61
870.19	11188.72
870.51	11198.43
870.83	11131.09
871.15	11063.3
871.469	11044.77
871.789	11066.46
872.109	10984.65
872.428	10975.16
872.748	11017.42
873.067	11033.69
873.386	10906.92
873.706	10917.76
874.025	10924.09
874.344	10800.93
874.663	10910.53
874.982	10840.03
875.301	10896.07
875.62	10798.9
875.939	10772.46
876.258	10789.18
876.577	10730.65
876.896	10753.7
877.214	10703.53
877.533	10750.76
877.852	10660.82
878.17	10728.16
878.489	10705.79
878.807	10653.82
879.125	10745.56
879.444	10578.79
879.762	10545.57
880.08	10587.15
880.398	10601.39
880.716	10536.08
881.034	10475.52
881.352	10477.32
881.67	10433.71
881.988	10382.18
882.306	10409.08
882.624	10410.66
882.941	10395.97
883.259	10302.86
883.577	10341.96
883.894	10206.14
884.212	10213.38
884.529	10183.09
884.846	10244.56
885.164	10155.98
885.481	10198.46
885.798	10136.09
886.115	10063.32
886.432	10105.58
886.75	10041.63
887.067	10043.44
887.383	9945.13
887.7	9979.94
888.017	9945.59
888.334	9957.56
888.651	9984.68
888.967	9933.61
889.284	9862.88
889.6	9852.03
889.917	9740.17
890.233	9802.76
890.55	9717.34
890.866	9744.01
891.182	9736.33
891.498	9670.11
891.815	9660.85
892.131	9606.61
892.447	9638.7
892.763	9593.96
893.079	9500.85
893.395	9443.23
893.71	9468.31
894.026	9425.83
894.342	9436.22
894.657	9425.15
894.973	9358.26
895.289	9369.56
895.604	9399.39
895.92	9291.82
896.235	9245.27
896.55	9227.19
896.865	9157.81
897.181	9135.21
897.496	9112.16
897.811	9066.74
898.126	9096.34
898.441	9053.63
898.756	9020.86
899.071	8950.36
899.386	8946.06
899.7	8908.78
900.015	8873.07
900.33	8846.18
900.644	8736.58
900.959	8778.61
901.273	8673.98
901.588	8735.45
901.902	8663.59
902.216	8603.47
902.531	8645.73
902.845	8586.53
903.159	8539.52
903.473	8507.43
903.787	8470.6
904.101	8468.34
904.415	8453.87
904.729	8397.38
905.042	8424.72
905.356	8312.86
905.67	8346.31
905.984	8335.23
906.297	8241.22
906.611	8213.2
906.924	8191.96
907.237	8178.4
907.551	8149.47
907.864	8081.68
908.177	8113.32
908.491	8063.38
908.804	8015.47
909.117	7942.47
909.43	7897.96
909.743	7888.92
910.056	7833.78
910.368	7832.65
910.681	7767.79
910.994	7754.68
911.307	7743.84
911.619	7674.01
911.932	7754.23
912.244	7645.99
912.557	7636.95
912.869	7523.95
913.181	7518.31
913.494	7530.06
913.806	7489.61
914.118	7442.6
914.43	7422.26
914.742	7436.27
915.054	7373.9
915.366	7267.46
915.678	7328.48
915.99	7285.77
916.302	7237.86
916.613	7198.99
916.925	7199.22
917.236	7163.06
917.548	7179.56
917.859	7182.27
918.171	7060.92
918.482	7043.74
918.794	7034.93
919.105	6975.49
919.416	6953.57
919.727	6913.12
920.038	6944.76
920.349	6842.62
920.66	6788.15
920.971	6784.77
921.282	6853.46
921.593	6732.56
921.903	6681.49
922.214	6710.19
922.525	6604.43
922.835	6653.92
923.146	6543.87
923.456	6549.74
923.767	6538.9
924.077	6472.46
924.387	6471.78
924.697	6402.85
925.008	6479.01
925.318	6449.86
925.628	6337.09
925.938	6326.25
926.248	6283.99
926.558	6304.33
926.867	6292.35
927.177	6276.3
927.487	6217.55
927.796	6147.72
928.106	6134.16
928.416	6137.32
928.725	6146.59
929.034	6052.81
929.344	6128.96
929.653	6038.34
929.962	6004.45
930.271	5908.18
930.581	5943.66
930.89	5934.84
931.199	5884.9
931.508	5874.28
931.817	5879.48
932.125	5783.21
932.434	5831.57
932.743	5754.06
933.051	5793.83
933.36	5763.32
933.669	5732.36
933.977	5634.74
934.286	5652.37
934.594	5634.29
934.902	5582.08
935.21	5551.8
935.519	5583.44
935.827	5571.46
936.135	5492.14
936.443	5480.84
936.751	5491.47
937.059	5501.18
937.367	5431.13
937.674	5403.78
937.982	5428.42
938.29	5289.66
938.597	5334.86
938.905	5303
939.213	5271.58
939.52	5257.12
939.827	5278.36
940.135	5224.35
940.442	5211.7
940.749	5166.05
941.056	5134.19
941.363	5150.23
941.67	5105.71
941.977	5048.77
942.284	5061.42
942.591	5087.18
942.898	5017.81
943.205	5016.9
943.511	4992.5
943.818	4994.76
944.125	4922.44
944.431	4948.2
944.738	4935.1
945.044	4837.02
945.35	4872.95
945.657	4830.01
945.963	4806.29
946.269	4764.71
946.575	4796.12
946.881	4792.5
947.187	4706.18
947.493	4665.05
947.799	4689.9
948.105	4681.09
948.41	4666.4
948.716	4643.58
949.022	4627.53
949.327	4598.38
949.633	4567.87
949.938	4558.83
950.244	4557.93
950.549	4511.15
950.854	4482.23
951.16	4432.96
951.465	4425.28
951.77	4428.89
952.075	4464.83
952.38	4385.28
952.685	4408.1
952.99	4345.51
953.294	4303.25
953.599	4281.78
953.904	4311.61
954.209	4286.98
954.513	4264.83
954.818	4264.61
955.122	4233.65
955.426	4188.22
955.731	4196.81
956.035	4192.29
956.339	4166.98
956.643	4117.94
956.948	4126.76
957.252	4131.73
957.556	4094.67
957.86	4070.26
958.163	4045.18
958.467	3999.53
958.771	4009.7
959.075	3978.51
959.378	3942.58
959.682	3954.78
959.985	3907.55
960.289	3926.08
960.592	3903.71
960.896	3883.82
961.199	3871.4
961.502	3861.68
961.805	3846.76
962.108	3814.9
962.411	3783.49
962.714	3778.74
963.017	3755.47
963.32	3798.63
963.623	3769.93
963.926	3731.96
964.228	3699.2
964.531	3702.59
964.833	3730.38
965.136	3642.25
965.438	3640.67
965.741	3610.61
966.043	3591.4
966.345	3566.32
966.648	3599.09
966.95	3583.95
967.252	3534.91
967.554	3524.29
967.856	3510.05
968.158	3477.96
968.46	3469.37
968.761	3474.34
969.063	3460.33
969.365	3463.72
969.666	3436.6
969.968	3429.37
970.269	3380.11
970.571	3397.96
970.872	3358.19
971.174	3344.18
971.475	3338.08
971.776	3323.39
972.077	3332.88
972.378	3285.87
972.679	3284.74
972.98	3264.86
973.281	3219.66
973.582	3275.25
973.883	3233.22
974.183	3219.21
974.484	3244.97
974.785	3186.89
975.085	3165.43
975.386	3172.43
975.686	3123.62
975.986	3103.51
976.287	3153.67
976.587	3080.91
976.887	3056.28
977.187	3096.27
977.487	3060.12
977.787	3023.06
978.087	3068.7
978.387	3007.46
978.687	2992.1
978.987	2977.86
979.286	2987.8
979.586	2988.71
979.885	2927.69
980.185	2929.73
980.484	2937.41
980.784	2926.11
981.083	2920.23
981.382	2886.11
981.682	2897.18
981.981	2903.74
982.28	2882.72
982.579	2787.36
982.878	2826
983.177	2828.26
983.475	2820.58
983.774	2776.96
984.073	2788.71
984.372	2772.67
984.67	2708.26
984.969	2751.42
985.267	2746.91
985.566	2716.85
985.864	2706.23
986.162	2681.37
986.461	2643.63
986.759	2669.17
987.057	2624.42
987.355	2613.12
987.653	2593.01
987.951	2601.37
988.249	2598.43
988.547	2595.04
988.844	2576.51
989.142	2589.4
989.44	2549.62
989.737	2545.33
990.035	2536.29
990.332	2520.02
990.63	2475.27
990.927	2485.44
991.224	2491.77
991.521	2482.05
991.819	2453.81
992.116	2462.84
992.413	2414.48
992.71	2423.52
993.006	2374.71
993.303	2387.37
993.6	2395.5
993.897	2371.32
994.193	2357.31
994.49	2384.2
994.787	2355.96
995.083	2360.47
995.379	2332.68
995.676	2315.5
995.972	2302.17
996.268	2304.2
996.565	2296.3
996.861	2251.55
997.157	2251.32
997.453	2277.31
997.749	2242.06
998.044	2268.95
998.34	2232.79
998.636	2212.46
998.932	2208.61
999.227	2169.97
999.523	2174.04
999.818	2160.48
1000.114	2132.46
1000.409	2117.32
1000.704	2104.66
1001	2121.16
1001.295	2108.5
1001.59	2114.38
1001.885	2056.98
1002.18	2090.2
1002.475	2073.7
1002.77	2046.13
1003.065	2031.44
1003.359	2039.35
1003.654	2019.92
1003.949	1999.13
1004.243	2001.84
1004.538	1985.12
1004.832	2021.95
1005.127	1989.86
1005.421	1959.58
1005.715	1939.02
1006.009	1929.53
1006.304	1873.71
1006.598	1911.45
1006.892	1899.02
1007.186	1910.32
1007.48	1869.87
1007.773	1861.05
1008.067	1838.91
1008.361	1837.78
1008.655	1843.88
1008.948	1812.47
1009.242	1846.82
1009.535	1813.37
1009.829	1774.5
1010.122	1779.02
1010.415	1777.89
1010.708	1791.22
1011.001	1714.39
1011.295	1758.46
1011.588	1729.53
1011.881	1738.57
1012.173	1740.38
1012.466	1715.07
1012.759	1720.72
1013.052	1676.88
1013.344	1687.05
1013.637	1683.66
1013.93	1650.21
1014.222	1661.06
1014.514	1669.65
1014.807	1604.11
1015.099	1608.63
1015.391	1610.66
1015.683	1611.79
1015.976	1601.62
1016.268	1566.6
1016.56	1600.95
1016.851	1565.92
1017.143	1548.97
1017.435	1565.24
1017.727	1548.07
1018.018	1499.93
1018.31	1518.91
1018.602	1497.9
1018.893	1485.24
1019.185	1479.59
1019.476	1474.62
1019.767	1487.05
1020.058	1451.35
1020.35	1469.42
1020.641	1453.83
1020.932	1442.31
1021.223	1398.01
1021.514	1393.04
1021.804	1407.28
1022.095	1374.96
1022.386	1362.53
1022.677	1397.79
1022.967	1388.07
1023.258	1333.38
1023.548	1342.42
1023.839	1338.35
1024.129	1286.15
1024.419	1329.54
1024.709	1286.6
1025	1301.75
1025.29	1291.58
1025.58	1273.27
1025.87	1267.62
1026.16	1280.05
1026.449	1271.24
1026.739	1264.01
1027.029	1258.58
1027.319	1247.06
1027.608	1220.39
1027.898	1231.46
1028.187	1203.44
1028.477	1221.75
1028.766	1202.99
1029.055	1179.71
1029.344	1183.78
1029.634	1200.28
1029.923	1177.68
1030.212	1176.1
1030.501	1158.25
1030.79	1134.29
1031.078	1122.99
1031.367	1115.76
1031.656	1140.39
1031.945	1105.37
1032.233	1133.39
1032.522	1085.48
1032.81	1094.07
1033.099	1092.49
1033.387	1084.12
1033.675	1085.48
1033.963	1082.77
1034.251	1048.64
1034.54	1038.93
1034.828	1037.8
1035.116	1050.9
1035.403	1054.29
1035.691	1006.16
1035.979	1032.83
1036.267	1014.07
1036.554	982.66
1036.842	986.73
1037.129	993.96
1037.417	990.57
1037.704	997.12
1037.992	993.28
1038.279	972.26
1038.566	950.57
1038.853	950.57
1039.14	950.57
