Data from hue_260_FLMS001491_00084.txt Node
Date: Tue Feb 07 15:59:42 GMT 2017
User: dcchb
Spectrometer: FLMS00149
Trigger mode: 0
Integration Time (sec): 2.000000E-2
Scans to average: 10
Electric dark correction enabled: true
Nonlinearity correction enabled: false
Boxcar width: 0
XAxis mode: Wavelengths
Number of Pixels in Spectrum: 2048
>>>>>Begin Spectral Data<<<<<
341.393	-5.44
341.776	-5.44
342.16	-5.44
342.543	-70.29
342.927	-61.03
343.31	-62.84
343.693	-56.51
344.077	-81.59
344.46	-66.45
344.843	-45.21
345.226	-46.57
345.61	-29.17
345.993	-12.9
346.376	2.7
346.759	-0.92
347.142	27.33
347.525	23.26
347.908	57.84
348.291	75.69
348.674	97.16
349.057	118.17
349.44	139.64
349.823	155.91
350.206	144.61
350.588	204.5
350.971	181
351.354	228.45
351.737	230.04
352.119	231.17
352.502	239.75
352.884	270.26
353.267	265.74
353.65	276.81
354.032	285.85
354.414	308.9
354.797	313.2
355.179	336.47
355.562	315.01
355.944	323.82
356.326	314.55
356.709	339.41
357.091	325.63
357.473	319.75
357.855	334.67
358.238	329.47
358.62	329.24
359.002	351.39
359.384	314.78
359.766	326.08
360.148	339.64
360.53	335.8
360.912	324.95
361.294	314.55
361.676	299.86
362.057	316.81
362.439	335.57
362.821	324.72
363.203	309.81
363.584	308.23
363.966	305.74
364.348	302.12
364.729	309.81
365.111	308.68
365.493	319.98
365.874	313.42
366.256	301.22
366.637	322.01
367.019	312.75
367.4	311.39
367.781	315.23
368.163	302.35
368.544	321.33
368.925	289.02
369.306	319.3
369.688	307.1
370.069	318.85
370.45	300.99
370.831	291.73
371.212	300.99
371.593	282.69
371.974	322.46
372.355	307.32
372.736	308.23
373.117	323.82
373.498	315.68
373.879	317.49
374.26	330.82
374.641	318.4
375.021	306.19
375.402	311.16
375.783	328.34
376.163	334.44
376.544	313.65
376.925	338.51
377.305	315.91
377.686	303.48
378.066	327.43
378.447	315.91
378.827	326.98
379.208	318.62
379.588	334.67
379.968	323.37
380.349	313.65
380.729	332.63
381.109	331.05
381.489	325.4
381.87	316.14
382.25	327.43
382.63	340.09
383.01	350.71
383.39	325.4
383.77	325.18
384.15	334.44
384.53	343.25
384.91	359.52
385.29	340.09
385.67	313.65
386.049	353.2
386.429	344.16
386.809	355.68
387.189	356.59
387.568	354.1
387.948	337.38
388.328	363.82
388.707	345.29
389.087	375.8
389.466	356.59
389.846	343.93
390.225	343.25
390.605	356.59
390.984	359.52
391.363	372.63
391.743	362.69
392.122	355.23
392.501	356.13
392.881	375.34
393.26	366.08
393.639	357.72
394.018	381.22
394.397	380.54
394.776	381.9
395.155	378.73
395.534	371.28
395.913	380.09
396.292	393.87
396.671	381.44
397.05	402.01
397.429	395
397.808	389.58
398.186	404.04
398.565	402.69
398.944	409.01
399.323	402.01
399.701	413.53
400.08	392.07
400.458	398.85
400.837	401.56
401.215	409.01
401.594	423.93
401.972	416.02
402.351	413.53
402.729	426.64
403.107	431.39
403.486	435.91
403.864	417.83
404.242	418.96
404.62	455.79
404.999	439.97
405.377	437.26
405.755	448.56
406.133	458.28
406.511	453.53
406.889	473.65
407.267	475.45
407.645	474.32
408.023	484.49
408.401	488.79
408.779	484.49
409.156	472.06
409.534	489.69
409.912	496.92
410.29	511.16
410.667	506.64
411.045	541.44
411.422	532.4
411.8	552.06
412.178	519.97
412.555	539.41
412.933	561.78
413.31	566.75
413.687	586.86
414.065	576.24
414.442	566.52
414.819	583.93
415.197	606.3
415.574	612.4
415.951	595.68
416.328	632.74
416.705	642.45
417.082	606.3
417.46	631.16
417.837	646.3
418.214	651.95
418.591	647.88
418.967	635.68
419.344	672.74
419.721	658.05
420.098	661.44
420.475	674.09
420.852	685.84
421.228	718.84
421.605	714.32
421.982	725.84
422.358	724.03
422.735	733.3
423.111	760.87
423.488	776.69
423.864	783.02
424.241	790.47
424.617	784.82
424.994	831.38
425.37	830.47
425.746	823.69
426.123	838.61
426.499	872.28
426.875	856.91
427.251	866.63
427.627	874.99
428.003	897.82
428.379	898.04
428.756	898.49
429.132	926.74
429.507	904.82
429.883	948.66
430.259	958.83
430.635	974.2
431.011	980.3
431.387	966.51
431.763	1029.34
432.138	1016
432.514	1037.92
432.89	1045.38
433.265	1075.21
433.641	1074.08
434.016	1111.82
434.392	1096
434.767	1134.19
435.143	1140.07
435.518	1156.11
435.894	1190.01
436.269	1200.63
436.644	1246.73
437.02	1223.46
437.395	1227.07
437.77	1263.23
438.145	1285.83
438.52	1307.97
438.895	1315.88
439.271	1337.35
439.646	1337.8
440.021	1351.36
440.395	1374.86
440.77	1391.14
441.145	1392.72
441.52	1423.68
441.895	1423.23
442.27	1434.98
442.645	1451.25
443.019	1445.82
443.394	1468.65
443.769	1478.82
444.143	1488.99
444.518	1505.03
444.892	1529.21
445.267	1528.99
445.641	1557.69
446.016	1554.52
446.39	1575.54
446.764	1586.38
447.139	1577.57
447.513	1604.92
447.887	1633.39
448.262	1625.03
448.636	1614.86
449.01	1623.9
449.384	1663.9
449.758	1680.39
450.132	1685.37
450.506	1704.57
450.88	1700.73
451.254	1718.36
451.628	1727.62
452.002	1740.51
452.376	1755.19
452.75	1787.74
453.123	1806.27
453.497	1812.14
453.871	1841.07
454.244	1845.36
454.618	1888.75
454.992	1885.81
455.365	1899.6
455.739	1953.83
456.112	1938.92
456.486	1991.35
456.859	1980.5
457.232	2022.08
457.606	2014.4
457.979	2022.08
458.352	2081.29
458.725	2105.69
459.099	2102.98
459.472	2137.33
459.845	2158.57
460.218	2169.87
460.591	2199.02
460.964	2239.93
461.337	2215.75
461.71	2247.61
462.083	2293.71
462.456	2317.44
462.829	2277.67
463.201	2328.51
463.574	2379.58
463.947	2397.66
464.32	2441.73
464.692	2432.92
465.065	2480.37
465.438	2508.85
465.81	2532.35
466.183	2583.42
466.555	2629.97
466.928	2615.96
467.3	2616.87
467.672	2670.65
468.045	2713.59
468.417	2725.34
468.789	2733.25
469.161	2794.49
469.534	2811.44
469.906	2863.41
470.278	2901.15
470.65	2891.66
471.022	2983.64
471.394	3007.82
471.766	2984.09
472.138	3035.16
472.51	3084.88
472.882	3148.38
473.253	3171.43
473.625	3269.28
473.997	3283.97
474.369	3307.47
474.74	3318.32
475.112	3345.43
475.484	3444.42
475.855	3476.05
476.227	3469.27
476.598	3552.89
476.97	3602.83
477.341	3689.83
477.713	3726.22
478.084	3735.48
478.455	3826.78
478.827	3867.23
479.198	3926.21
479.569	3937.51
479.94	4009.15
480.311	4044.63
480.682	4130.27
481.053	4203.04
481.424	4278.97
481.795	4317.61
482.166	4371.85
482.537	4414.79
482.908	4446.65
483.279	4541.34
483.65	4581.56
484.021	4653.42
484.391	4683.7
484.762	4732.06
485.133	4776.13
485.503	4818.84
485.874	4944.26
486.244	4971.38
486.615	5035.33
486.985	5097.7
487.356	5173.18
487.726	5224.26
488.097	5230.58
488.467	5297.02
488.837	5412.95
489.207	5473.29
489.578	5490.24
489.948	5525.04
490.318	5586.96
490.688	5654.3
491.058	5711.25
491.428	5748.99
491.798	5810.45
492.168	5888.87
492.538	5917.57
492.908	5954.63
493.278	5988.3
493.648	6052.26
494.017	6143.78
494.387	6116.44
494.757	6153.04
495.126	6235.53
495.496	6272.59
495.866	6267.84
496.235	6326.6
496.605	6374.96
496.974	6381.96
497.344	6466.71
497.713	6461.96
498.082	6522.75
498.452	6586.25
498.821	6515.07
499.19	6541.28
499.559	6646.82
499.928	6669.42
500.298	6699.02
500.667	6760.49
501.036	6741.96
501.405	6801.61
501.774	6854.49
502.143	6832.57
502.512	6865.57
502.88	6896.98
503.249	6903.31
503.618	6956.87
503.987	6984.66
504.356	6979.92
504.724	7053.59
505.093	7048.16
505.462	7044.77
505.83	7099.69
506.199	7142.17
506.567	7207.25
506.936	7210.42
507.304	7190.76
507.672	7250.87
508.041	7276.4
508.409	7287.03
508.777	7335.16
509.145	7336.52
509.514	7338.1
509.882	7372.9
510.25	7411.54
510.618	7399.34
510.986	7485.89
511.354	7501.94
511.722	7518.88
512.09	7488.6
512.458	7520.47
512.826	7564.98
513.193	7545.32
513.561	7614.93
513.929	7641.37
514.297	7709.16
514.664	7731.53
515.032	7684.76
515.4	7674.59
515.767	7714.81
516.135	7728.14
516.502	7711.87
516.869	7788.03
517.237	7743.96
517.604	7760.69
517.972	7778.09
518.339	7864.19
518.706	7895.15
519.073	7868.25
519.44	7883.62
519.808	7932.66
520.175	7886.33
520.542	8020.11
520.909	8021.47
521.276	7948.48
521.643	7993.9
522.009	8015.14
522.376	8078.19
522.743	8036.38
523.11	8148.92
523.477	8093.56
523.843	8120
524.21	8200.45
524.577	8139.66
524.943	8218.53
525.31	8266.44
525.676	8278.19
526.043	8307.11
526.409	8375.81
526.776	8378.75
527.142	8332.2
527.508	8417.39
527.874	8456.26
528.241	8480.21
528.607	8454.45
528.973	8496.26
529.339	8403.61
529.705	8485.19
530.071	8537.16
530.437	8548.01
530.803	8492.87
531.169	8554.79
531.535	8557.5
531.901	8498.29
532.267	8564.28
532.632	8570.61
532.998	8578.29
533.364	8614.9
533.73	8594.34
534.095	8628.91
534.461	8647.44
534.826	8645.41
535.192	8662.13
535.557	8658.29
535.923	8583.94
536.288	8671.17
536.653	8669.59
537.019	8633.66
537.384	8642.7
537.749	8639.31
538.114	8654.45
538.479	8583.49
538.845	8603.15
539.21	8609.48
539.575	8600.89
539.94	8630.72
540.305	8637.5
540.67	8639.31
541.034	8602.25
541.399	8607.67
541.764	8645.41
542.129	8577.84
542.494	8561.12
542.858	8618.52
543.223	8608.35
543.587	8687.67
543.952	8617.16
544.316	8654.67
544.681	8598.18
545.045	8614.9
545.41	8650.15
545.774	8614.45
546.138	8624.39
546.503	8621.68
546.867	8571.51
547.231	8638.63
547.595	8542.81
547.959	8543.49
548.324	8545.75
548.688	8596.82
549.052	8580.1
549.416	8592.3
549.779	8588.01
550.143	8608.57
550.507	8614.9
550.871	8585.3
551.235	8576.71
551.599	8507.78
551.962	8610.83
552.326	8572.64
552.689	8613.09
553.053	8525.41
553.417	8473.89
553.78	8569.25
554.143	8530.84
554.507	8614.9
554.87	8611.74
555.234	8643.6
555.597	8597.05
555.96	8583.71
556.323	8577.16
556.686	8600.66
557.05	8655.13
557.413	8607.22
557.776	8643.15
558.139	8637.95
558.502	8655.58
558.865	8675.46
559.228	8697.38
559.59	8693.54
559.953	8708.68
560.316	8742.35
560.679	8693.09
561.041	8824.61
561.404	8750.72
561.767	8835.46
562.129	8717.04
562.492	8807.44
562.854	8803.37
563.217	8828.91
563.579	8847.89
563.941	8932.63
564.304	8960.2
564.666	9006.3
565.028	8937.15
565.39	8973.99
565.753	9023.93
566.115	9053.31
566.477	9080.43
566.839	8971.28
567.201	9163.36
567.563	9067.32
567.925	9132.63
568.287	9117.26
568.648	9173.53
569.01	9209.01
569.372	9224.38
569.734	9194.32
570.095	9298.72
570.457	9289.01
570.819	9335.79
571.18	9227.54
571.542	9333.3
571.903	9282.45
572.265	9388.89
572.626	9377.59
572.987	9424.82
573.349	9410.13
573.71	9474.54
574.071	9416.69
574.432	9553.86
574.794	9536.68
575.155	9549.79
575.516	9490.81
575.877	9582.56
576.238	9593.41
576.599	9620.52
576.96	9623.24
577.32	9690.58
577.681	9709.11
578.042	9740.97
578.403	9672.95
578.763	9711.82
579.124	9743.23
579.485	9825.72
579.845	9839.28
580.206	9858.26
580.566	9763.8
580.927	9838.37
581.287	9931.48
581.648	9856.22
582.008	9978.93
582.368	9912.95
582.728	9974.64
583.089	9922.21
583.449	10009.89
583.809	10027.52
584.169	10032.94
584.529	9958.59
584.889	10090.12
585.249	10094.18
585.609	9992.94
585.969	10102.55
586.329	10117.23
586.688	10154.3
587.048	10089.21
587.408	10119.95
587.768	10125.37
588.127	10129.66
588.487	10124.47
588.846	10214.86
589.206	10102.77
589.565	10154.07
589.925	10189.55
590.284	10232.94
590.643	10274.07
591.003	10306.83
591.362	10259.38
591.721	10254.63
592.08	10297.12
592.44	10368.3
592.799	10296.44
593.158	10285.59
593.517	10402.88
593.876	10327.62
594.235	10277.23
594.593	10302.09
594.952	10404.01
595.311	10345.93
595.67	10399.26
596.029	10421.63
596.387	10379.83
596.746	10457.56
597.104	10390.9
597.463	10391.8
597.822	10405.14
598.18	10429.54
598.538	10404.91
598.897	10432.03
599.255	10402.65
599.613	10566.04
599.972	10479.48
600.33	10457.56
600.688	10484.46
601.046	10503.44
601.404	10603.32
601.762	10506.83
602.12	10574.4
602.478	10539.82
602.836	10586.83
603.194	10477
603.552	10571.91
603.91	10527.17
604.268	10543.89
604.625	10515.87
604.983	10594.06
605.341	10524.68
605.698	10580.05
606.056	10632.7
606.413	10580.95
606.771	10626.37
607.128	10611.01
607.485	10568.07
607.843	10610.78
608.2	10639.93
608.557	10640.38
608.914	10627.96
609.272	10671.57
609.629	10657.11
609.986	10802.87
610.343	10583.89
610.7	10735.52
611.057	10702.3
611.414	10759.48
611.771	10785.69
612.127	10737.78
612.484	10787.05
612.841	10757.67
613.198	10775.07
613.554	10706.15
613.911	10892.58
614.267	10850.55
614.624	10838.34
614.98	10851.23
615.337	10929.64
615.693	10907.5
616.05	10869.3
616.406	10928.51
616.762	10947.04
617.118	10928.06
617.475	10884.67
617.831	10895.97
618.187	10930.32
618.543	10923.77
618.899	10947.72
619.255	10953.6
619.611	10958.34
619.967	10975.74
620.323	11018.91
620.678	10904.11
621.034	10955.86
621.39	10947.04
621.746	10953.14
622.101	11016.19
622.457	10915.63
622.812	10944.1
623.168	11028.4
623.523	11004.89
623.879	11070.88
624.234	10993.82
624.589	11021.84
624.945	10981.39
625.3	11035.18
625.655	10979.13
626.01	10990.43
626.365	11044.89
626.72	10963.99
627.075	10959.47
627.43	10980.71
627.785	10934.39
628.14	10949.53
628.495	10955.63
628.85	10921.73
629.205	10947.49
629.559	11000.6
629.914	10865.91
630.269	10883.54
630.623	10877.44
630.978	10810.1
631.332	10928.74
631.687	10895.74
632.041	10821.62
632.396	10829.31
632.75	10781.62
633.104	10788.63
633.459	10775.52
633.813	10731.46
634.167	10791.79
634.521	10754.73
634.875	10804
635.229	10728.29
635.583	10752.47
635.937	10687.16
636.291	10724.45
636.645	10639.71
636.999	10644
637.352	10751.12
637.706	10576.66
638.06	10611.01
638.413	10572.59
638.767	10587.5
639.121	10616.66
639.474	10436.55
639.828	10500.73
640.181	10522.2
640.534	10542.76
640.888	10472.93
641.241	10435.42
641.594	10518.13
641.947	10545.25
642.301	10515.87
642.654	10501.18
643.007	10577.11
643.36	10510.44
643.713	10449.65
644.066	10441.52
644.419	10439.26
644.771	10426.6
645.124	10328.75
645.477	10314.52
645.83	10214.41
646.182	10190.45
646.535	10161.07
646.888	10129.66
647.24	10037.69
647.593	10132.15
647.945	10103.68
648.298	10014.19
648.65	10034.75
649.002	10004.24
649.355	10145.93
649.707	10058.93
650.059	10100.06
650.411	10184.8
650.763	10272.03
651.115	10355.87
651.467	10278.13
651.819	10305.7
652.171	10306.83
652.523	10246.95
652.875	10259.83
653.227	10242.88
653.578	10361.97
653.93	10312.94
654.282	10248.53
654.633	10243.56
654.985	10295.76
655.337	10221.64
655.688	10288.3
656.039	10342.76
656.391	10195.2
656.742	10237.46
657.094	10220.06
657.445	10267.96
657.796	10271.35
658.147	10266.83
658.498	10234.97
658.849	10258.25
659.2	10164.92
659.551	10225.03
659.902	10300.96
660.253	10261.41
660.604	10198.81
660.955	10168.08
661.306	10200.17
661.656	10235.87
662.007	10221.41
662.358	10221.64
662.708	10279.04
663.059	10210.56
663.409	10200.85
663.76	10292.14
664.11	10282.43
664.461	10285.59
664.811	10206.05
665.161	10243.33
665.511	10190.45
665.862	10201.07
666.212	10274.97
666.562	10267.74
666.912	10297.79
667.262	10241.07
667.612	10265.25
667.962	10237.23
668.312	10165.14
668.662	10232.94
669.011	10239.49
669.361	10150.68
669.711	10162.88
670.06	10183.9
670.41	10130.57
670.76	10171.47
671.109	10169.66
671.459	10128.08
671.808	10095.09
672.157	10175.76
672.507	10130.11
672.856	10052.38
673.205	10157.68
673.554	10066.16
673.904	10118.59
674.253	10134.41
674.602	10144.35
674.951	9893.06
675.3	9870.23
675.649	10115.88
675.998	10097.35
676.346	10089.89
676.695	10047.63
677.044	10007.41
677.393	10020.97
677.741	9995.2
678.09	10011.7
678.438	9899.84
678.787	9990.91
679.135	9985.94
679.484	9913.4
679.832	9923.11
680.181	9910.01
680.529	9870.69
680.877	9859.61
681.225	9923.57
681.573	9914.08
681.922	9825.49
682.27	9803.57
682.618	9814.42
682.966	9844.47
683.314	9811.25
683.661	9789.11
684.009	9720.86
684.357	9685.61
684.705	9670.24
685.053	9740.07
685.4	9670.24
685.748	9619.85
686.095	9658.94
686.443	9618.49
686.79	9560.86
687.138	9592.5
687.485	9545.5
687.832	9563.58
688.18	9570.58
688.527	9524.03
688.874	9467.31
689.221	9474.54
689.568	9359.51
689.915	9345.05
690.262	9387.99
690.609	9376.46
690.956	9273.41
691.303	9289.23
691.65	9260.08
691.997	9233.64
692.344	9177.15
692.69	9140.76
693.037	9151.38
693.383	9101.44
693.73	9152.06
694.077	9019.64
694.423	9038.62
694.769	9038.39
695.116	8926.08
695.462	9009.92
695.808	8910.71
696.155	8921.56
696.501	8851.73
696.847	8829.81
697.193	8783.03
697.539	8804.5
697.885	8710.94
698.231	8700.1
698.577	8663.94
698.923	8712.75
699.269	8652.19
699.614	8573.32
699.96	8553.89
700.306	8579.65
700.651	8500.1
700.997	8498.52
701.342	8477.96
701.688	8447.9
702.033	8391.18
702.379	8413.55
702.724	8372.2
703.069	8324.96
703.415	8252.2
703.76	8237.06
704.105	8312.54
704.45	8255.14
704.795	8190.73
705.14	8117.96
705.485	8186.44
705.83	8087.68
706.175	8142.6
706.52	8070.73
706.865	8061.24
707.209	8032.99
707.554	7971.08
707.899	8042.03
708.243	7951.42
708.588	7913.22
708.932	7917.97
709.277	7891.98
709.621	7861.25
709.966	7865.77
710.31	7797.07
710.654	7765.43
710.998	7784.64
711.342	7847.92
711.687	7747.8
712.031	7741.48
712.375	7698.54
712.719	7663.74
713.063	7721.82
713.407	7687.02
713.75	7592.33
714.094	7657.19
714.438	7642.95
714.782	7742.83
715.125	7592.33
715.469	7598.2
715.812	7579.22
716.156	7533.35
716.499	7584.19
716.843	7583.29
717.186	7473.24
717.53	7554.82
717.873	7546.91
718.216	7441.6
718.559	7443.63
718.902	7358.21
719.246	7464.2
719.589	7392.56
719.932	7389.4
720.275	7383.75
720.617	7387.59
720.96	7369.06
721.303	7427.59
721.646	7323.64
721.989	7383.52
722.331	7317.31
722.674	7316.18
723.016	7322.28
723.359	7290.64
723.701	7256.07
724.044	7245.45
724.386	7257.65
724.729	7260.81
725.071	7291.55
725.413	7266.91
725.755	7263.98
726.097	7215.62
726.439	7161.61
726.782	7197.08
727.124	7213.36
727.465	7144.66
727.807	7211.1
728.149	7190.31
728.491	7278.44
728.833	7188.95
729.175	7153.92
729.516	7159.12
729.858	7202.96
730.199	7144.88
730.541	7153.02
730.882	7144.66
731.224	7209.74
731.565	7090.87
731.906	7117.09
732.248	7120.48
732.589	7117.54
732.93	7066.24
733.271	7111.66
733.612	7166.35
733.953	7126.58
734.294	7111.66
734.635	7123.87
734.976	7127.71
735.317	7097.2
735.658	7103.98
735.999	7100.82
736.339	7104.43
736.68	7118.67
737.021	7158.67
737.361	7058.78
737.702	7096.3
738.042	7187.37
738.383	7108.5
738.723	7128.61
739.063	7082.96
739.404	7105.34
739.744	7177.88
740.084	7131.55
740.424	7181.49
740.764	7177.88
741.104	7218.78
741.444	7215.84
741.784	7205.22
742.124	7161.38
742.464	7258.78
742.804	7221.49
743.143	7245.45
743.483	7214.03
743.823	7258.55
744.162	7228.04
744.502	7265.78
744.841	7286.12
745.181	7336.06
745.52	7261.94
745.86	7360.7
746.199	7364.99
746.538	7424.88
746.877	7445.21
747.216	7475.04
747.556	7446.8
747.895	7557.53
748.234	7548.71
748.573	7592.1
748.911	7569.05
749.25	7649.73
749.589	7729.05
749.928	7757.97
750.267	7859.67
750.605	7810.85
750.944	7931.53
751.283	7923.85
751.621	8004.07
751.96	8052.88
752.298	8162.48
752.636	8240.22
752.975	8256.27
753.313	8341.91
753.651	8441.8
753.989	8421.23
754.327	8560.66
754.666	8604.73
755.004	8755.69
755.342	8853.76
755.679	8880.2
756.017	8961.78
756.355	9090.14
756.693	9180.08
757.031	9374.65
757.368	9430.25
757.706	9504.14
758.044	9616.91
758.381	9737.58
758.719	9809.45
759.056	10013.96
759.394	10108.87
759.731	10141.64
760.068	10282.88
760.405	10427.73
760.743	10578.24
761.08	10754.96
761.417	10791.57
761.754	10893.26
762.091	11020.49
762.428	11130.99
762.765	11215.28
763.102	11488.27
763.438	11488.5
763.775	11616.4
764.112	11780.24
764.449	11953.8
764.785	11951.08
765.122	12076.96
765.458	12184.52
765.795	12304.3
766.131	12349.27
766.467	12563.05
766.804	12652.99
767.14	12744.51
767.476	12827.67
767.812	12955.8
768.148	13039.64
768.485	13133.88
768.821	13143.6
769.157	13230.37
769.492	13372.97
769.828	13418.84
770.164	13516.69
770.5	13629.91
770.836	13712.62
771.171	13739.96
771.507	13856.8
771.842	13838.94
772.178	14002.56
772.513	13991.71
772.849	14051.37
773.184	14101.08
773.519	14173.4
773.855	14257.92
774.19	14255.66
774.525	14294.98
774.86	14377.69
775.195	14461.07
775.53	14357.12
775.865	14465.37
776.2	14433.28
776.535	14403.67
776.87	14536.55
777.205	14500.4
777.539	14583.33
777.874	14577.46
778.209	14545.59
778.543	14592.14
778.878	14583.56
779.212	14603.67
779.547	14590.34
779.881	14628.53
780.215	14691.13
780.55	14670.79
780.884	14652.26
781.218	14690.67
781.552	14748.98
781.886	14643.22
782.22	14589.43
782.554	14646.15
782.888	14542.2
783.222	14559.6
783.556	14558.93
783.889	14479.61
784.223	14581.07
784.557	14560.28
784.89	14623.56
785.224	14669.66
785.557	14502.66
785.891	14470.34
786.224	14446.39
786.558	14586.95
786.891	14372.49
787.224	14400.74
787.557	14379.49
787.891	14320.06
788.224	14416.56
788.557	14475.99
788.89	14384.24
789.223	14439.83
789.556	14301.53
789.888	14294.07
790.221	14274.19
790.554	14186.28
790.887	14079.16
791.219	14189.22
791.552	14177.47
791.884	14128.43
792.217	14183.34
792.549	14070.58
792.882	13928.43
793.214	14028.09
793.546	13986.96
793.879	13959.17
794.211	13893.63
794.543	13890.24
794.875	13885.72
795.207	13948.55
795.539	13880.3
795.871	13867.87
796.203	13732.96
796.535	13748.1
796.867	13683.69
797.198	13687.54
797.53	13708.33
797.862	13600.08
798.193	13601.21
798.525	13539.52
798.856	13523.47
799.188	13477.6
799.519	13444.6
799.85	13429.01
800.182	13356.24
800.513	13353.53
800.844	13272.41
801.175	13276.02
801.506	13350.82
801.837	13181.11
802.168	13258.62
802.499	13234.21
802.83	13087.1
803.161	13100.43
803.491	13042.81
803.822	13121.22
804.153	13064.73
804.483	12981.57
804.814	12957.39
805.145	12973.2
805.475	12900.44
805.805	12885.3
806.136	12868.57
806.466	12838.74
806.796	12880.55
807.126	12720.56
807.457	12695.02
807.787	12670.61
808.117	12724.4
808.447	12660.22
808.777	12682.59
809.107	12596.72
809.436	12539.54
809.766	12604.85
810.096	12556.94
810.426	12449.38
810.755	12493.89
811.085	12428.36
811.414	12479.66
811.744	12355.59
812.073	12338.87
812.403	12350.62
812.732	12271.53
813.061	12302.71
813.39	12211.87
813.719	12241.7
814.049	12296.39
814.378	12269.27
814.707	12056.17
815.036	12140.46
815.365	12124.19
815.693	11982.5
816.022	12065.88
816.351	11998.09
816.68	11881.26
817.008	12046.22
817.337	11869.5
817.665	11797.42
817.994	11912.22
818.322	11890.07
818.651	11832.44
818.979	11833.35
819.307	11849.17
819.636	11808.26
819.964	11797.64
820.292	11767.81
820.62	11705.89
820.948	11644.88
821.276	11750.64
821.604	11615.5
821.932	11687.14
822.259	11695.5
822.587	11645.78
822.915	11705.44
823.243	11690.98
823.57	11734.37
823.898	11686.91
824.225	11698.89
824.553	11664.54
824.88	11692.11
825.207	11719.23
825.535	11714.25
825.862	11739.11
826.189	11709.28
826.516	11749.96
826.843	11782.5
827.17	11822.5
827.497	11795.83
827.824	11756.29
828.151	11758.32
828.478	11675.16
828.805	11725.33
829.131	11759
829.458	11724.42
829.785	11641.71
830.111	11777.98
830.438	11728.49
830.764	11760.58
831.09	11762.84
831.417	11727.36
831.743	11739.56
832.069	11825.44
832.395	11702.28
832.722	11807.59
833.048	11640.81
833.374	11671.54
833.7	11609.62
834.026	11665.22
834.351	11623.86
834.677	11603.97
835.003	11646.23
835.329	11618.21
835.654	11582.51
835.98	11589.96
836.306	11557.42
836.631	11561.26
836.956	11593.35
837.282	11615.05
837.607	11523.75
837.932	11458.67
838.258	11521.72
838.583	11523.07
838.908	11367.6
839.233	11431.78
839.558	11428.61
839.883	11391.1
840.208	11375.28
840.533	11370.53
840.858	11329.41
841.182	11381.38
841.507	11275.4
841.832	11260.03
842.156	11263.42
842.481	11227.04
842.805	11256.87
843.13	11218.45
843.454	11181.39
843.778	11150.43
844.103	11128.51
844.427	11069.3
844.751	11118.34
845.075	11083.08
845.399	11001.96
845.723	10990.66
846.047	11025.46
846.371	10873.82
846.695	10880.6
847.019	10723.77
847.343	10765.8
847.666	10665.24
847.99	10691.46
848.313	10608.75
848.637	10536.88
848.96	10572.14
849.284	10597.67
849.607	10438.13
849.931	10419.15
850.254	10458.24
850.577	10367.62
850.9	10225.03
851.223	10258.7
851.546	10168.76
851.869	10086.5
852.192	10179.83
852.515	10070.68
852.838	10046.95
853.161	10067.29
853.483	10032.94
853.806	9940.29
854.129	9914.98
854.451	9959.95
854.774	9910.46
855.096	9817.35
855.419	9759.05
855.741	9799.95
856.063	9769.67
856.385	9689.45
856.708	9736.45
857.03	9634.31
857.352	9693.52
857.674	9616
857.996	9638.38
858.318	9577.36
858.64	9517.93
858.961	9581.88
859.283	9477.48
859.605	9465.5
859.926	9476.57
860.248	9430.25
860.57	9389.34
860.891	9368.78
861.212	9278.84
861.534	9303.47
861.855	9302.79
862.176	9331.27
862.498	9341.44
862.819	9317.93
863.14	9196.81
863.461	9273.41
863.782	9161.1
864.103	9227.54
864.424	9122.46
864.745	9204.04
865.065	9104.38
865.386	9146.86
865.707	9014.44
866.027	9136.92
866.348	9050.14
866.668	9122.46
866.989	9040.65
867.309	9010.14
867.63	9049.47
867.95	8973.99
868.27	8915.46
868.59	8986.87
868.91	8902.35
869.23	8888.79
869.55	8872.52
869.87	8856.02
870.19	8890.37
870.51	8870.94
870.83	8894.22
871.15	8795.23
871.469	8829.58
871.789	8831.84
872.109	8804.5
872.428	8750.94
872.748	8787.33
873.067	8768.12
873.386	8777.61
873.706	8689.02
874.025	8694.9
874.344	8717.72
874.663	8684.73
874.982	8657.61
875.301	8649.93
875.62	8672.98
875.939	8603.38
876.258	8637.05
876.577	8588.23
876.896	8583.49
877.214	8638.63
877.533	8578.52
877.852	8604.28
878.17	8588.01
878.489	8564.96
878.807	8581
879.125	8496.71
879.444	8479.31
879.762	8455.58
880.08	8452.42
880.398	8448.13
880.716	8450.61
881.034	8447.67
881.352	8422.59
881.67	8379.65
881.988	8406.32
882.306	8369.03
882.624	8283.16
882.941	8297.17
883.259	8264.4
883.577	8290.16
883.894	8268.24
884.212	8241.35
884.529	8197.96
884.846	8149.38
885.164	8152.99
885.481	8135.82
885.798	8137.4
886.115	8149.38
886.432	8134.24
886.75	8131.98
887.067	8050.4
887.383	8015.59
887.7	8040.45
888.017	7978.31
888.334	7977.4
888.651	8050.85
888.967	7949.38
889.284	7903.73
889.6	7919.55
889.917	7901.47
890.233	7858.99
890.55	7780.35
890.866	7808.59
891.182	7815.37
891.498	7743.06
891.815	7764.3
892.131	7769.05
892.447	7658.77
892.763	7679.11
893.079	7637.75
893.395	7658.32
893.71	7600.24
894.026	7541.48
894.342	7558.88
894.657	7454.03
894.973	7477.98
895.289	7486.57
895.604	7462.39
895.92	7464.65
896.235	7365.67
896.55	7344.65
896.865	7337.65
897.181	7309.62
897.496	7334.03
897.811	7291.32
898.126	7251.09
898.441	7201.38
898.756	7229.17
899.071	7143.53
899.386	7171.55
899.7	7189.18
900.015	7077.09
900.33	7022.63
900.644	7034.6
900.959	7074.15
901.273	7017.2
901.588	6986.69
901.902	6939.69
902.216	6915.51
902.531	6876.87
902.845	6839.81
903.159	6837.55
903.473	6801.84
903.787	6783.54
904.101	6723.88
904.415	6753.48
904.729	6723.65
905.042	6656.76
905.356	6663.99
905.67	6684.78
905.984	6612.24
906.297	6635.29
906.611	6584.45
906.924	6552.13
907.237	6556.42
907.551	6541.28
907.864	6470.1
908.177	6439.59
908.491	6459.48
908.804	6418.12
909.117	6378.12
909.43	6340.16
909.743	6321.18
910.056	6323.21
910.368	6290.44
910.681	6347.16
910.994	6245.02
911.307	6215.87
911.619	6149.2
911.932	6146.94
912.244	6098.36
912.557	6066.72
912.869	6026.72
913.181	6097.23
913.494	6081.18
913.806	5984.01
914.118	5956.67
914.43	5897.91
914.742	5937.23
915.054	5874.41
915.366	5864.69
915.678	5849.32
915.99	5816.78
916.302	5789.21
916.613	5814.3
916.925	5795.77
917.236	5782.88
917.548	5659.72
917.859	5691.59
918.171	5658.14
918.482	5643.23
918.794	5634.19
919.105	5618.37
919.416	5567.52
919.727	5508.54
920.038	5522.33
920.349	5520.74
920.66	5492.5
920.971	5495.43
921.282	5453.63
921.593	5468.09
921.903	5361.2
922.214	5425.15
922.525	5336.12
922.835	5362.78
923.146	5294.76
923.456	5325.72
923.767	5306.74
924.077	5273.07
924.387	5204.82
924.697	5189.68
925.008	5203.46
925.318	5156.23
925.628	5177.25
925.938	5151.04
926.248	5045.05
926.558	5063.81
926.867	5108.33
927.177	5065.84
927.487	5044.6
927.796	4963.7
928.106	4960.53
928.416	4929.57
928.725	4943.13
929.034	4897.03
929.344	4870.37
929.653	4889.57
929.962	4824.49
930.271	4843.25
930.581	4824.27
930.89	4808
931.199	4770.71
931.508	4760.54
931.817	4763.25
932.125	4734.55
932.434	4761.67
932.743	4661.56
933.051	4665.17
933.36	4620.43
933.669	4662.69
933.977	4619.98
934.286	4591.28
934.594	4632.63
934.902	4534.56
935.21	4554.22
935.519	4525.29
935.827	4486.87
936.135	4491.62
936.443	4465.63
936.751	4426.31
937.059	4462.24
937.367	4403.71
937.674	4412.3
937.982	4414.56
938.29	4360.1
938.597	4375.46
938.905	4318.52
939.213	4320.55
939.52	4308.12
939.827	4227.9
940.135	4264.51
940.442	4242.81
940.749	4192.42
941.056	4215.69
941.363	4167.33
941.67	4170.27
941.977	4118.3
942.284	4121.69
942.591	4130.27
942.898	4066.55
943.205	4116.49
943.511	4041.91
943.818	4012.54
944.125	4008.47
944.431	3991.29
944.738	3971.18
945.044	3957.62
945.35	3967.11
945.657	3878.08
945.963	3903.84
946.269	3876.04
946.575	3890.28
946.881	3885.53
947.187	3840.56
947.493	3846.89
947.799	3845.31
948.105	3784.29
948.41	3761.24
948.716	3766.44
949.022	3743.62
949.327	3756.95
949.633	3707.68
949.938	3695.03
950.244	3680.57
950.549	3684.18
950.854	3652.77
951.16	3636.05
951.465	3610.06
951.77	3616.39
952.075	3610.96
952.38	3580
952.685	3581.81
952.99	3552.66
953.294	3544.75
953.599	3526.9
953.904	3517.86
954.209	3472.44
954.513	3505.88
954.818	3449.61
955.122	3449.61
955.426	3446.9
955.731	3451.19
956.035	3412.1
956.339	3391.54
956.643	3408.48
956.948	3374.36
957.252	3330.97
957.556	3355.15
957.86	3321.71
958.163	3289.84
958.467	3284.19
958.771	3284.65
959.075	3233.12
959.378	3261.6
959.682	3262.27
959.985	3252.33
960.289	3229.51
960.592	3198.55
960.896	3162.39
961.199	3155.84
961.502	3165.1
961.805	3146.34
962.108	3106.57
962.411	3140.92
962.714	3109.96
963.017	3104.31
963.32	3081.26
963.623	3100.24
963.926	3078.32
964.228	3030.87
964.531	3051.43
964.833	3034.93
965.136	3016.4
965.438	2971.21
965.741	3000.81
966.043	3015.95
966.345	2957.87
966.648	2970.08
966.95	2940.47
967.252	2923.75
967.554	2936.86
967.856	2885.33
968.158	2887.14
968.46	2881.49
968.761	2851.89
969.063	2847.59
969.365	2820.48
969.666	2822.96
969.968	2783.64
970.269	2782.06
970.571	2812.79
970.872	2765.79
971.174	2750.2
971.475	2727.6
971.776	2746.58
972.077	2731.89
972.378	2709.75
972.679	2700.93
972.98	2681.72
973.281	2670.2
973.582	2691.44
973.883	2670.88
974.183	2632.91
974.484	2647.6
974.785	2619.58
975.085	2592.23
975.386	2618.67
975.686	2588.62
975.986	2593.36
976.287	2545.91
976.587	2572.35
976.887	2548.62
977.187	2538.45
977.487	2506.36
977.787	2524.89
978.087	2508.62
978.387	2484.21
978.687	2533.48
978.987	2480.6
979.286	2476.3
979.586	2474.95
979.885	2459.81
980.185	2482.18
980.484	2406.7
980.784	2408.28
981.083	2403.99
981.382	2422.3
981.682	2376.87
981.981	2374.16
982.28	2383.43
982.579	2338.23
982.878	2329.42
983.177	2298.68
983.475	2347.49
983.774	2314.28
984.073	2300.04
984.372	2314.28
984.67	2287.84
984.969	2271.56
985.267	2287.38
985.566	2271.56
985.864	2240.15
986.162	2243.77
986.461	2219.59
986.759	2223.2
987.057	2210.1
987.355	2225.01
987.653	2184.79
987.951	2204
988.249	2184.56
988.547	2172.13
988.844	2141.85
989.142	2114.96
989.44	2134.62
989.737	2060.72
990.035	2085.58
990.332	2107.73
990.63	2100.72
990.927	2064.79
991.224	2084.22
991.521	2074.96
991.819	2032.25
992.116	2002.65
992.413	2047.16
992.71	2015.53
993.006	2023.89
993.303	2005.13
993.6	1974.4
993.897	2012.14
994.193	1981.85
994.49	1983.89
994.787	1953.61
995.083	1928.07
995.379	1908.41
995.676	1911.35
995.972	1940.73
996.268	1921.97
996.565	1905.47
996.861	1889.43
997.157	1885.81
997.453	1871.12
997.749	1874.74
998.044	1837.68
998.34	1854.4
998.636	1837.45
998.932	1849.2
999.227	1839.49
999.523	1829.99
999.818	1779.83
1000.114	1764.91
1000.409	1758.13
1000.704	1778.24
1001	1758.13
1001.295	1757
1001.59	1741.86
1001.885	1759.04
1002.18	1739.83
1002.475	1717
1002.77	1712.48
1003.065	1702.99
1003.359	1690.11
1003.654	1682.65
1003.949	1647.4
1004.243	1669.32
1004.538	1641.75
1004.832	1658.25
1005.127	1667.51
1005.421	1656.67
1005.715	1616.21
1006.009	1592.94
1006.304	1599.27
1006.598	1585.48
1006.892	1595.42
1007.186	1555.43
1007.48	1598.14
1007.773	1551.81
1008.067	1545.03
1008.361	1552.49
1008.655	1535.31
1008.948	1508.65
1009.242	1506.39
1009.535	1495.31
1009.829	1474.98
1010.122	1511.81
1010.415	1480.62
1010.708	1498.25
1011.001	1478.59
1011.295	1468.87
1011.588	1425.49
1011.881	1465.26
1012.173	1438.59
1012.466	1460.74
1012.759	1430
1013.052	1420.51
1013.344	1418.03
1013.637	1389.78
1013.93	1390.23
1014.222	1378.25
1014.514	1387.52
1014.807	1369.89
1015.099	1352.49
1015.391	1347.97
1015.683	1370.35
1015.976	1308.2
1016.268	1339.84
1016.56	1300.29
1016.851	1312.27
1017.143	1300.52
1017.435	1300.97
1017.727	1274.98
1018.018	1287.18
1018.31	1275.21
1018.602	1246.96
1018.893	1263.23
1019.185	1249.67
1019.476	1246.51
1019.767	1239.5
1020.058	1248.31
1020.35	1224.36
1020.641	1221.65
1020.932	1215.77
1021.223	1195.89
1021.514	1181.42
1021.804	1191.14
1022.095	1156.11
1022.386	1172.84
1022.677	1176
1022.967	1155.66
1023.258	1158.83
1023.548	1136.23
1023.839	1128.77
1024.129	1146.4
1024.419	1127.87
1024.709	1131.26
1025	1133.06
1025.29	1124.93
1025.58	1117.47
1025.87	1114.53
1026.16	1084.48
1026.449	1073.86
1026.739	1051.26
1027.029	1051.03
1027.319	1037.25
1027.608	1062.56
1027.898	1038.15
1028.187	1072.27
1028.477	1037.25
1028.766	1006.51
1029.055	1009.9
1029.344	1003.35
1029.634	969.9
1029.923	999.28
1030.212	989.11
1030.501	984.14
1030.79	986.85
1031.078	963.8
1031.367	962.9
1031.656	966.97
1031.945	945.27
1032.233	950.92
1032.522	947.98
1032.81	948.89
1033.099	933.29
1033.387	950.92
1033.675	930.13
1033.963	928.32
1034.251	915.44
1034.54	910.92
1034.828	899.85
1035.116	917.48
1035.403	866.86
1035.691	897.59
1035.979	867.31
1036.267	868.44
1036.554	863.01
1036.842	855.78
1037.129	837.25
1037.417	846.52
1037.704	845.16
1037.992	828.44
1038.279	851.94
1038.566	830.92
1038.853	830.92
1039.14	830.92
