Data from hue_50_FLMS001491_82.txt Node
Date: Mon Feb 06 15:11:09 GMT 2017
User: dcchb
Spectrometer: FLMS00149
Trigger mode: 0
Integration Time (sec): 2.000000E-2
Scans to average: 10
Electric dark correction enabled: true
Nonlinearity correction enabled: false
Boxcar width: 0
XAxis mode: Wavelengths
Number of Pixels in Spectrum: 2048
>>>>>Begin Spectral Data<<<<<
341.393	-7.49
341.776	-7.49
342.16	-7.49
342.543	-45
342.927	-57.65
343.31	-69.4
343.693	-51.33
344.077	-56.07
344.46	-80.25
344.843	-44.77
345.226	-45
345.61	-34.15
345.993	-19.24
346.376	12.17
346.759	8.56
347.142	38.84
347.525	22.8
347.908	54.21
348.291	73.87
348.674	96.69
349.057	93.08
349.44	97.37
349.823	144.37
350.206	166.97
350.588	204.94
350.971	209.46
351.354	247.65
351.737	255.56
352.119	241.55
352.502	259.85
352.884	256.01
353.267	284.71
353.65	300.08
354.032	287.2
354.414	321.77
354.797	315.9
355.179	323.58
355.562	306.86
355.944	357.02
356.326	339.62
356.709	346.18
357.091	319.96
357.473	337.36
357.855	341.88
358.238	316.8
358.62	352.96
359.002	342.34
359.384	332.84
359.766	332.62
360.148	337.36
360.53	318.83
360.912	333.3
361.294	319.74
361.676	339.85
362.057	335.1
362.439	332.39
362.821	298.49
363.203	345.05
363.584	324.48
363.966	310.25
364.348	321.55
364.729	332.62
365.111	313.41
365.493	329.68
365.874	318.38
366.256	330.81
366.637	322.9
367.019	310.02
367.4	326.06
367.781	298.72
368.163	338.27
368.544	309.79
368.925	320.19
369.306	332.62
369.688	302.56
370.069	333.97
370.45	311.6
370.831	318.83
371.212	342.11
371.593	295.78
371.974	324.93
372.355	335.56
372.736	315.22
373.117	312.05
373.498	317.03
373.879	307.99
374.26	299.62
374.641	311.38
375.021	317.48
375.402	321.32
375.783	307.31
376.163	321.77
376.544	333.52
376.925	326.52
377.305	322.22
377.686	351.15
378.066	330.58
378.447	324.03
378.827	337.14
379.208	323.35
379.588	332.39
379.968	319.74
380.349	342.11
380.729	316.35
381.109	331.49
381.489	334.43
381.87	320.19
382.25	350.02
382.63	353.86
383.01	367.87
383.39	336.46
383.77	355.89
384.15	342.79
384.53	340.3
384.91	338.27
385.29	336.69
385.67	359.51
386.049	351.83
386.429	363.13
386.809	335.56
387.189	357.7
387.568	321.55
387.948	327.65
388.328	336.23
388.707	326.74
389.087	364.26
389.466	345.05
389.846	347.31
390.225	359.74
390.605	364.48
390.984	355.89
391.363	363.35
391.743	361.32
392.122	354.31
392.501	361.09
392.881	373.3
393.26	378.49
393.639	370.13
394.018	365.16
394.397	357.7
394.776	374.65
395.155	372.62
395.534	364.93
395.913	367.65
396.292	377.36
396.671	364.71
397.05	398.15
397.429	371.26
397.808	386.85
398.186	395.44
398.565	386.18
398.944	355.89
399.323	386.18
399.701	392.05
400.08	382.56
400.458	394.54
400.837	393.86
401.215	419.85
401.594	400.41
401.972	378.94
402.351	399.74
402.729	406.06
403.107	413.75
403.486	400.87
403.864	400.64
404.242	415.78
404.62	395.89
404.999	426.63
405.377	410.81
405.755	440.64
406.133	402
406.511	428.66
406.889	406.97
407.267	423.01
407.645	397.7
408.023	412.84
408.401	438.6
408.779	420.3
409.156	449.9
409.534	420.75
409.912	442.67
410.29	416.46
410.667	441.09
411.045	458.72
411.422	458.94
411.8	441.54
412.178	427.76
412.555	477.7
412.933	467.53
413.31	466.4
413.687	504.14
414.065	468.89
414.442	493.52
414.819	486.74
415.197	473.18
415.574	477.7
415.951	499.39
416.328	475.21
416.705	465.04
417.082	463.01
417.46	477.47
417.837	496.68
418.214	488.09
418.591	491.94
418.967	507.76
419.344	499.85
419.721	504.59
420.098	515.89
420.475	506.17
420.852	512.5
421.228	549.56
421.605	516.12
421.982	551.82
422.358	520.41
422.735	542.56
423.111	537.81
423.488	529.68
423.864	528.09
424.241	566.96
424.617	554.53
424.994	549.34
425.37	540.52
425.746	561.54
426.123	561.99
426.499	567.19
426.875	552.95
427.251	563.12
427.627	560.18
428.003	566.06
428.379	563.8
428.756	596.34
429.132	596.57
429.507	599.73
429.883	595.44
430.259	624.81
430.635	602.44
431.011	617.81
431.387	623.46
431.763	627.75
432.138	635.21
432.514	624.59
432.89	646.51
433.265	646.51
433.641	651.71
434.016	647.19
434.392	647.41
434.767	665.49
435.143	656.9
435.518	681.08
435.894	664.36
436.269	674.98
436.644	699.61
437.02	677.69
437.395	683.8
437.77	711.37
438.145	703.91
438.52	702.33
438.895	719.27
439.271	728.09
439.646	727.41
440.021	734.64
440.395	730.35
440.77	734.42
441.145	744.81
441.52	760.86
441.895	741.42
442.27	755.21
442.645	754.08
443.019	763.34
443.394	762.89
443.769	747.07
444.143	759.73
444.518	776.67
444.892	766.28
445.267	766.96
445.641	786.39
446.016	783.45
446.39	799.72
446.764	789.78
447.139	796.79
447.513	792.27
447.887	805.37
448.262	820.06
448.636	806.5
449.01	802.21
449.384	832.49
449.758	850.12
450.132	836.11
450.506	837.24
450.88	852.15
451.254	853.28
451.628	858.48
452.002	866.39
452.376	872.49
452.75	850.57
453.123	867.29
453.497	889.21
453.871	921.98
454.244	941.64
454.618	941.42
454.992	939.16
455.365	926.95
455.739	942.32
456.112	945.94
456.486	976.22
456.859	968.08
457.232	992.71
457.606	999.27
457.979	969.89
458.352	1028.42
458.725	1040.4
459.099	1026.84
459.472	1027.52
459.845	1041.53
460.218	1058.93
460.591	1086.5
460.964	1083.33
461.337	1079.04
461.71	1119.72
462.083	1153.61
462.456	1145.25
462.829	1128.98
463.201	1143.67
463.574	1161.52
463.947	1182.99
464.32	1214.63
464.692	1224.57
465.065	1229.09
465.438	1236.1
465.81	1275.19
466.183	1269.77
466.555	1296.89
466.928	1313.61
467.3	1319.03
467.672	1348.86
468.045	1371.24
468.417	1373.27
468.789	1420.05
469.161	1413.72
469.534	1473.83
469.906	1480.16
470.278	1497.79
470.65	1505.47
471.022	1529.88
471.394	1588.4
471.766	1603.32
472.138	1638.8
472.51	1680.61
472.882	1704.33
473.253	1734.39
473.625	1728.29
473.997	1791.34
474.369	1831.56
474.74	1861.62
475.112	1894.84
475.484	1947.27
475.855	2027.26
476.227	2045.57
476.598	2125.34
476.97	2131.44
477.341	2191.78
477.713	2260.25
478.084	2327.37
478.455	2368.95
478.827	2424.09
479.198	2495.95
479.569	2580.24
479.94	2661.6
480.311	2692.56
480.682	2817.75
481.053	2878.99
481.424	2957.18
481.795	3031.3
482.166	3142.49
482.537	3162.15
482.908	3298.19
483.279	3380.9
483.65	3497.96
484.021	3600.33
484.391	3658.63
484.762	3746.54
485.133	3876.03
485.503	3953.31
485.874	4077.6
486.244	4170.71
486.615	4329.12
486.985	4439.18
487.356	4568.67
487.726	4694.09
488.097	4774.08
488.467	4897.7
488.837	5050.69
489.207	5201.87
489.578	5344.01
489.948	5440.73
490.318	5581.97
490.688	5671.24
491.058	5865.13
491.428	5956.43
491.798	6046.59
492.168	6247.49
492.538	6382.63
492.908	6529.74
493.278	6661.27
493.648	6739
494.017	6920.92
494.387	7068.49
494.757	7161.37
495.126	7326.56
495.496	7438.42
495.866	7626.89
496.235	7718.41
496.605	7885.64
496.974	8026.2
497.344	8149.36
497.713	8257.38
498.082	8380.54
498.452	8544.61
498.821	8698.73
499.19	8750.7
499.559	8919.51
499.928	9031.6
500.298	9211.71
500.667	9399.72
501.036	9392.49
501.405	9575.31
501.774	9663.9
502.143	9778.7
502.512	9874.74
502.88	9978.01
503.249	10168.74
503.618	10245.58
503.987	10356.99
504.356	10458.68
504.724	10654.61
505.093	10714.27
505.462	10801.04
505.83	10870.65
506.199	11009.17
506.567	11337.07
506.936	11300.92
507.304	11441.7
507.672	11577.52
508.041	11618.65
508.409	11785.2
508.777	11876.72
509.145	12084.17
509.514	12095.02
509.882	12304.73
510.25	12249.59
510.618	12439.42
510.986	12486.2
511.354	12717.15
511.722	12859.75
512.09	12950.14
512.458	12932.97
512.826	13002.34
513.193	13211.83
513.561	13313.07
513.929	13384.25
514.297	13608.2
514.664	13555.55
515.032	13715.54
515.4	13861.53
515.767	13982.2
516.135	14098.36
516.502	14071.24
516.869	14241.63
517.237	14386.71
517.604	14276.66
517.972	14552.13
518.339	14638.91
518.706	14737.44
519.073	14762.52
519.44	14896.76
519.808	15089.07
520.175	15176.52
520.542	15279.57
520.909	15418.32
521.276	15440.24
521.643	15623.29
522.009	15653.57
522.376	15770.63
522.743	15955.26
523.11	16070.28
523.477	16211.07
523.843	16327
524.21	16386.66
524.577	16672.75
524.943	16731.96
525.31	16732.87
525.676	16943.26
526.043	17008.11
526.409	17197.03
526.776	17373.07
527.142	17284.94
527.508	17489.68
527.874	17537.36
528.241	17679.28
528.607	17813.06
528.973	18014.87
529.339	17967.41
529.705	18140.51
530.071	18286.04
530.437	18336.44
530.803	18522.42
531.169	18591.35
531.535	18563.55
531.901	18648.52
532.267	18788.86
532.632	18865.92
532.998	18975.07
533.364	19089.87
533.73	19152.46
534.095	19294.61
534.461	19439.69
534.826	19387.26
535.192	19513.13
535.557	19661.83
535.923	19728.72
536.288	19743.18
536.653	19909.5
537.019	19841.26
537.384	19902.73
537.749	20027.47
538.114	20055.72
538.479	20191.08
538.845	20373.45
539.21	20317.18
539.575	20352.43
539.94	20501.35
540.305	20590.84
540.67	20580.45
541.034	20646.21
541.399	20712.87
541.764	20866.99
542.129	20932.53
542.494	20932.53
542.858	21139.3
543.223	21213.43
543.587	21293.88
543.952	21212.97
544.316	21363.7
544.681	21404.83
545.045	21462.23
545.41	21608.67
545.774	21724.37
546.138	21642.79
546.503	21815.22
546.867	21793.3
547.231	22048.21
547.595	22016.34
547.959	22120.29
548.324	22080.3
548.688	22148.09
549.052	22290.46
549.416	22443.9
549.779	22465.6
550.143	22568.42
550.507	22646.38
550.871	22640.73
551.235	22671.47
551.599	22905.58
551.962	22948.75
552.326	22986.49
552.689	23071.46
553.053	22928.63
553.417	23078.46
553.78	23382.18
554.143	23329.08
554.507	23425.57
554.87	23422.18
555.234	23634.83
555.597	23578.33
555.96	23755.28
556.323	23760.93
556.686	23823.98
557.05	24037.31
557.413	24145.33
557.776	24035.5
558.139	24362.5
558.502	24364.75
558.865	24394.36
559.228	24637.29
559.59	24694.01
559.953	24858.08
560.316	24966.77
560.679	24974
561.041	25130.61
561.404	25213.77
561.767	25418.96
562.129	25285.41
562.492	25652.4
562.854	25648.56
563.217	25564.5
563.579	25764.49
563.941	25945.73
564.304	26044.26
564.666	26100.98
565.028	26241.77
565.39	26237.93
565.753	26399.05
566.115	26464.81
566.477	26655.09
566.839	26666.16
567.201	26878.59
567.563	26733.28
567.925	27074.74
568.287	26980.73
568.648	27097.11
569.01	27267.73
569.372	27544.56
569.734	27363.77
570.095	27471.34
570.457	27627.72
570.819	27778.45
571.18	27900.71
571.542	28055.96
571.903	27955.39
572.265	28187.25
572.626	28287.14
572.987	28292.79
573.349	28429.05
573.71	28542.05
574.071	28658.2
574.432	28768.71
574.794	29019.1
575.155	28955.14
575.516	28865.43
575.877	29137.51
576.238	29250.05
576.599	29297.51
576.96	29354.45
577.32	29559.87
577.681	29579.53
578.042	29799.41
578.403	29812.3
578.763	29833.31
579.124	29977.26
579.485	30298.84
579.845	30301.1
580.206	30331.15
580.566	30387.87
580.927	30618.83
581.287	30787.64
581.648	30638.49
582.008	30989.89
582.368	30965.03
582.728	31199.6
583.089	31151.02
583.449	31217.46
583.809	31485.47
584.169	31578.8
584.529	31612.93
584.889	32027.38
585.249	31814.73
585.609	31998.9
585.969	32204.32
586.329	32144.21
586.688	32366.13
587.048	32535.61
587.408	32420.36
587.768	32648.83
588.127	32715.27
588.487	32783.52
588.846	33107.12
589.206	33053.79
589.565	33065.77
589.925	33347.12
590.284	33437.74
590.643	33538.07
591.003	33844.96
591.362	33997.27
591.721	34049.25
592.08	34051.96
592.44	34276.81
592.799	34387.54
593.158	34397.49
593.517	34503.25
593.876	34707.76
594.235	34717.48
594.593	34824.82
594.952	34996.79
595.311	35012.61
595.67	35179.16
596.029	35559.26
596.387	35617.57
596.746	35642.2
597.104	35634.52
597.463	35684.46
597.822	36063.88
598.18	35935.3
598.538	36099.14
598.897	36248.51
599.255	36079.25
599.613	36654.15
599.972	36562.4
600.33	36656.18
600.688	36528.28
601.046	36743.41
601.404	37036.96
601.762	37017.3
602.12	37178.43
602.478	37299.33
602.836	37302.04
603.194	37323.06
603.552	37314.47
603.91	37317.41
604.268	37645.54
604.625	37576.84
604.983	37826.77
605.341	37613.67
605.698	37920.1
606.056	38109.25
606.413	38046.88
606.771	38341.56
607.128	38295.46
607.485	38186.76
607.843	38249.81
608.2	38626.75
608.557	38729.35
608.914	38591.5
609.272	38902.45
609.629	38924.37
609.986	38996.46
610.343	38979.74
610.7	39251.6
611.057	39253.4
611.414	39270.35
611.771	39294.98
612.127	39504.92
612.484	39602.55
612.841	39688.19
613.198	39591.7
613.554	39804.57
613.911	40036.21
614.267	40000.73
614.624	39797.8
614.98	40009.09
615.337	40290.44
615.693	40192.59
616.05	40150.55
616.406	40455.41
616.762	40334.5
617.118	40368.85
617.475	40363.66
617.831	40710.09
618.187	40651.78
618.543	40715.06
618.899	41019.01
619.255	40992.11
619.611	41018.78
619.967	41132
620.323	41230.75
620.678	41091.55
621.034	41070.76
621.39	41130.87
621.746	41120.02
622.101	41468.49
622.457	41285.89
622.812	41330.18
623.168	41495.15
623.523	41480.01
623.879	41510.52
624.234	41336.51
624.589	41581.48
624.945	41524.53
625.3	41582.83
625.655	41668.71
626.01	41750.06
626.365	41734.47
626.72	41730.85
627.075	41657.41
627.43	41618.54
627.785	41526.79
628.14	41847.23
628.495	41728.37
628.85	41780.57
629.205	41688.59
629.559	42021.24
629.914	41628.03
630.269	41789.38
630.623	41655.15
630.978	41580.57
631.332	41787.8
631.687	41863.5
632.041	41749.16
632.396	41871.87
632.75	41641.14
633.104	41710.74
633.459	41455.38
633.813	41531.76
634.167	41535.6
634.521	41584.87
634.875	41571.53
635.229	41623.74
635.583	41471.42
635.937	41490.18
636.291	41358.66
636.645	41399.11
636.999	41357.75
637.352	41474.36
637.706	41275.27
638.06	41520.46
638.413	41315.27
638.767	41167.93
639.121	41358.43
639.474	41127.25
639.828	41109.17
640.181	41263.75
640.534	41219.45
640.888	41149.85
641.241	41091.32
641.594	41097.42
641.947	41085.9
642.301	40906.01
642.654	41004.32
643.007	41045.9
643.36	41135.39
643.713	40796.87
644.066	40947.6
644.419	40767.94
644.771	40534.73
645.124	40204.34
645.477	40152.36
645.83	39984.68
646.182	39811.13
646.535	39699.72
646.888	39865.59
647.24	39480.74
647.593	39716.67
647.945	39612.94
648.298	39505.6
648.65	39471.7
649.002	39474.64
649.355	39460.4
649.707	39399.61
650.059	39669.21
650.411	40065.13
650.763	40215.41
651.115	40598.68
651.467	40415.41
651.819	40332.92
652.171	40173.15
652.523	40313.26
652.875	40144.45
653.227	40201.17
653.578	40360.27
653.93	40182.19
654.282	40014.74
654.633	39957.34
654.985	39816.1
655.337	39898.58
655.688	40061.07
656.039	40142.87
656.391	39788.08
656.742	39989.2
657.094	39873.05
657.445	40065.36
657.796	39826.27
658.147	39887.06
658.498	39928.64
658.849	39823.56
659.2	39905.59
659.551	39800.73
659.902	39860.62
660.253	39721.64
660.604	39894.29
660.955	39544.02
661.306	39892.03
661.656	39741.75
662.007	39770.68
662.358	39812.71
662.708	39758.25
663.059	39705.37
663.409	39531.59
663.76	39710.34
664.11	39722.77
664.461	39629.44
664.811	39705.82
665.161	39849.77
665.511	39505.37
665.862	39673.73
666.212	39707.4
666.562	39757.8
666.912	39771.81
667.262	39673.28
667.612	39610.46
667.962	39665.6
668.312	39613.17
668.662	39707.4
669.011	39620.4
669.361	39615.65
669.711	39494.98
670.06	39506.73
670.41	39398.71
670.76	39253.18
671.109	39518.71
671.459	39506.05
671.808	39451.59
672.157	39396
672.507	39240.3
672.856	39169.79
673.205	39147.87
673.554	39301.76
673.904	39213.18
674.253	39358.94
674.602	39212.27
674.951	38767.31
675.3	38624.72
675.649	39208.66
675.998	39144.93
676.346	39137.93
676.695	39249.34
677.044	38958.95
677.393	39084.37
677.741	39114.42
678.09	39083.92
678.438	38893.19
678.787	38982
679.135	38988.33
679.484	38725.96
679.832	38678.73
680.181	38688.9
680.529	38812.06
680.877	38672.18
681.225	38649.13
681.573	38829.46
681.922	38509.92
682.27	38319.64
682.618	38568.45
682.966	38330.72
683.314	38379.75
683.661	38321.22
684.009	38129.59
684.357	38098.18
684.705	38029.25
685.053	37998.97
685.4	38045.98
685.748	37843.5
686.095	37828.36
686.443	37709.04
686.79	37688.02
687.138	37826.1
687.485	37725.31
687.832	37544.3
688.18	37602.15
688.527	37393.34
688.874	37385.43
689.221	37339.55
689.568	37304.98
689.915	37018.89
690.262	37187.24
690.609	37084.19
690.956	36864.77
691.303	36862.05
691.65	36741.83
691.997	36649.18
692.344	36520.37
692.69	36557.43
693.037	36470.88
693.383	36232.92
693.73	36325.8
694.077	36050.55
694.423	36156.08
694.769	35981.17
695.116	35989.76
695.462	35780.05
695.808	35731.91
696.155	35806.04
696.501	35576.89
696.847	35664.8
697.193	35330.12
697.539	35424.8
697.885	35209.67
698.231	35020.07
698.577	35069.56
698.923	35077.47
699.269	34984.81
699.614	34669.57
699.96	34623.02
700.306	34659.17
700.651	34456.47
700.997	34436.81
701.342	34244.95
701.688	34256.02
702.033	34152.07
702.379	34104.39
702.724	33903.71
703.069	34142.58
703.415	33707.56
703.76	33726.54
704.105	33886.09
704.45	33676.37
704.795	33453.33
705.14	33330.62
705.485	33457.4
705.83	33349.38
706.175	33380.56
706.52	33210.85
706.865	33153.22
707.209	33077.29
707.554	32980.35
707.899	33060.8
708.243	32936.96
708.588	32761.37
708.932	32649.06
709.277	32484.54
709.621	32497.87
709.966	32384.88
710.31	32370.19
710.654	32200.03
710.998	32219.92
711.342	32133.14
711.687	32143.76
712.031	32057.66
712.375	31840.49
712.719	31910.77
713.063	31779.02
713.407	31856.54
713.75	31665.13
714.094	31715.3
714.438	31536.09
714.782	31618.35
715.125	31509.43
715.469	31466.71
715.812	31344.68
716.156	31182.88
716.499	31164.12
716.843	31400.95
717.186	31075.09
717.53	31144.46
717.873	30977.46
718.216	31034.86
718.559	30810.24
718.902	30748.54
719.246	30748.09
719.589	30569.79
719.932	30593.07
720.275	30622.44
720.617	30579.96
720.96	30501.32
721.303	30488.21
721.646	30461.32
721.989	30245.28
722.331	30411.83
722.674	30328.21
723.016	30273.07
723.359	30155.11
723.701	30292.96
724.044	29978.39
724.386	29872.63
724.729	29945.4
725.071	29987.43
725.413	29807.32
725.755	29862.01
726.097	29742.01
726.439	29612.3
726.782	29649.81
727.124	29703.37
727.465	29567.33
727.807	29441.23
728.149	29457.73
728.491	29416.83
728.833	29428.12
729.175	29290.05
729.516	29245.3
729.858	29231.52
730.199	29255.7
730.541	29211.41
730.882	29113.56
731.224	29276.26
731.565	28971.64
731.906	28937.29
732.248	28921.92
732.589	28843.73
732.93	28704.75
733.271	28681.25
733.612	28772.32
733.953	28761.25
734.294	28664.08
734.635	28581.37
734.976	28744.53
735.317	28422.28
735.658	28453.91
735.999	28502.05
736.339	28434.25
736.68	28487.58
737.021	28333.69
737.361	28211.89
737.702	28400.35
738.042	28276.52
738.383	28298.21
738.723	28250.08
739.063	28130.31
739.404	28092.57
739.744	27976.86
740.084	27921.27
740.424	27923.76
740.764	27950.88
741.104	27966.02
741.444	27825
741.784	27727.83
742.124	27719.02
742.464	27667.27
742.804	27596.76
743.143	27575.07
743.483	27606.93
743.823	27412.13
744.162	27537.33
744.502	27638.12
744.841	27434.05
745.181	27547.95
745.52	27340.72
745.86	27457.1
746.199	27364.68
746.538	27212.36
746.877	27427.73
747.216	27281.51
747.556	27173.49
747.895	27134.17
748.234	27148.18
748.573	27081.97
748.911	26958.36
749.25	26891.92
749.589	26681.3
749.928	26851.02
750.267	26785.93
750.605	26802.88
750.944	26697.57
751.283	26659.61
751.621	26703
751.96	26577.13
752.298	26468.43
752.636	26573.28
752.975	26423.01
753.313	26236.34
753.651	26262.78
753.989	26224.59
754.327	26269.79
754.666	26073.18
755.004	26124.71
755.342	26124.93
755.679	26051.04
756.017	25971.72
756.355	25978.27
756.693	25886.97
757.031	25851.5
757.368	25698.73
757.706	25665.74
758.044	25638.85
758.381	25624.16
758.719	25449.7
759.056	25614.89
759.394	25397.27
759.731	25126.32
760.068	25166.09
760.405	25091.52
760.743	25119.76
761.08	25094.68
761.417	24835.7
761.754	24908.47
762.091	24796.61
762.428	24704.18
762.765	24592.77
763.102	24591.64
763.438	24517.75
763.775	24395.26
764.112	24366.11
764.449	24470.06
764.785	24256.51
765.122	24130.86
765.458	24001.15
765.795	23877.08
766.131	24029.85
766.467	23874.82
766.804	23769.97
767.14	23643.64
767.476	23763.64
767.812	23662.17
768.148	23517.09
768.485	23367.72
768.821	23274.61
769.157	23213.82
769.492	23047.5
769.828	23269.64
770.164	23006.82
770.5	22962.53
770.836	22870.78
771.171	22707.85
771.507	22735.87
771.842	22617.23
772.178	22547.4
772.513	22556.21
772.849	22398.03
773.184	22263.34
773.519	22328.88
773.855	22179.73
774.19	22039.84
774.525	21948.77
774.86	22063.8
775.195	21940.64
775.53	21873.52
775.865	21627.2
776.2	21586.3
776.535	21450.48
776.87	21438.5
777.205	21331.61
777.539	21233.54
777.874	21360.99
778.209	21186.31
778.543	21063.37
778.878	20920.1
779.212	20880.55
779.547	20823.61
779.881	20812.53
780.215	20720.1
780.55	20681.46
780.884	20665.87
781.218	20601.24
781.552	20515.59
781.886	20467
782.22	20318.99
782.554	20314.47
782.888	20019.33
783.222	20006.9
783.556	20006.9
783.889	19848.26
784.223	19767.14
784.557	19768.49
784.89	19775.05
785.224	19587.25
785.557	19542.06
785.891	19435.84
786.224	19283.98
786.558	19411.44
786.891	19181.39
787.224	19133.71
787.557	19076.31
787.891	19085.12
788.224	19028.62
788.557	18934.84
788.89	18920.38
789.223	18917.67
789.556	18716.32
789.888	18739.59
790.221	18536.43
790.554	18531.01
790.887	18507.06
791.219	18426.61
791.552	18330.79
791.884	18201.53
792.217	18304.8
792.549	18077.01
792.882	18001.08
793.214	17996.79
793.546	17912.04
793.879	17912.95
794.211	17754.76
794.543	17933.06
794.875	17764.48
795.207	17727.64
795.539	17600.86
795.871	17669.34
796.203	17585.95
796.535	17415.11
796.867	17360.87
797.198	17315.9
797.53	17284.04
797.862	17166.3
798.193	17222.57
798.525	16981.9
798.856	17098.51
799.188	16989.13
799.519	16807.21
799.85	16832.07
800.182	16708.23
800.513	16767.89
800.844	16620.33
801.175	16702.13
801.506	16671.17
801.837	16544.62
802.168	16598.86
802.499	16511.4
802.83	16439.09
803.161	16471.4
803.491	16428.92
803.822	16254.69
804.153	16290.62
804.483	16099.89
804.814	16021.02
805.145	16002.26
805.475	16084.07
805.805	15899.21
806.136	15969.5
806.466	15999.1
806.796	15891.53
807.126	15676.85
807.457	15831.87
807.787	15735.38
808.117	15670.52
808.447	15581.03
808.777	15674.36
809.107	15551.65
809.436	15489.28
809.766	15472.56
810.096	15490.19
810.426	15284.77
810.755	15336.52
811.085	15302.39
811.414	15273.47
811.744	15202.06
812.073	15181.72
812.403	15106.24
812.732	15129.29
813.061	15089.74
813.39	14957.77
813.719	14944.89
814.049	15015.4
814.378	14903.99
814.707	14790.32
815.036	14841.16
815.365	14674.61
815.693	14648.4
816.022	14663.32
816.351	14665.12
816.68	14516.43
817.008	14535.63
817.337	14454.96
817.665	14441.17
817.994	14438.24
818.322	14422.64
818.651	14283.66
818.979	14325.47
819.307	14291.35
819.636	14217.68
819.964	14134.06
820.292	14269.88
820.62	14157.34
820.948	14212.25
821.276	14202.99
821.604	14096.1
821.932	14182.42
822.259	14130.22
822.587	14108.98
822.915	14149.43
823.243	14213.38
823.57	14101.52
823.898	14119.6
824.225	14071.01
824.553	14063.1
824.88	14099.94
825.207	14059.26
825.535	14076.89
825.862	14120.73
826.189	14012.71
826.516	14132.48
826.843	14090.22
827.17	14150.11
827.497	14148.75
827.824	14077.34
828.151	14164.8
828.478	14054.97
828.805	14092.26
829.131	14005.71
829.458	13994.41
829.785	13985.59
830.111	14053.16
830.438	14064.91
830.764	14074.18
831.09	14052.26
831.417	14003.9
831.743	14023.33
832.069	14001.41
832.395	13958.7
832.722	14032.6
833.048	13890.91
833.374	13971.81
833.7	13862.43
834.026	13915.99
834.351	13994.41
834.677	13979.94
835.003	13986.95
835.329	13901.98
835.654	13870.34
835.98	13828.99
836.306	13759.38
836.631	13766.16
836.956	13833.05
837.282	13775.2
837.607	13736.79
837.932	13694.75
838.258	13661.76
838.583	13666.73
838.908	13532.27
839.233	13666.96
839.558	13562.33
839.883	13552.16
840.208	13488.43
840.533	13500.41
840.858	13535.89
841.182	13493.85
841.507	13508.54
841.832	13330.02
842.156	13286.63
842.481	13379.96
842.805	13308.1
843.13	13317.14
843.454	13291.83
843.778	13271.49
844.103	13170.47
844.427	13240.08
844.751	13125.28
845.075	13127.99
845.399	13054.32
845.723	12970.25
846.047	13014.77
846.371	12903.59
846.695	12904.27
847.019	12776.81
847.343	12805.28
847.666	12653.42
847.99	12621.33
848.313	12641.67
848.637	12535.91
848.96	12483.71
849.284	12476.93
849.607	12455.69
849.931	12332.75
850.254	12251.4
850.577	12182.48
850.9	12157.62
851.223	12195.36
851.546	12031.29
851.869	11986.1
852.192	12026.55
852.515	11849.38
852.838	11934.8
853.161	11864.52
853.483	11816.16
853.806	11771.19
854.129	11692.77
854.451	11688.7
854.774	11653.68
855.096	11626.11
855.419	11566
855.741	11545.66
856.063	11459.56
856.385	11486.68
856.708	11428.37
857.03	11324.65
857.352	11391.08
857.674	11445.09
857.996	11275.61
858.318	11213.91
858.64	11202.39
858.961	11180.69
859.283	11126.01
859.605	11088.04
859.926	11116.06
860.248	11060.92
860.57	11001.72
860.891	11056.18
861.212	10967.14
861.534	10949.51
861.855	10929.63
862.176	11003.52
862.498	10906.35
862.819	10931.89
863.14	10891.44
863.461	10797.43
863.782	10805.11
864.103	10819.57
864.424	10754.49
864.745	10757.43
865.065	10676.3
865.386	10705.45
865.707	10697.77
866.027	10720.37
866.348	10612.57
866.668	10610.54
866.989	10562.18
867.309	10497.55
867.63	10603.76
867.95	10591.78
868.27	10485.12
868.59	10467.95
868.91	10524.21
869.23	10500.94
869.55	10371.22
869.87	10474.05
870.19	10415.74
870.51	10386.37
870.83	10377.1
871.15	10293.71
871.469	10315.41
871.789	10391.11
872.109	10348.85
872.428	10316.08
872.748	10321.73
873.067	10284
873.386	10284.45
873.706	10225.92
874.025	10165.81
874.344	10130.78
874.663	10276.54
874.982	10245.58
875.301	10147.95
875.62	10149.76
875.939	10089.2
876.258	10062.76
876.577	10017.56
876.896	10078.12
877.214	10034.96
877.533	10042.65
877.852	10003.78
878.17	10030.22
878.489	9959.26
878.807	9999.93
879.125	9924.46
879.444	9945.47
879.762	9862.31
880.08	9966.72
880.398	9880.62
880.716	9856.66
881.034	9816.21
881.352	9805.59
881.67	9792.93
881.988	9825.7
882.306	9795.19
882.624	9680.17
882.941	9731.47
883.259	9708.19
883.577	9653.05
883.894	9598.36
884.212	9593.39
884.529	9554.07
884.846	9535.54
885.164	9521.98
885.481	9529.21
885.798	9541.42
886.115	9401.98
886.432	9453.28
886.75	9443.34
887.067	9435.2
887.383	9417.13
887.7	9378.71
888.017	9298.94
888.334	9363.12
888.651	9292.61
888.967	9306.62
889.284	9208.54
889.6	9216.9
889.917	9148.66
890.233	9210.13
890.55	9131.71
890.866	9207.41
891.182	9138.49
891.498	9053.07
891.815	9043.58
892.131	9007.87
892.447	8993.86
892.763	8983.01
893.079	8992.28
893.395	8874.54
893.71	8878.16
894.026	8826.41
894.342	8845.16
894.657	8762
894.973	8820.53
895.289	8771.27
895.604	8732.85
895.92	8680.65
896.235	8620.08
896.55	8667.31
896.865	8622.12
897.181	8563.81
897.496	8596.36
897.811	8510.26
898.126	8509.58
898.441	8458.28
898.756	8457.6
899.071	8324.95
899.386	8346.19
899.7	8332.63
900.015	8312.52
900.33	8251.28
900.644	8230.49
900.959	8248.57
901.273	8188.91
901.588	8145.52
901.902	8099.87
902.216	8079.76
902.531	8106.88
902.845	8093.32
903.159	8000.67
903.473	7964.73
903.787	7940.55
904.101	7926.99
904.415	7872.08
904.729	7842.48
905.042	7816.94
905.356	7771.07
905.67	7852.42
905.984	7801.35
906.297	7773.1
906.611	7704.18
906.924	7685.65
907.237	7608.59
907.551	7614.91
907.864	7547.8
908.177	7608.59
908.491	7523.62
908.804	7456.27
909.117	7437.52
909.43	7430.28
909.743	7414.92
910.056	7388.03
910.368	7338.54
910.681	7307.12
910.994	7249.27
911.307	7241.14
911.619	7206.34
911.932	7183.96
912.244	7153.23
912.557	7121.37
912.869	7117.07
913.181	7075.94
913.494	7102.84
913.806	7018.32
914.118	7006.12
914.43	6876.18
914.742	6944.2
915.054	6926.57
915.366	6913.01
915.678	6822.84
915.99	6796.63
916.302	6843.18
916.613	6812
916.925	6763.18
917.236	6668.05
917.548	6683.64
917.859	6706.46
918.171	6626.24
918.482	6643.64
918.794	6509.18
919.105	6596.41
919.416	6488.61
919.727	6536.07
920.038	6466.47
920.349	6425.79
920.66	6377.66
920.971	6377.66
921.282	6368.62
921.593	6265.34
921.903	6276.19
922.214	6257.43
922.525	6256.08
922.835	6194.61
923.146	6172.01
923.456	6147.83
923.767	6169.08
924.077	6083.43
924.387	6110.32
924.697	6057.67
925.008	6060.83
925.318	6065.35
925.628	6018.34
925.938	6024.9
926.248	5950.78
926.558	5912.13
926.867	5893.6
927.177	5861.29
927.487	5858.8
927.796	5781.97
928.106	5804.56
928.416	5767.96
928.725	5806.82
929.034	5708.52
929.344	5718.24
929.653	5687.05
929.962	5679.6
930.271	5618.36
930.581	5593.05
930.89	5539.04
931.199	5516.44
931.508	5569.99
931.817	5497
932.125	5508.08
932.434	5469.43
932.743	5423.56
933.051	5437.12
933.36	5346.95
933.669	5396.89
933.977	5321.64
934.286	5320.74
934.594	5330.68
934.902	5270.79
935.21	5254.75
935.519	5199.16
935.827	5227.86
936.135	5213.62
936.443	5112.83
936.751	5122.32
937.059	5122.32
937.367	5135.43
937.674	5104.7
937.982	5024.92
938.29	5027.86
938.597	5062.21
938.905	4949.9
939.213	4994.64
939.52	4902.89
939.827	4998.94
940.135	4934.31
940.442	4886.4
940.749	4850.01
941.056	4861.54
941.363	4771.82
941.67	4836
941.977	4780.19
942.284	4761.65
942.591	4730.47
942.898	4720.98
943.205	4730.02
943.511	4661.09
943.818	4675.78
944.125	4633.3
944.431	4602.11
944.738	4602.34
945.044	4601.21
945.35	4538.38
945.657	4534.77
945.963	4502.45
946.269	4491.15
946.575	4477.59
946.881	4492.96
947.187	4467.65
947.493	4412.06
947.799	4424.04
948.105	4369.57
948.41	4337.71
948.716	4392.4
949.022	4283.7
949.327	4280.99
949.633	4314.66
949.938	4298.39
950.244	4241.67
950.549	4218.39
950.854	4187.66
951.16	4247.09
951.465	4187.43
951.77	4164.16
952.075	4157.38
952.38	4111.05
952.685	4106.53
952.99	4067.21
953.294	4088.9
953.599	4093.65
953.904	4057.04
954.209	4012.3
954.513	4065.85
954.818	3999.19
955.122	3963.26
955.426	3921.9
955.731	3939.53
956.035	3919.42
956.339	3908.8
956.643	3888.23
956.948	3855.92
957.252	3854.11
957.556	3826.99
957.86	3837.84
958.163	3824.96
958.467	3808.01
958.771	3751.74
959.075	3738.86
959.378	3742.25
959.682	3757.16
959.985	3725.75
960.289	3701.12
960.592	3694.79
960.896	3672.64
961.199	3671.74
961.502	3627.67
961.805	3632.87
962.108	3610.27
962.411	3533.66
962.714	3512.42
963.017	3562.14
963.32	3552.42
963.623	3516.26
963.926	3509.26
964.228	3467
964.531	3516.49
964.833	3491.41
965.136	3417.51
965.438	3441.69
965.741	3427.68
966.043	3437.17
966.345	3352.43
966.648	3389.49
966.95	3342.48
967.252	3309.94
967.554	3332.31
967.856	3330.73
968.158	3248.7
968.46	3262.48
968.761	3235.82
969.063	3259.77
969.365	3217.51
969.666	3231.98
969.968	3170.06
970.269	3192.66
970.571	3189.72
970.872	3174.8
971.174	3140.23
971.475	3137.97
971.776	3129.83
972.077	3092.32
972.378	3075.37
972.679	3088.25
972.98	3068.37
973.281	3015.03
973.582	3038.99
973.883	3026.56
974.183	3006.9
974.484	3009.84
974.785	2969.84
975.085	2952.66
975.386	3010.74
975.686	2940.46
975.986	2963.96
976.287	2949.5
976.587	2892.1
976.887	2928.48
977.187	2856.85
977.487	2842.38
977.787	2859.78
978.087	2843.74
978.387	2865.43
978.687	2840.8
978.987	2805.32
979.286	2792.44
979.586	2830.41
979.885	2778.66
980.185	2722.39
980.484	2756.51
980.784	2733.23
981.083	2737.53
981.382	2738.88
981.682	2712.44
981.981	2685.32
982.28	2657.75
982.579	2663.63
982.878	2704.08
983.177	2618.43
983.475	2612.78
983.774	2611.65
984.073	2608.49
984.372	2608.94
984.67	2602.16
984.969	2574.59
985.267	2570.98
985.566	2582.73
985.864	2538.66
986.162	2531.2
986.461	2550.19
986.759	2503.18
987.057	2483.52
987.355	2454.14
987.653	2456.86
987.951	2463.41
988.249	2451.21
988.547	2426.12
988.844	2418.89
989.142	2441.72
989.44	2369.63
989.737	2399.23
990.035	2395.39
990.332	2389.06
990.63	2364.43
990.927	2367.37
991.224	2377.54
991.521	2306.13
991.819	2326.46
992.116	2342.28
992.413	2300.02
992.71	2305.67
993.006	2281.72
993.303	2255.28
993.6	2225.45
993.897	2237.2
994.193	2253.47
994.49	2249.4
994.787	2201.5
995.083	2187.71
995.379	2159.46
995.676	2184.1
995.972	2146.58
996.268	2187.48
996.565	2153.59
996.861	2187.71
997.157	2114.94
997.453	2114.49
997.749	2155.85
998.044	2084.21
998.34	2094.83
998.636	2092.8
998.932	2079.92
999.227	2075.17
999.523	2049.41
999.818	2057.54
1000.114	2046.47
1000.409	2046.47
1000.704	2013.25
1001	1997.43
1001.295	1995.63
1001.59	1991.78
1001.885	2002.4
1002.18	1932.12
1002.475	1938.68
1002.77	1951.33
1003.065	1947.04
1003.359	1898.45
1003.654	1911.33
1003.949	1895.52
1004.243	1876.53
1004.538	1890.32
1004.832	1854.84
1005.127	1852.58
1005.421	1829.98
1005.715	1814.16
1006.009	1823.88
1006.304	1804.22
1006.598	1829.53
1006.892	1793.37
1007.186	1774.61
1007.48	1732.36
1007.773	1753.15
1008.067	1772.58
1008.361	1758.34
1008.655	1746.37
1008.948	1724.22
1009.242	1720.83
1009.535	1698.68
1009.829	1727.61
1010.122	1700.27
1010.415	1640.38
1010.708	1683.54
1011.001	1650.55
1011.295	1648.06
1011.588	1607.84
1011.881	1636.99
1012.173	1661.17
1012.466	1635.18
1012.759	1591.12
1013.052	1574.85
1013.344	1595.41
1013.637	1599.48
1013.93	1580.27
1014.222	1547.28
1014.514	1559.25
1014.807	1549.76
1015.099	1524.68
1015.391	1544.11
1015.683	1528.75
1015.976	1491.01
1016.268	1506.82
1016.56	1500.5
1016.851	1455.98
1017.143	1453.04
1017.435	1469.54
1017.727	1427.05
1018.018	1445.36
1018.31	1433.38
1018.602	1413.04
1018.893	1403.78
1019.185	1410.1
1019.476	1404.91
1019.767	1414.4
1020.058	1351.8
1020.35	1356.09
1020.641	1352.7
1020.932	1366.49
1021.223	1373.04
1021.514	1350.67
1021.804	1318.36
1022.095	1287.17
1022.386	1339.6
1022.677	1314.29
1022.967	1295.3
1023.258	1289.43
1023.548	1291.01
1023.839	1255.53
1024.129	1272.93
1024.419	1210.11
1024.709	1235.42
1025	1220.05
1025.29	1194.74
1025.58	1229.32
1025.87	1186.16
1026.16	1195.42
1026.449	1216.89
1026.739	1194.74
1027.029	1208.98
1027.319	1178.25
1027.608	1171.01
1027.898	1161.07
1028.187	1152.94
1028.477	1136.44
1028.766	1153.84
1029.055	1153.16
1029.344	1129.21
1029.634	1106.16
1029.923	1124.46
1030.212	1117.91
1030.501	1090.11
1030.79	1082.2
1031.078	1053.05
1031.367	1061.86
1031.656	1064.58
1031.945	1030.45
1032.233	1046.95
1032.522	1044.01
1032.81	1053.5
1033.099	1033.39
1033.387	1012.6
1033.675	1032.26
1033.963	1039.04
1034.251	1001.75
1034.54	996.33
1034.828	980.74
1035.116	995.88
1035.403	1002.43
1035.691	976.9
1035.979	961.75
1036.267	950.46
1036.554	950.68
1036.842	940.96
1037.129	928.76
1037.417	950.91
1037.704	951.81
1037.992	933.05
1038.279	902.77
1038.566	919.5
1038.853	919.5
1039.14	919.5
