Data from hue_160_FLMS001491_00076.txt Node
Date: Tue Feb 07 16:51:40 GMT 2017
User: dcchb
Spectrometer: FLMS00149
Trigger mode: 0
Integration Time (sec): 2.000000E-2
Scans to average: 10
Electric dark correction enabled: true
Nonlinearity correction enabled: false
Boxcar width: 0
XAxis mode: Wavelengths
Number of Pixels in Spectrum: 2048
>>>>>Begin Spectral Data<<<<<
341.393	-9.94
341.776	-9.94
342.16	-9.94
342.543	-56.27
342.927	-72.54
343.31	-70.51
343.693	-84.52
344.077	-54.46
344.46	-67.79
344.843	-40.68
345.226	-48.81
345.61	-28.25
345.993	-26.44
346.376	10.17
346.759	13.78
347.142	15.14
347.525	50.17
347.908	44.97
348.291	62.82
348.674	103.27
349.057	121.13
349.44	132.43
349.823	145.76
350.206	175.59
350.588	178.53
350.971	191.86
351.354	206.77
351.737	242.03
352.119	252.87
352.502	264.85
352.884	257.62
353.267	292.42
353.65	289.03
354.032	305.3
354.414	314.79
354.797	322.48
355.179	312.76
355.562	322.7
355.944	318.86
356.326	319.54
356.709	330.61
357.091	328.35
357.473	332.87
357.855	339.43
358.238	318.64
358.62	331.52
359.002	332.19
359.384	322.25
359.766	339.88
360.148	338.75
360.53	296.49
360.912	339.65
361.294	319.77
361.676	326.09
362.057	345.98
362.439	320.67
362.821	322.03
363.203	310.5
363.584	322.03
363.966	295.36
364.348	329.93
364.729	332.65
365.111	322.48
365.493	320.44
365.874	326.55
366.256	292.2
366.637	316.15
367.019	302.82
367.4	312.31
367.781	318.18
368.163	295.36
368.544	320.67
368.925	313.66
369.306	316.6
369.688	312.31
370.069	302.14
370.45	291.97
370.831	293.78
371.212	314.57
371.593	320.67
371.974	290.61
372.355	297.39
372.736	295.13
373.117	324.74
373.498	330.39
373.879	308.24
374.26	307.11
374.641	327.68
375.021	333.32
375.402	317.96
375.783	303.95
376.163	327.9
376.544	341.46
376.925	343.27
377.305	300.56
377.686	340.33
378.066	328.35
378.447	341.46
378.827	331.97
379.208	323.16
379.588	347.79
379.968	293.1
380.349	330.84
380.729	341.23
381.109	327.45
381.489	342.36
381.87	324.06
382.25	348.47
382.63	334.45
383.01	338.52
383.39	338.3
383.77	333.1
384.15	322.93
384.53	346.21
384.91	341.69
385.29	351.63
385.67	347.34
386.049	381.68
386.429	351.63
386.809	334.68
387.189	332.87
387.568	324.29
387.948	342.14
388.328	341.23
388.707	348.01
389.087	336.94
389.466	353.44
389.846	350.95
390.225	360.67
390.605	366.32
390.984	359.99
391.363	360.67
391.743	375.36
392.122	364.28
392.501	379.43
392.881	386.2
393.26	362.02
393.639	381.68
394.018	381.23
394.397	373.55
394.776	385.07
395.155	364.28
395.534	382.81
395.913	390.72
396.292	395.24
396.671	393.89
397.05	383.04
397.429	379.88
397.808	391.4
398.186	397.96
398.565	377.62
398.944	378.97
399.323	379.65
399.701	378.75
400.08	394.11
400.458	416.49
400.837	389.82
401.215	399.09
401.594	390.5
401.972	396.37
402.351	391.4
402.729	408.8
403.107	391.63
403.486	405.64
403.864	400.22
404.242	409.71
404.62	409.71
404.999	419.65
405.377	420.78
405.755	442.93
406.133	425.98
406.511	427.11
406.889	427.56
407.267	446.77
407.645	455.36
408.023	443.6
408.401	425.07
408.779	441.34
409.156	432.76
409.534	437.05
409.912	447.22
410.29	457.62
410.667	454.23
411.045	455.81
411.422	449.48
411.8	478.86
412.178	463.26
412.555	479.54
412.933	489.93
413.31	463.72
413.687	469.82
414.065	468.46
414.442	484.96
414.819	498.07
415.197	485.41
415.574	504.39
415.951	499.65
416.328	507.33
416.705	487.67
417.082	489.03
417.46	518.4
417.837	505.52
418.214	527.44
418.591	518.4
418.967	532.42
419.344	499.87
419.721	528.8
420.098	544.39
420.475	519.53
420.852	531.29
421.228	536.71
421.605	559.53
421.982	551.17
422.358	546.2
422.735	545.52
423.111	545.75
423.488	550.27
423.864	554.11
424.241	581.45
424.617	581
424.994	575.8
425.37	597.72
425.746	571.51
426.123	596.82
426.499	586.65
426.875	582.58
427.251	614.45
427.627	615.13
428.003	621
428.379	621.23
428.756	621.23
429.132	638.4
429.507	618.29
429.883	651.96
430.259	661.68
430.635	650.38
431.011	664.39
431.387	669.81
431.763	672.07
432.138	681.56
432.514	682.02
432.89	692.41
433.265	681.56
433.641	696.48
434.016	703.26
434.392	711.17
434.767	719.76
435.143	714.78
435.518	741.22
435.894	753.43
436.269	762.92
436.644	751.62
437.02	787.1
437.395	777.61
437.77	760.43
438.145	790.04
438.52	797.49
438.895	804.05
439.271	802.46
439.646	830.26
440.021	822.58
440.395	794.56
440.77	834.33
441.145	828
441.52	865.51
441.895	855.12
442.27	860.99
442.645	837.72
443.019	853.54
443.394	871.62
443.769	852.63
444.143	887.43
444.518	883.37
444.892	861.9
445.267	889.24
445.641	932.18
446.016	886.98
446.39	914.1
446.764	932.4
447.139	938.05
447.513	929.92
447.887	931.27
448.262	935.57
448.636	947.55
449.01	952.29
449.384	939.64
449.758	960.88
450.132	987.09
450.506	1004.27
450.88	972.4
451.254	1005.85
451.628	983.25
452.002	1011.95
452.376	1021.44
452.75	1048.56
453.123	1077.26
453.497	1051.72
453.871	1053.53
454.244	1080.42
454.618	1091.04
454.992	1114.32
455.365	1110.48
455.739	1159.74
456.112	1127.43
456.486	1166.3
456.859	1141.21
457.232	1190.7
457.606	1156.13
457.979	1197.03
458.352	1252.85
458.725	1229.8
459.099	1222.79
459.472	1292.4
459.845	1297.37
460.218	1282.9
460.591	1324.03
460.964	1326.74
461.337	1327.65
461.71	1371.26
462.083	1365.84
462.456	1403.8
462.829	1378.49
463.201	1406.74
463.574	1429.79
463.947	1486.06
464.32	1496.01
464.692	1498.04
465.065	1529.45
465.438	1540.3
465.81	1591.14
466.183	1553.18
466.555	1640.41
466.928	1640.18
467.3	1656
467.672	1701.42
468.045	1718.15
468.417	1753.63
468.789	1736.9
469.161	1766.28
469.534	1821.87
469.906	1860.97
470.278	1862.32
470.65	1936.9
471.022	1922.21
471.394	2014.18
471.766	2021.42
472.138	2074.07
472.51	2128.98
472.882	2197.46
473.253	2176.67
473.625	2235.42
473.997	2315.87
474.369	2338.24
474.74	2386.6
475.112	2382.54
475.484	2513.61
475.855	2550.89
476.227	2592.7
476.598	2651.68
476.97	2708.4
477.341	2798.8
477.713	2856.42
478.084	2881.96
478.455	2967.38
478.827	3038.34
479.198	3160.37
479.569	3178.22
479.94	3324.21
480.311	3348.16
480.682	3458.89
481.053	3569.4
481.424	3625.67
481.795	3735.72
482.166	3851.65
482.537	3915.15
482.908	4070.18
483.279	4139.78
483.65	4229.49
484.021	4363.05
484.391	4464.52
484.762	4542.03
485.133	4665.87
485.503	4790.83
485.874	4882.13
486.244	4981.56
486.615	5123.93
486.985	5270.14
487.356	5369.35
487.726	5451.83
488.097	5621.77
488.467	5709.91
488.837	5929.79
489.207	5985.61
489.578	6122.32
489.948	6211.59
490.318	6406.39
490.688	6465.14
491.058	6635.31
491.428	6728.18
491.798	6953.72
492.168	7008.63
492.538	7162.52
492.908	7227.61
493.278	7442.52
493.648	7524.77
494.017	7689.52
494.387	7807.48
494.757	7925.22
495.126	8095.83
495.496	8093.35
495.866	8226.9
496.235	8361.81
496.605	8458.31
496.974	8504.86
497.344	8721.58
497.713	8770.62
498.082	8945.98
498.452	8990.95
498.821	9074.79
499.19	9194.11
499.559	9315.01
499.928	9367.89
500.298	9531.95
500.667	9569.92
501.036	9581.22
501.405	9767.88
501.774	9872.51
502.143	9935.56
502.512	10006.74
502.88	10082.9
503.249	10150.69
503.618	10252.61
503.987	10252.61
504.356	10378.26
504.724	10410.8
505.093	10478.37
505.462	10489.67
505.83	10619.38
506.199	10838.59
506.567	10787.06
506.936	10822.77
507.304	10972.37
507.672	10950.67
508.041	11126.71
508.409	11180.05
508.777	11235.86
509.145	11379.14
509.514	11276.99
509.882	11462.52
510.25	11419.36
510.618	11484.67
510.986	11466.59
511.354	11592.01
511.722	11692.35
512.09	11764.44
512.458	11721.95
512.826	11795.85
513.193	11854.83
513.561	11914.49
513.929	11926.24
514.297	12084.65
514.664	12103.18
515.032	12048.5
515.4	12209.4
515.767	12155.61
516.135	12237.64
516.502	12069.06
516.869	12303.86
517.237	12370.52
517.604	12248.04
517.972	12317.19
518.339	12506.34
518.706	12365.1
519.073	12411.88
519.44	12492.78
519.808	12585.66
520.175	12596.28
520.542	12605.09
520.909	12770.29
521.276	12637.86
521.643	12798.31
522.009	12779.1
522.376	12809.83
522.743	12819.78
523.11	12894.8
523.477	12953.78
523.843	12908.14
524.21	13052.09
524.577	13046.66
524.943	13054.57
525.31	13095.7
525.676	13254.34
526.043	13226.54
526.409	13224.29
526.776	13204.62
527.142	13212.53
527.508	13243.95
527.874	13354.23
528.241	13289.59
528.607	13308.8
528.973	13350.38
529.339	13342.02
529.705	13370.72
530.071	13401
530.437	13425.86
530.803	13392.87
531.169	13474
531.535	13334.56
531.901	13337.28
532.267	13340.67
532.632	13347.67
532.998	13346.99
533.364	13370.27
533.73	13422.7
534.095	13373.89
534.461	13358.97
534.826	13406.65
535.192	13277.39
535.557	13334.11
535.923	13262.93
536.288	13284.85
536.653	13286.2
537.019	13250.05
537.384	13181.57
537.749	13235.36
538.114	13121.01
538.479	13170.05
538.845	13165.76
539.21	13128.02
539.575	13062.26
539.94	13072.2
540.305	13013.9
540.67	13022.03
541.034	12924.63
541.399	13006.89
541.764	12984.97
542.129	12940
542.494	12889.6
542.858	12808.93
543.223	12829.27
543.587	12820.91
543.952	12765.31
544.316	12748.82
544.681	12727.35
545.045	12623.62
545.41	12671.98
545.774	12648.48
546.138	12613.23
546.503	12565.77
546.867	12504.98
547.231	12542.27
547.595	12475.38
547.959	12462.95
548.324	12333.01
548.688	12347.7
549.052	12314.48
549.416	12243.97
549.779	12306.57
550.143	12305.67
550.507	12245.78
550.871	12154.48
551.235	12154.71
551.599	12178.66
551.962	12166.69
552.326	12083.75
552.689	12029.51
553.053	12030.64
553.417	12049.4
553.78	12134.14
554.143	12012.79
554.507	12003.75
554.87	11901.38
555.234	12056.18
555.597	11915.17
555.96	11926.92
556.323	11890.76
556.686	11910.87
557.05	11962.4
557.413	11873.59
557.776	11879.46
558.139	11841.27
558.502	11880.82
558.865	11786.13
559.228	11896.64
559.59	11847.6
559.953	11863.64
560.316	11836.07
560.679	11847.37
561.041	11900.7
561.404	11891.66
561.767	11974.6
562.129	11818.67
562.492	11943.64
562.854	11842.4
563.217	11844.66
563.579	11869.52
563.941	11908.61
564.304	11901.61
564.666	11946.58
565.028	11914.49
565.39	11964.88
565.753	11905
566.115	11952.23
566.477	11976.63
566.839	11930.76
567.201	11928.5
567.563	11992.68
567.925	12000.81
568.287	11971.21
568.648	11973.24
569.01	12030.42
569.372	12036.75
569.734	12066.35
570.095	12072.22
570.457	12027.25
570.819	12144.99
571.18	12122.85
571.542	12156.52
571.903	12149.51
572.265	12132.11
572.626	12178.89
572.987	12229.28
573.349	12178.66
573.71	12197.19
574.071	12172.56
574.432	12216.63
574.794	12323.29
575.155	12207.36
575.516	12264.31
575.877	12207.59
576.238	12239
576.599	12294.37
576.96	12230.41
577.32	12198.55
577.681	12249.17
578.042	12277.42
578.403	12242.84
578.763	12273.12
579.124	12199.91
579.485	12252.33
579.845	12251.43
580.206	12262.5
580.566	12203.29
580.927	12216.85
581.287	12300.24
581.648	12270.19
582.008	12290.52
582.368	12268.6
582.728	12250.53
583.089	12205.33
583.449	12225.44
583.809	12227.02
584.169	12240.13
584.529	12282.84
584.889	12257.08
585.249	12198.78
585.609	12130.75
585.969	12194.48
586.329	12143.86
586.688	12184.09
587.048	12196.97
587.408	12129.85
587.768	12083.3
588.127	12023.41
588.487	12162.62
588.846	12187.02
589.206	12079.91
589.565	12120.81
589.925	12147.03
590.284	12032.68
590.643	12026.12
591.003	12182.05
591.362	12206.91
591.721	12052.56
592.08	12076.07
592.44	12077.87
592.799	12053.24
593.158	12048.72
593.517	12040.59
593.876	12049.17
594.235	12027.93
594.593	12042.17
594.952	12027.03
595.311	12005.11
595.67	12000.59
596.029	12063.41
596.387	12018.89
596.746	12062.28
597.104	11924.21
597.463	11956.97
597.822	11976.86
598.18	11985.9
598.538	11935.28
598.897	12024.77
599.255	11875.62
599.613	12125.1
599.972	12030.19
600.33	11965.11
600.688	11906.81
601.046	11863.42
601.404	11954.71
601.762	11954.94
602.12	12030.42
602.478	12026.12
602.836	12006.01
603.194	11937.09
603.552	12031.32
603.91	11928.5
604.268	11914.94
604.625	11988.61
604.983	11932.34
605.341	11876.3
605.698	11964.43
606.056	11943.87
606.413	11970.31
606.771	11997.88
607.128	11922.4
607.485	11904.32
607.843	11949.97
608.2	11994.26
608.557	12078.33
608.914	11992
609.272	12031.77
609.629	12090.76
609.986	12135.5
610.343	11952.23
610.7	12078.33
611.057	12077.65
611.414	12042.85
611.771	12117.42
612.127	12115.39
612.484	12116.97
612.841	12140.02
613.198	12079.91
613.554	12167.14
613.911	12207.36
614.267	12219.34
614.624	12120.36
614.98	12126.91
615.337	12216.18
615.693	12174.14
616.05	12180.92
616.406	12237.42
616.762	12188.61
617.118	12271.32
617.475	12202.84
617.831	12188.38
618.187	12226.57
618.543	12286
618.899	12243.29
619.255	12286.46
619.611	12278.77
619.967	12344.76
620.323	12401.93
620.678	12269.06
621.034	12285.1
621.39	12361.26
621.746	12248.27
622.101	12397.64
622.457	12216.4
622.812	12334.59
623.168	12312.9
623.523	12316.51
623.879	12378.21
624.234	12269.96
624.589	12293.46
624.945	12298.89
625.3	12334.36
625.655	12363.29
626.01	12361.26
626.365	12328.72
626.72	12268.83
627.075	12231.77
627.43	12322.39
627.785	12201.94
628.14	12281.48
628.495	12299.11
628.85	12276.29
629.205	12197.19
629.559	12374.36
629.914	12206.68
630.269	12196.06
630.623	12187.25
630.978	12237.19
631.332	12112
631.687	12176.63
632.041	12184.99
632.396	12174.6
632.75	12120.59
633.104	12121.04
633.459	12081.26
633.813	12126.23
634.167	12079.46
634.521	12053.92
634.875	12029.29
635.229	12016.86
635.583	11967.14
635.937	11980.7
636.291	11961.04
636.645	11973.24
636.999	11941.61
637.352	11921.27
637.706	11998.78
638.06	12021.6
638.413	11969.85
638.767	11878.78
639.121	11917.43
639.474	11865.22
639.828	11813.7
640.181	11876.52
640.534	11874.04
640.888	11850.31
641.241	11805.57
641.594	11846.24
641.947	11940.03
642.301	11720.14
642.654	11824.1
643.007	11833.59
643.36	11849.63
643.713	11787.49
644.066	11846.69
644.419	11785.68
644.771	11746.81
645.124	11596.98
645.477	11633.82
645.83	11480.83
646.182	11435.41
646.535	11416.87
646.888	11468.85
647.24	11312.92
647.593	11472.24
647.945	11396.08
648.298	11373.49
648.65	11333.04
649.002	11318.12
649.355	11390.21
649.707	11353.15
650.059	11406.25
650.411	11498
650.763	11548.4
651.115	11707.94
651.467	11576.19
651.819	11621.39
652.171	11588.17
652.523	11577.1
652.875	11556.08
653.227	11561.28
653.578	11626.13
653.93	11693.93
654.282	11570.77
654.633	11573.26
654.985	11575.29
655.337	11572.35
655.688	11621.84
656.039	11639.92
656.391	11547.27
656.742	11551.56
657.094	11551.33
657.445	11592.69
657.796	11586.14
658.147	11525.8
658.498	11597.89
658.849	11632.46
659.2	11593.37
659.551	11564.67
659.902	11648.96
660.253	11592.46
660.604	11604.89
660.955	11593.59
661.306	11575.06
661.656	11568.06
662.007	11720.82
662.358	11631.78
662.708	11688.51
663.059	11614.38
663.409	11581.39
663.76	11672.46
664.11	11672.69
664.461	11692.57
664.811	11696.87
665.161	11639.69
665.511	11680.82
665.862	11617.55
666.212	11723.31
666.562	11616.19
666.912	11641.05
667.262	11675.4
667.612	11618.9
667.962	11668.39
668.312	11647.6
668.662	11657.32
669.011	11643.31
669.361	11544.78
669.711	11556.53
670.06	11681.27
670.41	11599.47
670.76	11531.22
671.109	11600.82
671.459	11667.72
671.808	11612.8
672.157	11563.54
672.507	11519.25
672.856	11493.03
673.205	11587.94
673.554	11622.07
673.904	11553.14
674.253	11513.82
674.602	11541.84
674.951	11444.67
675.3	11349.31
675.649	11533.48
675.998	11449.87
676.346	11489.42
676.695	11459.81
677.044	11337.33
677.393	11470.88
677.741	11456.42
678.09	11393.15
678.438	11379.59
678.787	11412.13
679.135	11404.45
679.484	11321.51
679.832	11411.9
680.181	11331.91
680.529	11303.66
680.877	11322.64
681.225	11280.38
681.573	11359.25
681.922	11205.13
682.27	11263.21
682.618	11218.24
682.966	11160.84
683.314	11209.42
683.661	11131.23
684.009	11134.62
684.357	11086.71
684.705	11052.36
685.053	11030.22
685.4	11016.89
685.748	10918.81
686.095	11032.03
686.443	10864.8
686.79	10924.01
687.138	10946.38
687.485	10910.67
687.832	10928.75
688.18	10904.8
688.527	10754.29
688.874	10816.44
689.221	10768.08
689.568	10717.01
689.915	10684.46
690.262	10673.17
690.609	10642.88
690.956	10592.72
691.303	10570.34
691.65	10486.05
691.997	10509.78
692.344	10455.54
692.69	10444.47
693.037	10454.19
693.383	10328.99
693.73	10380.74
694.077	10318.6
694.423	10220.07
694.769	10323.12
695.116	10200.64
695.462	10160.86
695.808	10216.68
696.155	10148.89
696.501	10095.78
696.847	10074.54
697.193	9943.47
697.539	10053.07
697.885	9929.23
698.231	9932.39
698.577	9912.96
698.923	9880.19
699.269	9833.87
699.614	9794.77
699.96	9683.36
700.306	9727.2
700.651	9683.81
700.997	9650.82
701.342	9595.68
701.688	9577.6
702.033	9516.13
702.379	9562.46
702.724	9528.34
703.069	9456.02
703.415	9416.48
703.76	9362.24
704.105	9350.71
704.45	9353.2
704.795	9251.96
705.14	9285.41
705.485	9234.33
705.83	9206.31
706.175	9170.83
706.52	9175.58
706.865	9160.44
707.209	9117.73
707.554	9063.49
707.899	9128.8
708.243	8965.87
708.588	9029.82
708.932	8938.97
709.277	8955.7
709.621	8965.19
709.966	8939.65
710.31	8887
710.654	8771.29
710.998	8877.05
711.342	8799.09
711.687	8814.68
712.031	8732.88
712.375	8728.81
712.719	8771.07
713.063	8722.03
713.407	8718.41
713.75	8741.69
714.094	8668.25
714.438	8609.72
714.782	8651.75
715.125	8605.88
715.469	8578.31
715.812	8592.77
716.156	8554.13
716.499	8586.44
716.843	8561.81
717.186	8473
717.53	8534.24
717.873	8483.39
718.216	8481.58
718.559	8426.22
718.902	8397.75
719.246	8419.21
719.589	8371.76
719.932	8399.1
720.275	8390.06
720.617	8353.23
720.96	8308.48
721.303	8358.2
721.646	8320.69
721.989	8342.61
722.331	8306.22
722.674	8314.36
723.016	8341.25
723.359	8338.09
723.701	8390.51
724.044	8314.36
724.386	8203.4
724.729	8263.96
725.071	8295.6
725.413	8264.42
725.755	8240.69
726.097	8213.12
726.439	8162.72
726.782	8142.16
727.124	8252.21
727.465	8186.9
727.807	8221.48
728.149	8248.82
728.491	8155.04
728.833	8153.68
729.175	8045.44
729.516	8180.35
729.858	8116.4
730.199	8144.42
730.541	8091.54
730.882	8131.09
731.224	8085.89
731.565	8156.4
731.906	8117.75
732.248	8158.88
732.589	8088.15
732.93	8124.08
733.271	8111.65
733.612	8084.99
733.953	8106.45
734.294	8150.29
734.635	8184.42
734.976	8170.41
735.317	8079.11
735.658	8058.77
735.999	8098.09
736.339	8156.62
736.68	8167.47
737.021	8136.74
737.361	8039.34
737.702	8113.68
738.042	8108.04
738.383	8156.85
738.723	8208.82
739.063	8138.32
739.404	8193.91
739.744	8241.82
740.084	8246.11
740.424	8182.38
740.764	8208.82
741.104	8269.16
741.444	8189.62
741.784	8245.43
742.124	8330.63
742.464	8239.11
742.804	8315.94
743.143	8247.92
743.483	8320.23
743.823	8321.82
744.162	8307.35
744.502	8401.81
744.841	8412.21
745.181	8440.46
745.52	8351.19
745.86	8430.51
746.199	8524.3
746.538	8485.65
746.877	8624.86
747.216	8614.46
747.556	8643.61
747.895	8740.79
748.234	8786.66
748.573	8809.71
748.911	8831.41
749.25	8914.57
749.589	8946.66
749.928	9016.49
750.267	9108.01
750.605	9136.03
750.944	9204.05
751.283	9259.42
751.621	9376.25
751.96	9374.44
752.298	9520.2
752.636	9630.71
752.975	9669.8
753.313	9714.32
753.651	9920.42
753.989	9988.66
754.327	10006.52
754.666	10050.13
755.004	10310.46
755.342	10396.79
755.679	10486.96
756.017	10625.03
756.355	10798.59
756.693	10812.82
757.031	11021.18
757.368	11134.85
757.706	11256.65
758.044	11352.47
758.381	11530.54
758.719	11681.95
759.056	11831.78
759.394	11999.68
759.731	12057.08
760.068	12131.21
760.405	12331.65
760.743	12510.18
761.08	12714.69
761.417	12864.52
761.754	12909.72
762.091	13225.87
762.428	13277.84
762.765	13383.83
763.102	13621.11
763.438	13775.01
763.775	13896.13
764.112	14077.37
764.449	14258.83
764.785	14352.16
765.122	14446.17
765.458	14596.68
765.795	14786.73
766.131	14935.65
766.467	15118.02
766.804	15114.63
767.14	15215.87
767.476	15363.89
767.812	15577.67
768.148	15754.39
768.485	15730.21
768.821	15764.11
769.157	15940.37
769.492	16068.73
769.828	16237.54
770.164	16243.64
770.5	16365.9
770.836	16447.93
771.171	16522.28
771.507	16619.45
771.842	16610.41
772.178	16787.36
772.513	16908.48
772.849	17038.87
773.184	17064.18
773.519	17020.57
773.855	17225.08
774.19	17232.77
774.525	17224.41
774.86	17409.26
775.195	17446.55
775.53	17468.24
775.865	17455.13
776.2	17501.23
776.535	17444.74
776.87	17549.37
777.205	17654
777.539	17481.12
777.874	17739.87
778.209	17627.79
778.543	17739.87
778.878	17690.38
779.212	17737.61
779.547	17623.27
779.881	17762.02
780.215	17711.17
780.55	17845.18
780.884	17767.22
781.218	17810.15
781.552	17897.83
781.886	17853.99
782.22	17799.53
782.554	17829.14
782.888	17750.27
783.222	17741.68
783.556	17717.95
783.889	17777.61
784.223	17676.15
784.557	17698.07
784.89	17669.82
785.224	17617.39
785.557	17594.57
785.891	17694.68
786.224	17591.63
786.558	17709.36
786.891	17525.41
787.224	17517.05
787.557	17477.73
787.891	17416.94
788.224	17497.17
788.557	17544.4
788.89	17535.13
789.223	17488.81
789.556	17357.96
789.888	17298.08
790.221	17281.58
790.554	17307.57
790.887	17352.76
791.219	17228.7
791.552	17186.44
791.884	17154.35
792.217	17064.64
792.549	17143.96
792.882	17072.55
793.214	16980.34
793.546	16997.97
793.879	16922.94
794.211	16937.63
794.543	16904.87
794.875	16871.65
795.207	16941.93
795.539	16842.95
795.871	16939.44
796.203	16681.82
796.535	16611.31
796.867	16686.79
797.198	16637.08
797.53	16618.09
797.862	16584.65
798.193	16552.79
798.525	16471.88
798.856	16429.85
799.188	16341.27
799.519	16310.98
799.85	16221.95
800.182	16302.85
800.513	16259.69
800.844	16071.44
801.175	16184.89
801.506	16155.28
801.837	16082.29
802.168	16062.18
802.499	16101.95
802.83	16009.07
803.161	16019.01
803.491	15944.67
803.822	15995.74
804.153	15933.14
804.483	15781.73
804.814	15731.11
805.145	15697.21
805.475	15821.28
805.805	15576.77
806.136	15567.73
806.466	15650.21
806.796	15619.02
807.126	15441.4
807.457	15437.33
807.787	15535.18
808.117	15371.35
808.447	15310.78
808.777	15380.84
809.107	15260.62
809.436	15292.48
809.766	15277.34
810.096	15177
810.426	15225.59
810.755	15155.31
811.085	15105.37
811.414	15148.53
811.744	15032.15
812.073	14952.6
812.403	15009.77
812.732	14932.26
813.061	14975.65
813.39	14914.64
813.719	14797.58
814.049	14859.95
814.378	14794.41
814.707	14788.76
815.036	14802.1
815.365	14679.39
815.693	14623.8
816.022	14558.49
816.351	14593.97
816.68	14587.87
817.008	14539.73
817.337	14486.4
817.665	14446.63
817.994	14441.65
818.322	14562.1
818.651	14367.76
818.979	14228.55
819.307	14415.89
819.636	14349.91
819.964	14294.31
820.292	14387.87
820.62	14323.01
820.948	14189.46
821.276	14263.58
821.604	14275.78
821.932	14319.4
822.259	14272.62
822.587	14186.97
822.915	14232.39
823.243	14336.8
823.57	14294.31
823.898	14224.03
824.225	14219.97
824.553	14218.84
824.88	14322.56
825.207	14243.69
825.535	14228.55
825.862	14276.91
826.189	14299.51
826.516	14259.74
826.843	14346.06
827.17	14247.08
827.497	14264.48
827.824	14226.74
828.151	14320.98
828.478	14338.15
828.805	14421.09
829.131	14281.43
829.458	14233.75
829.785	14153.98
830.111	14243.47
830.438	14313.75
830.764	14317.14
831.09	14410.69
831.417	14319.85
831.743	14253.18
832.069	14265.39
832.395	14059.97
832.722	14216.8
833.048	14142.9
833.374	14264.71
833.7	14127.09
834.026	14074.66
834.351	14140.19
834.677	14187.42
835.003	14184.03
835.329	14196.46
835.654	14128.89
835.98	14087.77
836.306	14127.76
836.631	14020.87
836.956	14029.91
837.282	14076.01
837.607	13919.18
837.932	14048.44
838.258	13995.11
838.583	13989.01
838.908	13858.39
839.233	13882.35
839.558	13865.4
839.883	13804.16
840.208	13814.33
840.533	13805.29
840.858	13796.02
841.182	13732.07
841.507	13797.38
841.832	13669.47
842.156	13753.31
842.481	13662.69
842.805	13545.18
843.13	13624.95
843.454	13559.42
843.778	13483.04
844.103	13428.35
844.427	13483.26
844.751	13441.45
845.075	13410.27
845.399	13403.94
845.723	13328.69
846.047	13296.6
846.371	13201.69
846.695	13225.64
847.019	13076.27
847.343	13032.2
847.666	13051.86
847.99	12918.08
848.313	12918.98
848.637	12792.21
848.96	12777.07
849.284	12717.86
849.607	12753.56
849.931	12642.38
850.254	12582.27
850.577	12493
850.9	12497.07
851.223	12437.64
851.546	12358.32
851.869	12288.49
852.192	12415.94
852.515	12227.25
852.838	12199.68
853.161	12257.53
853.483	12192.9
853.806	12045.78
854.129	12096.18
854.451	11942.74
854.774	11942.06
855.096	11888.05
855.419	11933.47
855.741	11867.03
856.063	11771.89
856.385	11780.48
856.708	11715.17
857.03	11649.41
857.352	11631.78
857.674	11603.99
857.996	11541.17
858.318	11493.48
858.64	11543.2
858.961	11451.68
859.283	11415.29
859.605	11410.32
859.926	11520.38
860.248	11378.91
860.57	11365.58
860.891	11334.17
861.212	11302.3
861.534	11235.18
861.855	11228.86
862.176	11317.89
862.498	11293.94
862.819	11236.77
863.14	11137.79
863.461	11159.25
863.782	11136.43
864.103	11113.83
864.424	11032.93
864.745	11106.6
865.065	11042.65
865.386	10990.9
865.707	10944.57
866.027	11055.08
866.348	10903.67
866.668	10888.3
866.989	10903.67
867.309	10871.8
867.63	10938.47
867.95	10884.69
868.27	10815.76
868.59	10928.75
868.91	10856.66
869.23	10788.64
869.55	10733.73
869.87	10815.31
870.19	10744.35
870.51	10740.06
870.83	10661.87
871.15	10688.98
871.469	10660.28
871.789	10715.65
872.109	10633.62
872.428	10596.33
872.748	10653.96
873.067	10615.99
873.386	10628.87
873.706	10559.5
874.025	10458.93
874.344	10466.84
874.663	10559.27
874.982	10518.14
875.301	10456.67
875.62	10454.19
875.939	10434.98
876.258	10440.86
876.577	10301.88
876.896	10394.08
877.214	10323.8
877.533	10381.65
877.852	10331.71
878.17	10323.57
878.489	10281.99
878.807	10311.14
879.125	10206.06
879.444	10277.47
879.762	10243.12
880.08	10241.54
880.398	10143.01
880.716	10193.63
881.034	10138.72
881.352	10114.76
881.67	10056.91
881.988	10088.32
882.306	10060.07
882.624	10072.28
882.941	9983.92
883.259	9972.62
883.577	9981.21
883.894	9876.58
884.212	9997.48
884.529	9900.53
884.846	9872.73
885.164	9842.23
885.481	9878.84
885.798	9792.51
886.115	9713.19
886.432	9805.84
886.75	9731.04
887.067	9750.03
887.383	9733.3
887.7	9739.63
888.017	9620.76
888.334	9641.55
888.651	9582.35
888.967	9625.74
889.284	9537.83
889.6	9619.63
889.917	9442.46
890.233	9468.9
890.55	9445.4
890.866	9406.53
891.182	9357.95
891.498	9369.47
891.815	9317.04
892.131	9255.12
892.447	9320.88
892.763	9197.72
893.079	9193.66
893.395	9189.14
893.71	9188.01
894.026	9111.85
894.342	9080.21
894.657	9105.3
894.973	9009.03
895.289	9011.29
895.604	9012.64
895.92	8956.6
896.235	8850.61
896.55	8864.17
896.865	8876.83
897.181	8714.57
897.496	8822.14
897.811	8764.74
898.126	8672.09
898.441	8696.72
898.756	8729.71
899.071	8616.95
899.386	8637.74
899.7	8553
900.015	8552.54
900.33	8480
900.644	8493.56
900.959	8503.73
901.273	8459.44
901.588	8373.11
901.902	8312.78
902.216	8365.66
902.531	8349.61
902.845	8245.21
903.159	8253.12
903.473	8204.3
903.787	8217.41
904.101	8164.76
904.415	8095.15
904.729	8089.28
905.042	8067.58
905.356	8011.31
905.67	7989.17
905.984	7935.61
906.297	7931.77
906.611	7944.2
906.924	7930.86
907.237	7887.25
907.551	7803.41
907.864	7772.45
908.177	7720.7
908.491	7725.22
908.804	7701.72
909.117	7610.42
909.43	7643.19
909.743	7586.02
910.056	7576.75
910.368	7525.9
910.681	7530.42
910.994	7440.03
911.307	7396.64
911.619	7372.69
911.932	7386.92
912.244	7297.21
912.557	7317.55
912.869	7276.64
913.181	7213.82
913.494	7241.62
913.806	7223.99
914.118	7201.39
914.43	7090.66
914.742	7129.53
915.054	7062.19
915.366	7066.48
915.678	7007.05
915.99	6988.29
916.302	6926.15
916.613	6900.61
916.925	6890.44
917.236	6885.47
917.548	6821.52
917.859	6858.35
918.171	6819.26
918.482	6731.12
918.794	6770.22
919.105	6742.42
919.416	6685.93
919.727	6680.5
920.038	6665.81
920.349	6594.63
920.66	6513.5
920.971	6602.54
921.282	6545.36
921.593	6495.65
921.903	6452.71
922.214	6431.24
922.525	6425.59
922.835	6441.64
923.146	6336.33
923.456	6351.25
923.767	6316.9
924.077	6331.13
924.387	6352.83
924.697	6222.66
925.008	6178.59
925.318	6200.97
925.628	6202.77
925.938	6081.2
926.248	6064.02
926.558	6082.33
926.867	6077.35
927.177	6057.24
927.487	6014.08
927.796	5957.36
928.106	5946.96
928.416	5969.79
928.725	5877.13
929.034	5860.86
929.344	5918.94
929.653	5891.14
929.962	5793.75
930.271	5836.46
930.581	5687.53
930.89	5809.34
931.199	5691.38
931.508	5677.82
931.817	5675.56
932.125	5636.91
932.434	5666.29
932.743	5592.85
933.051	5543.81
933.36	5562.57
933.669	5539.97
933.977	5556.46
934.286	5532.06
934.594	5464.49
934.902	5436.69
935.21	5426.3
935.519	5392.63
935.827	5388.56
936.135	5318.5
936.443	5369.35
936.751	5292.74
937.059	5325.74
937.367	5224.95
937.674	5287.77
937.982	5249.58
938.29	5219.52
938.597	5195.34
938.905	5140.88
939.213	5119.64
939.52	5098.62
939.827	5109.02
940.135	5077.61
940.442	5041.68
940.749	5094.1
941.056	5051.84
941.363	4956.71
941.67	4953.99
941.977	4905.18
942.284	4917.84
942.591	4891.85
942.898	4881.45
943.205	4836.26
943.511	4812.98
943.818	4799.87
944.125	4813.21
944.431	4751.51
944.738	4717.39
945.044	4751.51
945.35	4685.75
945.657	4703.83
945.963	4689.59
946.269	4647.56
946.575	4611.18
946.881	4606.88
947.187	4588.35
947.493	4596.04
947.799	4542.25
948.105	4515.59
948.41	4528.24
948.716	4518.53
949.022	4460.45
949.327	4453.89
949.633	4456.15
949.938	4420
950.244	4405.08
950.549	4343.61
950.854	4384.52
951.16	4392.65
951.465	4310.17
951.77	4294.35
952.075	4283.96
952.38	4263.84
952.685	4277.4
952.99	4205.77
953.294	4237.18
953.599	4186.56
953.904	4211.41
954.209	4086.45
954.513	4146.78
954.818	4104.75
955.122	4120.12
955.426	4132.55
955.731	4102.49
956.035	4075.6
956.339	4042.83
956.643	4048.93
956.948	4004.41
957.252	3936.17
957.556	4004.19
957.86	3976.17
958.163	3950.18
958.467	3960.8
958.771	3913.8
959.075	3902.95
959.378	3867.24
959.682	3842.16
959.985	3833.57
960.289	3824.98
960.592	3833.35
960.896	3791.76
961.199	3790.63
961.502	3776.62
961.805	3741.6
962.108	3721.26
962.411	3719.68
962.714	3702.28
963.017	3693.69
963.32	3685.55
963.623	3649.85
963.926	3666.34
964.228	3634.71
964.531	3622.28
964.833	3647.81
965.136	3576.4
965.438	3527.14
965.741	3555.84
966.043	3552.45
966.345	3543.64
966.648	3491.66
966.95	3513.81
967.252	3472.68
967.554	3440.14
967.856	3450.76
968.158	3412.57
968.46	3435.39
968.761	3369.18
969.063	3349.52
969.365	3391.55
969.666	3370.76
969.968	3333.92
970.269	3322.4
970.571	3317.2
970.872	3313.13
971.174	3258.67
971.475	3302.51
971.776	3232.46
972.077	3211.44
972.378	3201.95
972.679	3222.97
972.98	3174.38
973.281	3175.51
973.582	3211.44
973.883	3194.94
974.183	3146.13
974.484	3158.11
974.785	3072.91
975.085	3110.65
975.386	3114.27
975.686	3081.73
975.986	3094.16
976.287	3069.07
976.587	3017.1
976.887	3043.54
977.187	3027.49
977.487	2974.39
977.787	2970.32
978.087	2935.29
978.387	2957.44
978.687	2926.7
978.987	2892.81
979.286	2904.33
979.586	2911.56
979.885	2870.21
980.185	2853.48
980.484	2837.21
980.784	2874.95
981.083	2793.6
981.382	2833.37
981.682	2817.78
981.981	2796.31
982.28	2798.34
982.579	2750.89
982.878	2785.46
983.177	2695.07
983.475	2724.9
983.774	2723.09
984.073	2717.89
984.372	2683.77
984.67	2656.65
984.969	2684.9
985.267	2637.9
985.566	2658.46
985.864	2632.02
986.162	2625.69
986.461	2608.29
986.759	2604.9
987.057	2572.36
987.355	2563.77
987.653	2562.42
987.951	2567.84
988.249	2561.51
988.547	2569.42
988.844	2537.56
989.142	2487.62
989.44	2499.82
989.737	2498.24
990.035	2472.48
990.332	2471.35
990.63	2458.01
990.927	2447.39
991.224	2468.18
991.521	2423.89
991.819	2393.38
992.116	2389.54
992.413	2385.93
992.71	2350.22
993.006	2329.88
993.303	2319.04
993.6	2331.24
993.897	2296.21
994.193	2317.23
994.49	2310.9
994.787	2316.32
995.083	2285.36
995.379	2279.26
995.676	2262.77
995.972	2207.85
996.268	2258.92
996.565	2246.95
996.861	2233.61
997.157	2223.67
997.453	2218.47
997.749	2187.97
998.044	2171.02
998.34	2168.76
998.636	2158.59
998.932	2159.49
999.227	2144.35
999.523	2112.03
999.818	2126.95
1000.114	2115.2
1000.409	2081.08
1000.704	2095.31
1001	2123.79
1001.295	2047.63
1001.59	2049.89
1001.885	2049.66
1002.18	1994.3
1002.475	2023.68
1002.77	2008.99
1003.065	1989.55
1003.359	1981.42
1003.654	1957.91
1003.949	1967.86
1004.243	1951.59
1004.538	1950.91
1004.832	1905.94
1005.127	1883.34
1005.421	1918.37
1005.715	1904.58
1006.009	1881.08
1006.304	1915.88
1006.598	1882.66
1006.892	1864.13
1007.186	1850.8
1007.48	1829.56
1007.773	1825.94
1008.067	1809.44
1008.361	1793.85
1008.655	1752.27
1008.948	1775.77
1009.242	1808.31
1009.535	1787.3
1009.829	1764.7
1010.122	1750.91
1010.415	1746.39
1010.708	1711.14
1011.001	1724.93
1011.295	1690.35
1011.588	1707.98
1011.881	1689.9
1012.173	1658.71
1012.466	1673.63
1012.759	1655.78
1013.052	1642.22
1013.344	1621.43
1013.637	1626.17
1013.93	1634.08
1014.222	1608.32
1014.514	1616
1014.807	1591.82
1015.099	1595.89
1015.391	1573.97
1015.683	1562.9
1015.976	1582.11
1016.268	1526.06
1016.56	1502.79
1016.851	1513.86
1017.143	1519.28
1017.435	1491.26
1017.727	1513.63
1018.018	1486.97
1018.31	1473.63
1018.602	1458.49
1018.893	1460.3
1019.185	1447.42
1019.476	1435.22
1019.767	1427.08
1020.058	1433.86
1020.35	1413.3
1020.641	1390.25
1020.932	1378.72
1021.223	1384.14
1021.514	1379.17
1021.804	1346.86
1022.095	1381.21
1022.386	1332.62
1022.677	1336.01
1022.967	1326.97
1023.258	1314.32
1023.548	1299.4
1023.839	1296.01
1024.129	1277.03
1024.419	1251.72
1024.709	1279.06
1025	1271.38
1025.29	1265.5
1025.58	1226.63
1025.87	1242.23
1026.16	1253.98
1026.449	1209.91
1026.739	1208.33
1027.029	1220.53
1027.319	1196.8
1027.608	1225.05
1027.898	1184.38
1028.187	1207.43
1028.477	1151.83
1028.766	1164.72
1029.055	1172.4
1029.344	1160.2
1029.634	1139.63
1029.923	1139.86
1030.212	1128.78
1030.501	1115.22
1030.79	1114.77
1031.078	1109.8
1031.367	1091.27
1031.656	1086.75
1031.945	1104.15
1032.233	1068.67
1032.522	1063.7
1032.81	1096.92
1033.099	1063.47
1033.387	1054.89
1033.675	1056.7
1033.963	1047.2
1034.251	1046.3
1034.54	1052.4
1034.828	1030.48
1035.116	1013.98
1035.403	996.36
1035.691	994.1
1035.979	1004.95
1036.267	988
1036.554	977.38
1036.842	984.38
1037.129	963.36
1037.417	988
1037.704	960.88
1037.992	958.62
1038.279	960.2
1038.566	933.31
1038.853	933.31
1039.14	933.31
