Data from hue_280_FLMS001491_00020.txt Node
Date: Tue Feb 07 15:54:55 GMT 2017
User: dcchb
Spectrometer: FLMS00149
Trigger mode: 0
Integration Time (sec): 2.000000E-2
Scans to average: 10
Electric dark correction enabled: true
Nonlinearity correction enabled: false
Boxcar width: 0
XAxis mode: Wavelengths
Number of Pixels in Spectrum: 2048
>>>>>Begin Spectral Data<<<<<
341.393	-26.86
341.776	-26.86
342.16	-26.86
342.543	-56.24
342.927	-67.31
343.31	-68.22
343.693	-73.64
344.077	-87.65
344.46	-65.73
344.843	-37.03
345.226	-44.04
345.61	-59.41
345.993	-23.47
346.376	0.03
346.759	26.92
347.142	33.25
347.525	47.48
347.908	66.69
348.291	81.83
348.674	85.45
349.057	117.54
349.44	135.17
349.823	135.39
350.206	175.62
350.588	176.75
350.971	211.1
351.354	208.16
351.737	214.26
352.119	231.66
352.502	250.42
352.884	251.55
353.267	271.66
353.65	283.64
354.032	299.23
354.414	273.92
354.797	324.77
355.179	314.14
355.562	308.49
355.944	311.88
356.326	349.85
356.709	329.74
357.091	306.91
357.473	347.36
357.855	339.45
358.238	337.87
358.62	339.68
359.002	334.48
359.384	346.91
359.766	329.51
360.148	317.31
360.53	341.49
360.912	349.17
361.294	332.9
361.676	336.97
362.057	354.6
362.439	342.84
362.821	327.25
363.203	323.18
363.584	324.54
363.966	324.31
364.348	318.44
364.729	322.28
365.111	317.31
365.493	306.46
365.874	326.57
366.256	318.89
366.637	319.79
367.019	320.92
367.4	310.53
367.781	315.95
368.163	322.05
368.544	287.03
368.925	299.68
369.306	289.96
369.688	307.14
370.069	313.69
370.45	306.46
370.831	321.38
371.212	314.82
371.593	324.77
371.974	314.82
372.355	297.2
372.736	303.07
373.117	311.88
373.498	308.04
373.879	298.55
374.26	291.32
374.641	312.11
375.021	302.17
375.402	313.92
375.783	339.68
376.163	318.44
376.544	323.86
376.925	328.61
377.305	323.18
377.686	328.61
378.066	318.44
378.447	314.6
378.827	343.3
379.208	335.16
379.588	346.91
379.968	350.98
380.349	306.23
380.729	318.66
381.109	351.66
381.489	355.5
381.87	313.24
382.25	357.98
382.63	335.61
383.01	348.49
383.39	343.07
383.77	331.77
384.15	327.25
384.53	354.37
384.91	339.45
385.29	343.75
385.67	337.42
386.049	338.78
386.429	356.86
386.809	355.27
387.189	365.44
387.568	361.6
387.948	368.15
388.328	367.48
388.707	343.52
389.087	366.35
389.466	351.43
389.846	366.12
390.225	377.87
390.605	375.16
390.984	391.43
391.363	372
391.743	367.93
392.122	362.73
392.501	366.57
392.881	374.26
393.26	381.49
393.639	396.18
394.018	377.19
394.397	404.76
394.776	375.16
395.155	376.29
395.534	405.89
395.913	385.78
396.292	396.63
396.671	376.74
397.05	391.43
397.429	412.67
397.808	389.4
398.186	404.99
398.565	400.24
398.944	433.24
399.323	417.64
399.701	394.14
400.08	423.97
400.458	411.99
400.837	398.66
401.215	429.85
401.594	409.73
401.972	431.43
402.351	416.97
402.729	441.37
403.107	437.76
403.486	462.84
403.864	462.61
404.242	447.25
404.62	439.79
404.999	475.72
405.377	439.11
405.755	459
406.133	453.35
406.511	464.2
406.889	470.75
407.267	446.57
407.645	474.59
408.023	471.2
408.401	496.06
408.779	479.79
409.156	506.68
409.534	502.61
409.912	520.24
410.29	525.89
410.667	526.79
411.045	548.71
411.422	549.17
411.8	558.43
412.178	569.05
412.555	550.07
412.933	546.91
413.31	577.19
413.687	577.64
414.065	571.09
414.442	588.71
414.819	618.09
415.197	600.24
415.574	597.53
415.951	613.35
416.328	644.98
416.705	651.99
417.082	654.25
417.46	642.95
417.837	645.21
418.214	667.81
418.591	682.27
418.967	698.54
419.344	669.84
419.721	683.17
420.098	691.54
420.475	715.49
420.852	735.83
421.228	726.11
421.605	741.25
421.982	743.96
422.358	743.74
422.735	771.76
423.111	771.76
423.488	784.87
423.864	787.58
424.241	806.56
424.617	834.36
424.994	820.57
425.37	829.61
425.746	863.96
426.123	875.94
426.499	864.64
426.875	861.47
427.251	865.54
427.627	909.61
428.003	922.49
428.379	928.14
428.756	954.13
429.132	946.67
429.507	936.73
429.883	972.21
430.259	960.91
430.635	991.64
431.011	978.31
431.387	985.99
431.763	1024.63
432.138	1027.8
432.514	1044.97
432.89	1073.22
433.265	1089.27
433.641	1078.42
434.016	1107.57
434.392	1115.25
434.767	1113.9
435.143	1153.22
435.518	1172.43
435.894	1169.94
436.269	1185.08
436.644	1209.26
437.02	1223.27
437.395	1238.64
437.77	1237.51
438.145	1253.78
438.52	1258.98
438.895	1293.33
439.271	1315.93
439.646	1354.79
440.021	1362.7
440.395	1343.5
440.77	1334
441.145	1373.78
441.52	1397.51
441.895	1389.82
442.27	1411.06
442.645	1401.8
443.019	1403.61
443.394	1393.44
443.769	1432.08
444.143	1429.14
444.518	1442.93
444.892	1473.21
445.267	1472.98
445.641	1484.06
446.016	1484.96
446.39	1457.39
446.764	1498.75
447.139	1517.5
447.513	1536.03
447.887	1520.44
448.262	1512.53
448.636	1558.41
449.01	1539.87
449.384	1567.22
449.758	1584.85
450.132	1570.38
450.506	1592.08
450.88	1620.1
451.254	1596.14
451.628	1633.43
452.002	1637.5
452.376	1641.34
452.75	1674.33
453.123	1668.68
453.497	1683.15
453.871	1700.32
454.244	1759.53
454.618	1699.19
454.992	1754.78
455.365	1734.67
455.739	1773.54
456.112	1798.4
456.486	1811.51
456.859	1822.13
457.232	1865.29
457.606	1865.74
457.979	1870.49
458.352	1921.56
458.725	1938.96
459.099	1914.55
459.472	1936.25
459.845	1922.92
460.218	1985.29
460.591	1972.86
460.964	1998.85
461.337	1977.38
461.71	2047.21
462.083	2086.98
462.456	2106.19
462.829	2072.52
463.201	2119.97
463.574	2137.37
463.947	2135.79
464.32	2159.75
464.692	2225.51
465.065	2191.38
465.438	2190.25
465.81	2252.62
466.183	2262.12
466.555	2277.26
466.928	2296.47
467.3	2328.33
467.672	2326.97
468.045	2383.92
468.417	2390.7
468.789	2394.99
469.161	2433.86
469.534	2457.14
469.906	2499.62
470.278	2538.27
470.65	2542.33
471.022	2551.83
471.394	2563.58
471.766	2608.77
472.138	2672.5
472.51	2671.6
472.882	2712.73
473.253	2760.18
473.625	2750.92
473.997	2823.91
474.369	2824.13
474.74	2838.15
475.112	2889.9
475.484	2918.6
475.855	2952.72
476.227	2975.54
476.598	3016.9
476.97	3066.84
477.341	3114.3
477.713	3120.4
478.084	3154.07
478.455	3232.03
478.827	3298.25
479.198	3319.04
479.569	3341.86
479.94	3400.62
480.311	3434.51
480.682	3491.01
481.053	3545.7
481.424	3594.51
481.795	3613.72
482.166	3621.18
482.537	3693.26
482.908	3742.3
483.279	3783.43
483.65	3750.89
484.021	3876.76
484.391	3848.74
484.762	3914.28
485.133	3939.59
485.503	3978.23
485.874	4062.75
486.244	4106.59
486.615	4141.61
486.985	4239.24
487.356	4250.76
487.726	4259.8
488.097	4318.33
488.467	4300.71
488.837	4448.72
489.207	4431.1
489.578	4531.89
489.948	4531.21
490.318	4558.55
490.688	4587.7
491.058	4660.47
491.428	4668.83
491.798	4724.65
492.168	4777.08
492.538	4838.09
492.908	4824.53
493.278	4904.31
493.648	4872.89
494.017	4938.88
494.387	5048.26
494.757	5018.88
495.126	5027.47
495.496	5040.8
495.866	5115.6
496.235	5139.33
496.605	5187.46
496.974	5158.31
497.344	5237.63
497.713	5262.94
498.082	5283.28
498.452	5330.51
498.821	5293.22
499.19	5348.14
499.559	5362.6
499.928	5417.29
500.298	5389.27
500.667	5455.48
501.036	5448.47
501.405	5523.72
501.774	5497.28
502.143	5554.68
502.512	5571.18
502.88	5599.88
503.249	5623.84
503.618	5637.62
503.987	5641.91
504.356	5686.88
504.724	5704.06
505.093	5763.72
505.462	5752.42
505.83	5743.61
506.199	5793.55
506.567	5785.41
506.936	5833.1
507.304	5874.9
507.672	5883.26
508.041	5838.74
508.409	5890.95
508.777	5938.18
509.145	5894.11
509.514	5935.47
509.882	6009.59
510.25	5997.16
510.618	6067.21
510.986	6096.59
511.354	6064.05
511.722	6103.82
512.09	6192.86
512.458	6104.95
512.826	6158.06
513.193	6144.27
513.561	6170.71
513.929	6203.93
514.297	6214.55
514.664	6343.82
515.032	6320.31
515.4	6359.18
515.767	6312.4
516.135	6320.99
516.502	6278.51
516.869	6411.84
517.237	6437.15
517.604	6367.09
517.972	6438.28
518.339	6470.82
518.706	6414.55
519.073	6469.69
519.44	6511.04
519.808	6503.81
520.175	6537.26
520.542	6611.61
520.909	6606.86
521.276	6592.17
521.643	6689.34
522.009	6675.33
522.376	6653.19
522.743	6767.31
523.11	6761.21
523.477	6760.08
523.843	6792.84
524.21	6863.35
524.577	6932.95
524.943	6899.73
525.31	6925.04
525.676	6913.74
526.043	7020.18
526.409	6935.21
526.776	7090.92
527.142	7128.65
527.508	7105.83
527.874	7120.07
528.241	7139.95
528.607	7162.1
528.973	7170.01
529.339	7182.89
529.705	7271.25
530.071	7323.45
530.437	7367.07
530.803	7346.95
531.169	7373.39
531.535	7361.87
531.901	7377.69
532.267	7453.84
532.632	7495.65
532.998	7478.93
533.364	7525.03
533.73	7526.38
534.095	7595.08
534.461	7606.83
534.826	7666.27
535.192	7629.66
535.557	7658.81
535.923	7611.81
536.288	7653.16
536.653	7678.7
537.019	7647.06
537.384	7722.31
537.749	7755.98
538.114	7734.74
538.479	7716.21
538.845	7774.51
539.21	7768.64
539.575	7788.98
539.94	7793.72
540.305	7836.66
540.67	7808.64
541.034	7878.24
541.399	7912.81
541.764	7896.32
542.129	7890.89
542.494	7908.97
542.858	7927.73
543.223	7991.46
543.587	8077.56
543.952	7995.07
544.316	7992.13
544.681	8009.31
545.045	8009.31
545.41	8115.07
545.774	8059.03
546.138	8111
546.503	8080.04
546.867	8143.09
547.231	8148.97
547.595	8202.75
547.959	8158.23
548.324	8176.76
548.688	8157.33
549.052	8186.48
549.416	8152.81
549.779	8224.9
550.143	8262.86
550.507	8238.68
550.871	8247.72
551.235	8310.54
551.599	8418.34
551.962	8338.34
552.326	8331.33
552.689	8406.59
553.053	8420.82
553.417	8426.93
553.78	8430.09
554.143	8422.86
554.507	8518.45
554.87	8467.6
555.234	8540.82
555.597	8446.13
555.96	8465.57
556.323	8551.44
556.686	8557.77
557.05	8577.2
557.413	8591.89
557.776	8637.77
558.139	8651.1
558.502	8661.5
558.865	8684.32
559.228	8739.91
559.59	8711.89
559.953	8739.01
560.316	8869.85
560.679	8818.78
561.041	8849.29
561.404	8912.11
561.767	8880.25
562.129	8860.13
562.492	9044.99
562.854	8972.45
563.217	8931.32
563.579	8988.72
563.941	9008.38
564.304	9055.38
564.666	9118.43
565.028	9148.71
565.39	9149.39
565.753	9211.54
566.115	9216.74
566.477	9302.38
566.839	9277.52
567.201	9343.74
567.563	9301.7
567.925	9381.93
568.287	9412.89
568.648	9416.5
569.01	9461.93
569.372	9564.75
569.734	9504.86
570.095	9578.53
570.457	9605.65
570.819	9630.51
571.18	9670.06
571.542	9748.25
571.903	9757.74
572.265	9766.33
572.626	9715.03
572.987	9777.17
573.349	9804.97
573.71	9863.27
574.071	9922.71
574.432	9981.91
574.794	10074.34
575.155	10042.7
575.516	9977.84
575.877	10151.63
576.238	10120.44
576.599	10208.12
576.96	10204.51
577.32	10292.64
577.681	10293.77
578.042	10351.85
578.403	10332.19
578.763	10423.26
579.124	10428.45
579.485	10560.88
579.845	10582.12
580.206	10576.47
580.566	10635
580.927	10628
581.287	10719.97
581.648	10693.08
582.008	10859.86
582.368	10848.78
582.728	10896.46
583.089	10936.46
583.449	10986.41
583.809	11085.84
584.169	11153.18
584.529	11077.93
584.889	11227.76
585.249	11228.66
585.609	11276.79
585.969	11390.01
586.329	11439.5
586.688	11505.94
587.048	11548.88
587.408	11591.59
587.768	11667.74
588.127	11707.07
588.487	11722.66
588.846	11878.36
589.206	11924.91
589.565	11990.9
589.925	12019.6
590.284	12131.23
590.643	12221.63
591.003	12285.13
591.362	12436.99
591.721	12430.44
592.08	12439.25
592.44	12540.04
592.799	12609.87
593.158	12650.09
593.517	12668.17
593.876	12770.77
594.235	12836.98
594.593	12923.98
594.952	12956.3
595.311	13027.71
595.67	13136.41
596.029	13148.61
596.387	13281.94
596.746	13305.89
597.104	13312.67
597.463	13388.38
597.822	13536.17
598.18	13449.39
598.538	13534.81
598.897	13694.81
599.255	13678.99
599.613	13873.11
599.972	13796.73
600.33	13824.75
600.688	13905.2
601.046	13929.38
601.404	14021.58
601.762	14091.86
602.12	14231.29
602.478	14208.92
602.836	14189.71
603.194	14207.56
603.552	14247.79
603.91	14163.05
604.268	14328.47
604.625	14337.28
604.983	14474.22
605.341	14387.67
605.698	14522.36
606.056	14614.11
606.413	14592.64
606.771	14663.6
607.128	14682.58
607.485	14645.74
607.843	14660.21
608.2	14775.01
608.557	14825.4
608.914	14761
609.272	14982.46
609.629	14958.28
609.986	15078.5
610.343	14944.49
610.7	15134.77
611.057	15059.75
611.414	15150.36
611.771	15108.33
612.127	15227.42
612.484	15187.43
612.841	15279.4
613.198	15275.11
613.554	15289.8
613.911	15440.75
614.267	15450.7
614.624	15404.59
614.98	15439.85
615.337	15484.14
615.693	15487.76
616.05	15446.18
616.406	15605.27
616.762	15551.71
617.118	15580.18
617.475	15619.96
617.831	15573.63
618.187	15695.89
618.543	15641.88
618.899	15773.85
619.255	15716.9
619.611	15772.04
619.967	15737.47
620.323	15682.78
620.678	15732.72
621.034	15730.91
621.39	15738.15
621.746	15694.98
622.101	15939.72
622.457	15869.44
622.812	15833.28
623.168	15914.19
623.523	15880.29
623.879	15988.76
624.234	15848.2
624.589	15984.92
624.945	15990.79
625.3	15979.04
625.655	16038.25
626.01	16035.76
626.365	15928.87
626.72	16038.48
627.075	16003.45
627.43	15937.24
627.785	15973.62
628.14	16006.16
628.495	16023.56
628.85	15960.51
629.205	15903.11
629.559	16064.01
629.914	15946.73
630.269	15908.99
630.623	15941.76
630.978	15854.3
631.332	15886.16
631.687	15904.69
632.041	15842.32
632.396	15947.41
632.75	15851.14
633.104	15950.12
633.459	15894.3
633.813	15751.7
634.167	15790.8
634.521	15815.88
634.875	15832.15
635.229	15815.88
635.583	15760.29
635.937	15697.69
636.291	15649.33
636.645	15746.51
636.999	15546.29
637.352	15709.67
637.706	15597.13
638.06	15724.36
638.413	15629.67
638.767	15579.96
639.121	15606.17
639.474	15456.8
639.828	15560.98
640.181	15607.08
640.534	15647.75
640.888	15644.59
641.241	15490.02
641.594	15485.72
641.947	15562.78
642.301	15484.14
642.654	15480.75
643.007	15600.75
643.36	15483.01
643.713	15409.57
644.066	15462.45
644.419	15415.89
644.771	15232.17
645.124	15176.35
645.477	15062.01
645.83	15022.46
646.182	15075.34
646.535	14965.96
646.888	15002.8
647.24	14843.25
647.593	14939.3
647.945	14987.66
648.298	14930.94
648.65	14900.43
649.002	14865.63
649.355	14997.37
649.707	14901.33
650.059	15017.49
650.411	15182.91
650.763	15196.01
651.115	15368.44
651.467	15338.16
651.819	15323.02
652.171	15348.1
652.523	15222.45
652.875	15273.75
653.227	15228.55
653.578	15304.94
653.93	15349.91
654.282	15283.47
654.633	15272.17
654.985	15271.27
655.337	15313.07
655.688	15343.58
656.039	15374.99
656.391	15192.85
656.742	15249.34
657.094	15311.26
657.445	15332.51
657.796	15272.4
658.147	15277.14
658.498	15328.44
658.849	15376.57
659.2	15279.85
659.551	15310.81
659.902	15303.13
660.253	15371.83
660.604	15300.42
660.955	15298.84
661.306	15375.67
661.656	15372.51
662.007	15296.58
662.358	15336.35
662.708	15254.32
663.059	15382
663.409	15342.9
663.76	15375.22
664.11	15334.31
664.461	15400.98
664.811	15422.45
665.161	15309.46
665.511	15356.46
665.862	15367.53
666.212	15481.2
666.562	15407.76
666.912	15439.62
667.262	15359.17
667.612	15388.78
667.962	15420.87
668.312	15380.41
668.662	15396.01
669.011	15392.39
669.361	15268.55
669.711	15365.5
670.06	15333.86
670.41	15336.35
670.76	15277.37
671.109	15365.73
671.459	15290.25
671.808	15250.47
672.157	15240.08
672.507	15252.28
672.856	15194.66
673.205	15218.84
673.554	15324.15
673.904	15168.44
674.253	15388.32
674.602	15319.17
674.951	15067.65
675.3	14870.15
675.649	15152.85
675.998	15124.6
676.346	15183.36
676.695	15213.64
677.044	15017.26
677.393	15147.43
677.741	15149.69
678.09	15078.05
678.438	15017.49
678.787	15035.79
679.135	15151.72
679.484	15010.93
679.832	15052.74
680.181	14841.22
680.529	14978.84
680.877	15032.4
681.225	14987.66
681.573	14893.2
681.922	14968.22
682.27	14813.65
682.618	14881.9
682.966	14793.54
683.314	14754.89
683.661	14770.26
684.009	14663.15
684.357	14674.22
684.705	14600.55
685.053	14624.95
685.4	14586.99
685.748	14585.63
686.095	14663.37
686.443	14445.75
686.79	14379.76
687.138	14431.06
687.485	14441
687.832	14385.64
688.18	14442.59
688.527	14253.66
688.874	14234.68
689.221	14219.99
689.568	14170.96
689.915	14180.45
690.262	14148.36
690.609	14042.82
690.956	14017.29
691.303	14059.77
691.65	13949.72
691.997	13887.35
692.344	13825.88
692.69	13845.31
693.037	13817.52
693.383	13732.55
693.73	13806.22
694.077	13627.01
694.423	13609.39
694.769	13596.05
695.116	13518.54
695.462	13579.33
695.808	13471.54
696.155	13522.61
696.501	13364.65
696.847	13293.46
697.193	13269.74
697.539	13269.28
697.885	13120.36
698.231	13081.04
698.577	13149.06
698.923	13125.11
699.269	13033.36
699.614	12775.51
699.96	12886.7
700.306	12827.71
700.651	12765.57
700.997	12724.89
701.342	12765.57
701.688	12698.23
702.033	12622.3
702.379	12585.46
702.724	12563.77
703.069	12509.76
703.415	12418.01
703.76	12411
704.105	12410.55
704.45	12365.35
704.795	12260.27
705.14	12212.59
705.485	12191.8
705.83	12176.66
706.175	12238.8
706.52	12145.47
706.865	12065.02
707.209	12049.65
707.554	11975.98
707.899	12037.23
708.243	11960.84
708.588	11910.22
708.932	11792.03
709.277	11818.93
709.621	11825.25
709.966	11716.56
710.31	11708.42
710.654	11636.33
710.998	11724.69
711.342	11678.37
711.687	11607.18
712.031	11543
712.375	11585.94
712.719	11564.47
713.063	11583
713.407	11597.01
713.75	11450.57
714.094	11511.82
714.438	11512.49
714.782	11454.87
715.125	11460.07
715.469	11453.06
715.812	11331.93
716.156	11290.35
716.499	11246.51
716.843	11310.47
717.186	11231.37
717.53	11333.52
717.873	11236.57
718.216	11168.1
718.559	11126.97
718.902	11156.57
719.246	11161.99
719.589	11140.98
719.932	11066.18
720.275	11079.74
720.617	11033.18
720.96	11045.84
721.303	11059.17
721.646	11134.88
721.989	10962.9
722.331	10947.31
722.674	10903.47
723.016	11020.08
723.359	10931.27
723.701	10969.91
724.044	10868.9
724.386	10858.73
724.729	10943.24
725.071	10846.07
725.413	10914.77
725.755	10818.27
726.097	10847.2
726.439	10778.05
726.782	10891.72
727.124	10877.93
727.465	10784.38
727.807	10790.25
728.149	10823.92
728.491	10817.82
728.833	10818.05
729.175	10701.22
729.516	10790.48
729.858	10762.91
730.199	10726.98
730.541	10772.4
730.882	10791.83
731.224	10814.66
731.565	10775.11
731.906	10782.34
732.248	10757.71
732.589	10663.02
732.93	10689.46
733.271	10757.03
733.612	10584.83
733.953	10722.68
734.294	10699.63
734.635	10692.18
734.976	10746.41
735.317	10633.65
735.658	10689.24
735.999	10744.15
736.339	10624.16
736.68	10725.85
737.021	10704.15
737.361	10670.93
737.702	10776.24
738.042	10702.12
738.383	10706.19
738.723	10885.62
739.063	10694.89
739.404	10820.08
739.744	10791.61
740.084	10751.38
740.424	10811.27
740.764	10729.01
741.104	10865.28
741.444	10784.6
741.784	10749.58
742.124	10858.27
742.464	10806.75
742.804	10842.68
743.143	10832.51
743.483	10933.07
743.823	10865.73
744.162	10928.1
744.502	10949.57
744.841	10931.04
745.181	11041.77
745.52	11089.23
745.86	11130.58
746.199	11148.21
746.538	11164.93
746.877	11270.69
747.216	11315.44
747.556	11366.96
747.895	11339.17
748.234	11474.3
748.573	11451.03
748.911	11463.23
749.25	11620.74
749.589	11711.58
749.928	11804.46
750.267	11828.87
750.605	11914.29
750.944	11915.42
751.283	12033.16
751.621	12144.57
751.96	12197.45
752.298	12288.74
752.636	12412.13
752.975	12465.24
753.313	12477.67
753.651	12718.56
753.989	12790.88
754.327	12839.92
754.666	12875.62
755.004	13068.61
755.342	13195.84
755.679	13391.09
756.017	13427.92
756.355	13573.68
756.693	13721.25
757.031	13902.71
757.368	13977.06
757.706	14116.95
758.044	14286.43
758.381	14436.48
758.719	14466.54
759.056	14706.76
759.394	14792.86
759.731	14903.37
760.068	15071.27
760.405	15240.98
760.743	15288.67
761.08	15481.2
761.417	15684.36
761.754	15876.9
762.091	15854.75
762.428	16018.82
762.765	16092.03
763.102	16400.73
763.438	16386.04
763.775	16615.18
764.112	16743.32
764.449	16925.91
764.785	17023.08
765.122	17114.83
765.458	17121.39
765.795	17403.19
766.131	17469.17
766.467	17572.9
766.804	17702.39
767.14	17678.43
767.476	17909.84
767.812	17916.62
768.148	18122.72
768.485	18184.41
768.821	18184.86
769.157	18370.84
769.492	18375.36
769.828	18491.29
770.164	18437.06
770.5	18681.57
770.836	18729.71
771.171	18696.26
771.507	18808.12
771.842	18818.74
772.178	18970.6
772.513	19020.55
772.849	19054.67
773.184	19013.77
773.519	19216.7
773.855	19138.51
774.19	19150.71
774.525	19157.49
774.86	19298.73
775.195	19346.41
775.53	19329.24
775.865	19339.86
776.2	19277.49
776.535	19279.07
776.87	19292.85
777.205	19346.86
777.539	19269.35
777.874	19394.09
778.209	19240.43
778.543	19402.23
778.878	19281.78
779.212	19380.76
779.547	19278.62
779.881	19291.72
780.215	19343.25
780.55	19469.57
780.884	19299.41
781.218	19303.25
781.552	19313.42
781.886	19246.98
782.22	19230.48
782.554	19166.53
782.888	19081.11
783.222	19088.79
783.556	19100.77
783.889	19120.88
784.223	19069.36
784.557	19058.74
784.89	19035.69
785.224	18972.18
785.557	18871.17
785.891	18862.36
786.224	18885.18
786.558	18861.23
786.891	18742.81
787.224	18757.5
787.557	18735.81
787.891	18666.43
788.224	18638.63
788.557	18715.24
788.89	18644.28
789.223	18749.82
789.556	18535.59
789.888	18470.05
790.221	18539.65
790.554	18432.76
790.887	18374.91
791.219	18372.43
791.552	18341.69
791.884	18298.3
792.217	18226.22
792.549	18098.08
792.882	18084.98
793.214	18033.68
793.546	18068.93
793.879	17881.14
794.211	17883.63
794.543	17966.79
794.875	17955.04
795.207	17938.99
795.539	17770.86
795.871	17824.87
796.203	17671.88
796.535	17534.03
796.867	17528.83
797.198	17634.59
797.53	17606.8
797.862	17433.02
798.193	17522.51
798.525	17346.46
798.856	17394.6
799.188	17245.45
799.519	17217.43
799.85	17094.72
800.182	17135.4
800.513	17253.81
800.844	16968.4
801.175	17068.51
801.506	17058.11
801.837	16954.61
802.168	16876.65
802.499	16907.83
802.83	16755.97
803.161	16739.48
803.491	16722.3
803.822	16743.99
804.153	16635.98
804.483	16562.08
804.814	16534.73
805.145	16532.47
805.475	16487.28
805.805	16433.49
806.136	16322.76
806.466	16373.38
806.796	16319.37
807.126	16172.48
807.457	16148.98
807.787	16223.1
808.117	16144.46
808.447	16218.36
808.777	16147.85
809.107	16038.25
809.436	15986.27
809.766	16004.81
810.096	15978.59
810.426	15886.39
810.755	15876.45
811.085	15825.83
811.414	15770.01
811.744	15733.63
812.073	15699.5
812.403	15793.06
812.732	15677.13
813.061	15618.6
813.39	15615.44
813.719	15573.86
814.049	15629.22
814.378	15505.84
814.707	15403.69
815.036	15455.44
815.365	15392.17
815.693	15358.95
816.022	15232.85
816.351	15295.45
816.68	15165.05
817.008	15254.54
817.337	15150.36
817.665	15059.52
817.994	15100.65
818.322	15039.63
818.651	14992.4
818.979	14933.87
819.307	15038.05
819.636	14998.05
819.964	14838.51
820.292	14898.17
820.62	14916.25
820.948	14894.33
821.276	14955.34
821.604	14956.25
821.932	14922.8
822.259	14938.62
822.587	14919.18
822.915	14834.44
823.243	14792.63
823.57	14832.63
823.898	14812.29
824.225	14858.39
824.553	14806.87
824.88	14857.72
825.207	14812.52
825.535	14862.91
825.862	14856.81
826.189	14744.05
826.516	14922.35
826.843	14833.76
827.17	14901.78
827.497	14835.57
827.824	14831.73
828.151	14906.53
828.478	14917.38
828.805	14884.38
829.131	14807.77
829.458	14763.93
829.785	14736.82
830.111	14784.95
830.438	14882.35
830.764	14838.28
831.09	14883.7
831.417	14714.9
831.743	14813.2
832.069	14774.1
832.395	14633.09
832.722	14712.86
833.048	14767.1
833.374	14676.93
833.7	14624.5
834.026	14662.24
834.351	14741.34
834.677	14628.8
835.003	14614.56
835.329	14577.05
835.654	14636.48
835.98	14589.7
836.306	14595.58
836.631	14537.27
836.956	14509.7
837.282	14609.14
837.607	14562.81
837.932	14509.25
838.258	14522.81
838.583	14517.39
838.908	14408.01
839.233	14497.5
839.558	14387.9
839.883	14317.84
840.208	14206.43
840.533	14364.4
840.858	14401.23
841.182	14343.61
841.507	14318.97
841.832	14191.97
842.156	14206.89
842.481	14238.98
842.805	14171.86
843.13	14109.49
843.454	14150.62
843.778	14037.4
844.103	14034.91
844.427	13910.62
844.751	13982.71
845.075	13903.39
845.399	13864.97
845.723	13940.68
846.047	13817.97
846.371	13708.14
846.695	13768.48
847.019	13585.89
847.343	13601.93
847.666	13451.43
847.99	13415.95
848.313	13451.65
848.637	13295.27
848.96	13227.25
849.284	13316.51
849.607	13127.82
849.931	13171.43
850.254	13032.23
850.577	12968.05
850.9	12885.79
851.223	12840.37
851.546	12795.17
851.869	12786.58
852.192	12789.3
852.515	12660.03
852.838	12696.64
853.161	12643.31
853.483	12562.86
853.806	12527.16
854.129	12435.63
854.451	12465.69
854.774	12418.01
855.096	12358.57
855.419	12383.21
855.741	12283.32
856.063	12242.19
856.385	12216.2
856.708	12188.86
857.03	12117.45
857.352	12168.3
857.674	12016.66
857.996	12048.07
858.318	11968.3
858.64	12017.57
858.961	11922.2
859.283	11943.67
859.605	11797.68
859.926	11871.81
860.248	11820.73
860.57	11750.23
860.891	11793.62
861.212	11667.74
861.534	11687.4
861.855	11651.47
862.176	11721.98
862.498	11626.16
862.819	11604.24
863.14	11600.85
863.461	11613.96
863.782	11485.83
864.103	11537.35
864.424	11543.23
864.745	11492.16
865.065	11456.22
865.386	11415.1
865.707	11390.46
866.027	11411.93
866.348	11401.54
866.668	11375.77
866.989	11286.29
867.309	11262.56
867.63	11312.73
867.95	11279.28
868.27	11129.91
868.59	11191.6
868.91	11163.35
869.23	11176.68
869.55	11143.92
869.87	11186.85
870.19	11160.41
870.51	11184.37
870.83	11139.62
871.15	11006.97
871.469	11015.11
871.789	11018.5
872.109	10981.66
872.428	10993.86
872.748	11040.64
873.067	11018.95
873.386	11000.87
873.706	10989.8
874.025	10953.86
874.344	10886.3
874.663	10867.77
874.982	10819.4
875.301	10881.32
875.62	10794.77
875.939	10789.58
876.258	10764.26
876.577	10701.89
876.896	10854.43
877.214	10688.56
877.533	10733.98
877.852	10691.05
878.17	10702.35
878.489	10696.02
878.807	10716.13
879.125	10602.69
879.444	10597.72
879.762	10566.53
880.08	10591.16
880.398	10525.18
880.716	10536.47
881.034	10528.11
881.352	10536.02
881.67	10519.98
881.988	10478.17
882.306	10422.35
882.624	10347.1
882.941	10373.99
883.259	10265.07
883.577	10338.51
883.894	10270.72
884.212	10255.35
884.529	10241.57
884.846	10256.71
885.164	10246.76
885.481	10192.3
885.798	10143.72
886.115	10051.06
886.432	10114.79
886.75	10065.75
887.067	10074.11
887.383	10032.98
887.7	9995.02
888.017	10020.78
888.334	9913.44
888.651	9821.01
888.967	9926.32
889.284	9813.33
889.6	9862.14
889.917	9770.39
890.233	9776.49
890.55	9708.25
890.866	9758.64
891.182	9721.58
891.498	9725.2
891.815	9663.5
892.131	9611.07
892.447	9536.05
892.763	9615.59
893.079	9508.03
893.395	9451.31
893.71	9507.8
894.026	9510.29
894.342	9422.15
894.657	9377.63
894.973	9324.08
895.289	9359.56
895.604	9283.85
895.92	9231.88
896.235	9252.89
896.55	9284.3
896.865	9170.41
897.181	9158.88
897.496	9163.4
897.811	9127.92
898.126	9042.28
898.441	9006.12
898.756	8979.91
899.071	9006.12
899.386	8903.97
899.7	8859.91
900.015	8893.35
900.33	8820.81
900.644	8759.8
900.959	8820.14
901.273	8690.65
901.588	8701.27
901.902	8645.68
902.216	8638.67
902.531	8588.95
902.845	8577.43
903.159	8516.87
903.473	8483.42
903.787	8489.3
904.101	8374.95
904.415	8408.62
904.729	8381.73
905.042	8349.64
905.356	8309.87
905.67	8312.35
905.984	8270.55
906.297	8261.05
906.611	8169.08
906.924	8166.37
907.237	8124.56
907.551	8101.74
907.864	8064.9
908.177	8072.58
908.491	8027.16
908.804	7936.09
909.117	7889.54
909.43	7885.24
909.743	7853.83
910.056	7899.71
910.368	7734.29
910.681	7802.31
910.994	7760.28
911.307	7722.09
911.619	7649.09
911.932	7637.79
912.244	7566.16
912.557	7571.58
912.869	7527.97
913.181	7513.95
913.494	7489.55
913.806	7457.23
914.118	7391.92
914.43	7395.54
914.742	7367.74
915.054	7311.47
915.366	7292.94
915.678	7251.36
915.99	7219.27
916.302	7195.32
916.613	7116.68
916.925	7139.5
917.236	7128.88
917.548	7080.07
917.859	7091.59
918.171	7086.4
918.482	7013.63
918.794	6964.36
919.105	6985.16
919.416	6963.23
919.727	6905.16
920.038	6855.22
920.349	6819.51
920.66	6805.95
920.971	6831.04
921.282	6767.76
921.593	6705.39
921.903	6671.04
922.214	6658.38
922.525	6571.38
922.835	6624.49
923.146	6525.51
923.456	6587.88
923.767	6582.23
924.077	6512.85
924.387	6492.51
924.697	6385.4
925.008	6398.5
925.318	6406.64
925.628	6352.63
925.938	6325.29
926.248	6254.55
926.558	6318.96
926.867	6245.06
927.177	6269.69
927.487	6193.09
927.796	6125.74
928.106	6143.37
928.416	6120.32
928.725	6162.58
929.034	6061.34
929.344	6108.12
929.653	6044.16
929.962	5979.53
930.271	5935.92
930.581	5980.66
930.89	5900.89
931.199	5903.15
931.508	5930.04
931.817	5881.46
932.125	5875.13
932.434	5809.82
932.743	5734.11
933.051	5722.14
933.36	5716.26
933.669	5662.48
933.977	5674.23
934.286	5648.02
934.594	5622.48
934.902	5615.47
935.21	5575.93
935.519	5584.29
935.827	5516.95
936.135	5497.74
936.443	5452.99
936.751	5507.68
937.059	5455.25
937.367	5431.52
937.674	5400.11
937.982	5404.86
938.29	5371.64
938.597	5357.18
938.905	5265.88
939.213	5277.18
939.52	5256.84
939.827	5255.26
940.135	5207.12
940.442	5214.13
940.749	5212.55
941.056	5184.52
941.363	5128.71
941.67	5131.19
941.977	5097.52
942.284	5050.52
942.591	5058.88
942.898	5063.4
943.205	5033.34
943.511	4975.49
943.818	4934.14
944.125	4946.56
944.431	4920.58
944.738	4881.03
945.044	4859.34
945.35	4817.08
945.657	4845.78
945.963	4833.8
946.269	4776.4
946.575	4803.29
946.881	4731.2
947.187	4723.29
947.493	4668.15
947.799	4704.54
948.105	4676.97
948.41	4637.65
948.716	4636.06
949.022	4600.59
949.327	4639.45
949.633	4543.41
949.938	4566.24
950.244	4570.53
950.549	4527.82
950.854	4474.49
951.16	4485.56
951.465	4414.15
951.77	4471.78
952.075	4427.93
952.38	4378.22
952.685	4388.39
952.99	4333.02
953.294	4373.25
953.599	4307.71
953.904	4302.06
954.209	4261.16
954.513	4284.21
954.818	4223.87
955.122	4188.62
955.426	4187.26
955.731	4176.19
956.035	4128.28
956.339	4123.31
956.643	4147.72
956.948	4095.06
957.252	4077.44
957.556	4062.75
957.86	4064.55
958.163	4070.66
958.467	3996.31
958.771	4007.83
959.075	4011.45
959.378	3969.87
959.682	3977.78
959.985	3894.16
960.289	3939.13
960.592	3871.34
960.896	3856.2
961.199	3844.45
961.502	3880.6
961.805	3850.1
962.108	3804.45
962.411	3781.85
962.714	3769.65
963.017	3775.52
963.32	3757.67
963.623	3727.16
963.926	3730.78
964.228	3710.21
964.531	3670.21
964.833	3648.75
965.136	3659.59
965.438	3617.79
965.741	3609.88
966.043	3589.31
966.345	3597.45
966.648	3587.05
966.95	3566.49
967.252	3538.69
967.554	3513.16
967.856	3512.48
968.158	3504.34
968.46	3454.17
968.761	3474.06
969.063	3468.64
969.365	3471.12
969.666	3430.45
969.968	3367.4
970.269	3404.23
970.571	3386.15
970.872	3359.94
971.174	3336.44
971.475	3361.97
971.776	3327.4
972.077	3303.44
972.378	3302.99
972.679	3292.82
972.98	3255.99
973.281	3241.3
973.582	3235.88
973.883	3241.52
974.183	3230.9
974.484	3196.1
974.785	3164.69
975.085	3174.86
975.386	3202.2
975.686	3135.31
975.986	3129.66
976.287	3106.61
976.587	3058.03
976.887	3095.09
977.187	3074.3
977.487	3090.34
977.787	3047.18
978.087	3027.97
978.387	2999.72
978.687	3011.02
978.987	2982.77
979.286	2988.65
979.586	2973.06
979.885	2919.05
980.185	2969.44
980.484	2909.33
980.784	2912.04
981.083	2874.53
981.382	2863.23
981.682	2870.46
981.981	2861.2
982.28	2849.67
982.579	2811.71
982.878	2837.24
983.177	2818.49
983.475	2824.59
983.774	2753.63
984.073	2763.12
984.372	2756.11
984.67	2734.19
984.969	2748.66
985.267	2742.56
985.566	2712.73
985.864	2690.8
986.162	2696.45
986.461	2677.02
986.759	2671.37
987.057	2649.9
987.355	2627.08
987.653	2618.72
987.951	2594.76
988.249	2622.33
988.547	2581.88
988.844	2553.18
989.142	2546.4
989.44	2548.21
989.737	2512.5
990.035	2525.39
990.332	2519.74
990.63	2465.73
990.927	2481.54
991.224	2464.6
991.521	2440.19
991.819	2448.33
992.116	2436.8
992.413	2428.44
992.71	2412.62
993.006	2370.14
993.303	2407.2
993.6	2378.72
993.897	2382.56
994.193	2376.24
994.49	2374.66
994.787	2328.78
995.083	2314.77
995.379	2325.39
995.676	2320.87
995.972	2266.86
996.268	2251.72
996.565	2274.54
996.861	2267.54
997.157	2264.15
997.453	2246.3
997.749	2212.4
998.044	2223.47
998.34	2169.24
998.636	2180.08
998.932	2126.07
999.227	2145.06
999.523	2146.64
999.818	2107.09
1000.114	2138.73
1000.409	2090.59
1000.704	2083.36
1001	2089.46
1001.295	2089.01
1001.59	2070.48
1001.885	2065.06
1002.18	2046.3
1002.475	2051.5
1002.77	2035.23
1003.065	2038.17
1003.359	2022.35
1003.654	1984.83
1003.949	1977.15
1004.243	1986.42
1004.538	1952.52
1004.832	1954.55
1005.127	1906.64
1005.421	1909.36
1005.715	1910.71
1006.009	1919.53
1006.304	1880.2
1006.598	1891.5
1006.892	1897.83
1007.186	1858.74
1007.48	1864.39
1007.773	1843.37
1008.067	1832.52
1008.361	1830.94
1008.655	1801.34
1008.948	1825.07
1009.242	1774.9
1009.535	1778.51
1009.829	1765.63
1010.122	1795.91
1010.415	1748.68
1010.708	1763.37
1011.001	1741.68
1011.295	1717.5
1011.588	1707.78
1011.881	1712.3
1012.173	1690.38
1012.466	1697.84
1012.759	1671.62
1013.052	1670.27
1013.344	1652.87
1013.637	1648.57
1013.93	1630.72
1014.222	1634.11
1014.514	1635.69
1014.807	1592.3
1015.099	1583.72
1015.391	1575.35
1015.683	1563.38
1015.976	1556.82
1016.268	1540.1
1016.56	1541.91
1016.851	1539.42
1017.143	1510.5
1017.435	1549.37
1017.727	1510.05
1018.018	1500.55
1018.31	1493.32
1018.602	1485.64
1018.893	1466.2
1019.185	1450.39
1019.476	1461.46
1019.767	1453.78
1020.058	1422.36
1020.35	1436.15
1020.641	1416.26
1020.932	1425.3
1021.223	1405.19
1021.514	1383.72
1021.804	1353.44
1022.095	1354.57
1022.386	1366.09
1022.677	1373.1
1022.967	1370.16
1023.258	1324.06
1023.548	1308.69
1023.839	1332.2
1024.129	1299.88
1024.419	1289.49
1024.709	1293.55
1025	1294.01
1025.29	1260.56
1025.58	1284.51
1025.87	1252.2
1026.16	1258.53
1026.449	1237.06
1026.739	1234.35
1027.029	1232.54
1027.319	1236.38
1027.608	1216.95
1027.898	1219.43
1028.187	1190.51
1028.477	1198.64
1028.766	1157.96
1029.055	1166.78
1029.344	1170.39
1029.634	1154.8
1029.923	1176.72
1030.212	1124.07
1030.501	1154.57
1030.79	1112.09
1031.078	1125.65
1031.367	1126.78
1031.656	1096.5
1031.945	1118.64
1032.233	1100.34
1032.522	1095.37
1032.81	1092.88
1033.099	1055.14
1033.387	1055.14
1033.675	1045.65
1033.963	1045.2
1034.251	1023.73
1034.54	1028.93
1034.828	1041.58
1035.116	1011.53
1035.403	1047.01
1035.691	1020.34
1035.979	986.67
1036.267	1014.69
1036.554	985.54
1036.842	1002.71
1037.129	979.44
1037.417	961.58
1037.704	962.49
1037.992	967.46
1038.279	941.25
1038.566	956.61
1038.853	956.61
1039.14	956.61
