Data from hue_270_FLMS001491_00039.txt Node
Date: Tue Feb 07 15:57:07 GMT 2017
User: dcchb
Spectrometer: FLMS00149
Trigger mode: 0
Integration Time (sec): 2.000000E-2
Scans to average: 10
Electric dark correction enabled: true
Nonlinearity correction enabled: false
Boxcar width: 0
XAxis mode: Wavelengths
Number of Pixels in Spectrum: 2048
>>>>>Begin Spectral Data<<<<<
341.393	-22.65
341.776	-22.65
342.16	-22.65
342.543	-63.78
342.927	-75.53
343.31	-56.33
343.693	-87.29
344.077	-48.42
344.46	-59.26
344.843	-54.52
345.226	-56.1
345.61	-28.53
345.993	-23.33
346.376	-18.14
346.759	19.15
347.142	31.58
347.525	34.52
347.908	61.41
348.291	81.07
348.674	107.29
349.057	96.89
349.44	109.77
349.823	126.27
350.206	163.78
350.588	183.22
350.971	211.46
351.354	214.63
351.737	229.99
352.119	259.37
352.502	250.78
352.884	273.61
353.267	274.06
353.65	277.45
354.032	293.72
354.414	305.02
354.797	290.56
355.179	306.15
355.562	308.86
355.944	344.12
356.326	320.61
356.709	321.52
357.091	315.87
357.473	325.58
357.855	317
358.238	330.78
358.62	319.03
359.002	329.2
359.384	302.53
359.766	332.36
360.148	355.41
360.53	319.48
360.912	340.27
361.294	334.17
361.676	335.98
362.057	334.4
362.439	332.82
362.821	328.75
363.203	332.14
363.584	310.67
363.966	318.81
364.348	311.12
364.729	316.32
365.111	319.94
365.493	310.22
365.874	321.29
366.256	312.7
366.637	308.18
367.019	325.13
367.4	293.72
367.781	285.36
368.163	288.98
368.544	314.51
368.925	312.48
369.306	305.7
369.688	301.86
370.069	299.82
370.45	277.9
370.831	308.64
371.212	314.51
371.593	300.05
371.974	305.92
372.355	313.16
372.736	315.19
373.117	313.38
373.498	322.42
373.879	288.75
374.26	310.9
374.641	305.02
375.021	289.43
375.402	293.5
375.783	306.38
376.163	316.09
376.544	314.96
376.925	303.66
377.305	329.88
377.686	330.33
378.066	327.17
378.447	317.22
378.827	305.25
379.208	336.66
379.588	345.47
379.968	325.81
380.349	328.97
380.729	316.32
381.109	312.93
381.489	335.98
381.87	317.9
382.25	317
382.63	324.68
383.01	330.56
383.39	339.6
383.77	337.34
384.15	341.18
384.53	352.48
384.91	329.2
385.29	344.79
385.67	334.62
386.049	343.44
386.429	347.96
386.809	335.75
387.189	344.12
387.568	351.12
387.948	345.02
388.328	326.94
388.707	338.47
389.087	340.05
389.466	342.31
389.846	339.14
390.225	349.54
390.605	358.8
390.984	346.15
391.363	356.54
391.743	362.42
392.122	369.65
392.501	365.36
392.881	355.41
393.26	380.05
393.639	371.46
394.018	365.36
394.397	382.08
394.776	385.02
395.155	382.98
395.534	384.79
395.913	399.48
396.292	395.19
396.671	396.32
397.05	392.25
397.429	399.48
397.808	402.64
398.186	375.75
398.565	393.15
398.944	379.82
399.323	383.44
399.701	394.74
400.08	401.74
400.458	390.44
400.837	401.06
401.215	404.23
401.594	411.68
401.972	411.46
402.351	412.59
402.729	383.89
403.107	410.78
403.486	431.57
403.864	426.6
404.242	413.49
404.62	441.06
404.999	440.84
405.377	422.98
405.755	444.45
406.133	445.13
406.511	429.54
406.889	448.75
407.267	445.81
407.645	460.5
408.023	451.68
408.401	475.19
408.779	476.99
409.156	463.66
409.534	487.39
409.912	497.56
410.29	508.86
410.667	489.2
411.045	481.06
411.422	506.82
411.8	540.49
412.178	518.57
412.555	510.21
412.933	532.36
413.31	555.18
413.687	553.15
414.065	556.54
414.442	560.15
414.819	548.86
415.197	574.17
415.574	572.36
415.951	591.34
416.328	567.39
416.705	606.03
417.082	606.26
417.46	597.67
417.837	609.19
418.214	624.79
418.591	635.41
418.967	636.76
419.344	638.34
419.721	633.37
420.098	647.38
420.475	627.72
420.852	644.67
421.228	686.03
421.605	665.24
421.982	708.17
422.358	738.23
422.735	701.39
423.111	735.97
423.488	727.16
423.864	740.71
424.241	754.27
424.617	736.2
424.994	772.58
425.37	785.46
425.746	787.27
426.123	789.98
426.499	781.39
426.875	809.64
427.251	794.05
427.627	842.41
428.003	843.54
428.379	855.29
428.756	847.6
429.132	877.21
429.507	895.97
429.883	887.6
430.259	921.28
430.635	911.78
431.011	906.59
431.387	971.9
431.763	946.59
432.138	963.08
432.514	972.8
432.89	992.91
433.265	1027.49
433.641	1051.22
434.016	1027.26
434.392	1046.02
434.767	1069.29
435.143	1051.89
435.518	1090.99
435.894	1095.06
436.269	1127.6
436.644	1158.11
437.02	1137.77
437.395	1143.64
437.77	1190.87
438.145	1185.22
438.52	1196.52
438.895	1247.37
439.271	1214.83
439.646	1257.76
440.021	1260.02
440.395	1284.88
440.77	1264.09
441.145	1297.31
441.52	1323.52
441.895	1302.28
442.27	1324.65
442.645	1316.97
443.019	1378.44
443.394	1354.71
443.769	1378.21
444.143	1396.97
444.518	1390.87
444.892	1396.74
445.267	1398.55
445.641	1416.18
446.016	1416.18
446.39	1447.14
446.764	1470.64
447.139	1447.59
447.513	1488.04
447.887	1483.52
448.262	1496.85
448.636	1485.1
449.01	1497.31
449.384	1534.59
449.758	1551.77
450.132	1542.28
450.506	1519.23
450.88	1568.49
451.254	1556.74
451.628	1608.26
452.002	1622.27
452.376	1588.6
452.75	1598.55
453.123	1638.32
453.497	1656.17
453.871	1649.62
454.244	1687.58
454.618	1711.76
454.992	1695.04
455.365	1717.64
455.739	1739.33
456.112	1773.23
456.486	1761.25
456.859	1759.22
457.232	1811.65
457.606	1792.21
457.979	1857.3
458.352	1882.15
458.725	1880.57
459.099	1903.62
459.472	1952.89
459.845	1939.33
460.218	1944.3
460.591	1949.5
460.964	1963.06
461.337	1973.45
461.71	2053.45
462.083	2046.9
462.456	2062.71
462.829	2074.47
463.201	2121.7
463.574	2105.88
463.947	2123.28
464.32	2171.19
464.692	2190.39
465.065	2164.86
465.438	2190.62
465.81	2208.92
466.183	2276.04
466.555	2310.84
466.928	2321.92
467.3	2308.36
467.672	2350.39
468.045	2393.55
468.417	2397.17
468.789	2422.25
469.161	2398.3
469.534	2451.63
469.906	2518.75
470.278	2510.39
470.65	2525.3
471.022	2578.18
471.394	2595.36
471.766	2633.32
472.138	2672.42
472.51	2709.25
472.882	2726.65
473.253	2754.67
473.625	2782.24
473.997	2836.03
474.369	2836.03
474.74	2857.72
475.112	2927.32
475.484	2943.82
475.855	3033.76
476.227	3001.67
476.598	3081.67
476.97	3041.67
477.341	3173.87
477.713	3188.33
478.084	3163.02
478.455	3282.57
478.827	3285.28
479.198	3390.36
479.569	3390.59
479.94	3450.25
480.311	3470.81
480.682	3522.11
481.053	3610.02
481.424	3611.15
481.795	3682.33
482.166	3720.52
482.537	3769.34
482.908	3789.67
483.279	3816.79
483.65	3851.37
484.021	3947.64
484.391	3942.21
484.762	3981.31
485.133	4036.67
485.503	4058.14
485.874	4151.7
486.244	4165.48
486.615	4235.54
486.985	4282.99
487.356	4333.84
487.726	4352.82
488.097	4402.54
488.467	4460.39
488.837	4525.02
489.207	4592.59
489.578	4641.86
489.948	4673.94
490.318	4757.56
490.688	4722.53
491.058	4761.63
491.428	4802.08
491.798	4852.92
492.168	4935.63
492.538	4938.34
492.908	5001.17
493.278	5049.75
493.648	5027.83
494.017	5090.88
494.387	5061.51
494.757	5139.92
495.126	5148.51
495.496	5211.33
495.866	5191.9
496.235	5259.69
496.605	5255.4
496.974	5363.42
497.344	5388.05
497.713	5374.49
498.082	5415.62
498.452	5443.87
498.821	5438.67
499.19	5533.81
499.559	5508.27
499.928	5537.2
500.298	5590.76
500.667	5630.3
501.036	5588.05
501.405	5593.69
501.774	5654.94
502.143	5616.74
502.512	5684.31
502.88	5720.47
503.249	5741.94
503.618	5763.63
503.987	5780.13
504.356	5748.49
504.724	5798.89
505.093	5789.85
505.462	5831.65
505.83	5903.29
506.199	5864.42
506.567	5910.52
506.936	5874.59
507.304	5970.63
507.672	6019.45
508.041	5994.81
508.409	6000.24
508.777	6052.67
509.145	6131.53
509.514	6047.92
509.882	6076.85
510.25	6105.32
510.618	6089.05
510.986	6114.58
511.354	6193.23
511.722	6185.77
512.09	6199.1
512.458	6247.24
512.826	6207.24
513.193	6231.87
513.561	6253.34
513.929	6308.93
514.297	6297.63
514.664	6320.46
515.032	6295.6
515.4	6303.51
515.767	6348.7
516.135	6359.1
516.502	6310.96
516.869	6376.05
517.237	6455.14
517.604	6332.21
517.972	6380.57
518.339	6415.14
518.706	6427.35
519.073	6429.83
519.44	6418.53
519.808	6487
520.175	6515.93
520.542	6524.29
520.909	6548.25
521.276	6487.68
521.643	6587.57
522.009	6597.74
522.376	6574.91
522.743	6587.11
523.11	6630.96
523.477	6684.97
523.843	6700.56
524.21	6701.91
524.577	6745.75
524.943	6705.98
525.31	6706.43
525.676	6781.23
526.043	6791.18
526.409	6831.18
526.776	6866.88
527.142	6863.94
527.508	6871.4
527.874	6893.77
528.241	6895.36
528.607	6940.33
528.973	6975.35
529.339	6920.67
529.705	6977.39
530.071	7008.35
530.437	7013.54
530.803	7019.42
531.169	6996.6
531.535	7019.65
531.901	7059.19
532.267	7030.72
532.632	7049.48
532.998	7079.08
533.364	7088.12
533.73	7069.36
534.095	7154.33
534.461	7122.92
534.826	7119.98
535.192	7105.75
535.557	7108.91
535.923	7197.27
536.288	7179.19
536.653	7198.17
537.019	7135.35
537.384	7170.38
537.749	7175.35
538.114	7112.52
538.479	7171.51
538.845	7154.11
539.21	7115.69
539.575	7163.37
539.94	7141
540.305	7216.25
540.67	7189.36
541.034	7229.13
541.399	7214.67
541.764	7170.83
542.129	7237.49
542.494	7199.75
542.858	7181.68
543.223	7210.38
543.587	7284.27
543.952	7248.57
544.316	7216.7
544.681	7223.93
545.045	7236.82
545.41	7245.18
545.774	7262.35
546.138	7241.56
546.503	7261.9
546.867	7308.68
547.231	7266.65
547.595	7305.06
547.959	7259.41
548.324	7327.43
548.688	7257.83
549.052	7305.06
549.416	7266.42
549.779	7311.39
550.143	7310.71
550.507	7330.37
550.871	7370.15
551.235	7332.18
551.599	7382.35
551.962	7411.27
552.326	7366.98
552.689	7411.05
553.053	7334.44
553.417	7344.84
553.78	7386.42
554.143	7377.6
554.507	7419.41
554.87	7393.87
555.234	7426.87
555.597	7434.55
555.96	7415.34
556.323	7455.34
556.686	7449.92
557.05	7488.56
557.413	7475.91
557.776	7479.29
558.139	7558.84
558.502	7493.76
558.865	7541.89
559.228	7538.5
559.59	7565.39
559.953	7608.78
560.316	7713.19
560.679	7642
561.041	7666.63
561.404	7642.68
561.767	7770.81
562.129	7681.78
562.492	7788.21
562.854	7757.71
563.217	7754.32
563.579	7792.06
563.941	7811.49
564.304	7852.84
564.666	7907.53
565.028	7891.26
565.39	7872.5
565.753	7922
566.115	7994.99
566.477	7976.46
566.839	7983.24
567.201	8030.92
567.563	8060.07
567.925	8099.17
568.287	8091.71
568.648	8066.4
569.01	8194.98
569.372	8108.2
569.734	8212.61
570.095	8190.69
570.457	8172.84
570.819	8324.24
571.18	8266.17
571.542	8315.88
571.903	8309.78
572.265	8402.43
572.626	8380.51
572.987	8356.11
573.349	8441.08
573.71	8430.91
574.071	8471.81
574.432	8531.24
574.794	8545.48
575.155	8603.79
575.516	8519.04
575.877	8618.7
576.238	8674.29
576.599	8697.12
576.96	8699.83
577.32	8648.53
577.681	8749.32
578.042	8746.61
578.403	8738.24
578.763	8789.32
579.124	8794.74
579.485	8833.38
579.845	8933.04
580.206	8917.9
580.566	8945.25
580.927	9018.24
581.287	8946.37
581.648	9006.49
582.008	9080.38
582.368	9067.95
582.728	9100.5
583.089	9121.51
583.449	9191.11
583.809	9178.91
584.169	9160.83
584.529	9237.67
584.889	9295.74
585.249	9198.8
585.609	9295.29
585.969	9322.41
586.329	9351.34
586.688	9373.03
587.048	9425.91
587.408	9417.77
587.768	9400.37
588.127	9425.01
588.487	9488.73
588.846	9491.9
589.206	9456.42
589.565	9526.25
589.925	9502.29
590.284	9553.14
590.643	9573.93
591.003	9633.14
591.362	9673.14
591.721	9664.55
592.08	9697.77
592.44	9713.59
592.799	9732.79
593.158	9749.29
593.517	9754.49
593.876	9801.27
594.235	9801.49
594.593	9783.64
594.952	9877.2
595.311	9848.27
595.67	9879.23
596.029	9936.41
596.387	9914.71
596.746	9921.72
597.104	9928.95
597.463	9940.47
597.822	9981.6
598.18	9990.64
598.538	9994.93
598.897	10073.58
599.255	10014.37
599.613	10125.55
599.972	10096.4
600.33	10112.45
600.688	10051.66
601.046	10100.92
601.404	10163.52
601.762	10105.21
602.12	10150.86
602.478	10208.26
602.836	10175.95
603.194	10221.37
603.552	10176.63
603.91	10186.79
604.268	10237.41
604.625	10245.55
604.983	10294.59
605.341	10232.89
605.698	10318.09
606.056	10248.04
606.413	10312.67
606.771	10309.95
607.128	10365.55
607.485	10329.16
607.843	10266.57
608.2	10406.9
608.557	10406.68
608.914	10359.9
609.272	10372.55
609.629	10424.3
609.986	10478.54
610.343	10425.88
610.7	10465.43
611.057	10447.58
611.414	10490.52
611.771	10509.05
612.127	10519.67
612.484	10446.9
612.841	10533.68
613.198	10557.86
613.554	10506.11
613.911	10533.9
614.267	10615.94
614.624	10518.54
614.98	10640.57
615.337	10646.22
615.693	10610.74
616.05	10617.74
616.406	10661.13
616.762	10696.39
617.118	10682.6
617.475	10608.03
617.831	10717.63
618.187	10760.34
618.543	10694.8
618.899	10806.67
619.255	10727.8
619.611	10702.71
619.967	10789.49
620.323	10805.76
620.678	10701.36
621.034	10716.72
621.39	10756.27
621.746	10721.7
622.101	10811.18
622.457	10830.62
622.812	10794.69
623.168	10852.54
623.523	10777.06
623.879	10879.43
624.234	10767.12
624.589	10759.66
624.945	10736.16
625.3	10719.89
625.655	10727.8
626.01	10779.32
626.365	10762.6
626.72	10830.39
627.075	10759.43
627.43	10712.2
627.785	10718.76
628.14	10735.25
628.495	10778.42
628.85	10725.09
629.205	10732.54
629.559	10810.05
629.914	10674.92
630.269	10710.4
630.623	10674.69
630.978	10673.79
631.332	10727.57
631.687	10708.14
632.041	10679.44
632.396	10746.55
632.75	10662.71
633.104	10695.03
633.459	10615.94
633.813	10545.43
634.167	10648.93
634.521	10601.7
634.875	10654.13
635.229	10634.47
635.583	10515.83
635.937	10543.62
636.291	10582.49
636.645	10519.89
636.999	10528.03
637.352	10535.71
637.706	10459.78
638.06	10481.93
638.413	10485.32
638.767	10433.79
639.121	10412.78
639.474	10358.09
639.828	10375.04
640.181	10437.18
640.534	10399.9
640.888	10367.81
641.241	10354.02
641.594	10384.08
641.947	10429.95
642.301	10354.7
642.654	10354.7
643.007	10327.36
643.36	10344.98
643.713	10285.1
644.066	10364.42
644.419	10313.8
644.771	10227.25
645.124	10182.95
645.477	10174.14
645.83	10015.5
646.182	9998.1
646.535	9993.58
646.888	9987.48
647.24	9905.45
647.593	9966.69
647.945	9954.03
648.298	9869.29
648.65	9911.55
649.002	9877.65
649.355	9946.8
649.707	10057.31
650.059	10000.36
650.411	10100.47
650.763	10093.69
651.115	10298.66
651.467	10135.27
651.819	10157.42
652.171	10211.2
652.523	10194.03
652.875	10153.57
653.227	10122.16
653.578	10175.72
653.93	10200.81
654.282	10096.63
654.633	10117.64
654.985	10131.2
655.337	10189.73
655.688	10136.63
656.039	10179.11
656.391	10067.48
656.742	10117.64
657.094	10140.47
657.445	10221.37
657.796	10113.8
658.147	10146.12
658.498	10166.23
658.849	10149.73
659.2	10135.72
659.551	10130.3
659.902	10159
660.253	10166.46
660.604	10220.47
660.955	10113.12
661.306	10115.16
661.656	10130.07
662.007	10034.26
662.358	10213.69
662.708	10142.5
663.059	10119.45
663.409	10112.22
663.76	10149.73
664.11	10180.69
664.461	10179.11
664.811	10251.65
665.161	10152.22
665.511	10169.39
665.862	10156.74
666.212	10207.13
666.562	10173.01
666.912	10125.78
667.262	10128.26
667.612	10135.04
667.962	10162.84
668.312	10137.3
668.662	10184.31
669.011	10153.12
669.361	10084.65
669.711	10079
670.06	10108.15
670.41	10136.85
670.76	10125.1
671.109	10176.17
671.459	10095.95
671.808	10127.36
672.157	10092.79
672.507	10018.44
672.856	10049.85
673.205	10128.26
673.554	10089.17
673.904	10013.92
674.253	10103.63
674.602	10073.12
674.951	9988.61
675.3	9923.75
675.649	10073.35
675.998	10001.04
676.346	10002.39
676.695	10079
677.044	9973.24
677.393	9919.23
677.741	9942.51
678.09	9899.12
678.438	9975.27
678.787	9937.99
679.135	9917.2
679.484	9887.14
679.832	9966.01
680.181	9887.37
680.529	9919.46
680.877	9803.75
681.225	9843.98
681.573	9871.1
681.922	9814.15
682.27	9801.95
682.618	9799.46
682.966	9770.99
683.314	9764.88
683.661	9763.98
684.009	9684.66
684.357	9685.34
684.705	9666.81
685.053	9759.23
685.4	9672.46
685.748	9630.88
686.095	9603.31
686.443	9613.7
686.79	9483.99
687.138	9589.75
687.485	9558.56
687.832	9472.69
688.18	9509.52
688.527	9419.81
688.874	9440.6
689.221	9416.65
689.568	9331.22
689.915	9357.89
690.262	9296.65
690.609	9239.7
690.956	9244.45
691.303	9230.21
691.65	9163.09
691.997	9230.44
692.344	9101.17
692.69	9105.69
693.037	9091
693.383	9091
693.73	9047.84
694.077	9057.33
694.423	8975.53
694.769	8963.78
695.116	8942.99
695.462	8898.69
695.808	8931.01
696.155	8914.51
696.501	8845.81
696.847	8816.21
697.193	8691.24
697.539	8724.23
697.885	8690.11
698.231	8642.2
698.577	8702.09
698.923	8678.59
699.269	8554.97
699.614	8565.14
699.96	8474.07
700.306	8497.35
700.651	8404.02
700.997	8467.29
701.342	8398.82
701.688	8373.73
702.033	8329.89
702.379	8352.72
702.724	8296.22
703.069	8335.54
703.415	8328.09
703.76	8272.27
704.105	8264.58
704.45	8223
704.795	8221.65
705.14	8146.17
705.485	8157.92
705.83	8108.88
706.175	8086.96
706.52	8010.81
706.865	8042.22
707.209	8024.14
707.554	7966.06
707.899	8036.57
708.243	7966.97
708.588	7896.23
708.932	7877.25
709.277	7829.79
709.621	7879.06
709.966	7774.65
710.31	7768.55
710.654	7695.33
710.998	7803.81
711.342	7785.95
711.687	7728.1
712.031	7703.02
712.375	7684.26
712.719	7692.4
713.063	7702.34
713.407	7668.22
713.75	7664.37
714.094	7645.17
714.438	7601.33
714.782	7610.59
715.125	7595.68
715.469	7589.57
715.812	7541.21
716.156	7533.98
716.499	7540.76
716.843	7510.48
717.186	7396.81
717.53	7512.97
717.873	7527.2
718.216	7480.65
718.559	7416.47
718.902	7477.04
719.246	7388.9
719.589	7394.1
719.932	7340.32
720.275	7404.95
720.617	7395.23
720.96	7331.5
721.303	7324.95
721.646	7333.31
721.989	7268.9
722.331	7336.25
722.674	7320.65
723.016	7320.43
723.359	7303.03
723.701	7316.14
724.044	7255.8
724.386	7204.73
724.729	7264.16
725.071	7267.78
725.413	7215.57
725.755	7234.78
726.097	7200.43
726.439	7162.69
726.782	7189.81
727.124	7192.75
727.465	7178.74
727.807	7164.27
728.149	7204.05
728.491	7177.38
728.833	7213.77
729.175	7169.02
729.516	7162.02
729.858	7188.91
730.199	7176.25
730.541	7125.18
730.882	7151.62
731.224	7231.39
731.565	7144.61
731.906	7137.16
732.248	7147.33
732.589	7158.4
732.93	7067.78
733.271	7135.58
733.612	7108.01
733.953	7110.27
734.294	7139.42
734.635	7120.66
734.976	7140.32
735.317	7093.77
735.658	7107.1
735.999	7094.9
736.339	7139.87
736.68	7101.9
737.021	7162.24
737.361	7128.34
737.702	7155.01
738.042	7174.22
738.383	7202.69
738.723	7180.77
739.063	7188.46
739.404	7166.31
739.744	7141
740.084	7105.07
740.424	7218.06
740.764	7088.57
741.104	7201.34
741.444	7146.42
741.784	7193.65
742.124	7197.04
742.464	7244.27
742.804	7213.77
743.143	7300.09
743.483	7244.72
743.823	7266.65
744.162	7299.41
744.502	7359.75
744.841	7392.52
745.181	7433.65
745.52	7432.74
745.86	7393.87
746.199	7461.44
746.538	7458.05
746.877	7504.6
747.216	7575.79
747.556	7622.12
747.895	7642.45
748.234	7680.65
748.573	7639.06
748.911	7696.69
749.25	7797.48
749.589	7853.52
749.928	7931.71
750.267	7942.11
750.605	8041.77
750.944	8043.57
751.283	8117.7
751.621	8225.04
751.96	8227.3
752.298	8290.57
752.636	8467.52
752.975	8407.63
753.313	8529.89
753.651	8657.57
753.989	8725.14
754.327	8820.95
754.666	8844.46
755.004	8999.93
755.342	9181.62
755.679	9163.54
756.017	9365.35
756.355	9414.39
756.693	9471.56
757.031	9695.28
757.368	9838.33
757.706	9918.78
758.044	10029.74
758.381	10238.09
758.719	10324.42
759.056	10478.54
759.394	10587.91
759.731	10718.98
760.068	10915.14
760.405	10997.62
760.743	11043.49
761.08	11326.88
761.417	11391.06
761.754	11608.23
762.091	11693.42
762.428	11940.87
762.765	11980.65
763.102	12143.35
763.438	12318.04
763.775	12489.56
764.112	12606.39
764.449	12847.06
764.785	12883.22
765.122	12950.34
765.458	13096.1
765.795	13317.33
766.131	13463.32
766.467	13566.14
766.804	13703.99
767.14	13764.1
767.476	14021.72
767.812	14042.29
768.148	14149.63
768.485	14313.24
768.821	14461.71
769.157	14586
769.492	14739.89
769.828	14871.64
770.164	14845.2
770.5	15014.46
770.836	15121.58
771.171	15181.47
771.507	15354.34
771.842	15371.06
772.178	15411.52
772.513	15609.93
772.849	15680.89
773.184	15702.81
773.519	15822.35
773.855	15808.34
774.19	15931.05
774.525	16051.27
774.86	16096.7
775.195	16234.77
775.53	16196.58
775.865	16225.05
776.2	16314.09
776.535	16243.36
776.87	16318.61
777.205	16306.41
777.539	16393.41
777.874	16518.61
778.209	16467.76
778.543	16492.17
778.878	16455.56
779.212	16587.98
779.547	16574.42
779.881	16715.66
780.215	16550.24
780.55	16727.87
780.884	16640.86
781.218	16723.12
781.552	16776
781.886	16797.92
782.22	16788.65
782.554	16760.18
782.888	16643.35
783.222	16631.37
783.556	16658.71
783.889	16621.2
784.223	16694.19
784.557	16644.03
784.89	16714.08
785.224	16583.24
785.557	16592.95
785.891	16678.15
786.224	16621.65
786.558	16676.57
786.891	16536.46
787.224	16561.09
787.557	16412.85
787.891	16483.35
788.224	16485.16
788.557	16510.02
788.89	16524.03
789.223	16500.07
789.556	16464.14
789.888	16445.61
790.221	16356.58
790.554	16238.16
790.887	16318.84
791.219	16296.01
791.552	16261.21
791.884	16179.18
792.217	16207.2
792.549	16227.09
792.882	16126.07
793.214	16127.66
793.546	16180.31
793.879	16065.06
794.211	16013.31
794.543	16125.62
794.875	16079.75
795.207	16113.64
795.539	16036.13
795.871	16004.95
796.203	15923.59
796.535	15804.27
796.867	15780.09
797.198	15955.46
797.53	15761.11
797.862	15758.17
798.193	15879.98
798.525	15640.66
798.856	15691.28
799.188	15590.95
799.519	15543.26
799.85	15456.94
800.182	15539.2
800.513	15435.92
800.844	15351.63
801.175	15483.83
801.506	15451.74
801.837	15382.59
802.168	15337.62
802.499	15292.65
802.83	15249.71
803.161	15231.41
803.491	15215.14
803.822	15134.01
804.153	15081.35
804.483	15004.52
804.814	14952.54
805.145	15018.98
805.475	14959.55
805.805	14989.15
806.136	14861.93
806.466	14936.73
806.796	14843.62
807.126	14780.35
807.457	14652.44
807.787	14765.88
808.117	14597.07
808.447	14701.7
808.777	14668.94
809.107	14640.69
809.436	14623.51
809.766	14593.46
810.096	14518.88
810.426	14503.97
810.755	14574.7
811.085	14535.61
811.414	14451.09
811.744	14305.56
812.073	14342.84
812.403	14381.03
812.732	14323.41
813.061	14277.99
813.39	14203.64
813.719	14174.26
814.049	14254.48
814.378	14116.86
814.707	14108.05
815.036	14109.85
815.365	14109.63
815.693	13977.43
816.022	14020.14
816.351	13876.41
816.68	13889.75
817.008	13870.31
817.337	13827.6
817.665	13811.78
817.994	13830.31
818.322	13732.01
818.651	13760.94
818.979	13663.54
819.307	13776.98
819.636	13734.27
819.964	13642.3
820.292	13746.7
820.62	13750.32
820.948	13660.6
821.276	13686.36
821.604	13582.86
821.932	13627.83
822.259	13642.07
822.587	13705.8
822.915	13534.05
823.243	13680.71
823.57	13646.59
823.898	13664.67
824.225	13597.55
824.553	13634.84
824.88	13629.64
825.207	13718.23
825.535	13642.75
825.862	13603.88
826.189	13689.98
826.516	13706.93
826.843	13723.88
827.17	13734.72
827.497	13693.14
827.824	13690.66
828.151	13763.42
828.478	13729.07
828.805	13689.3
829.131	13616.08
829.458	13714.39
829.785	13625.35
830.111	13657.66
830.438	13691.11
830.764	13678.68
831.09	13681.84
831.417	13703.99
831.743	13667.38
832.069	13723.65
832.395	13538.12
832.722	13601.17
833.048	13628.06
833.374	13594.39
833.7	13579.7
834.026	13583.99
834.351	13548.51
834.677	13596.2
835.003	13602.07
835.329	13503.09
835.654	13488.18
835.98	13528.18
836.306	13497.44
836.631	13406.82
836.956	13570.43
837.282	13436.43
837.607	13414.96
837.932	13377.22
838.258	13338.58
838.583	13345.81
838.908	13243.89
839.233	13244.12
839.558	13214.51
839.883	13184.91
840.208	13166.83
840.533	13144.68
840.858	13264.45
841.182	13139.71
841.507	13159.15
841.832	13123.89
842.156	13119.15
842.481	13073.27
842.805	13090.22
843.13	13019.49
843.454	13042.09
843.778	12913.5
844.103	12948.53
844.427	12890.9
844.751	12937.91
845.075	12824.24
845.399	12859.49
845.723	12721.87
846.047	12812.71
846.371	12643.68
846.695	12724.35
847.019	12577.01
847.343	12473.74
847.666	12468.09
847.99	12352.16
848.313	12405.49
848.637	12354.87
848.96	12333.63
849.284	12258.83
849.607	12232.39
849.931	12121.88
850.254	12040.98
850.577	11989.68
850.9	11947.2
851.223	11983.81
851.546	11882.79
851.869	11796.7
852.192	11866.75
852.515	11790.59
852.838	11719.41
853.161	11773.42
853.483	11605.74
853.806	11567.32
854.129	11558.28
854.451	11512.41
854.774	11468.12
855.096	11401.9
855.419	11431.06
855.741	11340.44
856.063	11340.21
856.385	11275.35
856.708	11242.13
857.03	11206.2
857.352	11205.52
857.674	11255.69
857.996	11088.24
858.318	11109.93
858.64	11042.14
858.961	11030.61
859.283	11003.04
859.605	10942.48
859.926	11004.85
860.248	10944.51
860.57	10860.22
860.891	10881.69
861.212	10863.39
861.534	10803.95
861.855	10816.61
862.176	10796.5
862.498	10772.54
862.819	10706.33
863.14	10719.44
863.461	10647.57
863.782	10704.97
864.103	10690.06
864.424	10616.84
864.745	10638.76
865.065	10619.78
865.386	10478.54
865.707	10560.34
866.027	10596.95
866.348	10516.5
866.668	10632.66
866.989	10547.46
867.309	10441.02
867.63	10449.39
867.95	10375.04
868.27	10378.65
868.59	10400.35
868.91	10355.83
869.23	10365.77
869.55	10342.04
869.87	10439.44
870.19	10283.74
870.51	10325.32
870.83	10313.34
871.15	10243.29
871.469	10217.98
871.789	10240.35
872.109	10145.89
872.428	10161.03
872.748	10187.47
873.067	10229.05
873.386	10166.46
873.706	10178.21
874.025	10044.65
874.344	10053.92
874.663	10144.99
874.982	10089.4
875.301	10057.08
875.62	10060.92
875.939	10032.9
876.258	10050.07
876.577	9965.78
876.896	9965.33
877.214	9991.77
877.533	9979.34
877.852	9901.15
878.17	9971.88
878.489	9952.45
878.807	9919
879.125	9887.82
879.444	9917.42
879.762	9791.78
880.08	9757.43
880.398	9809.4
880.716	9792.45
881.034	9808.05
881.352	9786.8
881.67	9656.41
881.988	9743.42
882.306	9657.09
882.624	9628.62
882.941	9594.27
883.259	9597.66
883.577	9562.86
883.894	9594.49
884.212	9600.14
884.529	9481.28
884.846	9534.16
885.164	9484.44
885.481	9412.35
885.798	9438.57
886.115	9339.81
886.432	9392.46
886.75	9340.04
887.067	9395.63
887.383	9309.98
887.7	9332.81
888.017	9229.53
888.334	9239.02
888.651	9232.7
888.967	9213.26
889.284	9168.52
889.6	9197.67
889.917	9073.6
890.233	9142.53
890.55	8992.48
890.866	9063.89
891.182	9038.58
891.498	9010.55
891.815	8967.17
892.131	8927.17
892.447	8894.85
892.763	8909.77
893.079	8894.17
893.395	8770.79
893.71	8756.32
894.026	8771.92
894.342	8759.26
894.657	8735.08
894.973	8685.14
895.289	8639.26
895.604	8644.46
895.92	8597.23
896.235	8535.31
896.55	8575.76
896.865	8484.24
897.181	8460.51
897.496	8477.46
897.811	8340.29
898.126	8381.64
898.441	8347.75
898.756	8311.59
899.071	8258.48
899.386	8317.92
899.7	8237.92
900.015	8220.74
900.33	8115.21
900.644	8133.74
900.959	8155.89
901.273	8126.96
901.588	8053.97
901.902	7998.38
902.216	7987.76
902.531	7912.73
902.845	7900.98
903.159	7856.91
903.473	7845.16
903.787	7791.83
904.101	7755.45
904.415	7837.25
904.729	7716.12
905.042	7727.42
905.356	7716.8
905.67	7670.02
905.984	7625.73
906.297	7605.62
906.611	7571.27
906.924	7537.15
907.237	7534.43
907.551	7467.54
907.864	7458.05
908.177	7441.1
908.491	7397.49
908.804	7414.21
909.117	7363.37
909.43	7353.65
909.743	7216.25
910.056	7278.17
910.368	7271.39
910.681	7236.59
910.994	7160.21
911.307	7144.84
911.619	7092.86
911.932	7115.24
912.244	7053.09
912.557	7065.52
912.869	7004.05
913.181	6957.95
913.494	6916.6
913.806	6863.49
914.118	6897.62
914.43	6865.07
914.742	6823.72
915.054	6792.31
915.366	6803.83
915.678	6701.69
915.99	6701.69
916.302	6637.06
916.613	6684.06
916.925	6620.56
917.236	6604.97
917.548	6508.7
917.859	6588.24
918.171	6564.74
918.482	6488.81
918.794	6498.98
919.105	6482.48
919.416	6411.75
919.727	6403.39
920.038	6353
920.349	6347.57
920.66	6314.35
920.971	6300.12
921.282	6318.42
921.593	6232.55
921.903	6208.14
922.214	6193.9
922.525	6138.09
922.835	6103.51
923.146	6093.79
923.456	6109.61
923.767	6066
924.077	6095.15
924.387	6010.18
924.697	6008.6
925.008	6000.24
925.318	5953.69
925.628	5943.06
925.938	5912.56
926.248	5870.3
926.558	5919.11
926.867	5841.37
927.177	5844.76
927.487	5837.08
927.796	5751.66
928.106	5749.17
928.416	5674.82
928.725	5713.47
929.034	5651.09
929.344	5694.71
929.653	5619
929.962	5579.68
930.271	5589.85
930.581	5596.63
930.89	5493.13
931.199	5475.51
931.508	5498.1
931.817	5484.55
932.125	5409.52
932.434	5443.42
932.743	5383.3
933.051	5316.64
933.36	5330.88
933.669	5307.15
933.977	5267.38
934.286	5305.34
934.594	5308.05
934.902	5241.61
935.21	5225.57
935.519	5221.28
935.827	5203.87
936.135	5136.98
936.443	5160.49
936.751	5123.88
937.059	5072.8
937.367	5078
937.674	5087.49
937.982	4998.23
938.29	4989.19
938.597	4990.55
938.905	4908.74
939.213	4943.99
939.52	4940.83
939.827	4951.9
940.135	4851.34
940.442	4853.83
940.749	4845.01
941.056	4801.85
941.363	4784.45
941.67	4781.29
941.977	4754.85
942.284	4736.99
942.591	4735.41
942.898	4700.84
943.205	4688.41
943.511	4668.75
943.818	4650.22
944.125	4621.06
944.431	4622.87
944.738	4592.82
945.044	4559.15
945.35	4523.89
945.657	4503.33
945.963	4484.35
946.269	4498.81
946.575	4422.2
946.881	4453.61
947.187	4417.68
947.493	4409.09
947.799	4403.22
948.105	4382.88
948.41	4339.26
948.716	4362.77
949.022	4338.81
949.327	4311.47
949.633	4272.6
949.938	4262.2
950.244	4242.32
950.549	4185.14
950.854	4202.32
951.16	4187.63
951.465	4148.99
951.77	4151.7
952.075	4152.15
952.38	4089.78
952.685	4109.89
952.99	4064.24
953.294	4021.76
953.599	4039.61
953.904	4021.76
954.209	4007.97
954.513	4014.53
954.818	3973.62
955.122	3991.48
955.426	3943.57
955.731	3901.99
956.035	3872.16
956.339	3893.85
956.643	3852.27
956.948	3866.51
957.252	3831.03
957.556	3820.18
957.86	3810.01
958.163	3797.81
958.467	3771.6
958.771	3751.94
959.075	3750.81
959.378	3772.73
959.682	3705.83
959.985	3685.95
960.289	3713.07
960.592	3669.9
960.896	3635.78
961.199	3676.01
961.502	3636.68
961.805	3617.25
962.108	3579.51
962.411	3561.66
962.714	3558.27
963.017	3537.03
963.32	3540.64
963.623	3518.72
963.926	3509.46
964.228	3493.64
964.531	3484.15
964.833	3433.3
965.136	3419.29
965.438	3391.72
965.741	3386.97
966.043	3390.81
966.345	3357.6
966.648	3362.79
966.95	3374.77
967.252	3337.48
967.554	3349.91
967.856	3312.85
968.158	3252.06
968.46	3259.07
968.761	3248.9
969.063	3244.15
969.365	3211.84
969.666	3227.88
969.968	3187.43
970.269	3226.75
970.571	3186.75
970.872	3184.94
971.174	3109.69
971.475	3157.15
971.776	3124.16
972.077	3131.84
972.378	3082.57
972.679	3118.05
972.98	3064.5
973.281	3092.52
973.582	3046.42
973.883	3041.9
974.183	2996.7
974.484	2977.94
974.785	2975.68
975.085	2983.82
975.386	3005.74
975.686	2956.93
975.986	2921.22
976.287	2909.47
976.587	2929.81
976.887	2908.34
977.187	2902.92
977.487	2885.97
977.787	2873.99
978.087	2891.84
978.387	2819.98
978.687	2841.45
978.987	2858.63
979.286	2782.02
979.586	2806.65
979.885	2751.51
980.185	2760.32
980.484	2755.13
980.784	2724.84
981.083	2736.37
981.382	2701.12
981.682	2695.24
981.981	2688.91
982.28	2686.2
982.579	2655.01
982.878	2668.8
983.177	2666.54
983.475	2643.72
983.774	2597.62
984.073	2602.36
984.372	2604.62
984.67	2579.54
984.969	2603.72
985.267	2555.36
985.566	2549.71
985.864	2558.07
986.162	2546.77
986.461	2497.96
986.759	2472.65
987.057	2485.3
987.355	2488.01
987.653	2476.71
987.951	2509.93
988.249	2455.25
988.547	2444.17
988.844	2410.28
989.142	2398.52
989.44	2396.04
989.737	2357.62
990.035	2385.42
990.332	2361.24
990.63	2362.37
990.927	2353.55
991.224	2349.71
991.521	2350.16
991.819	2328.92
992.116	2318.53
992.413	2318.07
992.71	2290.96
993.006	2281.24
993.303	2296.83
993.6	2258.87
993.897	2271.07
994.193	2241.24
994.49	2235.59
994.787	2222.03
995.083	2174.35
995.379	2174.12
995.676	2185.42
995.972	2187.68
996.268	2151.53
996.565	2136.84
996.861	2148.14
997.157	2123.5
997.453	2127.57
997.749	2121.7
998.044	2082.6
998.34	2053
998.636	2048.7
998.932	2064.07
999.227	2046.44
999.523	2052.09
999.818	2033.79
1000.114	2009.83
1000.409	2039.44
1000.704	1987.69
1001	1995.15
1001.295	1968.93
1001.59	1931.19
1001.885	1905.43
1002.18	1904.98
1002.475	1924.64
1002.77	1928.93
1003.065	1911.08
1003.359	1892.55
1003.654	1920.8
1003.949	1890.29
1004.243	1864.98
1004.538	1847.35
1004.832	1871.08
1005.127	1840.12
1005.421	1882.38
1005.715	1842.83
1006.009	1831.08
1006.304	1828.6
1006.598	1764.42
1006.892	1769.84
1007.186	1758.99
1007.48	1787.69
1007.773	1772.1
1008.067	1735.94
1008.361	1734.36
1008.655	1711.76
1008.948	1709.05
1009.242	1690.75
1009.535	1694.14
1009.829	1691.2
1010.122	1666.34
1010.415	1689.84
1010.708	1653.69
1011.001	1627.7
1011.295	1629.96
1011.588	1631.99
1011.881	1617.75
1012.173	1615.95
1012.466	1592.22
1012.759	1578.21
1013.052	1547.25
1013.344	1558.09
1013.637	1579.56
1013.93	1566.68
1014.222	1544.76
1014.514	1530.75
1014.807	1519.45
1015.099	1502.5
1015.391	1540.92
1015.683	1491.2
1015.976	1459.34
1016.268	1460.92
1016.56	1476.06
1016.851	1454.59
1017.143	1443.97
1017.435	1434.26
1017.727	1427.02
1018.018	1391.55
1018.31	1428.15
1018.602	1412.79
1018.893	1407.36
1019.185	1398.1
1019.476	1363.98
1019.767	1367.82
1020.058	1371.66
1020.35	1348.16
1020.641	1347.93
1020.932	1353.58
1021.223	1334.37
1021.514	1331.21
1021.804	1313.13
1022.095	1299.57
1022.386	1303.19
1022.677	1269.97
1022.967	1272.45
1023.258	1236.3
1023.548	1276.97
1023.839	1206.92
1024.129	1241.94
1024.419	1235.62
1024.709	1240.81
1025	1233.58
1025.29	1229.29
1025.58	1210.99
1025.87	1194.49
1026.16	1196.97
1026.449	1183.87
1026.739	1189.52
1027.029	1166.92
1027.319	1159.24
1027.608	1167.6
1027.898	1140.25
1028.187	1132.8
1028.477	1124.89
1028.766	1142.51
1029.055	1108.84
1029.344	1139.35
1029.634	1105
1029.923	1114.72
1030.212	1094.15
1030.501	1101.16
1030.79	1057.77
1031.078	1083.3
1031.367	1062.29
1031.656	1049.86
1031.945	1061.61
1032.233	1073.59
1032.522	1036.07
1032.81	1016.87
1033.099	1012.8
1033.387	1026.13
1033.675	999.01
1033.963	1000.82
1034.251	990.2
1034.54	1013.02
1034.828	994.04
1035.116	967.6
1035.403	975.74
1035.691	968.51
1035.979	948.17
1036.267	966.7
1036.554	966.25
1036.842	958.79
1037.129	944.1
1037.417	939.58
1037.704	934.61
1037.992	908.17
1038.279	898
1038.566	911.56
1038.853	911.56
1039.14	911.56
