Data from hue_120_FLMS001491_00007.txt Node
Date: Tue Feb 07 16:58:51 GMT 2017
User: dcchb
Spectrometer: FLMS00149
Trigger mode: 0
Integration Time (sec): 2.000000E-2
Scans to average: 10
Electric dark correction enabled: true
Nonlinearity correction enabled: false
Boxcar width: 0
XAxis mode: Wavelengths
Number of Pixels in Spectrum: 2048
>>>>>Begin Spectral Data<<<<<
341.393	-9.8
341.776	-9.8
342.16	-9.8
342.543	-61.55
342.927	-84.6
343.31	-78.05
343.693	-76.92
344.077	-76.47
344.46	-65.85
344.843	-30.37
345.226	-51.16
345.61	-24.26
345.993	-22.01
346.376	7.6
346.759	5.79
347.142	25.45
347.525	20.25
347.908	60.48
348.291	87.37
348.674	108.16
349.057	109.97
349.44	132.79
349.823	148.16
350.206	186.8
350.588	205.33
350.971	222.96
351.354	248.95
351.737	239.46
352.119	254.82
352.502	270.19
352.884	263.41
353.267	290.53
353.65	323.07
354.032	306.35
354.414	303.41
354.797	310.42
355.179	330.53
355.562	340.7
355.944	338.44
356.326	346.57
356.709	359.68
357.091	354.03
357.473	341.38
357.855	352.22
358.238	324.65
358.62	341.6
359.002	322.84
359.384	353.13
359.766	353.13
360.148	332.79
360.53	358.1
360.912	333.01
361.294	329.4
361.676	324.88
362.057	342.96
362.439	352
362.821	340.02
363.203	335.73
363.584	333.24
363.966	347.25
364.348	336.18
364.729	348.61
365.111	344.76
365.493	331.88
365.874	328.27
366.256	329.17
366.637	309.51
367.019	332.79
367.4	321.71
367.781	306.8
368.163	315.61
368.544	334.37
368.925	304.09
369.306	306.57
369.688	336.86
370.069	343.64
370.45	314.03
370.831	323.97
371.212	327.36
371.593	322.62
371.974	342.28
372.355	305.44
372.736	327.59
373.117	328.49
373.498	305.67
373.879	332.79
374.26	332.56
374.641	328.72
375.021	326.01
375.402	342.51
375.783	308.83
376.163	314.48
376.544	349.74
376.925	342.05
377.305	342.51
377.686	325.33
378.066	326.91
378.447	346.8
378.827	349.06
379.208	331.88
379.588	361.04
379.968	344.76
380.349	354.48
380.729	324.2
381.109	353.8
381.489	363.52
381.87	357.65
382.25	338.21
382.63	359.23
383.01	341.6
383.39	370.98
383.77	374.14
384.15	365.56
384.53	363.52
384.91	351.54
385.29	344.54
385.67	341.15
386.049	390.87
386.429	367.59
386.809	348.61
387.189	354.48
387.568	371.43
387.948	388.38
388.328	374.82
388.707	353.35
389.087	385.22
389.466	371.43
389.846	385.89
390.225	386.35
390.605	373.01
390.984	377.08
391.363	376.63
391.743	392
392.122	384.99
392.501	375.5
392.881	387.93
393.26	373.69
393.639	405.1
394.018	372.56
394.397	394.93
394.776	381.37
395.155	403.29
395.534	404.2
395.913	397.87
396.292	422.95
396.671	424.76
397.05	420.24
397.429	400.36
397.808	388.38
398.186	409.4
398.565	410.53
398.944	407.81
399.323	400.58
399.701	414.59
400.08	408.49
400.458	438.1
400.837	420.02
401.215	417.98
401.594	404.42
401.972	432.22
402.351	404.88
402.729	410.3
403.107	450.3
403.486	428.83
403.864	415.5
404.242	445.33
404.62	440.36
404.999	439.45
405.377	469.28
405.755	442.84
406.133	420.47
406.511	463.18
406.889	450.75
407.267	462.73
407.645	453.46
408.023	456.4
408.401	460.69
408.779	448.72
409.156	464.54
409.534	474.48
409.912	464.31
410.29	479
410.667	488.04
411.045	474.93
411.422	505.21
411.8	477.64
412.178	489.17
412.555	493.91
412.933	496.4
413.31	500.24
413.687	483.97
414.065	504.53
414.442	511.99
414.819	525.33
415.197	507.7
415.574	502.73
415.951	528.04
416.328	515.83
416.705	531.65
417.082	539.34
417.46	554.93
417.837	553.8
418.214	555.15
418.591	542.27
418.967	547.7
419.344	566.45
419.721	552.67
420.098	543.63
420.475	569.17
420.852	570.75
421.228	568.26
421.605	563.74
421.982	586.11
422.358	587.47
422.735	569.84
423.111	583.18
423.488	573.46
423.864	604.87
424.241	600.58
424.617	599.67
424.994	594.25
425.37	590.18
425.746	610.75
426.123	629.96
426.499	655.27
426.875	620.46
427.251	614.36
427.627	656.62
428.003	630.41
428.379	647.58
428.756	645.32
429.132	643.51
429.507	646.9
429.883	637.19
430.259	688.26
430.635	697.52
431.011	697.98
431.387	683.06
431.763	703.63
432.138	704.3
432.514	716.05
432.89	709.5
433.265	722.38
433.641	735.26
434.016	738.2
434.392	761.48
434.767	763.29
435.143	729.16
435.518	770.74
435.894	762.83
436.269	771.42
436.644	757.64
437.02	770.06
437.395	788.14
437.77	807.8
438.145	793.57
438.52	822.49
438.895	815.71
439.271	826.79
439.646	820.01
440.021	835.37
440.395	828.82
440.77	842.83
441.145	837.86
441.52	886.67
441.895	859.78
442.27	875.15
442.645	861.14
443.019	879.44
443.394	870.85
443.769	873.79
444.143	888.93
444.518	868.37
444.892	890.29
445.267	914.69
445.641	921.02
446.016	916.5
446.39	911.08
446.764	930.06
447.139	918.54
447.513	940.68
447.887	942.04
448.262	937.52
448.636	976.84
449.01	957.4
449.384	972.77
449.758	983.39
450.132	989.04
450.506	990.4
450.88	1007.12
451.254	992.21
451.628	1008.48
452.002	1039.44
452.376	1011.87
452.75	1034.24
453.123	1017.97
453.497	1088.25
453.871	1055.03
454.244	1079.21
454.618	1098.64
454.992	1132.99
455.365	1122.37
455.739	1140.9
456.112	1135.03
456.486	1161.01
456.859	1166.89
457.232	1193.1
457.606	1177.74
457.979	1181.13
458.352	1237.4
458.725	1241.46
459.099	1214.57
459.472	1279.43
459.845	1247.79
460.218	1283.72
460.591	1295.47
460.964	1320.56
461.337	1338.86
461.71	1351.29
462.083	1396.94
462.456	1399.88
462.829	1405.98
463.201	1413.44
463.574	1417.96
463.947	1449.59
464.32	1502.47
464.692	1470.84
465.065	1492.98
465.438	1511.06
465.81	1530.27
466.183	1558.52
466.555	1614.34
466.928	1589.48
467.3	1635.58
467.672	1642.36
468.045	1690.27
468.417	1715.58
468.789	1704.96
469.161	1735.91
469.534	1808.23
469.906	1836.93
470.278	1903.59
470.65	1875.12
471.022	1965.97
471.394	1961.22
471.766	2013.87
472.138	2015.46
472.51	2078.96
472.882	2118.28
473.253	2211.83
473.625	2193.76
473.997	2241.44
474.369	2277.82
474.74	2330.93
475.112	2418.83
475.484	2464.26
475.855	2497.02
476.227	2543.58
476.598	2667.87
476.97	2710.13
477.341	2760.52
477.713	2863.57
478.084	2881.2
478.455	2995.54
478.827	3071.47
479.198	3172.49
479.569	3176.55
479.94	3332.26
480.311	3381.3
480.682	3507.85
481.053	3618.35
481.424	3731.12
481.795	3811.34
482.166	3892.02
482.537	4029.64
482.908	4113.93
483.279	4235.51
483.65	4329.07
484.021	4453.81
484.391	4586.46
484.762	4627.82
485.133	4793.24
485.503	4872.1
485.874	5063.74
486.244	5157.97
486.615	5305.09
486.985	5453.33
487.356	5610.84
487.726	5734.23
488.097	5898.07
488.467	6008.34
488.837	6190.03
489.207	6313.87
489.578	6480.65
489.948	6648.55
490.318	6780.98
490.688	6846.97
491.058	7036.79
491.428	7205.15
491.798	7368.08
492.168	7622.77
492.538	7680.84
492.908	7861.4
493.278	8019.59
493.648	8116.31
494.017	8283.77
494.387	8420.48
494.757	8548.39
495.126	8693.92
495.496	8785.67
495.866	8889.85
496.235	9144.99
496.605	9296.17
496.974	9400.57
497.344	9536.39
497.713	9656.16
498.082	9784.29
498.452	9917.62
498.821	10041.01
499.19	10100.44
499.559	10331.62
499.928	10383.37
500.298	10516.02
500.667	10656.58
501.036	10736.13
501.405	10895.45
501.774	10924.6
502.143	11127.08
502.512	11163.01
502.88	11224.03
503.249	11376.57
503.618	11457.69
503.987	11559.61
504.356	11610.46
504.724	11786.05
505.093	11776.33
505.462	11922.77
505.83	12056.32
506.199	12114.4
506.567	12341.06
506.936	12265.58
507.304	12525.46
507.672	12532.02
508.041	12648.4
508.409	12765.91
508.777	12762.52
509.145	12887.94
509.514	12907.82
509.882	13100.59
510.25	13113.24
510.618	13245.22
510.986	13193.01
511.354	13337.42
511.722	13372.22
512.09	13577.64
512.458	13472.33
512.826	13598.88
513.193	13593.46
513.561	13678.2
513.929	13791.64
514.297	13823.28
514.664	13856.5
515.032	13967.46
515.4	13937.85
515.767	14048.59
516.135	14071.86
516.502	14085.42
516.869	14263.5
517.237	14243.61
517.604	14161.8
517.972	14291.52
518.339	14316.6
518.706	14355.47
519.073	14374.45
519.44	14469.59
519.808	14591.62
520.175	14505.3
520.542	14645.63
520.909	14621.68
521.276	14680.66
521.643	14773.99
522.009	14825.06
522.376	14832.29
522.743	14842.69
523.11	14967.21
523.477	15014.89
523.843	15042.68
524.21	15143.02
524.577	15116.58
524.943	15088.11
525.31	15245.62
525.676	15276.35
526.043	15299.4
526.409	15337.14
526.776	15392.28
527.142	15347.99
527.508	15450.13
527.874	15426.18
528.241	15423.01
528.607	15442.45
528.973	15462.79
529.339	15472.95
529.705	15505.95
530.071	15586.4
530.437	15569.45
530.803	15568.77
531.169	15533.74
531.535	15471.15
531.901	15571.26
532.267	15565.16
532.632	15528.09
532.998	15530.58
533.364	15500.98
533.73	15557.25
534.095	15562.67
534.461	15482.22
534.826	15488.1
535.192	15535.55
535.557	15599.05
535.923	15414.2
536.288	15414.2
536.653	15478.38
537.019	15339.62
537.384	15319.96
537.749	15377.82
538.114	15232.28
538.479	15220.08
538.845	15325.16
539.21	15153.19
539.575	15206.07
539.94	15227.31
540.305	15225.5
540.67	15065.73
541.034	15140.31
541.399	15139.4
541.764	15068.67
542.129	15036.36
542.494	14998.62
542.858	14997.04
543.223	14867.77
543.587	14910.03
543.952	14808.79
544.316	14747.78
544.681	14725.4
545.045	14726.76
545.41	14766.31
545.774	14725.18
546.138	14599.53
546.503	14592.07
546.867	14548.91
547.231	14569.93
547.595	14489.03
547.959	14542.13
548.324	14452.87
548.688	14409.25
549.052	14328.8
549.416	14340.56
549.779	14227.11
550.143	14196.15
550.507	14222.59
550.871	14161.58
551.235	14135.14
551.599	14150.5
551.962	14139.43
552.326	14062.6
552.689	14089.26
553.053	13966.78
553.417	13977.85
553.78	14047.68
554.143	13963.16
554.507	13926.1
554.87	13910.06
555.234	14034.57
555.597	13821.92
555.96	13818.31
556.323	13935.82
556.686	13882.71
557.05	13813.34
557.413	13827.12
557.776	13844.52
558.139	13878.65
558.502	13878.42
558.865	13708.03
559.228	13854.01
559.59	13738.99
559.953	13726.56
560.316	13743.51
560.679	13770.17
561.041	13777.63
561.404	13770.17
561.767	13866.22
562.129	13859.89
562.492	13867.8
562.854	13852.88
563.217	13802.04
563.579	13790.51
563.941	13848.59
564.304	13912.54
564.666	13909.38
565.028	13909.15
565.39	13927.46
565.753	13964.07
566.115	13957.29
566.477	13935.59
566.839	13949.38
567.201	13972.2
567.563	13974.46
567.925	14018.53
568.287	14049.49
568.648	14001.36
569.01	14018.53
569.372	14124.74
569.734	13968.14
570.095	14008.13
570.457	14154.57
570.819	14069.38
571.18	14040.22
571.542	14184.85
571.903	14088.36
572.265	14134.01
572.626	14167.68
572.987	14180.33
573.349	14193.89
573.71	14217.85
574.071	14217.62
574.432	14250.84
574.794	14224.4
575.155	14239.99
575.516	14249.03
575.877	14283.83
576.238	14222.82
576.599	14303.95
576.96	14244.96
577.32	14268.69
577.681	14264.62
578.042	14291.52
578.403	14311.86
578.763	14268.47
579.124	14337.17
579.485	14321.8
579.845	14424.85
580.206	14350.5
580.566	14317.28
580.927	14331.97
581.287	14355.47
581.648	14251.74
582.008	14401.57
582.368	14235.02
582.728	14276.83
583.089	14337.84
583.449	14306.88
583.809	14294.91
584.169	14221.91
584.529	14273.66
584.889	14290.61
585.249	14266.88
585.609	14121.13
585.969	14232.76
586.329	14239.31
586.688	14273.21
587.048	14211.97
587.408	14237.28
587.768	14145.53
588.127	14123.61
588.487	14203.84
588.846	14227.11
589.206	14121.13
589.565	14066.89
589.925	14138.3
590.284	14008.81
590.643	14154.35
591.003	14206.1
591.362	14130.62
591.721	14098.53
592.08	14062.14
592.44	14135.36
592.799	14145.31
593.158	14086.55
593.517	14087.91
593.876	14064.63
594.235	14052.88
594.593	14036.83
594.952	14099.88
595.311	14001.58
595.67	14090.17
596.029	14072.99
596.387	14051.98
596.746	14097.4
597.104	13976.72
597.463	13919.1
597.822	14045.87
598.18	13968.14
598.538	14016.95
598.897	14079.55
599.255	13969.94
599.613	14043.61
599.972	13991.64
600.33	13996.16
600.688	13937.85
601.046	14005.87
601.404	14058.75
601.762	14042.71
602.12	14007
602.478	14006.78
602.836	14017.63
603.194	14008.81
603.552	14077.29
603.91	13943.73
604.268	14016.95
604.625	13996.84
604.983	14008.13
605.341	13955.25
605.698	14017.63
606.056	13994.58
606.413	14022.82
606.771	14049.94
607.128	14108.92
607.485	13935.37
607.843	13983.95
608.2	14066.89
608.557	14129.71
608.914	14105.08
609.272	14048.13
609.629	14165.42
609.986	14171.07
610.343	14062.82
610.7	14167.9
611.057	14154.57
611.414	14050.17
611.771	14136.27
612.127	14144.18
612.484	14105.76
612.841	14172.88
613.198	14221.69
613.554	14186.66
613.911	14333.55
614.267	14228.02
614.624	14166.1
614.98	14241.8
615.337	14305.3
615.693	14329.48
616.05	14217.85
616.406	14314.12
616.762	14318.18
617.118	14292.65
617.475	14272.99
617.831	14266.21
618.187	14319.76
618.543	14315.7
618.899	14498.29
619.255	14447.9
619.611	14356.6
619.967	14447.44
620.323	14437.5
620.678	14456.03
621.034	14327.45
621.39	14301.46
621.746	14436.37
622.101	14471.4
622.457	14407.9
622.812	14395.92
623.168	14477.73
623.523	14449.93
623.879	14420.78
624.234	14359.54
624.589	14362.48
624.945	14411.51
625.3	14385.98
625.655	14391.4
626.01	14339.88
626.365	14421
626.72	14369.93
627.075	14412.42
627.43	14365.41
627.785	14434.56
628.14	14432.53
628.495	14411.74
628.85	14399.31
629.205	14315.92
629.559	14439.54
629.914	14384.4
630.269	14364.51
630.623	14334.23
630.978	14255.36
631.332	14406.77
631.687	14291.97
632.041	14314.34
632.396	14371.29
632.75	14245.19
633.104	14360.89
633.459	14178.53
633.813	14197.28
634.167	14172.88
634.521	14181.01
634.875	14184.18
635.229	14160.45
635.583	14110.28
635.937	14157.06
636.291	14100.56
636.645	14036.16
636.999	14044.29
637.352	14088.81
637.706	13948.48
638.06	14052.2
638.413	13984.63
638.767	13950.51
639.121	14030.96
639.474	13967.68
639.828	13928.81
640.181	13870.96
640.534	13909.83
640.888	13830.51
641.241	13829.83
641.594	13886.56
641.947	13878.87
642.301	13849.27
642.654	13791.19
643.007	13899.89
643.36	13812.21
643.713	13810.17
644.066	13828.03
644.419	13809.27
644.771	13710.97
645.124	13537.19
645.477	13543.06
645.83	13431.2
646.182	13385.55
646.535	13402.73
646.888	13433.69
647.24	13273.92
647.593	13419.22
647.945	13364.99
648.298	13298.55
648.65	13328.15
649.002	13250.19
649.355	13348.94
649.707	13306.68
650.059	13342.84
650.411	13493.35
650.763	13602.95
651.115	13636.62
651.467	13651.53
651.819	13539.9
652.171	13623.29
652.523	13626
652.875	13581.25
653.227	13548.49
653.578	13614.02
653.93	13664.41
654.282	13613.34
654.633	13551.42
654.985	13543.51
655.337	13599.78
655.688	13664.64
656.039	13697.86
656.391	13561.82
656.742	13607.24
657.094	13626.45
657.445	13700.57
657.796	13556.17
658.147	13679.33
658.498	13547.81
658.849	13640.23
659.2	13699.89
659.551	13693.34
659.902	13633.68
660.253	13569.95
660.604	13626.45
660.955	13644.08
661.306	13728.59
661.656	13689.05
662.007	13690.63
662.358	13679.33
662.708	13690.63
663.059	13667.8
663.409	13584.42
663.76	13649.05
664.11	13671.87
664.461	13614.92
664.811	13726.56
665.161	13668.26
665.511	13595.94
665.862	13646.56
666.212	13683.17
666.562	13724.3
666.912	13651.31
667.262	13689.05
667.612	13695.6
667.962	13743.96
668.312	13642.95
668.662	13788.93
669.011	13698.09
669.361	13688.82
669.711	13671.87
670.06	13539.45
670.41	13643.62
670.76	13536.51
671.109	13609.95
671.459	13593.68
671.808	13597.3
672.157	13709.61
672.507	13555.49
672.856	13513.68
673.205	13588.71
673.554	13569.28
673.904	13519.11
674.253	13635.26
674.602	13549.16
674.951	13411.54
675.3	13301.03
675.649	13551.2
675.998	13425.55
676.346	13434.82
676.695	13605.66
677.044	13340.36
677.393	13424.65
677.741	13467.58
678.09	13366.8
678.438	13386.46
678.787	13454.02
679.135	13409.05
679.484	13326.34
679.832	13375.16
680.181	13237.31
680.529	13425.1
680.877	13301.49
681.225	13220.58
681.573	13354.14
681.922	13134.94
682.27	13208.38
682.618	13183.75
682.966	13160.47
683.314	13166.8
683.661	13097.42
684.009	12989.86
684.357	13027.14
684.705	13040.25
685.053	13030.76
685.4	12996.86
685.748	12976.98
686.095	12894.72
686.443	12839.35
686.79	12760.94
687.138	12804.55
687.485	12784.44
687.832	12704.21
688.18	12815.62
688.527	12646.36
688.874	12689.3
689.221	12630.54
689.568	12543.09
689.915	12607.95
690.262	12583.54
690.609	12509.64
690.956	12442.53
691.303	12358.01
691.65	12348.74
691.997	12342.19
692.344	12266.03
692.69	12228.07
693.037	12293.83
693.383	12104.91
693.73	12220.61
694.077	12053.16
694.423	12066.94
694.769	11990.33
695.116	12016.1
695.462	11927.06
695.808	11904.01
696.155	11923.44
696.501	11808.87
696.847	11835.31
697.193	11683.45
697.539	11784.46
697.885	11661.08
698.231	11570.68
698.577	11647.52
698.923	11596.9
699.269	11519.16
699.614	11507.86
699.96	11418.15
700.306	11422.89
700.651	11420.63
700.997	11364.81
701.342	11328.66
701.688	11286.62
702.033	11304.93
702.379	11270.35
702.724	11130.47
703.069	11185.38
703.415	10991.72
703.76	11072.62
704.105	10939.06
704.45	10973.64
704.795	10983.13
705.14	10915.79
705.485	10812.06
705.83	10782.68
706.175	10829.46
706.52	10778.39
706.865	10699.29
707.209	10728.67
707.554	10702.68
707.899	10724.61
708.243	10640.99
708.588	10588.56
708.932	10491.16
709.277	10509.24
709.621	10472.63
709.966	10473.31
710.31	10484.39
710.654	10416.59
710.998	10393.09
711.342	10368
711.687	10321
712.031	10280.32
712.375	10252.3
712.719	10232.19
713.063	10285.07
713.407	10238.97
713.75	10200.78
714.094	10175.24
714.438	10178.86
714.782	10217.95
715.125	10124.17
715.469	10149.7
715.812	10057.5
716.156	10110.16
716.499	10109.25
716.843	10016.6
717.186	9974.12
717.53	10083.94
717.873	9980.22
718.216	10054.79
718.559	9973.66
718.902	9898.64
719.246	9897.73
719.589	9949.71
719.932	9843.72
720.275	9787.45
720.617	9837.17
720.96	9756.27
721.303	9892.76
721.646	9844.63
721.989	9768.7
722.331	9810.73
722.674	9779.09
723.016	9743.16
723.359	9718.98
723.701	9815.25
724.044	9661.81
724.386	9645.99
724.729	9760.56
725.071	9723.95
725.413	9664.52
725.755	9681.24
726.097	9650.73
726.439	9601.7
726.782	9551.08
727.124	9677.85
727.465	9676.27
727.807	9536.39
728.149	9638.98
728.491	9537.07
728.833	9574.35
729.175	9568.25
729.516	9540.23
729.858	9522.6
730.199	9617.74
730.541	9620.23
730.882	9550.85
731.224	9587.01
731.565	9573.45
731.906	9566.9
732.248	9578.87
732.589	9543.85
732.93	9505.65
733.271	9567.35
733.612	9553.56
733.953	9677.4
734.294	9531.87
734.635	9564.86
734.976	9536.84
735.317	9565.54
735.658	9485.77
735.999	9501.13
736.339	9544.52
736.68	9544.75
737.021	9524.18
737.361	9490.06
737.702	9612.54
738.042	9590.62
738.383	9576.84
738.723	9600.57
739.063	9531.64
739.404	9655.48
739.744	9684.63
740.084	9597.18
740.424	9622.04
740.764	9611.64
741.104	9705.65
741.444	9682.37
741.784	9718.76
742.124	9692.77
742.464	9685.54
742.804	9703.39
743.143	9767.79
743.483	9756.49
743.823	9734.12
744.162	9805.08
744.502	9861.35
744.841	9844.4
745.181	9982.48
745.52	9964.4
745.86	9996.04
746.199	10015.25
746.538	10031.97
746.877	10131.17
747.216	10114.9
747.556	10242.36
747.895	10257.72
748.234	10302.24
748.573	10330.94
748.911	10457.27
749.25	10386.53
749.589	10506.53
749.928	10544.72
750.267	10614.78
750.605	10723.7
750.944	10815.45
751.283	10893.64
751.621	10911.94
751.96	11013.41
752.298	11139.06
752.636	11278.49
752.975	11302.22
753.313	11395.1
753.651	11593.06
753.989	11638.71
754.327	11778.59
754.666	11903.11
755.004	11992.14
755.342	12195.3
755.679	12325.24
756.017	12551
756.355	12700.37
756.693	12749.18
757.031	12950.76
757.368	13011.32
757.706	13239.79
758.044	13346.68
758.381	13617.64
758.719	13698.09
759.056	13988.02
759.394	14043.39
759.731	14236.38
760.068	14381.91
760.405	14590.27
760.743	14653.77
761.08	14892.18
761.417	14950.26
761.754	15347.08
762.091	15469.34
762.428	15615.32
762.765	15729.67
763.102	16073.16
763.438	16106.38
763.775	16330.11
764.112	16476.77
764.449	16697.56
764.785	16881.73
765.122	16973.71
765.458	17192.23
765.795	17258.9
766.131	17558.32
766.467	17659.11
766.804	17775.27
767.14	17949.73
767.476	18064.75
767.812	18150.4
768.148	18476.94
768.485	18481.69
768.821	18535.25
769.157	18780.89
769.492	18867.22
769.828	19009.81
770.164	19077.15
770.5	19146.98
770.836	19414.77
771.171	19330.25
771.507	19440.76
771.842	19550.59
772.178	19667.42
772.513	19775.44
772.849	19910.13
773.184	19888.43
773.519	20041.65
773.855	20038.26
774.19	20158.26
774.525	20296.33
774.86	20448.42
775.195	20424.24
775.53	20462.43
775.865	20388.31
776.2	20420.85
776.535	20393.73
776.87	20544.46
777.205	20536.78
777.539	20564.12
777.874	20628.98
778.209	20564.8
778.543	20710.78
778.878	20667.39
779.212	20769.31
779.547	20798.92
779.881	20767.05
780.215	20712.82
780.55	20873.04
780.884	20766.83
781.218	20865.13
781.552	20892.93
781.886	20794.62
782.22	20761.18
782.554	20758.92
782.888	20676.66
783.222	20683.21
783.556	20587.62
783.889	20630.79
784.223	20626.49
784.557	20555.98
784.89	20639.82
785.224	20619.49
785.557	20578.36
785.891	20520.73
786.224	20532.26
786.558	20552.37
786.891	20480.28
787.224	20349.44
787.557	20422.43
787.891	20357.35
788.224	20341.75
788.557	20530.9
788.89	20399.83
789.223	20376.1
789.556	20239.84
789.888	20389.21
790.221	20305.82
790.554	20080.07
790.887	20246.61
791.219	20127.52
791.552	20052.5
791.884	20068.09
792.217	19911.26
792.549	19930.46
792.882	19916.45
793.214	19761.43
793.546	19866.06
793.879	19796.68
794.211	19659.29
794.543	19718.04
794.875	19600.53
795.207	19700.64
795.539	19623.35
795.871	19626.52
796.203	19498.61
796.535	19375.68
796.867	19341.78
797.198	19315.79
797.53	19387.2
797.862	19237.15
798.193	19201.44
798.525	19148.11
798.856	19179.98
799.188	19035.35
799.519	19019.3
799.85	18994.22
800.182	18923.49
800.513	19024.27
800.844	18855.24
801.175	18958.06
801.506	18810.27
801.837	18822.7
802.168	18720.78
802.499	18743.6
802.83	18582.25
803.161	18548.81
803.491	18538.18
803.822	18504.29
804.153	18480.79
804.483	18303.39
804.814	18286.21
805.145	18335.48
805.475	18283.73
805.805	18223.16
806.136	18125.77
806.466	18120.34
806.796	18171.19
807.126	18032.44
807.457	18039.44
807.787	18027.92
808.117	17917.41
808.447	17846.9
808.777	17864.98
809.107	17776.62
809.436	17803.29
809.766	17777.75
810.096	17611.2
810.426	17581.6
810.755	17615.5
811.085	17613.69
811.414	17648.94
811.744	17420.25
812.073	17385.9
812.403	17485.33
812.732	17340.7
813.061	17425.67
813.39	17345.45
813.719	17264.32
814.049	17363.07
814.378	17198.79
814.707	17251.44
815.036	17119.47
815.365	17052.35
815.693	16889.87
816.022	17048.28
816.351	16963.76
816.68	16956.08
817.008	16982.07
817.337	16771.45
817.665	16816.42
817.994	16764.22
818.322	16761.73
818.651	16724
818.979	16665.24
819.307	16683.77
819.636	16653.94
819.964	16661.62
820.292	16639.48
820.62	16632.47
820.948	16499.82
821.276	16588.18
821.604	16597.22
821.932	16547.95
822.259	16634.96
822.587	16613.26
822.915	16596.99
823.243	16602.64
823.57	16569.42
823.898	16473.83
824.225	16405.13
824.553	16502.31
824.88	16546.37
825.207	16595.64
825.535	16447.62
825.862	16598.57
826.189	16467.28
826.516	16535.75
826.843	16571.68
827.17	16553.6
827.497	16637.22
827.824	16563.32
828.151	16570.78
828.478	16524.9
828.805	16695.97
829.131	16556.99
829.458	16491.46
829.785	16481.52
830.111	16550.67
830.438	16584.56
830.764	16558.58
831.09	16541.18
831.417	16410.33
831.743	16655.97
832.069	16522.19
832.395	16387.51
832.722	16482.65
833.048	16424.57
833.374	16456.43
833.7	16398.58
834.026	16446.26
834.351	16349.77
834.677	16444.45
835.003	16448.97
835.329	16461.86
835.654	16375.76
835.98	16337.79
836.306	16315.19
836.631	16355.64
836.956	16334.18
837.282	16250.34
837.607	16261.18
837.932	16182.77
838.258	16132.82
838.583	16147.06
838.908	16066.61
839.233	16056.44
839.558	16029.1
839.883	16025.48
840.208	16029.32
840.533	15957.24
840.858	16089.89
841.182	16041.98
841.507	15983.68
841.832	15846.5
842.156	15833.62
842.481	15834.08
842.805	15891.47
843.13	15756.34
843.454	15696
843.778	15652.16
844.103	15594.53
844.427	15533.74
844.751	15629.79
845.075	15559.73
845.399	15499.62
845.723	15448.32
846.047	15421.88
846.371	15321.09
846.695	15345.05
847.019	15202.23
847.343	15077.94
847.666	15096.92
847.99	15020.76
848.313	15031.84
848.637	14861.67
848.96	14872.07
849.284	14855.12
849.607	14698.74
849.931	14698.96
850.254	14560.44
850.577	14608.12
850.9	14473.43
851.223	14472.3
851.546	14312.76
851.869	14241.12
852.192	14283.38
852.515	14151.63
852.838	14096.49
853.161	14090.84
853.483	14027.57
853.806	14035.03
854.129	13956.16
854.451	13914.58
854.774	13785.77
855.096	13792.32
855.419	13805.2
855.741	13799.1
856.063	13617.18
856.385	13722.49
856.708	13604.76
857.03	13635.26
857.352	13580.12
857.674	13482.27
857.996	13474.36
858.318	13339.68
858.64	13439.79
858.961	13359.11
859.283	13341.49
859.605	13212
859.926	13331.54
860.248	13202.28
860.57	13212.45
860.891	13115.05
861.212	13080.25
861.534	13061.72
861.855	13066.92
862.176	13095.84
862.498	12987.14
862.819	13036.63
863.14	12881.61
863.461	12919.8
863.782	12877.32
864.103	12866.47
864.424	12874.15
864.745	12822.18
865.065	12758.9
865.386	12665.34
865.707	12723.65
866.027	12720.94
866.348	12722.74
866.668	12702.86
866.989	12617.44
867.309	12561.84
867.63	12591.22
867.95	12557.33
868.27	12546.48
868.59	12481.17
868.91	12491.56
869.23	12510.09
869.55	12382.87
869.87	12517.1
870.19	12464.67
870.51	12474.62
870.83	12438.23
871.15	12387.16
871.469	12369.76
871.789	12427.16
872.109	12357.1
872.428	12254.06
872.748	12338.57
873.067	12324.56
873.386	12268.97
873.706	12255.41
874.025	12208.41
874.344	12087.73
874.663	12151.01
874.982	12097.22
875.301	12191.23
875.62	12075.76
875.939	12084.34
876.258	12109.2
876.577	12007.51
876.896	12057.23
877.214	12018.81
877.533	12001.41
877.852	11987.17
878.17	11979.94
878.489	11980.17
878.807	11925.7
879.125	11903.56
879.444	11815.2
879.762	11809.32
880.08	11877.12
880.398	11728.87
880.716	11774.97
881.034	11784.46
881.352	11757.35
881.67	11761.87
881.988	11727.52
882.306	11607.29
882.624	11626.05
882.941	11502.21
883.259	11478.71
883.577	11502.44
883.894	11487.52
884.212	11469.44
884.529	11421.31
884.846	11420.63
885.164	11337.47
885.481	11361.88
885.798	11433.74
886.115	11270.58
886.432	11290.92
886.75	11231.94
887.067	11268.55
887.383	11179.28
887.7	11269.68
888.017	11077.14
888.334	11152.16
888.651	11164.82
888.967	11093.86
889.284	11066.29
889.6	11092.73
889.917	11033.98
890.233	10982
890.55	10928.67
890.866	10865.84
891.182	10854.55
891.498	10832.85
891.815	10828.11
892.131	10789.69
892.447	10707.2
892.763	10699.75
893.079	10625.17
893.395	10640.99
893.71	10644.38
894.026	10598.28
894.342	10603.93
894.657	10445.52
894.973	10498.85
895.289	10422.69
895.604	10425.86
895.92	10391.51
896.235	10262.7
896.55	10313.99
896.865	10288.23
897.181	10229.48
897.496	10259.53
897.811	10143.83
898.126	10170.5
898.441	10125.3
898.756	10050.95
899.071	10010.27
899.386	10060.67
899.7	9901.58
900.015	9943.16
900.33	9823.16
900.644	9877.4
900.959	9779.77
901.273	9803.95
901.588	9704.97
901.902	9742.48
902.216	9646.22
902.531	9638.76
902.845	9551.53
903.159	9535.94
903.473	9496.84
903.787	9420.46
904.101	9417.29
904.415	9334.13
904.729	9351.76
905.042	9308.82
905.356	9223.18
905.67	9245.1
905.984	9269.05
906.297	9231.31
906.611	9095.95
906.924	9184.98
907.237	9075.61
907.551	9046.23
907.864	9028.15
908.177	8982.5
908.491	8936.86
908.804	8885.33
909.117	8857.54
909.43	8842.85
909.743	8744.77
910.056	8734.6
910.368	8693.92
910.681	8654.15
910.994	8637.65
911.307	8598.11
911.619	8604.43
911.932	8602.63
912.244	8477.21
912.557	8514.04
912.869	8411.45
913.181	8376.64
913.494	8401.05
913.806	8301.17
914.118	8355.63
914.43	8291.22
914.742	8201.73
915.054	8237.44
915.366	8171.45
915.678	8108.63
915.99	8138.23
916.302	8008.29
916.613	8036.31
916.925	8002.87
917.236	8004.9
917.548	7936.66
917.859	7958.8
918.171	7882.65
918.482	7836.55
918.794	7788.86
919.105	7773.95
919.416	7673.39
919.727	7726.27
920.038	7686.72
920.349	7624.12
920.66	7597.91
920.971	7564.69
921.282	7572.15
921.593	7494.41
921.903	7521.75
922.214	7475.42
922.525	7465.48
922.835	7457.57
923.146	7302.77
923.456	7358.82
923.767	7328.76
924.077	7262.78
924.387	7256.9
924.697	7205.83
925.008	7195.88
925.318	7128.09
925.628	7114.76
925.938	7128.54
926.248	7005.38
926.558	7016
926.867	7039.73
927.177	6989.11
927.487	6933.07
927.796	6812.39
928.106	6858.49
928.416	6864.82
928.725	6817.82
929.034	6806.97
929.344	6775.78
929.653	6788.44
929.962	6668.67
930.271	6664.15
930.581	6643.81
930.89	6593.41
931.199	6568.1
931.508	6575.56
931.817	6552.96
932.125	6531.72
932.434	6503.47
932.743	6435
933.051	6406.75
933.36	6398.62
933.669	6398.62
933.977	6293.54
934.286	6355.23
934.594	6295.79
934.902	6208.57
935.21	6221.22
935.519	6237.94
935.827	6131.73
936.135	6155.23
936.443	6143.48
936.751	6096.03
937.059	6124.05
937.367	6082.92
937.674	6043.37
937.982	6016.25
938.29	5984.84
938.597	5956.14
938.905	5879.76
939.213	5882.92
939.52	5855.13
939.827	5920.44
940.135	5834.79
940.442	5820.55
940.749	5817.84
941.056	5802.25
941.363	5718.41
941.67	5710.05
941.977	5639.77
942.284	5614.68
942.591	5641.8
942.898	5621.01
943.205	5584.4
943.511	5535.14
943.818	5593.89
944.125	5503.05
944.431	5490.62
944.738	5497.4
945.044	5432.99
945.35	5433.9
945.657	5371.98
945.963	5373.11
946.269	5393.9
946.575	5349.38
946.881	5348.25
947.187	5290.4
947.493	5249.95
947.799	5239.55
948.105	5190.74
948.41	5206.78
948.716	5145.32
949.022	5113.68
949.327	5147.35
949.633	5054.02
949.938	5102.61
950.244	5087.24
950.549	5001.82
950.854	4993.68
951.16	4963.17
951.465	4965.43
951.77	4895.61
952.075	4942.84
952.38	4923.85
952.685	4875.95
952.99	4828.94
953.294	4821.94
953.599	4802.5
953.904	4797.53
954.209	4743.75
954.513	4773.35
954.818	4742.62
955.122	4727.25
955.426	4671.2
955.731	4681.15
956.035	4650.41
956.339	4632.56
956.643	4645.89
956.948	4588.27
957.252	4581.26
957.556	4508.27
957.86	4535.16
958.163	4538.33
958.467	4483.87
958.771	4487.48
959.075	4449.06
959.378	4419.01
959.682	4411.55
959.985	4403.64
960.289	4410.87
960.592	4386.01
960.896	4360.48
961.199	4365.22
961.502	4290.2
961.805	4320.48
962.108	4250.2
962.411	4296.75
962.714	4245.68
963.017	4271.22
963.32	4247.94
963.623	4190.31
963.926	4174.95
964.228	4128.85
964.531	4127.49
964.833	4133.59
965.136	4073.93
965.438	4077.77
965.741	4088.17
966.043	4003.2
966.345	4047.27
966.648	4031.67
966.95	4038.23
967.252	3980.15
967.554	3972.01
967.856	3938.79
968.158	3885.91
968.46	3939.02
968.761	3893.82
969.063	3873.03
969.365	3833.71
969.666	3815.63
969.968	3830.32
970.269	3777.22
970.571	3805.92
970.872	3739.7
971.174	3748.52
971.475	3741.96
971.776	3727.05
972.077	3698.35
972.378	3632.59
972.679	3656.54
972.98	3630.78
973.281	3619.71
973.582	3619.93
973.883	3625.36
974.183	3563.21
974.484	3582.19
974.785	3522.31
975.085	3561.4
975.386	3532.25
975.686	3506.49
975.986	3504.91
976.287	3461.97
976.587	3464.91
976.887	3414.51
977.187	3436.44
977.487	3376.78
977.787	3425.14
978.087	3395.31
978.387	3362.99
978.687	3366.15
978.987	3367.96
979.286	3344.91
979.586	3299.94
979.885	3305.37
980.185	3256.33
980.484	3278.93
980.784	3237.34
981.083	3232.15
981.382	3195.76
981.682	3213.39
981.981	3175.2
982.28	3184.46
982.579	3151.92
982.878	3161.19
983.177	3133.39
983.475	3084.13
983.774	3066.28
984.073	3053.39
984.372	3054.98
984.67	3069.21
984.969	3047.29
985.267	3042.32
985.566	3015.2
985.864	3002.77
986.162	2993.96
986.461	2969.55
986.759	2961.65
987.057	2942.44
987.355	2898.6
987.653	2946.05
987.951	2927.75
988.249	2884.36
988.547	2875.32
988.844	2861.76
989.142	2838.26
989.44	2827.86
989.737	2818.82
990.035	2798.94
990.332	2757.36
990.63	2810.69
990.927	2774.31
991.224	2789.22
991.521	2778.37
991.819	2699.51
992.116	2725.95
992.413	2699.73
992.71	2675.55
993.006	2685.04
993.303	2688.66
993.6	2649.79
993.897	2665.16
994.193	2620.19
994.49	2622.45
994.787	2640.98
995.083	2584.48
995.379	2546.29
995.676	2605.95
995.972	2596.46
996.268	2586.97
996.565	2531.37
996.861	2526.4
997.157	2523.69
997.453	2465.16
997.749	2492.73
998.044	2485.95
998.34	2473.3
998.636	2469.45
998.932	2438.72
999.227	2414.77
999.523	2399.63
999.818	2384.26
1000.114	2387.2
1000.409	2352.4
1000.704	2405.95
1001	2298.84
1001.295	2309.69
1001.59	2330.7
1001.885	2300.65
1002.18	2278.95
1002.475	2270.82
1002.77	2258.39
1003.065	2263.81
1003.359	2236.69
1003.654	2246.18
1003.949	2237.82
1004.243	2180.42
1004.538	2202.57
1004.832	2222.68
1005.127	2177.71
1005.421	2142.91
1005.715	2154.21
1006.009	2115.79
1006.304	2115.79
1006.598	2108.79
1006.892	2073.31
1007.186	2070.37
1007.48	2074.66
1007.773	2059.75
1008.067	2070.6
1008.361	2044.16
1008.655	2040.09
1008.948	2050.26
1009.242	2033.99
1009.535	1964.38
1009.829	2001.9
1010.122	1976.81
1010.415	1968.9
1010.708	1942.24
1011.001	1898.85
1011.295	1939.07
1011.588	1921.22
1011.881	1885.97
1012.173	1892.97
1012.466	1881
1012.759	1882.35
1013.052	1837.38
1013.344	1819.53
1013.637	1864.5
1013.93	1841.9
1014.222	1809.13
1014.514	1818.85
1014.807	1814.78
1015.099	1773.2
1015.391	1787.89
1015.683	1742.92
1015.976	1746.99
1016.268	1747.67
1016.56	1725.29
1016.851	1714.67
1017.143	1698.85
1017.435	1699.08
1017.727	1675.35
1018.018	1684.62
1018.31	1664.73
1018.602	1639.19
1018.893	1661.79
1019.185	1612.08
1019.476	1613.88
1019.767	1639.65
1020.058	1607.33
1020.35	1593.09
1020.641	1554.68
1020.932	1567.33
1021.223	1570.04
1021.514	1557.61
1021.804	1535.92
1022.095	1528.46
1022.386	1510.84
1022.677	1518.52
1022.967	1496.37
1023.258	1485.3
1023.548	1487.33
1023.839	1466.54
1024.129	1459.76
1024.419	1451.85
1024.709	1429.48
1025	1416.83
1025.29	1450.05
1025.58	1409.82
1025.87	1404.62
1026.16	1377.51
1026.449	1373.21
1026.739	1382.93
1027.029	1343.16
1027.319	1317.17
1027.608	1349.48
1027.898	1344.74
1028.187	1314.91
1028.477	1327.34
1028.766	1328.92
1029.055	1299.99
1029.344	1312.42
1029.634	1287.79
1029.923	1294.34
1030.212	1265.42
1030.501	1264.29
1030.79	1249.83
1031.078	1246.89
1031.367	1227
1031.656	1226.1
1031.945	1231.3
1032.233	1209.37
1032.522	1193.78
1032.81	1205.31
1033.099	1172.77
1033.387	1151.52
1033.675	1169.6
1033.963	1167.79
1034.251	1163.5
1034.54	1138.42
1034.828	1137.06
1035.116	1117.17
1035.403	1129.38
1035.691	1126.67
1035.979	1118.98
1036.267	1080.34
1036.554	1101.81
1036.842	1081.92
1037.129	1077.18
1037.417	1070.62
1037.704	1065.88
1037.992	1070.85
1038.279	1053.22
1038.566	1052.99
1038.853	1052.99
1039.14	1052.99
