Data from hue_34_FLMS001491_00091.txt Node
Date: Tue Feb 07 17:26:27 GMT 2017
User: dcchb
Spectrometer: FLMS00149
Trigger mode: 0
Integration Time (sec): 2.000000E-2
Scans to average: 10
Electric dark correction enabled: true
Nonlinearity correction enabled: false
Boxcar width: 0
XAxis mode: Wavelengths
Number of Pixels in Spectrum: 2048
>>>>>Begin Spectral Data<<<<<
341.393	-23.62
341.776	-23.62
342.16	-23.62
342.543	-59.55
342.927	-52.54
343.31	-69.26
343.693	-68.13
344.077	-79.43
344.46	-65.87
344.843	-53.22
345.226	-38.98
345.61	-46.44
345.993	-22.03
346.376	-11.64
346.759	22.71
347.142	23.84
347.525	68.81
347.908	64.97
348.291	81.24
348.674	91.18
349.057	102.26
349.44	134.57
349.823	151.52
350.206	155.59
350.588	198.98
350.971	234.68
351.354	236.49
351.737	252.31
352.119	262.03
352.502	270.84
352.884	279.43
353.267	299.54
353.65	277.17
354.032	302.7
354.414	302.7
354.797	326.43
355.179	323.95
355.562	338.64
355.944	343.38
356.326	336.83
356.709	325.75
357.091	336.83
357.473	350.39
357.855	332.99
358.238	337.28
358.62	349.26
359.002	321.91
359.384	349.71
359.766	356.94
360.148	339.77
360.53	342.7
360.912	332.99
361.294	338.86
361.676	342.02
362.057	342.93
362.439	335.47
362.821	338.41
363.203	341.57
363.584	345.19
363.966	331.4
364.348	338.64
364.729	302.93
365.111	338.18
365.493	334.12
365.874	335.25
366.256	335.7
366.637	329.82
367.019	311.07
367.4	294.79
367.781	322.82
368.163	293.21
368.544	336.83
368.925	309.71
369.306	337.51
369.688	302.7
370.069	311.97
370.45	327.11
370.831	328.24
371.212	326.21
371.593	326.21
371.974	345.87
372.355	323.27
372.736	305.64
373.117	343.15
373.498	327.11
373.879	318.97
374.26	315.58
374.641	317.39
375.021	330.05
375.402	312.42
375.783	314.68
376.163	342.7
376.544	316.49
376.925	328.47
377.305	318.07
377.686	329.82
378.066	337.73
378.447	340.22
378.827	350.16
379.208	351.74
379.588	349.48
379.968	332.99
380.349	349.71
380.729	349.48
381.109	360.33
381.489	339.77
381.87	320.56
382.25	354
382.63	338.41
383.01	358.97
383.39	359.43
383.77	358.75
384.15	334.34
384.53	353.78
384.91	359.65
385.29	348.13
385.67	341.35
386.049	355.36
386.429	359.43
386.809	341.12
387.189	354.23
387.568	357.84
387.948	361.23
388.328	363.72
388.707	373.44
389.087	369.14
389.466	351.29
389.846	379.54
390.225	368.69
390.605	364.62
390.984	365.08
391.363	361.46
391.743	371.85
392.122	374.57
392.501	367.56
392.881	369.37
393.26	389.93
393.639	374.79
394.018	371.18
394.397	372.08
394.776	364.17
395.155	357.62
395.534	378.86
395.913	380.22
396.292	384.74
396.671	398.52
397.05	396.94
397.429	391.52
397.808	390.61
398.186	388.35
398.565	398.52
398.944	395.58
399.323	391.74
399.701	382.7
400.08	382.7
400.458	402.59
400.837	390.61
401.215	395.13
401.594	398.52
401.972	395.81
402.351	390.84
402.729	388.35
403.107	397.84
403.486	410.27
403.864	404.4
404.242	413.66
404.62	433.77
404.999	417.28
405.377	412.53
405.755	425.19
406.133	407.79
406.511	407.11
406.889	416.83
407.267	426.99
407.645	405.98
408.023	416.6
408.401	447.11
408.779	445.98
409.156	448.46
409.534	450.72
409.912	445.98
410.29	434
410.667	440.78
411.045	441.68
411.422	452.98
411.8	456.82
412.178	471.51
412.555	454.11
412.933	459.99
413.31	462.93
413.687	464.28
414.065	461.34
414.442	450.04
414.819	478.97
415.197	478.74
415.574	503.6
415.951	489.59
416.328	492.76
416.705	485.52
417.082	495.47
417.46	488.69
417.837	502.92
418.214	506.09
418.591	509.7
418.967	502.92
419.344	506.77
419.721	507.44
420.098	501.79
420.475	509.25
420.852	518.97
421.228	525.07
421.605	519.2
421.982	514
422.358	507.44
422.735	542.02
423.111	532.53
423.488	540.66
423.864	523.04
424.241	531.62
424.617	576.6
424.994	544.51
425.37	533.66
425.746	557.16
426.123	560.1
426.499	581.79
426.875	578.63
427.251	563.49
427.627	569.14
428.003	561.68
428.379	584.96
428.756	580.44
429.132	581.79
429.507	589.93
429.883	595.58
430.259	596.03
430.635	609.59
431.011	603.03
431.387	605.07
431.763	626.99
432.138	620.44
432.514	608.68
432.89	624.73
433.265	629.25
433.641	641.9
434.016	655.24
434.392	648.68
434.767	664.05
435.143	673.54
435.518	678.06
435.894	660.21
436.269	689.36
436.644	680.77
437.02	669.25
437.395	670.83
437.77	696.82
438.145	691.62
438.52	696.59
438.895	714.22
439.271	708.34
439.646	710.83
440.021	721.9
440.395	742.24
440.77	717.61
441.145	723.03
441.52	733.65
441.895	763.03
442.27	734.56
442.645	741.11
443.019	757.83
443.394	757.16
443.769	749.7
444.143	780.66
444.518	773.65
444.892	750.6
445.267	765.97
445.641	782.69
446.016	786.53
446.39	777.49
446.764	778.62
447.139	793.76
447.513	793.99
447.887	786.08
448.262	781.79
448.636	784.5
449.01	813.88
449.384	811.84
449.758	831.96
450.132	824.95
450.506	833.54
450.88	838.96
451.254	855.68
451.628	859.98
452.002	868.56
452.376	854.33
452.75	874.21
453.123	864.05
453.497	875.57
453.871	896.13
454.244	902.69
454.618	909.02
454.992	907.89
455.365	940.43
455.739	905.85
456.112	946.98
456.486	956.92
456.859	972.52
457.232	946.53
457.606	971.39
457.979	994.66
458.352	994.89
458.725	985.62
459.099	1031.05
459.472	1024.49
459.845	1025.17
460.218	1061.33
460.591	1064.27
460.964	1076.69
461.337	1067.88
461.71	1106.3
462.083	1092.06
462.456	1113.3
462.829	1113.53
463.201	1125.73
463.574	1129.12
463.947	1138.84
464.32	1187.43
464.692	1198.73
465.065	1187.43
465.438	1207.54
465.81	1221.1
466.183	1258.61
466.555	1256.8
466.928	1241.66
467.3	1265.16
467.672	1331.6
468.045	1299.06
468.417	1370.25
468.789	1366.63
469.161	1341.32
469.534	1413.41
469.906	1416.8
470.278	1423.13
470.65	1455.89
471.022	1437.14
471.394	1517.36
471.766	1526.63
472.138	1507.64
472.51	1580.18
472.882	1600.75
473.253	1655.21
473.625	1660.63
473.997	1716.68
474.369	1726.62
474.74	1752.61
475.112	1798.94
475.484	1830.57
475.855	1862.21
476.227	1903.57
476.598	1944.02
476.97	1990.57
477.341	2020.85
477.713	2096.33
478.084	2113.73
478.455	2137.68
478.827	2192.82
479.198	2273.73
479.569	2303.78
479.94	2347.17
480.311	2400.73
480.682	2459.03
481.053	2529.99
481.424	2629.65
481.795	2653.83
482.166	2709.19
482.537	2766.37
482.908	2851.56
483.279	2918.68
483.65	3000.94
484.021	3087.04
484.391	3168.84
484.762	3204.32
485.133	3243.19
485.503	3314.83
485.874	3452
486.244	3487.48
486.615	3591.88
486.985	3667.36
487.356	3786.91
487.726	3810.18
488.097	3937.18
488.467	3940.57
488.837	4079.55
489.207	4160.46
489.578	4266.22
489.948	4337.85
490.318	4488.13
490.688	4494.46
491.058	4608.35
491.428	4688.35
491.798	4839.08
492.168	4932.19
492.538	4943.26
492.908	5049.7
493.278	5131.73
493.648	5172.18
494.017	5290.14
494.387	5405.62
494.757	5493.98
495.126	5499.18
495.496	5587.76
495.866	5663.92
496.235	5787.31
496.605	5807.19
496.974	5935.1
497.344	5979.84
497.713	6056.45
498.082	6142.78
498.452	6208.09
498.821	6301.19
499.19	6376.89
499.559	6457.12
499.928	6506.16
500.298	6618.7
500.667	6694.4
501.036	6707.96
501.405	6708.64
501.774	6805.81
502.143	6913.15
502.512	6954.73
502.88	7008.97
503.249	7081.96
503.618	7140.49
503.987	7145.01
504.356	7187.72
504.724	7317.89
505.093	7368.73
505.462	7436.08
505.83	7472.46
506.199	7594.94
506.567	7584.32
506.936	7627.48
507.304	7769.17
507.672	7739.8
508.041	7817.76
508.409	7905.67
508.777	7953.12
509.145	8055.95
509.514	7987.02
509.882	8080.8
510.25	8175.04
510.618	8167.58
510.986	8235.38
511.354	8295.49
511.722	8412.32
512.09	8491.42
512.458	8462.04
512.826	8554.92
513.193	8631.52
513.561	8626.78
513.929	8615.25
514.297	8731.18
514.664	8819.99
515.032	8802.82
515.4	8910.61
515.767	8946.09
516.135	9036.49
516.502	8976.83
516.869	9186.09
517.237	9201.45
517.604	9159.42
517.972	9229.25
518.339	9298.85
518.706	9305.63
519.073	9423.37
519.44	9426.31
519.808	9485.51
520.175	9449.36
520.542	9626.53
520.909	9666.75
521.276	9702.68
521.643	9764.38
522.009	9755.34
522.376	9901.32
522.743	9907.2
523.11	10025.39
523.477	10158.26
523.843	10119.39
524.21	10237.36
524.577	10242.56
524.943	10271.71
525.31	10338.15
525.676	10419.5
526.043	10496.11
526.409	10576.56
526.776	10601.87
527.142	10675.09
527.508	10678.48
527.874	10761.64
528.241	10809.77
528.607	10896.78
528.973	10908.07
529.339	10954.4
529.705	11088.86
530.071	11124.11
530.437	11179.93
530.803	11289.99
531.169	11448.85
531.535	11343.09
531.901	11406.82
532.267	11431.9
532.632	11533.37
532.998	11534.95
533.364	11589.64
533.73	11642.74
534.095	11673.03
534.461	11768.39
534.826	11867.37
535.192	11907.82
535.557	11947.37
535.923	11959.12
536.288	12020.81
536.653	12079.57
537.019	12119.79
537.384	12042.96
537.749	12142.84
538.114	12145.56
538.479	12252.67
538.845	12286.12
539.21	12335.16
539.575	12381.48
539.94	12417.87
540.305	12491.99
540.67	12519.78
541.034	12568.82
541.399	12663.96
541.764	12665.77
542.129	12598.65
542.494	12854.46
542.858	12807.69
543.223	12785.77
543.587	12920.23
543.952	12951.41
544.316	12984.4
544.681	12999.55
545.045	13081.35
545.41	13193.21
545.774	13222.59
546.138	13173.33
546.503	13217.17
546.867	13359.54
547.231	13434.79
547.595	13411.51
547.959	13542.36
548.324	13470.72
548.688	13503.26
549.052	13571.96
549.416	13710.94
549.779	13789.81
550.143	13665.97
550.507	13806.76
550.871	13858.05
551.235	13892.86
551.599	14006.07
551.962	14053.75
552.326	13988.45
552.689	14113.64
553.053	14025.96
553.417	14117.48
553.78	14266.86
554.143	14224.82
554.507	14366.97
554.87	14413.52
555.234	14517.25
555.597	14380.98
555.96	14466.63
556.323	14524.48
556.686	14545.95
557.05	14671.82
557.413	14735.54
557.776	14762.89
558.139	14851.47
558.502	14888.54
558.865	14860.51
559.228	14959.49
559.59	15048.98
559.953	14980.74
560.316	15143.67
560.679	15173.27
561.041	15227.74
561.404	15374.62
561.767	15406.04
562.129	15408.75
562.492	15505.02
562.854	15514.28
563.217	15483.77
563.579	15575.07
563.941	15627.72
564.304	15735.07
564.666	15838.11
565.028	15811.45
565.39	15894.16
565.753	15919.02
566.115	15988.39
566.477	15969.86
566.839	16103.42
567.201	16278.78
567.563	16206.92
567.925	16345.67
568.287	16287.14
568.648	16360.13
569.01	16464.76
569.372	16572.56
569.734	16596.96
570.095	16718.32
570.457	16757.19
570.819	16764.42
571.18	16808.94
571.542	16851.87
571.903	16940.91
572.265	17109.95
572.626	17084.64
572.987	17184.75
573.349	17358.53
573.71	17398.75
574.071	17399.43
574.432	17541.8
574.794	17665.41
575.155	17650.27
575.516	17741.57
575.877	17929.36
576.238	18012.75
576.599	18153.53
576.96	18287.99
577.32	18333.19
577.681	18506.07
578.042	18628.1
578.403	18779.28
578.763	18862.44
579.124	19059.95
579.485	19167.97
579.845	19359.15
580.206	19400.96
580.566	19539.71
580.927	19727.5
581.287	19905.35
581.648	19997.55
582.008	20201.84
582.368	20330.88
582.728	20596.41
583.089	20756.86
583.449	20978.77
583.809	21159.56
584.169	21368.36
584.529	21487.91
584.889	21802.48
585.249	21880.89
585.609	22037.27
585.969	22465.51
586.329	22506.87
586.688	22764.26
587.048	22981.66
587.408	23136.91
587.768	23467.74
588.127	23570.57
588.487	23782.99
588.846	24177.78
589.206	24283.99
589.565	24652.35
589.925	24996.97
590.284	25169.17
590.643	25370.07
591.003	25626.78
591.362	25965.08
591.721	26216.6
592.08	26460.21
592.44	26703.59
592.799	26938.61
593.158	27156.24
593.517	27376.12
593.876	27643.45
594.235	27897.91
594.593	28262.42
594.952	28475.97
595.311	28596.65
595.67	28863.53
596.029	29262.39
596.387	29572.22
596.746	29772.21
597.104	29908.48
597.463	30204.52
597.822	30465.3
598.18	30695.35
598.538	30844.73
598.897	31130.59
599.255	31142.57
599.613	31862.55
599.972	31868.88
600.33	32133.73
600.688	32312.94
601.046	32636.32
601.404	32924.67
601.762	32919.02
602.12	33363.53
602.478	33505.45
602.836	33755.38
603.194	33803.29
603.552	34013
603.91	33843.97
604.268	34305.65
604.625	34594.01
604.983	34707.9
605.341	34840.1
605.698	35064.95
606.056	35348.56
606.413	35430.59
606.771	35664.94
607.128	35810.24
607.485	35853.86
607.843	36162.78
608.2	36351.47
608.557	36571.35
608.914	36667.85
609.272	36869.88
609.629	37162.3
609.986	37212.47
610.343	37348.51
610.7	37651.1
611.057	37776.97
611.414	37803.64
611.771	37937.42
612.127	38102.61
612.484	38268.49
612.841	38523.85
613.198	38551.87
613.554	38574.24
613.911	39027.79
614.267	39110.95
614.624	39039.99
614.98	39249.7
615.337	39687.21
615.693	39479.75
616.05	39566.08
616.406	39870.25
616.762	39843.59
617.118	39776.47
617.475	39914.54
617.831	40235.67
618.187	40283.12
618.543	40279.28
618.899	40687.63
619.255	40657.8
619.611	40670.23
619.967	40621.87
620.323	40996.1
620.678	40933.27
621.034	40919.94
621.39	40933.27
621.746	41066.38
622.101	41531
622.457	41215.3
622.812	41357.44
623.168	41474.95
623.523	41466.37
623.879	41785.91
624.234	41522.41
624.589	41733.93
624.945	41905.45
625.3	41869.07
625.655	41817.77
626.01	41955.39
626.365	41998.78
626.72	41982.51
627.075	41993.36
627.43	42008.73
627.785	41930.31
628.14	42134.6
628.495	42235.61
628.85	42227.25
629.205	42065.22
629.559	42350.19
629.914	42159.68
630.269	42151.1
630.623	42147.48
630.978	42093.24
631.332	42289.62
631.687	42431.31
632.041	42199.91
632.396	42358.1
632.75	42150.42
633.104	42302.5
633.459	41992.68
633.813	42205.56
634.167	42194.48
634.521	42229.51
634.875	42264.09
635.229	42333.69
635.583	42088.95
635.937	42166.24
636.291	42187.25
636.645	42192.22
636.999	42093.02
637.352	42328.49
637.706	42131.89
638.06	42304.76
638.413	41983.19
638.767	42053.02
639.121	42086.69
639.474	41924.66
639.828	41945
640.181	42083.98
640.534	42074.03
640.888	41955.85
641.241	41780.26
641.594	41679.24
641.947	42048.5
642.301	41766.47
642.654	41962.85
643.007	41932.34
643.36	41901.61
643.713	41749.52
644.066	41968.5
644.419	41722.86
644.771	41408.06
645.124	41225.24
645.477	41143.44
645.83	40764.69
646.182	40587.75
646.535	40634.98
646.888	40752.49
647.24	40328.54
647.593	40719.72
647.945	40613.06
648.298	40395.89
648.65	40406.51
649.002	40202.67
649.355	40527.41
649.707	40439.5
650.059	40599.72
650.411	40905.25
650.763	41098.47
651.115	41399.02
651.467	41357.9
651.819	41296.43
652.171	41238.35
652.523	41181.4
652.875	41070.22
653.227	40920.39
653.578	41232.93
653.93	41198.58
654.282	40876.55
654.633	40993.61
654.985	41090.11
655.337	41058.92
655.688	41111.35
656.039	41168.07
656.391	40867.51
656.742	41008.53
657.094	40889.21
657.445	41109.77
657.796	41033.61
658.147	41013.5
658.498	40880.62
658.849	40944.57
659.2	40901.64
659.551	40785.26
659.902	40981.63
660.253	40934.18
660.604	40959.04
660.955	40597.46
661.306	40955.65
661.656	40838.59
662.007	40936.66
662.358	40849.21
662.708	40861.19
663.059	40798.14
663.409	40578.93
663.76	40879.94
664.11	40841.07
664.461	40915.2
664.811	40793.84
665.161	40756.33
665.511	40714.07
665.862	40717.91
666.212	40855.76
666.562	40788.87
666.912	40645.37
667.262	40708.42
667.612	40704.81
667.962	40837.68
668.312	40683.79
668.662	40886.95
669.011	40796.78
669.361	40575.77
669.711	40667.07
670.06	40668.87
670.41	40641.53
670.76	40577.58
671.109	40704.35
671.459	40606.95
671.808	40545.71
672.157	40588.65
672.507	40251.71
672.856	40391.37
673.205	40572.83
673.554	40653.73
673.904	40424.13
674.253	40594.3
674.602	40468.2
674.951	39808.11
675.3	39688.79
675.649	40503
675.998	40271.14
676.346	40280.41
676.695	40440.63
677.044	40040.42
677.393	40329.45
677.741	40411.93
678.09	40271.14
678.438	40204.03
678.787	40226.4
679.135	40092.62
679.484	39848.1
679.832	40176.46
680.181	39784.6
680.529	39930.81
680.877	39844.26
681.225	39805.62
681.573	40126.52
681.922	39685.85
682.27	39797.48
682.618	39728.11
682.966	39586.42
683.314	39636.36
683.661	39483.82
684.009	39234.56
684.357	39281.57
684.705	39255.13
685.053	39340.1
685.4	39246.54
685.748	39044.96
686.095	39092.87
686.443	38950.95
686.79	38801.13
687.138	39027.34
687.485	38918.41
687.832	38852.88
688.18	38740.56
688.527	38773.1
688.874	38594.35
689.221	38533.11
689.568	38463.73
689.915	38174.25
690.262	38268.03
690.609	38064.87
690.956	38031.2
691.303	38169.05
691.65	37826.46
691.997	37927.48
692.344	37709.18
692.69	37617.2
693.037	37653.36
693.383	37445.68
693.73	37499.01
694.077	37339.02
694.423	37360.94
694.769	37167.72
695.116	37215.18
695.462	37118.23
695.808	36932.48
696.155	37073.94
696.501	36785.81
696.847	36720.28
697.193	36623.33
697.539	36792.37
697.885	36488.19
698.231	36455.65
698.577	36390.57
698.923	36269.67
699.269	36109.45
699.614	36020.41
699.96	35866.29
700.306	35898.6
700.651	35751.04
700.997	35626.97
701.342	35490.25
701.688	35524.6
702.033	35275.12
702.379	35287.09
702.724	35177.27
703.069	35250.03
703.415	34974.11
703.76	34956.93
704.105	34961.91
704.45	34844.85
704.795	34638.52
705.14	34545.19
705.485	34464.74
705.83	34397.17
706.175	34561.24
706.52	34291.64
706.865	34244.86
707.209	34211.87
707.554	34156.5
707.899	34179.1
708.243	33890.07
708.588	33851.88
708.932	33685.55
709.277	33705.67
709.621	33728.49
709.966	33622.28
710.31	33576.63
710.654	33267.94
710.998	33344.32
711.342	33311.78
711.687	33136.87
712.031	33116.76
712.375	33034.72
712.719	33032.24
713.063	32863.2
713.407	32927.83
713.75	32922.64
714.094	32863.2
714.438	32761.51
714.782	32769.65
715.125	32471.8
715.469	32577.79
715.812	32459.6
716.156	32300.96
716.499	32272.94
716.843	32373.73
717.186	32103
717.53	32278.81
717.873	32285.37
718.216	32295.54
718.559	32086.27
718.902	31776.23
719.246	31966.96
719.589	31825.26
719.932	31648.77
720.275	31682.44
720.617	31656.46
720.96	31622.33
721.303	31612.84
721.646	31621.2
721.989	31492.84
722.331	31462.79
722.674	31345.5
723.016	31505.27
723.359	31409.23
723.701	31346.41
724.044	31095.79
724.386	31158.39
724.729	31061.22
725.071	31054.89
725.413	31022.57
725.755	30917.49
726.097	30867.32
726.439	30753.65
726.782	30878.62
727.124	30901.9
727.465	30639.99
727.807	30733.77
728.149	30604.51
728.491	30538.97
728.833	30700.55
729.175	30353.89
729.516	30448.58
729.858	30385.53
730.199	30391.4
730.541	30279.54
730.882	30274.57
731.224	30220.56
731.565	30227.34
731.906	30074.12
732.248	30187.57
732.589	30062.6
732.93	29849.27
733.271	29919.1
733.612	29894.69
733.953	30009.95
734.294	29862.15
734.635	29787.8
734.976	29790.97
735.317	29670.75
735.658	29651.08
735.999	29579.9
736.339	29611.09
736.68	29566.34
737.021	29500.58
737.361	29335.61
737.702	29567.02
738.042	29406.57
738.383	29456.97
738.723	29348.27
739.063	29334.03
739.404	29296.07
739.744	29142.62
740.084	29193.92
740.424	29153.7
740.764	29056.3
741.104	29182.62
741.444	28971.55
741.784	28985.34
742.124	29149.18
742.464	28799.81
742.804	28757.32
743.143	28770.88
743.483	28740.83
743.823	28668.06
744.162	28549.87
744.502	28577.89
744.841	28443.66
745.181	28590.55
745.52	28505.35
745.86	28456.77
746.199	28445.69
746.538	28487.5
746.877	28446.6
747.216	28363.89
747.556	28328.18
747.895	28223.78
748.234	28208.86
748.573	28165.02
748.911	28050.22
749.25	28034.86
749.589	27859.95
749.928	28053.39
750.267	28059.94
750.605	27938.14
750.944	27840.28
751.283	27742.21
751.621	27821.53
751.96	27625.15
752.298	27622.89
752.636	27707.18
752.975	27505.38
753.313	27534.53
753.651	27494.53
753.989	27316
754.327	27245.95
754.666	27215.44
755.004	27218.38
755.342	27257.48
755.679	27142.68
756.017	27035.56
756.355	27081.21
756.693	26949.23
757.031	26979.52
757.368	26771.16
757.706	26791.27
758.044	26835.79
758.381	26766.87
758.719	26605.74
759.056	26615.23
759.394	26499.08
759.731	26332.75
760.068	26139.31
760.405	26253.66
760.743	26123.27
761.08	26256.6
761.417	26079.65
761.754	26020.22
762.091	25908.13
762.428	25846.89
762.765	25638.76
763.102	25769.15
763.438	25622.94
763.775	25554.47
764.112	25542.27
764.449	25473.57
764.785	25407.58
765.122	25278.54
765.458	25174.37
765.795	25183.18
766.131	25029.51
766.467	24955.16
766.804	24841.95
767.14	24730.08
767.476	24742.29
767.812	24687.15
768.148	24675.17
768.485	24389.53
768.821	24432.24
769.157	24279.47
769.492	24329.64
769.828	24218.91
770.164	23961.29
770.5	23971.46
770.836	24011.23
771.171	23839.49
771.507	23771.47
771.842	23540.74
772.178	23695.54
772.513	23483.34
772.849	23488.53
773.184	23275.43
773.519	23424.81
773.855	23163.12
774.19	23201.54
774.525	22929.68
774.86	23051.48
775.195	22945.5
775.53	22814.43
775.865	22798.16
776.2	22595
776.535	22466.41
776.87	22400.43
777.205	22357.72
777.539	22388.45
777.874	22281.11
778.209	22196.14
778.543	22080.89
778.878	21952.53
779.212	21933.32
779.547	21771.29
779.881	21816.94
780.215	21708.47
780.55	21849.48
780.884	21541.69
781.218	21514.8
781.552	21558.42
781.886	21380.34
782.22	21361.59
782.554	21229.84
782.888	21010.41
783.222	20809.51
783.556	20886.34
783.889	20774.93
784.223	20712.11
784.557	20790.3
784.89	20767.02
785.224	20516.86
785.557	20387.37
785.891	20401.38
786.224	20305.34
786.558	20333.14
786.891	20126.36
787.224	20075.74
787.557	19973.37
787.891	20008.85
788.224	19962.75
788.557	19847.27
788.89	19849.31
789.223	19808.18
789.556	19665.81
789.888	19611.12
790.221	19429.21
790.554	19303.56
790.887	19360.73
791.219	19270.79
791.552	19265.14
791.884	19124.58
792.217	19074.87
792.549	19020.4
792.882	18917.13
793.214	18765.95
793.546	18859.96
793.879	18727.98
794.211	18543.35
794.543	18751.48
794.875	18577.03
795.207	18632.62
795.539	18526.86
795.871	18446.41
796.203	18309.01
796.535	18202.8
796.867	18158.73
797.198	18106.53
797.53	18186.3
797.862	18060.2
798.193	18096.59
798.525	17858.63
798.856	17896.82
799.188	17742.92
799.519	17688.69
799.85	17695.47
800.182	17632.87
800.513	17612.76
800.844	17477.39
801.175	17621.34
801.506	17390.39
801.837	17362.14
802.168	17393.78
802.499	17332.09
802.83	17115.82
803.161	17160.57
803.491	17148.81
803.822	17137.52
804.153	17123.28
804.483	16944.53
804.814	16964.19
805.145	16860.46
805.475	16843.74
805.805	16768.71
806.136	16747.7
806.466	16761.25
806.796	16736.17
807.126	16454.82
807.457	16542.5
807.787	16486.23
808.117	16404.65
808.447	16366.69
808.777	16417.99
809.107	16233.58
809.436	16224.77
809.766	16170.76
810.096	16170.31
810.426	16011.67
810.755	16231.1
811.085	16050.99
811.414	15970.77
811.744	15955.17
812.073	15930.99
812.403	15882.63
812.732	15838.11
813.061	15891.67
813.39	15747.5
813.719	15653.94
814.049	15695.29
814.378	15590.89
814.707	15600.38
815.036	15596.31
815.365	15463.89
815.693	15370.78
816.022	15332.82
816.351	15299.6
816.68	15223.89
817.008	15355.87
817.337	15205.36
817.665	15261.18
817.994	15216.89
818.322	15109.55
818.651	15037.46
818.979	15007.18
819.307	15074.07
819.636	14986.16
819.964	14917.46
820.292	14906.16
820.62	14962.21
820.948	14907.29
821.276	14960.62
821.604	14928.08
821.932	14996.78
822.259	14907.52
822.587	14810.8
822.915	14805.37
823.243	14869.1
823.57	14762.66
823.898	14785.49
824.225	14692.83
824.553	14781.19
824.88	14825.03
825.207	14775.77
825.535	14799.05
825.862	14825.71
826.189	14721.76
826.516	14800.63
826.843	14786.62
827.17	14867.07
827.497	14808.31
827.824	14821.19
828.151	14835.43
828.478	14770.35
828.805	14825.03
829.131	14737.58
829.458	14782.1
829.785	14686.28
830.111	14716.11
830.438	14782.78
830.764	14698.94
831.09	14705.04
831.417	14677.02
831.743	14767.86
832.069	14638.82
832.395	14701.65
832.722	14656.45
833.048	14570.58
833.374	14721.99
833.7	14566.06
834.026	14517.25
834.351	14675.43
834.677	14552.27
835.003	14611.25
835.329	14569.9
835.654	14562.22
835.98	14540.75
836.306	14500.52
836.631	14437.47
836.956	14569.9
837.282	14503.69
837.607	14392.95
837.932	14341.66
838.258	14340.98
838.583	14260.3
838.908	14301.21
839.233	14277.25
839.558	14285.84
839.883	14212.17
840.208	14131.04
840.533	14178.95
840.858	14191.6
841.182	14112.51
841.507	14136.92
841.832	14053.08
842.156	14012.17
842.481	14002.46
842.805	14068.22
843.13	13942.12
843.454	13889.01
843.778	13848.11
844.103	13813.08
844.427	13744.16
844.751	13833.87
845.075	13723.82
845.399	13729.7
845.723	13618.29
846.047	13669.36
846.371	13520.44
846.695	13512.98
847.019	13468.01
847.343	13376.48
847.666	13351.63
847.99	13312.31
848.313	13325.19
848.637	13075.25
848.96	13259.88
849.284	13135.36
849.607	13030.28
849.931	12985.53
850.254	12898.53
850.577	12840.68
850.9	12803.62
851.223	12750.96
851.546	12722.49
851.869	12627.58
852.192	12650.18
852.515	12561.82
852.838	12489.95
853.161	12539.44
853.483	12469.62
853.806	12381.03
854.129	12288.15
854.451	12208.15
854.774	12182.62
855.096	12252.9
855.419	12174.26
855.741	12161.15
856.063	12069.17
856.385	12014.49
856.708	12032.34
857.03	11995.96
857.352	11953.92
857.674	11977.2
857.996	11796.86
858.318	11784.66
858.64	11806.81
858.961	11716.87
859.283	11808.39
859.605	11647.72
859.926	11733.59
860.248	11717.09
860.57	11539.47
860.891	11598.23
861.212	11534.05
861.534	11567.27
861.855	11476.2
862.176	11483.43
862.498	11458.57
862.819	11479.59
863.14	11453.37
863.461	11419.02
863.782	11311.23
864.103	11362.75
864.424	11331.11
864.745	11332.47
865.065	11283.88
865.386	11284.79
865.707	11207.28
866.027	11266.48
866.348	11177.22
866.668	11221.29
866.989	11106.49
867.309	11087.05
867.63	11085.02
867.95	11070.1
868.27	11020.61
868.59	10968.41
868.91	10985.81
869.23	11009.77
869.55	10963.89
869.87	11056.09
870.19	10958.92
870.51	11065.13
870.83	11015.42
871.15	10911.92
871.469	10854.52
871.789	10806.83
872.109	10872.6
872.428	10717.12
872.748	10823.11
873.067	10821.07
873.386	10804.12
873.706	10819.94
874.025	10703.79
874.344	10641.19
874.663	10722.09
874.982	10749.21
875.301	10653.62
875.62	10622.88
875.939	10650.23
876.258	10669.89
876.577	10544.24
876.896	10608.65
877.214	10540.4
877.533	10645.48
877.852	10533.4
878.17	10580.4
878.489	10489.55
878.807	10563.45
879.125	10467.86
879.444	10470.12
879.762	10425.83
880.08	10411.36
880.398	10419.73
880.716	10349.9
881.034	10343.8
881.352	10374.98
881.67	10326.17
881.988	10323.01
882.306	10270.58
882.624	10269.22
882.941	10210.24
883.259	10200.75
883.577	10140.64
883.894	10151.48
884.212	10156.68
884.529	10145.16
884.846	10063.58
885.164	10002.11
885.481	9926.41
885.798	10042.33
886.115	9985.16
886.432	9935.9
886.75	9930.25
887.067	9922.34
887.383	9902.68
887.7	9855
888.017	9788.78
888.334	9846.41
888.651	9767.54
888.967	9798.05
889.284	9728.44
889.6	9756.92
889.917	9720.54
890.233	9666.75
890.55	9629.24
890.866	9619.07
891.182	9503.59
891.498	9503.37
891.815	9490.03
892.131	9463.14
892.447	9436.93
892.763	9427.44
893.079	9381.11
893.395	9375.46
893.71	9344.73
894.026	9315.35
894.342	9353.54
894.657	9212.53
894.973	9274.45
895.289	9230.6
895.604	9183.6
895.92	9162.36
896.235	9125.97
896.55	9120.78
896.865	9075.13
897.181	9002.36
897.496	9065.19
897.811	9034
898.126	8928.47
898.441	8905.19
898.756	8943.15
899.071	8849.6
899.386	8828.13
899.7	8709.94
900.015	8746.1
900.33	8630.62
900.644	8692.54
900.959	8660.22
901.273	8703.16
901.588	8631.75
901.902	8593.79
902.216	8510.4
902.531	8539.78
902.845	8482.38
903.159	8462.72
903.473	8379.33
903.787	8298.88
904.101	8344.75
904.415	8302.49
904.729	8300.23
905.042	8254.36
905.356	8172.78
905.67	8234.7
905.984	8164.42
906.297	8104.31
906.611	8073.8
906.924	8074.7
907.237	8095.95
907.551	8064.99
907.864	7990.64
908.177	7953.35
908.491	7947.47
908.804	7858.66
909.117	7877.42
909.43	7854.82
909.743	7813.69
910.056	7828.16
910.368	7748.84
910.681	7758.78
910.994	7665.22
911.307	7688.72
911.619	7567.6
911.932	7625
912.244	7568.05
912.557	7524.66
912.869	7542.29
913.181	7475.17
913.494	7399.47
913.806	7363.08
914.118	7414.61
914.43	7346.36
914.742	7328.51
915.054	7278.57
915.366	7343.42
915.678	7229.53
915.99	7155.41
916.302	7170.32
916.613	7066.14
916.925	7083.54
917.236	7124.9
917.548	7072.92
917.859	7012.36
918.171	6977.33
918.482	6993.6
918.794	6929.42
919.105	6902.76
919.416	6791.57
919.727	6830.44
920.038	6814.4
920.349	6752.7
920.66	6704.57
920.971	6720.16
921.282	6662.54
921.593	6663.44
921.903	6599.94
922.214	6625.93
922.525	6533.05
922.835	6559.04
923.146	6500.06
923.456	6514.74
923.767	6525.82
924.077	6488.53
924.387	6459.38
924.697	6371.02
925.008	6335.77
925.318	6321.3
925.628	6347.97
925.938	6249.21
926.248	6186.39
926.558	6188.2
926.867	6188.42
927.177	6189.1
927.487	6163.11
927.796	6097.58
928.106	6102.1
928.416	6066.62
928.725	6102.33
929.034	6022.78
929.344	6051.03
929.653	5940.3
929.962	5915.89
930.271	5888.32
930.581	5867.53
930.89	5830.02
931.199	5844.48
931.508	5809.23
931.817	5813.52
932.125	5730.58
932.434	5746.63
932.743	5698.95
933.051	5705.73
933.36	5667.31
933.669	5656.46
933.977	5666.18
934.286	5570.59
934.594	5587.99
934.902	5514.54
935.21	5491.95
935.519	5500.08
935.827	5456.24
936.135	5486.97
936.443	5401.1
936.751	5427.31
937.059	5382.8
937.367	5331.27
937.674	5327.66
937.982	5357.03
938.29	5319.52
938.597	5289.92
938.905	5216.47
939.213	5206.76
939.52	5155.23
939.827	5171.28
940.135	5137.15
940.442	5145.06
940.749	5086.98
941.056	5104.84
941.363	5053.99
941.67	4997.04
941.977	5007.66
942.284	4995.24
942.591	5004.05
942.898	4897.39
943.205	4986.42
943.511	4922.7
943.818	4947.33
944.125	4849.7
944.431	4861.91
944.738	4853.54
945.044	4788.91
945.35	4772.87
945.657	4770.84
945.963	4746.65
946.269	4704.85
946.575	4673.66
946.881	4686.32
947.187	4672.08
947.493	4662.14
947.799	4590.27
948.105	4602.03
948.41	4588.24
948.716	4571.07
949.022	4571.52
949.327	4504.4
949.633	4468.47
949.938	4451.52
950.244	4480.67
950.549	4458.75
950.854	4386.89
951.16	4448.36
951.465	4370.62
951.77	4342.6
952.075	4398.42
952.38	4339.21
952.685	4316.84
952.99	4277.06
953.294	4269.61
953.599	4267.57
953.904	4247.68
954.209	4223.28
954.513	4219.66
954.818	4181.02
955.122	4154.58
955.426	4148.7
955.731	4065.99
956.035	4092.21
956.339	4073.9
956.643	4114.36
956.948	4060.57
957.252	4037.97
957.556	4085.66
957.86	4035.26
958.163	3990.29
958.467	4022.38
958.771	3986.45
959.075	3985.54
959.378	3936.96
959.682	3874.81
959.985	3893.57
960.289	3876.85
960.592	3863.29
960.896	3861.71
961.199	3852.44
961.502	3806.11
961.805	3817.19
962.108	3790.97
962.411	3797.08
962.714	3729.96
963.017	3716.17
963.32	3726.79
963.623	3673.91
963.926	3676.4
964.228	3703.97
964.531	3690.19
964.833	3626.68
965.136	3598.44
965.438	3565.44
965.741	3609.06
966.043	3544.2
966.345	3542.39
966.648	3555.27
966.95	3554.14
967.252	3503.3
967.554	3483.41
967.856	3479.12
968.158	3453.58
968.46	3476.18
968.761	3469.63
969.063	3429.4
969.365	3428.5
969.666	3389.85
969.968	3360.02
970.269	3361.61
970.571	3327.71
970.872	3343.75
971.174	3325.9
971.475	3307.82
971.776	3252.46
972.077	3282.06
972.378	3266.24
972.679	3251.78
972.98	3216.98
973.281	3202.06
973.582	3196.19
973.883	3204.1
974.183	3153.7
974.484	3144.66
974.785	3148.73
975.085	3149.18
975.386	3132.46
975.686	3120.48
975.986	3076.19
976.287	3050.43
976.587	3068.96
976.887	3001.39
977.187	3014.27
977.487	3036.64
977.787	2988.28
978.087	2995.97
978.387	3004.55
978.687	2939.47
978.987	2965.68
979.286	2910.32
979.586	2963.42
979.885	2890.66
980.185	2910.09
980.484	2866.93
980.784	2845.01
981.083	2845.46
981.382	2845.69
981.682	2859.02
981.981	2842.75
982.28	2867.38
982.579	2815.41
982.878	2777.89
983.177	2774.05
983.475	2786.93
983.774	2755.52
984.073	2752.13
984.372	2722.53
984.67	2711.45
984.969	2722.08
985.267	2713.04
985.566	2688.63
985.864	2668.07
986.162	2618.58
986.461	2627.16
986.759	2639.59
987.057	2608.41
987.355	2594.62
987.653	2586.49
987.951	2563.44
988.249	2569.31
988.547	2595.07
988.844	2569.31
989.142	2556.43
989.44	2534.74
989.737	2523.44
990.035	2509.65
990.332	2527.5
990.63	2465.58
990.927	2487.28
991.224	2465.58
991.521	2439.82
991.819	2460.84
992.116	2433.95
992.413	2452.93
992.71	2426.94
993.006	2402.54
993.303	2409.32
993.6	2361.63
993.897	2384.91
994.193	2384.23
994.49	2311.46
994.787	2337.45
995.083	2325.7
995.379	2300.39
995.676	2308.3
995.972	2293.84
996.268	2277.57
996.565	2255.87
996.861	2269.21
997.157	2255.65
997.453	2261.3
997.749	2216.78
998.044	2181.52
998.34	2186.27
998.636	2176.1
998.932	2153.05
999.227	2117.8
999.523	2147.4
999.818	2141.98
1000.114	2122.54
1000.409	2092.49
1000.704	2108.98
1001	2101.07
1001.295	2082.54
1001.59	2087.74
1001.885	2071.47
1002.18	2022.21
1002.475	2060.17
1002.77	2000.06
1003.065	2023.79
1003.359	2021.3
1003.654	2004.13
1003.949	2010.68
1004.243	1997.57
1004.538	1991.7
1004.832	1962.77
1005.127	1974.07
1005.421	1947.86
1005.715	1935.43
1006.009	1909.22
1006.304	1876.22
1006.598	1883.45
1006.892	1877.58
1007.186	1901.31
1007.48	1863.57
1007.773	1846.17
1008.067	1825.83
1008.361	1833.74
1008.655	1794.42
1008.948	1832.61
1009.242	1829.44
1009.535	1783.57
1009.829	1811.36
1010.122	1757.13
1010.415	1779.73
1010.708	1775.89
1011.001	1728.88
1011.295	1698.37
1011.588	1716.9
1011.881	1728.2
1012.173	1713.51
1012.466	1710.35
1012.759	1657.47
1013.052	1669.45
1013.344	1651.37
1013.637	1645.27
1013.93	1615.21
1014.222	1638.94
1014.514	1624.7
1014.807	1604.82
1015.099	1616.34
1015.391	1631.03
1015.683	1604.14
1015.976	1564.14
1016.268	1552.39
1016.56	1547.42
1016.851	1548.55
1017.143	1568.89
1017.435	1533.63
1017.727	1534.76
1018.018	1534.08
1018.31	1488.89
1018.602	1517.81
1018.893	1487.98
1019.185	1483.46
1019.476	1463.58
1019.767	1469
1020.058	1462
1020.35	1430.81
1020.641	1412.05
1020.932	1409.34
1021.223	1427.19
1021.514	1416.35
1021.804	1363.02
1022.095	1404.82
1022.386	1379.06
1022.677	1372.51
1022.967	1354.2
1023.258	1366.4
1023.548	1351.04
1023.839	1349.23
1024.129	1330.7
1024.419	1333.64
1024.709	1277.59
1025	1299.51
1025.29	1289.34
1025.58	1273.98
1025.87	1264.94
1026.16	1292.06
1026.449	1265.16
1026.739	1249.35
1027.029	1226.07
1027.319	1220.87
1027.608	1242.79
1027.898	1232.62
1028.187	1193.75
1028.477	1234.88
1028.766	1177.94
1029.055	1179.07
1029.344	1189.01
1029.634	1137.94
1029.923	1157.14
1030.212	1148.33
1030.501	1158.27
1030.79	1144.49
1031.078	1126.86
1031.367	1135.22
1031.656	1094.55
1031.945	1117.15
1032.233	1096.58
1032.522	1103.13
1032.81	1075.34
1033.099	1067.66
1033.387	1099.07
1033.675	1056.58
1033.963	1068.56
1034.251	1073.08
1034.54	1067.43
1034.828	1059.52
1035.116	1003.7
1035.403	1022.46
1035.691	1005.28
1035.979	1014.78
1036.267	992.18
1036.554	1017.71
1036.842	976.13
1037.129	982.91
1037.417	997.6
1037.704	974.78
1037.992	970.48
1038.279	956.02
1038.566	956.47
1038.853	956.47
1039.14	956.47
