Data from hue_210_FLMS001491_00071.txt Node
Date: Tue Feb 07 16:41:40 GMT 2017
User: dcchb
Spectrometer: FLMS00149
Trigger mode: 0
Integration Time (sec): 2.000000E-2
Scans to average: 10
Electric dark correction enabled: true
Nonlinearity correction enabled: false
Boxcar width: 0
XAxis mode: Wavelengths
Number of Pixels in Spectrum: 2048
>>>>>Begin Spectral Data<<<<<
341.393	10.23
341.776	10.23
342.16	10.23
342.543	-70
342.927	-52.82
343.31	-60.05
343.693	-59.6
344.077	-66.38
344.46	-45.82
344.843	-63.67
345.226	-39.26
345.61	-28.87
345.993	-20.73
346.376	0.96
346.759	14.75
347.142	14.29
347.525	36.67
347.908	49.09
348.291	79.15
348.674	83.22
349.057	106.27
349.44	127.06
349.823	125.02
350.206	162.09
350.588	193.95
350.971	212.71
351.354	211.35
351.737	248.19
352.119	225.14
352.502	256.77
352.884	271.91
353.267	267.62
353.65	265.36
354.032	281.86
354.414	305.59
354.797	304.23
355.179	284.57
355.562	303.1
355.944	327.28
356.326	329.09
356.709	335.19
357.091	349.88
357.473	335.19
357.855	336.32
358.238	346.04
358.62	317.11
359.002	337.67
359.384	318.69
359.766	321.86
360.148	329.09
360.53	315.75
360.912	317.11
361.294	320.27
361.676	320.95
362.057	321.4
362.439	325.02
362.821	322.31
363.203	311.91
363.584	300.61
363.966	319.82
364.348	323.66
364.729	303.1
365.111	311.46
365.493	317.34
365.874	316.21
366.256	315.3
366.637	306.26
367.019	316.43
367.4	311.46
367.781	294.51
368.163	305.36
368.544	303.78
368.925	297.68
369.306	318.92
369.688	305.81
370.069	297.22
370.45	299.03
370.831	310.33
371.212	308.75
371.593	286.6
371.974	278.92
372.355	313.95
372.736	305.13
373.117	318.01
373.498	317.56
373.879	320.5
374.26	317.34
374.641	311.23
375.021	311.69
375.402	302.65
375.783	317.11
376.163	329.99
376.544	301.74
376.925	329.09
377.305	329.54
377.686	313.27
378.066	307.17
378.447	323.21
378.827	311.91
379.208	336.77
379.588	310.78
379.968	333.38
380.349	344.23
380.729	327.05
381.109	352.59
381.489	337.45
381.87	318.24
382.25	332.25
382.63	343.78
383.01	315.53
383.39	320.73
383.77	351.01
384.15	329.09
384.53	353.72
384.91	339.48
385.29	347.39
385.67	351.23
386.049	342.42
386.429	350.56
386.809	338.13
387.189	342.19
387.568	338.8
387.948	320.27
388.328	334.74
388.707	355.98
389.087	349.43
389.466	366.37
389.846	362.53
390.225	361.4
390.605	375.19
390.984	361.18
391.363	362.08
391.743	375.41
392.122	357.11
392.501	372.02
392.881	371.12
393.26	374.96
393.639	392.14
394.018	376.77
394.397	368.63
394.776	381.06
395.155	378.35
395.534	383.1
395.913	382.42
396.292	391.68
396.671	382.19
397.05	407.73
397.429	389.88
397.808	395.98
398.186	406.15
398.565	416.99
398.944	385.36
399.323	379.71
399.701	406.15
400.08	420.61
400.458	390.1
400.837	421.29
401.215	425.58
401.594	433.72
401.972	431.91
402.351	398.01
402.729	412.7
403.107	421.97
403.486	444.56
403.864	436.66
404.242	430.33
404.62	442.3
404.999	429.88
405.377	453.38
405.755	428.97
406.133	449.54
406.511	452.25
406.889	474.17
407.267	482.98
407.645	464.9
408.023	461.97
408.401	504.45
408.779	504.45
409.156	516.88
409.534	494.51
409.912	509.65
410.29	508.74
410.667	540.16
411.045	548.97
411.422	542.87
411.8	528.4
412.178	554.17
412.555	544.45
412.933	588.06
413.31	575.86
413.687	618.35
414.065	617.67
414.442	611.34
414.819	615.86
415.197	617.89
415.574	634.62
415.951	658.57
416.328	672.58
416.705	651.11
417.082	666.48
417.46	660.6
417.837	690.66
418.214	699.93
418.591	703.31
418.967	724.56
419.344	738.57
419.721	741.96
420.098	741.28
420.475	758.68
420.852	768.62
421.228	772.47
421.605	809.98
421.982	802.97
422.358	807.94
422.735	829.64
423.111	863.99
423.488	841.84
423.864	881.62
424.241	895.17
424.617	907.15
424.994	880.71
425.37	935.4
425.746	947.6
426.123	920.94
426.499	945.12
426.875	960.26
427.251	1000.71
427.627	999.58
428.003	1010.43
428.379	1021.5
428.756	1035.74
429.132	1057.66
429.507	1087.49
429.883	1089.07
430.259	1104.66
430.635	1117.09
431.011	1131.1
431.387	1150.76
431.763	1180.14
432.138	1170.2
432.514	1203.64
432.89	1210.65
433.265	1221.72
433.641	1258.78
434.016	1276.18
434.392	1285.9
434.767	1339.46
435.143	1331.09
435.518	1339.46
435.894	1394.6
436.269	1415.16
436.644	1445.89
437.02	1435.05
437.395	1485.89
437.77	1501.94
438.145	1514.14
438.52	1517.76
438.895	1556.4
439.271	1562.05
439.646	1628.04
440.021	1651.31
440.395	1668.94
440.77	1651.99
441.145	1703.74
441.52	1745.1
441.895	1769.05
442.27	1766.34
442.645	1769.05
443.019	1795.04
443.394	1787.35
443.769	1840.23
444.143	1851.76
444.518	1870.29
444.892	1880.91
445.267	1896.73
445.641	1903.51
446.016	1923.62
446.39	1962.04
446.764	1958.65
447.139	1965.88
447.513	1991.87
447.887	1984.19
448.262	2029.38
448.636	2035.03
449.01	2053.34
449.384	2075.03
449.758	2062.15
450.132	2122.49
450.506	2113.22
450.88	2142.83
451.254	2117.29
451.628	2164.29
452.002	2170.17
452.376	2199.55
452.75	2226.66
453.123	2206.1
453.497	2286.32
453.871	2275.93
454.244	2346.89
454.618	2341.01
454.992	2374.68
455.365	2393.89
455.739	2419.88
456.112	2455.36
456.486	2494.23
456.859	2472.08
457.232	2519.76
457.606	2536.94
457.979	2549.14
458.352	2631.4
458.725	2650.61
459.099	2687.67
459.472	2737.84
459.845	2720.44
460.218	2763.15
460.591	2782.36
460.964	2767.89
461.337	2870.72
461.71	2869.13
462.083	2909.36
462.456	2891.51
462.829	2939.64
463.201	2966.53
463.574	3007.44
463.947	3038.39
464.32	3121.56
464.692	3161.1
465.065	3135.57
465.438	3187.09
465.81	3232.74
466.183	3296.02
466.555	3347.31
466.928	3358.84
467.3	3338.05
467.672	3408.1
468.045	3442.9
468.417	3471.6
468.789	3480.42
469.161	3556.57
469.534	3625.72
469.906	3702.11
470.278	3679.06
470.65	3756.79
471.022	3811.03
471.394	3843.8
471.766	3863.23
472.138	3963.57
472.51	3995.88
472.882	4052.38
473.253	4060.97
473.625	4170.34
473.997	4214.41
474.369	4255.31
474.74	4256.44
475.112	4345.7
475.484	4399.94
475.855	4462.54
476.227	4500.73
476.598	4613.04
476.97	4653.95
477.341	4739.14
477.713	4794.05
478.084	4832.7
478.455	4953.15
478.827	4971.23
479.198	5141.16
479.569	5085.8
479.94	5271.56
480.311	5305
480.682	5350.2
481.053	5484.88
481.424	5539.57
481.795	5579.12
482.166	5661.6
482.537	5699.79
482.908	5800.36
483.279	5909.73
483.65	5968.71
484.021	6061.82
484.391	6098.43
484.762	6182.27
485.133	6215.26
485.503	6260
485.874	6418.19
486.244	6451.64
486.615	6523.5
486.985	6649.37
487.356	6741.35
487.726	6742.7
488.097	6876.03
488.467	6943.83
488.837	6991.96
489.207	7113.99
489.578	7175.46
489.948	7230.83
490.318	7343.59
490.688	7326.19
491.058	7483.48
491.428	7478.28
491.798	7531.16
492.168	7730.7
492.538	7719.85
492.908	7792.17
493.278	7826.97
493.648	7883.01
494.017	7974.08
494.387	8001.65
494.757	8100.18
495.126	8138.83
495.496	8180.18
495.866	8225.38
496.235	8263.12
496.605	8265.6
496.974	8357.12
497.344	8372.49
497.713	8406.39
498.082	8495.43
498.452	8554.41
498.821	8503.11
499.19	8550.79
499.559	8617.68
499.928	8698.81
500.298	8710.34
500.667	8760.73
501.036	8797.34
501.405	8813.84
501.774	8887.05
502.143	8880.95
502.512	8890.44
502.88	8979.93
503.249	8959.14
503.618	8972.02
503.987	8986.03
504.356	9062.87
504.724	9083.66
505.093	9081.17
505.462	9110.33
505.83	9172.47
506.199	9134.73
506.567	9343.31
506.936	9214.28
507.304	9343.77
507.672	9328.17
508.041	9329.53
508.409	9428.06
508.777	9458.56
509.145	9437.1
509.514	9434.84
509.882	9532.69
510.25	9475.51
510.618	9567.04
510.986	9517.32
511.354	9546.92
511.722	9650.65
512.09	9612.69
512.458	9595.51
512.826	9686.13
513.193	9703.08
513.561	9650.88
513.929	9607.26
514.297	9730.65
514.664	9793.92
515.032	9736.07
515.4	9840.48
515.767	9818.78
516.135	9815.84
516.502	9741.04
516.869	9857.2
517.237	9844.77
517.604	9807.26
517.972	9922.51
518.339	9886.8
518.706	9807.03
519.073	9854.26
519.44	9861.94
519.808	9947.37
520.175	9906.69
520.542	10023.07
520.909	9949.4
521.276	9926.58
521.643	10008.15
522.009	10004.54
522.376	9969.06
522.743	10029.85
523.11	10089.28
523.477	10070.75
523.843	10100.13
524.21	10154.14
524.577	10228.49
524.943	10151.2
525.31	10206.34
525.676	10243.63
526.043	10221.93
526.409	10271.42
526.776	10290.18
527.142	10298.99
527.508	10288.15
527.874	10320.46
528.241	10239.34
528.607	10122.05
528.973	10309.16
529.339	10209.05
529.705	10298.54
530.071	10308.94
530.437	10297.64
530.803	10274.59
531.169	10180.35
531.535	10150.75
531.901	10201.14
532.267	10190.75
532.632	10233.01
532.998	10235.72
533.364	10172.22
533.73	10142.39
534.095	10204.76
534.461	10173.8
534.826	10140.35
535.192	10103.97
535.557	10120.02
535.923	10113.24
536.288	10059.45
536.653	10078.21
537.019	10015.61
537.384	9980.36
537.749	10013.58
538.114	9920.02
538.479	9938.78
538.845	9848.84
539.21	9840.93
539.575	9840.25
539.94	9835.96
540.305	9793.25
540.67	9761.16
541.034	9745.11
541.399	9738.11
541.764	9722.06
542.129	9736.98
542.494	9682.74
542.858	9612.69
543.223	9653.14
543.587	9588.05
543.952	9564.1
544.316	9586.92
544.681	9498.79
545.045	9522.07
545.41	9484.55
545.774	9493.14
546.138	9393.48
546.503	9418.57
546.867	9321.17
547.231	9409.07
547.595	9382.41
547.959	9310.32
548.324	9229.42
548.688	9273.94
549.052	9216.99
549.416	9173.6
549.779	9148.97
550.143	9188.06
550.507	9197.78
550.871	9071.91
551.235	9078.01
551.599	9093.83
551.962	9056.32
552.326	9022.87
552.689	9008.86
553.053	9006.83
553.417	8982.65
553.78	8998.46
554.143	8926.6
554.507	8920.05
554.87	8869.65
555.234	8934.28
555.597	8812.93
555.96	8847.28
556.323	8808.64
556.686	8825.59
557.05	8796.44
557.413	8846.6
557.776	8760.28
558.139	8771.35
558.502	8701.52
558.865	8727.28
559.228	8752.14
559.59	8661.52
559.953	8683.9
560.316	8757.34
560.679	8758.7
561.041	8767.06
561.404	8718.47
561.767	8745.59
562.129	8725.02
562.492	8795.08
562.854	8700.84
563.217	8761.41
563.579	8751.01
563.941	8780.16
564.304	8730.67
564.666	8776.32
565.028	8817.68
565.39	8778.13
565.753	8849.32
566.115	8819.94
566.477	8831.01
566.839	8763.22
567.201	8830.33
567.563	8783.78
567.925	8894.29
568.287	8884.57
568.648	8853.16
569.01	8858.58
569.372	8893.38
569.734	8867.17
570.095	9001.4
570.457	8932.03
570.819	8844.57
571.18	8934.74
571.542	8937.45
571.903	8994.4
572.265	8942.19
572.626	8992.81
572.987	8974.28
573.349	9040.27
573.71	9024.68
574.071	9022.64
574.432	9001.4
574.794	9075.3
575.155	9049.31
575.516	9053.15
575.877	9113.04
576.238	9006.83
576.599	9130.44
576.96	9102.64
577.32	9165.24
577.681	9128.4
578.042	9194.39
578.403	9167.05
578.763	9114.39
579.124	9130.44
579.485	9133.38
579.845	9222.64
580.206	9264.67
580.566	9205.46
580.927	9186.48
581.287	9261.28
581.648	9195.52
582.008	9296.08
582.368	9253.15
582.728	9315.52
583.089	9282.52
583.449	9244.33
583.809	9322.52
584.169	9287.04
584.529	9273.94
584.889	9315.07
585.249	9300.38
585.609	9248.4
585.969	9317.33
586.329	9295.63
586.688	9270.32
587.048	9301.28
587.408	9299.02
587.768	9299.02
588.127	9342.64
588.487	9362.75
588.846	9364.33
589.206	9307.16
589.565	9352.58
589.925	9382.63
590.284	9392.35
590.643	9400.71
591.003	9411.33
591.362	9429.19
591.721	9394.84
592.08	9440.26
592.44	9406.14
592.799	9449.07
593.158	9403.88
593.517	9408.85
593.876	9434.84
594.235	9362.75
594.593	9388.96
594.952	9407.49
595.311	9388.96
595.67	9473.48
596.029	9451.79
596.387	9478.68
596.746	9507.83
597.104	9436.87
597.463	9436.42
597.822	9449.07
598.18	9394.39
598.538	9494.27
598.897	9456.76
599.255	9420.15
599.613	9496.76
599.972	9540.6
600.33	9464.67
600.688	9479.13
601.046	9480.71
601.404	9482.75
601.762	9457.66
602.12	9502.18
602.478	9481.84
602.836	9496.53
603.194	9458.34
603.552	9469.19
603.91	9483.2
604.268	9489.75
604.625	9422.63
604.983	9486.81
605.341	9478
605.698	9513.93
606.056	9571.78
606.413	9502.63
606.771	9585.34
607.128	9502.18
607.485	9517.77
607.843	9502.86
608.2	9569.75
608.557	9595.74
608.914	9574.72
609.272	9543.76
609.629	9655.62
609.986	9609.07
610.343	9566.81
610.7	9574.95
611.057	9608.39
611.414	9559.58
611.771	9584.21
612.127	9628.05
612.484	9631.44
612.841	9653.14
613.198	9665.34
613.554	9599.8
613.911	9676.19
614.267	9691.33
614.624	9659.01
614.98	9682.51
615.337	9710.31
615.693	9658.79
616.05	9755.05
616.406	9727.94
616.762	9718.67
617.118	9739.24
617.475	9636.19
617.831	9725.9
618.187	9809.52
618.543	9705.34
618.899	9857.2
619.255	9775.17
619.611	9746.92
619.967	9790.76
620.323	9827.59
620.678	9827.82
621.034	9829.18
621.39	9749.4
621.746	9747.6
622.101	9891.55
622.457	9847.03
622.812	9821.27
623.168	9800.02
623.523	9813.81
623.879	9826.01
624.234	9770.2
624.589	9788.95
624.945	9773.81
625.3	9867.37
625.655	9870.53
626.01	9832.79
626.365	9834.83
626.72	9805.22
627.075	9747.14
627.43	9763.42
627.785	9703.3
628.14	9741.27
628.495	9718.67
628.85	9730.87
629.205	9748.05
629.559	9761.38
629.914	9780.59
630.269	9721.83
630.623	9739.91
630.978	9691.78
631.332	9735.17
631.687	9718.9
632.041	9606.13
632.396	9720.48
632.75	9638
633.104	9637.77
633.459	9630.31
633.813	9633.93
634.167	9622.4
634.521	9555.29
634.875	9577.88
635.229	9577.21
635.583	9545.34
635.937	9553.7
636.291	9503.54
636.645	9550.54
636.999	9526.13
637.352	9540.37
637.706	9518.9
638.06	9523.87
638.413	9492.46
638.767	9426.93
639.121	9422.41
639.474	9398
639.828	9383.09
640.181	9464.44
640.534	9508.96
640.888	9425.8
641.241	9371.79
641.594	9376.53
641.947	9431.67
642.301	9350.77
642.654	9396.87
643.007	9387.38
643.36	9380.15
643.713	9348.74
644.066	9350.77
644.419	9296.76
644.771	9238.68
645.124	9217.67
645.477	9207.95
645.83	9063.32
646.182	9072.81
646.535	9046.37
646.888	9089.31
647.24	9067.84
647.593	9042.98
647.945	9076.88
648.298	8955.08
648.65	8987.16
649.002	8974.28
649.355	9045.24
649.707	9058.35
650.059	9069.87
650.411	9100.83
650.763	9163.21
651.115	9227.84
651.467	9211.34
651.819	9248.63
652.171	9249.3
652.523	9160.27
652.875	9193.71
653.227	9127.27
653.578	9305.57
653.93	9271
654.282	9224.45
654.633	9170.21
654.985	9207.05
655.337	9149.87
655.688	9210.89
656.039	9191
656.391	9159.82
656.742	9183.54
657.094	9198.68
657.445	9190.55
657.796	9200.94
658.147	9184.9
658.498	9150.1
658.849	9250.66
659.2	9198.68
659.551	9185.8
659.902	9224.45
660.253	9209.31
660.604	9237.55
660.955	9130.66
661.306	9213.6
661.656	9280.72
662.007	9236.42
662.358	9224.9
662.708	9271.45
663.059	9241.4
663.409	9216.99
663.76	9289.53
664.11	9254.5
664.461	9296.76
664.811	9340.83
665.161	9283.43
665.511	9289.53
665.862	9241.62
666.212	9197.33
666.562	9294.73
666.912	9269.19
667.262	9236.42
667.612	9248.63
667.962	9332.47
668.312	9262.86
668.662	9355.06
669.011	9231.23
669.361	9263.77
669.711	9246.37
670.06	9207.95
670.41	9206.82
670.76	9230.1
671.109	9265.12
671.459	9266.25
671.808	9178.57
672.157	9253.37
672.507	9131.34
672.856	9213.37
673.205	9259.93
673.554	9260.15
673.904	9213.15
674.253	9208.63
674.602	9192.13
674.951	9017.9
675.3	9064.68
675.649	9169.53
675.998	9087.5
676.346	9165.24
676.695	9151
677.044	9055.19
677.393	9147.16
677.741	9120.04
678.09	9064.68
678.438	9053.83
678.787	9136.77
679.135	8980.39
679.484	9002.31
679.832	9065.13
680.181	8973.15
680.529	8965.24
680.877	8939.71
681.225	8963.89
681.573	8923.89
681.922	8914.4
682.27	8894.06
682.618	8913.72
682.966	8860.61
683.314	8862.65
683.661	8846.38
684.009	8800.5
684.357	8787.62
684.705	8758.02
685.053	8773.61
685.4	8758.02
685.748	8676.89
686.095	8711.01
686.443	8647.06
686.79	8692.94
687.138	8639.83
687.485	8713.73
687.832	8647.51
688.18	8644.35
688.527	8536.56
688.874	8509.89
689.221	8572.26
689.568	8551.7
689.915	8465.14
690.262	8455.2
690.609	8494.3
690.956	8395.09
691.303	8370.91
691.65	8418.37
691.997	8332.04
692.344	8286.62
692.69	8243.68
693.037	8207.07
693.383	8174.98
693.73	8248.65
694.077	8166.4
694.423	8144.7
694.769	8162.33
695.116	8144.7
695.462	8099.05
695.808	8017.47
696.155	8095.21
696.501	8022.22
696.847	7962.56
697.193	7911.03
697.539	7948.32
697.885	7873.3
698.231	7868.78
698.577	7823.58
698.923	7826.52
699.269	7823.58
699.614	7666.07
699.96	7702.23
700.306	7719.4
700.651	7624.04
700.997	7623.81
701.342	7617.48
701.688	7588.56
702.033	7527.54
702.379	7527.99
702.724	7462.01
703.069	7508.11
703.415	7387.21
703.76	7453.19
704.105	7362.12
704.45	7335.68
704.795	7395.34
705.14	7348.79
705.485	7302.69
705.83	7231.73
706.175	7242.8
706.52	7266.53
706.865	7294.33
707.209	7161.22
707.554	7153.31
707.899	7200.09
708.243	7090.94
708.588	7106.08
708.932	7131.85
709.277	7057.72
709.621	7039.87
709.966	7002.36
710.31	7017.27
710.654	6942.7
710.998	7005.3
711.342	6946.54
711.687	6918.74
712.031	6941.34
712.375	6899.31
712.719	6868.35
713.063	6855.92
713.407	6902.93
713.75	6829.93
714.094	6829.26
714.438	6793.78
714.782	6833.55
715.125	6777.51
715.469	6838.07
715.812	6768.01
716.156	6722.37
716.499	6742.48
716.843	6761.69
717.186	6697.96
717.53	6749.94
717.873	6713.78
718.216	6705.87
718.559	6712.42
718.902	6655.93
719.246	6621.35
719.589	6678.52
719.932	6651.86
720.275	6606.66
720.617	6615.02
720.96	6638.98
721.303	6603.27
721.646	6613.22
721.989	6589.49
722.331	6605.98
722.674	6573.22
723.016	6593.33
723.359	6579.77
723.701	6561.24
724.044	6548.36
724.386	6561.24
724.729	6549.94
725.071	6462.03
725.413	6473.11
725.755	6521.69
726.097	6496.61
726.439	6431.98
726.782	6456.38
727.124	6538.19
727.465	6502.03
727.807	6503.16
728.149	6509.04
728.491	6450.73
728.833	6451.19
729.175	6468.59
729.516	6476.95
729.858	6433.79
730.199	6438.08
730.541	6436.72
730.882	6444.18
731.224	6481.47
731.565	6444.86
731.906	6441.02
732.248	6436.5
732.589	6417.97
732.93	6425.65
733.271	6415.93
733.612	6437.63
733.953	6462.26
734.294	6450.73
734.635	6422.49
734.976	6498.42
735.317	6432.66
735.658	6476.5
735.999	6396.5
736.339	6445.54
736.68	6496.83
737.021	6445.08
737.361	6436.72
737.702	6470.17
738.042	6419.77
738.383	6475.82
738.723	6501.13
739.063	6496.16
739.404	6521.92
739.744	6481.92
740.084	6557.85
740.424	6537.74
740.764	6564.18
741.104	6583.61
741.444	6548.13
741.784	6556.27
742.124	6556.49
742.464	6604.18
742.804	6608.7
743.143	6611.18
743.483	6655.93
743.823	6627
744.162	6662.03
744.502	6746.32
744.841	6740.9
745.181	6747.45
745.52	6739.31
745.86	6903.15
746.199	6887.33
746.538	6876.71
746.877	6981.12
747.216	6969.14
747.556	7008.01
747.895	7060.21
748.234	7134.33
748.573	7147.89
748.911	7198.96
749.25	7243.03
749.589	7298.4
749.928	7372.97
750.267	7407.77
750.605	7433.08
750.944	7577.03
751.283	7540.42
751.621	7703.58
751.96	7772.06
752.298	7888.21
752.636	8018.38
752.975	8027.19
753.313	8141.76
753.651	8234.19
753.989	8296.79
754.327	8452.04
754.666	8466.73
755.004	8672.14
755.342	8842.76
755.679	8876.89
756.017	8961.4
756.355	9107.16
756.693	9284.11
757.031	9526.59
757.368	9511.67
757.706	9665.11
758.044	9806.8
758.381	10000.02
758.719	10141.94
759.056	10340.8
759.394	10436.17
759.731	10513.9
760.068	10743.5
760.405	10921.58
760.743	11034.34
761.08	11213.09
761.417	11393.88
761.754	11584.61
762.091	11800.2
762.428	11946.64
762.765	12057.82
763.102	12280.64
763.438	12488.32
763.775	12635.66
764.112	12656.9
764.449	13066.61
764.785	13088.98
765.122	13275.64
765.458	13381.85
765.795	13593.15
766.131	13756.98
766.467	13924.44
766.804	13912.46
767.14	14156.07
767.476	14371.66
767.812	14489.17
768.148	14577.98
768.485	14758.09
768.821	14806.9
769.157	15109.94
769.492	15082.6
769.828	15348.81
770.164	15419.76
770.5	15524.17
770.836	15689.36
771.171	15703.82
771.507	15865.63
771.842	15847.55
772.178	16060.65
772.513	16119.86
772.849	16219.07
773.184	16385.84
773.519	16417.7
773.855	16444.6
774.19	16564.37
774.525	16618.83
774.86	16700.41
775.195	16826.73
775.53	16836.45
775.865	16837.58
776.2	16951.48
776.535	16869.67
776.87	17040.51
777.205	16978.59
777.539	17036.22
777.874	17224.91
778.209	17163.22
778.543	17242.31
778.878	17282.99
779.212	17358.24
779.547	17256.33
779.881	17354.85
780.215	17365.02
780.55	17473.72
780.884	17454.96
781.218	17489.77
781.552	17526.38
781.886	17519.14
782.22	17466.26
782.554	17400.05
782.888	17471.01
783.222	17468.3
783.556	17478.92
783.889	17419.49
784.223	17295.87
784.557	17470.33
784.89	17532.02
785.224	17422.42
785.557	17391.92
785.891	17425.14
786.224	17391.92
786.558	17499.03
786.891	17322.09
787.224	17405.7
787.557	17286.38
787.891	17434.17
788.224	17400.5
788.557	17344.69
788.89	17358.92
789.223	17370
789.556	17289.55
789.888	17273.5
790.221	17210.23
790.554	17108.08
790.887	17105.37
791.219	17064.01
791.552	17135.2
791.884	17011.13
792.217	16984.47
792.549	16976.33
792.882	16923.68
793.214	16903.34
793.546	16973.4
793.879	16854.3
794.211	16729.56
794.543	16934.98
794.875	16876.22
795.207	16907.63
795.539	16736.11
795.871	16890.01
796.203	16601.43
796.535	16586.06
796.867	16607.08
797.198	16557.36
797.53	16637.13
797.862	16458.61
798.193	16534.76
798.525	16389
798.856	16513.97
799.188	16291.38
799.519	16329.12
799.85	16293.19
800.182	16269.69
800.513	16296.8
800.844	16104.72
801.175	16310.81
801.506	16196.92
801.837	16074.21
802.168	16111.95
802.499	16036.7
802.83	16005.51
803.161	15941.11
803.491	15945.17
803.822	15957.15
804.153	15910.6
804.483	15829.02
804.814	15712.19
805.145	15808.23
805.475	15754.22
805.805	15705.86
806.136	15602.13
806.466	15696.14
806.796	15641.45
807.126	15502.25
807.457	15549.93
807.787	15589.93
808.117	15490.27
808.447	15441.01
808.777	15493.43
809.107	15360.33
809.436	15357.39
809.766	15260.9
810.096	15344.29
810.426	15261.12
810.755	15198.07
811.085	15244.85
811.414	15257.73
811.744	15181.13
812.073	15049.15
812.403	15001.92
812.732	15076.5
813.061	15025.2
813.39	14921.25
813.719	14902.94
814.049	15005.99
814.378	14890.51
814.707	14894.81
815.036	14896.39
815.365	14753.79
815.693	14741.36
816.022	14747.47
816.351	14767.8
816.68	14507.25
817.008	14609.62
817.337	14498.43
817.665	14481.03
817.994	14535.27
818.322	14513.57
818.651	14458.21
818.979	14434.71
819.307	14479.22
819.636	14401.03
819.964	14388.6
820.292	14440.81
820.62	14469.96
820.948	14250.98
821.276	14407.59
821.604	14355.84
821.932	14411.43
822.259	14439.68
822.587	14341.15
822.915	14341.15
823.243	14439.22
823.57	14381.6
823.898	14397.42
824.225	14322.39
824.553	14405.55
824.88	14379.34
825.207	14436.06
825.535	14352.45
825.862	14419.79
826.189	14297.31
826.516	14373.46
826.843	14479.9
827.17	14368.49
827.497	14477.87
827.824	14378.21
828.151	14360.13
828.478	14391.77
828.805	14465.89
829.131	14345.44
829.458	14445.33
829.785	14288.72
830.111	14367.81
830.438	14422.73
830.764	14412.56
831.09	14355.16
831.417	14346.57
831.743	14402.39
832.069	14428.6
832.395	14334.37
832.722	14365.55
833.048	14294.6
833.374	14346.8
833.7	14270.19
834.026	14316.06
834.351	14259.79
834.677	14284.43
835.003	14248.72
835.329	14253.47
835.654	14258.44
835.98	14157.42
836.306	14192.9
836.631	14199.68
836.956	14300.25
837.282	14184.32
837.607	14175.5
837.932	14169.63
838.258	14169.63
838.583	14128.72
838.908	14064.09
839.233	14017.09
839.558	13993.36
839.883	13985
840.208	13867.94
840.533	13894.15
840.858	13895.28
841.182	14035.62
841.507	13804.67
841.832	13848.96
842.156	13727.61
842.481	13740.71
842.805	13825.91
843.13	13743.88
843.454	13766.93
843.778	13606.48
844.103	13661.17
844.427	13545.46
844.751	13579.59
845.075	13605.12
845.399	13500.49
845.723	13319.71
846.047	13463.43
846.371	13334.62
846.695	13386.15
847.019	13260.27
847.343	13145.47
847.666	13174.17
847.99	13039.49
848.313	13074.51
848.637	12990.45
848.96	12962.65
849.284	12982.09
849.607	12826.16
849.931	12816.44
850.254	12753.62
850.577	12753.17
850.9	12633.17
851.223	12551.59
851.546	12539.84
851.869	12464.59
852.192	12471.59
852.515	12384.59
852.838	12342.78
853.161	12288.32
853.483	12254.2
853.806	12236.12
854.129	12238.15
854.451	12073.64
854.774	12114.09
855.096	12055.11
855.419	11941.44
855.741	11963.81
856.063	11959.06
856.385	11912.29
856.708	11835.9
857.03	11825.51
857.352	11854.89
857.674	11827.77
857.996	11697.6
858.318	11578.51
858.64	11723.14
858.961	11623.25
859.283	11588.9
859.605	11580.54
859.926	11537.61
860.248	11512.75
860.57	11483.82
860.891	11487.21
861.212	11432.07
861.534	11385.29
861.855	11332.64
862.176	11391.85
862.498	11373.99
862.819	11273.21
863.14	11300.32
863.461	11216.71
863.782	11229.59
864.103	11210.84
864.424	11216.03
864.745	11220.55
865.065	11196.15
865.386	11080.67
865.707	11094.23
866.027	11119.99
866.348	11092.19
866.668	11122.7
866.989	11004.74
867.309	10962.71
867.63	11033.89
867.95	10953.21
868.27	10914.8
868.59	10947.57
868.91	10915.93
869.23	10877.51
869.55	10873.89
869.87	10911.18
870.19	10921.58
870.51	10854.46
870.83	10856.49
871.15	10779.89
871.469	10797.74
871.789	10802.94
872.109	10755.71
872.428	10694.69
872.748	10750.28
873.067	10703.73
873.386	10709.15
873.706	10703.05
874.025	10675.48
874.344	10627.35
874.663	10645.43
874.982	10516.39
875.301	10615.37
875.62	10550.29
875.939	10543.73
876.258	10568.59
876.577	10456.73
876.896	10500.35
877.214	10491.76
877.533	10454.02
877.852	10425.09
878.17	10513
878.489	10463.28
878.807	10418.54
879.125	10425.77
879.444	10384.42
879.762	10319.56
880.08	10374.02
880.398	10316.62
880.716	10337.64
881.034	10254.02
881.352	10202.27
881.67	10175.83
881.988	10161.15
882.306	10156.4
882.624	10163.18
882.941	10065.1
883.259	10042.05
883.577	10073.92
883.894	10042.28
884.212	10095.61
884.529	9979.46
884.846	9995.5
885.164	9973.13
885.481	9913.24
885.798	9871.21
886.115	9885.45
886.432	9888.84
886.75	9809.97
887.067	9867.59
887.383	9750.76
887.7	9804.09
888.017	9757.77
888.334	9742.17
888.651	9713.25
888.967	9675.96
889.284	9688.16
889.6	9666.69
889.917	9589.18
890.233	9623.76
890.55	9510.09
890.866	9582.86
891.182	9534.5
891.498	9472.35
891.815	9461.28
892.131	9395.52
892.447	9344.67
892.763	9339.02
893.079	9398.68
893.395	9311
893.71	9313.03
894.026	9331.11
894.342	9248.4
894.657	9172.24
894.973	9211.57
895.289	9175.86
895.604	9122.53
895.92	9091.79
896.235	9007.5
896.55	9073.26
896.865	9002.31
897.181	8976.77
897.496	8950.56
897.811	8925.02
898.126	8892.25
898.441	8840.28
898.756	8746.49
899.071	8706.95
899.386	8794.18
899.7	8679.83
900.015	8650.22
900.33	8545.59
900.644	8594.86
900.959	8539.72
901.273	8608.87
901.588	8506.27
901.902	8445.71
902.216	8406.84
902.531	8412.04
902.845	8442.32
903.159	8377.01
903.473	8255.66
903.787	8291.36
904.101	8222.21
904.415	8220.63
904.729	8219.5
905.042	8132.27
905.356	8126.85
905.67	8080.3
905.984	8111.93
906.297	8094.31
906.611	8033.52
906.924	8001.43
907.237	7915.33
907.551	7965.5
907.864	7936.34
908.177	7840.3
908.491	7832.62
908.804	7781.55
909.117	7722.34
909.43	7671.04
909.743	7601.44
910.056	7622.91
910.368	7608.44
910.681	7546.07
910.994	7531.38
911.307	7510.59
911.619	7433.53
911.932	7504.49
912.244	7392.63
912.557	7432.63
912.869	7360.77
913.181	7336.36
913.494	7365.96
913.806	7304.5
914.118	7250.94
914.43	7176.14
914.742	7184.05
915.054	7124.39
915.366	7140.21
915.678	7120.1
915.99	7039.87
916.302	6972.3
916.613	6989.48
916.925	6980.21
917.236	6979.08
917.548	6963.26
917.859	6932.53
918.171	6843.49
918.482	6870.84
918.794	6821.8
919.105	6779.99
919.416	6702.71
919.727	6630.39
920.038	6712.87
920.349	6667.68
920.66	6626.55
920.971	6628.13
921.282	6675.14
921.593	6539.32
921.903	6545.87
922.214	6513.11
922.525	6465.65
922.835	6475.82
923.146	6415.48
923.456	6484.86
923.767	6406.22
924.077	6417.06
924.387	6327.57
924.697	6285.77
925.008	6260.23
925.318	6278.08
925.628	6251.19
925.938	6231.98
926.248	6152.66
926.558	6175.49
926.867	6168.71
927.177	6122.16
927.487	6071.54
927.796	6103.17
928.106	5989.28
928.416	6038.32
928.725	6014.81
929.034	5930.07
929.344	5956.96
929.653	5968.71
929.962	5896.4
930.271	5844.2
930.581	5875.61
930.89	5794.03
931.199	5775.72
931.508	5762.84
931.817	5792.9
932.125	5744.31
932.434	5713.58
932.743	5686.46
933.051	5642.17
933.36	5662.96
933.669	5615.28
933.977	5610.53
934.286	5548.84
934.594	5528.95
934.902	5531.66
935.21	5532.79
935.519	5493.02
935.827	5477.43
936.135	5446.69
936.443	5400.59
936.751	5389.97
937.059	5375.06
937.367	5353.59
937.674	5362.4
937.982	5263.42
938.29	5253.93
938.597	5284.21
938.905	5207.83
939.213	5198.11
939.52	5074.05
939.827	5142.07
940.135	5114.05
940.442	5121.05
940.749	5104.1
941.056	5106.14
941.363	5069.3
941.67	5001.28
941.977	4979.13
942.284	4962.86
942.591	4961.73
942.898	4950.21
943.205	4977.33
943.511	4844.9
943.818	4888.29
944.125	4852.36
944.431	4846.93
944.738	4823.43
945.044	4794.73
945.35	4758.35
945.657	4728.52
945.963	4763.55
946.269	4672.93
946.575	4702.53
946.881	4642.65
947.187	4648.07
947.493	4628.64
947.799	4589.09
948.105	4575.53
948.41	4544.8
948.716	4535.98
949.022	4521.29
949.327	4514.06
949.633	4473.16
949.938	4488.53
950.244	4488.3
950.549	4411.69
950.854	4432.71
951.16	4407.4
951.465	4390.68
951.77	4374.4
952.075	4329.89
952.38	4300.96
952.685	4313.62
952.99	4273.39
953.294	4315.65
953.599	4251.02
953.904	4269.77
954.209	4159.27
954.513	4210.79
954.818	4118.14
955.122	4191.36
955.426	4189.55
955.731	4079.5
956.035	4093.06
956.339	4101.64
956.643	4080.18
956.948	4060.97
957.252	4047.41
957.556	4016.9
957.86	3982.32
958.163	4015.54
958.467	3980.97
958.771	3943.23
959.075	3948.2
959.378	3916.11
959.682	3914.08
959.985	3895.32
960.289	3852.84
960.592	3877.92
960.896	3825.94
961.199	3835.44
961.502	3812.16
961.805	3813.29
962.108	3778.04
962.411	3788.21
962.714	3721.31
963.017	3732.16
963.32	3771.93
963.623	3688.1
963.926	3651.03
964.228	3652.84
964.531	3658.27
964.833	3633.63
965.136	3599.28
965.438	3590.7
965.741	3570.13
966.043	3573.52
966.345	3544.6
966.648	3510.47
966.95	3538.04
967.252	3527.2
967.554	3487.2
967.856	3452.4
968.158	3411.27
968.46	3468.44
968.761	3424.15
969.063	3407.42
969.365	3417.59
969.666	3347.09
969.968	3354.09
970.269	3374.21
970.571	3322.68
970.872	3323.13
971.174	3306.18
971.475	3291.5
971.776	3261.67
972.077	3247.65
972.378	3238.62
972.679	3250.14
972.98	3204.49
973.281	3221.21
973.582	3228.67
973.883	3229.12
974.183	3192.06
974.484	3149.58
974.785	3196.58
975.085	3117.04
975.386	3148.22
975.686	3113.42
975.986	3101.22
976.287	3074.55
976.587	3059.86
976.887	3081.11
977.187	3080.65
977.487	3051.05
977.787	3013.99
978.087	3002.01
978.387	2976.25
978.687	2950.26
978.987	2942.8
979.286	2934.44
979.586	2938.96
979.885	2896.48
980.185	2887.44
980.484	2911.84
980.784	2891.51
981.083	2904.39
981.382	2830.26
981.682	2862.81
981.981	2802.69
982.28	2805.86
982.579	2810.83
982.878	2777.38
983.177	2774.45
983.475	2803.82
983.774	2750.49
984.073	2731.06
984.372	2718.86
984.67	2691.96
984.969	2707.56
985.267	2682.02
985.566	2691.96
985.864	2642.47
986.162	2606.54
986.461	2595.02
986.759	2612.87
987.057	2618.74
987.355	2604.28
987.653	2611.29
987.951	2572.42
988.249	2612.64
988.547	2536.49
988.844	2564.06
989.142	2527
989.44	2488.58
989.737	2526.32
990.035	2459.43
990.332	2485.19
990.63	2485.41
990.927	2475.47
991.224	2460.33
991.521	2447.9
991.819	2417.39
992.116	2414.91
992.413	2405.42
992.71	2399.99
993.006	2379.88
993.303	2388.02
993.6	2391.86
993.897	2395.7
994.193	2368.58
994.49	2322.03
994.787	2345.98
995.083	2315.7
995.379	2300.79
995.676	2278.64
995.972	2254.91
996.268	2263.27
996.565	2280.9
996.861	2236.16
997.157	2209.94
997.453	2214.46
997.749	2188.93
998.044	2197.96
998.34	2176.5
998.636	2160.23
998.932	2148.7
999.227	2145.31
999.523	2120.9
999.818	2123.62
1000.114	2100.34
1000.409	2106.67
1000.704	2097.63
1001	2087.91
1001.295	2094.92
1001.59	2033.9
1001.885	2068.25
1002.18	2027.12
1002.475	2042.26
1002.77	2019.44
1003.065	2009.95
1003.359	1990.74
1003.654	2004.98
1003.949	1958.88
1004.243	1966.78
1004.538	1964.98
1004.832	1953
1005.127	1964.07
1005.421	1920.46
1005.715	1952.1
1006.009	1941.7
1006.304	1880.46
1006.598	1875.04
1006.892	1864.19
1007.186	1866.9
1007.48	1807.69
1007.773	1840.01
1008.067	1826.9
1008.361	1795.49
1008.655	1801.14
1008.948	1776.05
1009.242	1777.18
1009.535	1797.07
1009.829	1763.63
1010.122	1749.16
1010.415	1746.45
1010.708	1761.37
1011.001	1733.12
1011.295	1727.02
1011.588	1721.59
1011.881	1703.74
1012.173	1690.41
1012.466	1710.52
1012.759	1665.32
1013.052	1643.18
1013.344	1644.08
1013.637	1636.17
1013.93	1609.96
1014.222	1600.69
1014.514	1617.42
1014.807	1585.1
1015.099	1563.86
1015.391	1604.76
1015.683	1563.18
1015.976	1562.5
1016.268	1535.16
1016.56	1540.81
1016.851	1518.21
1017.143	1534.03
1017.435	1506.23
1017.727	1523.18
1018.018	1493.8
1018.31	1462.16
1018.602	1475.27
1018.893	1458.78
1019.185	1464.88
1019.476	1445.67
1019.767	1414.71
1020.058	1417.19
1020.35	1395.05
1020.641	1411.09
1020.932	1423.52
1021.223	1412.9
1021.514	1361.6
1021.804	1336.07
1022.095	1343.98
1022.386	1328.84
1022.677	1352.79
1022.967	1334.03
1023.258	1354.15
1023.548	1346.69
1023.839	1307.82
1024.129	1299.01
1024.419	1296.75
1024.709	1314.6
1025	1270.08
1025.29	1287.03
1025.58	1258.78
1025.87	1276.18
1026.16	1244.09
1026.449	1235.5
1026.739	1215.84
1027.029	1247.48
1027.319	1228.95
1027.608	1208.39
1027.898	1222.85
1028.187	1174.04
1028.477	1225.11
1028.766	1197.54
1029.055	1162.96
1029.344	1149.4
1029.634	1160.7
1029.923	1151.44
1030.212	1136.75
1030.501	1136.3
1030.79	1132.46
1031.078	1128.61
1031.367	1116.41
1031.656	1103.53
1031.945	1105.34
1032.233	1066.47
1032.522	1107.37
1032.81	1078.67
1033.099	1066.02
1033.387	1050.65
1033.675	1052.01
1033.963	1056.98
1034.251	1057.43
1034.54	1064.21
1034.828	1018.79
1035.116	1016.53
1035.403	1016.75
1035.691	993.7
1035.979	1009.52
1036.267	995.96
1036.554	999.8
1036.842	992.57
1037.129	965.45
1037.417	959.13
1037.704	962.29
1037.992	966.81
1038.279	943.99
1038.566	939.01
1038.853	939.01
1039.14	939.01
