Data from hue_36_FLMS001491_00095.txt Node
Date: Tue Feb 07 17:30:33 GMT 2017
User: dcchb
Spectrometer: FLMS00149
Trigger mode: 0
Integration Time (sec): 2.000000E-2
Scans to average: 10
Electric dark correction enabled: true
Nonlinearity correction enabled: false
Boxcar width: 0
XAxis mode: Wavelengths
Number of Pixels in Spectrum: 2048
>>>>>Begin Spectral Data<<<<<
341.393	-14.66
341.776	-14.66
342.16	-14.66
342.543	-51.72
342.927	-64.83
343.31	-53.98
343.693	-67.77
344.077	-62.57
344.46	-41.78
344.843	-53.08
345.226	-61.89
345.61	-47.2
345.993	5.9
346.376	-4.94
346.759	-0.2
347.142	18.11
347.525	43.87
347.908	47.26
348.291	79.57
348.674	86.81
349.057	111.89
349.44	133.36
349.823	153.7
350.206	174.71
350.588	194.37
350.971	215.16
351.354	264.2
351.737	249.51
352.119	238.44
352.502	261.72
352.884	287.48
353.267	295.84
353.65	279.12
354.032	304.65
354.414	318.44
354.797	324.09
355.179	335.39
355.562	311.43
355.944	336.74
356.326	333.58
356.709	343.97
357.091	345.33
357.473	345.78
357.855	343.52
358.238	365.22
358.62	371.09
359.002	353.47
359.384	341.26
359.766	342.17
360.148	329.96
360.53	332.45
360.912	343.75
361.294	362.96
361.676	349.85
362.057	328.83
362.439	337.65
362.821	329.51
363.203	348.72
363.584	332.22
363.966	303.52
364.348	330.42
364.729	350.75
365.111	313.69
365.493	322.73
365.874	307.36
366.256	333.13
366.637	317.76
367.019	319.12
367.4	323.64
367.781	329.51
368.163	318.21
368.544	316.86
368.925	333.8
369.306	308.04
369.688	323.18
370.069	320.25
370.45	330.42
370.831	317.31
371.212	325.9
371.593	340.36
371.974	304.2
372.355	324.31
372.736	333.35
373.117	329.96
373.498	310.75
373.879	321.83
374.26	325.9
374.641	307.36
375.021	319.57
375.402	319.57
375.783	332.67
376.163	319.12
376.544	319.57
376.925	329.06
377.305	310.75
377.686	311.21
378.066	324.99
378.447	310.98
378.827	346.46
379.208	331.77
379.588	314.37
379.968	307.82
380.349	342.17
380.729	355.5
381.109	347.36
381.489	341.26
381.87	346.23
382.25	342.84
382.63	343.97
383.01	344.2
383.39	344.88
383.77	317.76
384.15	339.91
384.53	362.05
384.91	345.78
385.29	342.62
385.67	319.79
386.049	353.69
386.429	340.81
386.809	354.14
387.189	325.9
387.568	351.66
387.948	357.76
388.328	369.96
388.707	365.67
389.087	339.91
389.466	359.57
389.846	346.23
390.225	357.31
390.605	355.73
390.984	386.91
391.363	366.35
391.743	364.54
392.122	377.87
392.501	355.95
392.881	363.41
393.26	381.49
393.639	381.94
394.018	364.99
394.397	380.81
394.776	390.53
395.155	372.9
395.534	365.44
395.913	381.04
396.292	377.42
396.671	378.55
397.05	390.07
397.429	387.14
397.808	393.69
398.186	371.54
398.565	394.37
398.944	382.17
399.323	400.02
399.701	396.4
400.08	391.66
400.458	395.95
400.837	389.17
401.215	396.18
401.594	405.44
401.972	396.63
402.351	404.76
402.729	397.98
403.107	413.58
403.486	424.2
403.864	402.28
404.242	395.5
404.62	390.98
404.999	393.69
405.377	394.59
405.755	411.54
406.133	405.22
406.511	434.37
406.889	409.06
407.267	421.03
407.645	431.2
408.023	434.59
408.401	451.54
408.779	427.59
409.156	429.85
409.534	446.57
409.912	453.8
410.29	451.77
410.667	446.12
411.045	476.17
411.422	444.08
411.8	450.64
412.178	473.01
412.555	469.62
412.933	460.81
413.31	465.55
413.687	466.91
414.065	478.43
414.442	472.11
414.819	477.3
415.197	495.16
415.574	480.92
415.951	461.94
416.328	487.93
416.705	469.85
417.082	489.05
417.46	488.83
417.837	505.33
418.214	486.8
418.591	516.85
418.967	508.04
419.344	515.49
419.721	520.24
420.098	508.04
420.475	506.23
420.852	516.4
421.228	515.95
421.605	512.78
421.982	515.27
422.358	530.18
422.735	512.78
423.111	537.42
423.488	544.19
423.864	563.4
424.241	565.44
424.617	552.33
424.994	532.22
425.37	546
425.746	559.11
426.123	555.72
426.499	576.74
426.875	584.87
427.251	576.74
427.627	583.29
428.003	583.29
428.379	584.42
428.756	587.81
429.132	585.55
429.507	622.61
429.883	619.45
430.259	607.7
430.635	603.63
431.011	619.22
431.387	611.54
431.763	616.06
432.138	639.11
432.514	647.69
432.89	649.5
433.265	666.23
433.641	641.37
434.016	668.94
434.392	676.62
434.767	670.75
435.143	658.09
435.518	653.8
435.894	679.11
436.269	676.39
436.644	666.68
437.02	693.34
437.395	691.54
437.77	689.5
438.145	729.05
438.52	686.11
438.895	723.17
439.271	721.59
439.646	723.85
440.021	738.77
440.395	702.38
440.77	743.06
441.145	751.65
441.52	740.35
441.895	743.96
442.27	756.17
442.645	752.55
443.019	779.67
443.394	735.38
443.769	759.56
444.143	746.45
444.518	761.36
444.892	775.83
445.267	782.15
445.641	778.99
446.016	789.84
446.39	780.12
446.764	797.3
447.139	790.29
447.513	789.84
447.887	814.7
448.262	822.83
448.636	813.34
449.01	810.63
449.384	814.7
449.758	821.7
450.132	832.55
450.506	859.67
450.88	861.47
451.254	863.28
451.628	865.54
452.002	856.73
452.376	882.49
452.75	889.72
453.123	900.34
453.497	894.02
453.871	919.33
454.244	913.45
454.618	925.43
454.992	947.12
455.365	925.65
455.739	953.9
456.112	940.34
456.486	961.81
456.859	978.99
457.232	1001.13
457.606	1000.68
457.979	990.96
458.352	1007.69
458.725	1023.5
459.099	1010.62
459.472	1047.68
459.845	1044.07
460.218	1052.43
460.591	1091.75
460.964	1071.86
461.337	1089.49
461.71	1123.39
462.083	1124.74
462.456	1135.37
462.829	1134.24
463.201	1159.55
463.574	1143.05
463.947	1177.4
464.32	1202.26
464.692	1202.26
465.065	1214.69
465.438	1234.57
465.81	1245.19
466.183	1264.4
466.555	1289.26
466.928	1294.68
467.3	1321.35
467.672	1345.3
468.045	1357.05
468.417	1356.6
468.789	1389.14
469.161	1395.02
469.534	1413.78
469.906	1465.75
470.278	1478.41
470.65	1466.43
471.022	1502.36
471.394	1531.74
471.766	1582.36
472.138	1597.5
472.51	1613.77
472.882	1655.13
473.253	1670.72
473.625	1702.36
473.997	1744.16
474.369	1767.21
474.74	1778.06
475.112	1834.33
475.484	1857.61
475.855	1900.54
476.227	1949.81
476.598	2011.73
476.97	2065.51
477.341	2099.86
477.713	2138.5
478.084	2159.75
478.455	2226.18
478.827	2246.07
479.198	2342.11
479.569	2335.79
479.94	2413.3
480.311	2511.83
480.682	2529
481.053	2640.41
481.424	2696.45
481.795	2767.87
482.166	2837.92
482.537	2886.96
482.908	2970.12
483.279	3040.63
483.65	3140.28
484.021	3192.26
484.391	3210.11
484.762	3367.17
485.133	3405.14
485.503	3457.11
485.874	3573.95
486.244	3706.82
486.615	3756.54
486.985	3862.53
487.356	3924.67
487.726	4010.09
488.097	4116.53
488.467	4167.83
488.837	4265.45
489.207	4396.52
489.578	4507.25
489.948	4569.63
490.318	4716.74
490.688	4763.52
491.058	4876.06
491.428	4959.22
491.798	5049.16
492.168	5205.09
492.538	5217.07
492.908	5321.47
493.278	5453.9
493.648	5543.61
494.017	5646.66
494.387	5753.32
494.757	5817.05
495.126	5845.52
495.496	5961
495.866	6056.37
496.235	6151.73
496.605	6186.53
496.974	6308.11
497.344	6398.73
497.713	6486.19
498.082	6601.44
498.452	6692.96
498.821	6770.47
499.19	6802.11
499.559	6873.29
499.928	6968.43
500.298	7010.92
500.667	7127.3
501.036	7179.27
501.405	7281.87
501.774	7361.87
502.143	7403.9
502.512	7511.92
502.88	7587.63
503.249	7587.63
503.618	7768.64
503.987	7807.51
504.356	7833.72
504.724	7947.84
505.093	7992.13
505.462	8051.12
505.83	8111.91
506.199	8265.12
506.567	8285.01
506.936	8315.74
507.304	8472.12
507.672	8501.5
508.041	8539.92
508.409	8601.84
508.777	8642.96
509.145	8728.61
509.514	8779.23
509.882	8842.28
510.25	8894.71
510.618	8939.91
510.986	8968.15
511.354	9065.78
511.722	9189.84
512.09	9265.55
512.458	9203.18
512.826	9394.81
513.193	9405.2
513.561	9418.09
513.929	9491.76
514.297	9590.28
514.664	9658.31
515.032	9683.84
515.4	9804.97
515.767	9903.5
516.135	9912.99
516.502	9893.55
516.869	10016.49
517.237	10082.7
517.604	10028.92
517.972	10139.87
518.339	10185.3
518.706	10226.43
519.073	10311.4
519.44	10385.52
519.808	10485.18
520.175	10474.78
520.542	10561.56
520.909	10630.48
521.276	10697.15
521.643	10814.89
522.009	10870.02
522.376	10880.87
522.743	10967.65
523.11	11049.68
523.477	11107.08
523.843	11130.36
524.21	11268.88
524.577	11414.87
524.943	11407.19
525.31	11451.7
525.676	11611.25
526.043	11574.87
526.409	11597.01
526.776	11757.46
527.142	11797.46
527.508	11907.51
527.874	11934.4
528.241	12102.53
528.607	12042.42
528.973	12226.37
529.339	12186.83
529.705	12368.29
530.071	12384.79
530.437	12446.03
530.803	12538.46
531.169	12630.43
531.535	12579.81
531.901	12582.75
532.267	12700.71
532.632	12759.47
532.998	12925.56
533.364	12896.19
533.73	13033.58
534.095	12995.39
534.461	13072.9
534.826	13151.55
535.192	13216.63
535.557	13285.55
535.923	13208.49
536.288	13377.3
536.653	13468.83
537.019	13411.65
537.384	13536.17
537.749	13553.12
538.114	13676.73
538.479	13654.13
538.845	13722.38
539.21	13719.22
539.575	13770.51
539.94	13842.83
540.305	13826.78
540.67	13818.2
541.034	14000.79
541.399	14027
541.764	14124.18
542.129	14095.7
542.494	14183.16
542.858	14260.44
543.223	14276.49
543.587	14390.38
543.952	14419.08
544.316	14467.22
544.681	14414.79
545.045	14596.03
545.41	14674.22
545.774	14643.03
546.138	14719.87
546.503	14758.51
546.867	14805.29
547.231	14894.55
547.595	14943.59
547.959	14962.12
548.324	14965.06
548.688	15054.32
549.052	15155.56
549.416	15125.51
549.779	15061.78
550.143	15204.15
550.507	15333.64
550.871	15437.59
551.235	15354.2
551.599	15489.11
551.962	15529.11
552.326	15593.29
552.689	15729.78
553.053	15583.57
553.417	15661.54
553.78	15959.83
554.143	15809.33
554.507	15904.02
554.87	15909.21
555.234	16031.92
555.597	16025.6
555.96	16154.63
556.323	16210.22
556.686	16151.47
557.05	16266.27
557.413	16274.4
557.776	16387.17
558.139	16428.3
558.502	16515.53
558.865	16469.43
559.228	16664.9
559.59	16748.06
559.953	16684.56
560.316	16961.39
560.679	16833.26
561.041	16987.38
561.404	16959.13
561.767	17163.42
562.129	17134.72
562.492	17274.38
562.854	17313.02
563.217	17343.98
563.579	17414.71
563.941	17387.59
564.304	17519.34
564.666	17579.45
565.028	17623.07
565.39	17705.33
565.753	17815.38
566.115	17862.38
566.477	17956.84
566.839	17992.78
567.201	18022.38
567.563	18097.86
567.925	18162.71
568.287	18209.72
568.648	18248.81
569.01	18396.38
569.372	18528.81
569.734	18411.07
570.095	18612.42
570.457	18693.55
570.819	18709.14
571.18	18834.34
571.542	18924.95
571.903	18995.24
572.265	19017.38
572.626	19067.78
572.987	19163.37
573.349	19300.99
573.71	19378.5
574.071	19425.28
574.432	19578.5
574.794	19716.8
575.155	19654.2
575.516	19779.85
575.877	19915.89
576.238	19902.56
576.599	20041.08
576.96	20188.42
577.32	20297.8
577.681	20488.53
578.042	20564.91
578.403	20651.01
578.763	20913.15
579.124	20972.13
579.485	21065.24
579.845	21265.91
580.206	21311.56
580.566	21464.32
580.927	21659.12
581.287	21875.39
581.648	21973.01
582.008	22181.82
582.368	22201.03
582.728	22475.6
583.089	22549.72
583.449	22784.29
583.809	23000.78
584.169	23168.46
584.529	23243.26
584.889	23612.51
585.249	23712.63
585.609	23842.11
585.969	24156.68
586.329	24194.87
586.688	24569.1
587.048	24732.49
587.408	24788.75
587.768	25069.88
588.127	25229.2
588.487	25386.48
588.846	25922.96
589.206	25945.79
589.565	26176.29
589.925	26579.44
590.284	26639.55
590.643	26839.55
591.003	27181.69
591.362	27448.57
591.721	27647.21
592.08	27806.75
592.44	28075
592.799	28180.3
593.158	28421.88
593.517	28755.88
593.876	28913.17
594.235	29176.66
594.593	29399.71
594.952	29667.5
595.311	29738
595.67	29960.37
596.029	30453.92
596.387	30674.25
596.746	30891.65
597.104	30893.45
597.463	31089.61
597.822	31479.65
598.18	31588.35
598.538	31791.06
598.897	32115.57
599.255	32080.99
599.613	32605.27
599.972	32633.75
600.33	32945.15
600.688	33047.07
601.046	33318.02
601.404	33663.55
601.762	33741.74
602.12	33971.11
602.478	34129.53
602.836	34386.02
603.194	34397.32
603.552	34688.61
603.91	34676.63
604.268	34973.35
604.625	34984.65
604.983	35196.16
605.341	35200.46
605.698	35688.58
606.056	35854.23
606.413	35808.8
606.771	36131.96
607.128	36300.54
607.485	36219.41
607.843	36473.42
608.2	36837.03
608.557	36941.2
608.914	36975.33
609.272	37228.2
609.629	37351.36
609.986	37551.58
610.343	37618.47
610.7	37999.26
611.057	38007.16
611.414	38047.39
611.771	38295.97
612.127	38458
612.484	38562.63
612.841	38763.08
613.198	38782.06
613.554	38741.38
613.911	39242.84
614.267	39277.64
614.624	39241.93
614.98	39291.88
615.337	39717.63
615.693	39598.76
616.05	39630.62
616.406	39910.39
616.762	39987
617.118	39938.64
617.475	40053.89
617.831	40198.29
618.187	40325.52
618.543	40459.76
618.899	40823.36
619.255	40561.67
619.611	40591.28
619.967	40835.79
620.323	40944.94
620.678	40942
621.034	40890.25
621.39	40983.58
621.746	40964.6
622.101	41501.99
622.457	41205.95
622.812	41419.73
623.168	41605.94
623.523	41483.46
623.879	41751.92
624.234	41497.02
624.589	41701.98
624.945	41806.61
625.3	41817.46
625.655	41949.43
626.01	41859.72
626.365	41963.22
626.72	41951.92
627.075	41983.78
627.43	42012.03
627.785	41930
628.14	42140.39
628.495	42226.26
628.85	42262.19
629.205	42151.46
629.559	42351.91
629.914	42028.98
630.269	42024.69
630.623	42162.54
630.978	42199.14
631.332	42374.51
631.687	42325.24
632.041	42346.94
632.396	42344
632.75	42244.34
633.104	42361.4
633.459	42250.44
633.813	42132.93
634.167	42210.67
634.521	42145.59
634.875	42219.71
635.229	42212.25
635.583	42100.84
635.937	42015.87
636.291	42133.61
636.645	42313.04
636.999	42060.62
637.352	42247.96
637.706	41976.33
638.06	42283.89
638.413	42171.57
638.767	41984.24
639.121	42214.51
639.474	41965.93
639.828	42077.11
640.181	42129.77
640.534	42068.53
640.888	41951.92
641.241	41768.87
641.594	41947.17
641.947	42066.94
642.301	41967.74
642.654	41876.44
643.007	41873.96
643.36	41941.98
643.713	41830.34
644.066	41988.53
644.419	41675.54
644.771	41583.12
645.124	41092.73
645.477	41105.84
645.83	40742.91
646.182	40700.88
646.535	40561
646.888	40679.41
647.24	40480.32
647.593	40820.42
647.945	40630.15
648.298	40487.1
648.65	40428.8
649.002	40382.02
649.355	40394.22
649.707	40516.7
650.059	40521.9
650.411	41054.09
650.763	41135.22
651.115	41480.52
651.467	41471.48
651.819	41382.67
652.171	41323.46
652.523	41159.62
652.875	41214.76
653.227	41048.21
653.578	41316
653.93	41228.77
654.282	40993.53
654.633	40920.76
654.985	41223.35
655.337	41137.93
655.688	41227.87
656.039	41217.93
656.391	40908.11
656.742	41057.93
657.094	40906.75
657.445	41266.51
657.796	41139.51
658.147	41018.61
658.498	41029.23
658.849	41004.15
659.2	40883.7
659.551	40908.11
659.902	40911.27
660.253	40921.89
660.604	41026.07
660.955	40832.4
661.306	40973.41
661.656	40966.18
662.007	40967.54
662.358	40940.65
662.708	41047.99
663.059	40946.07
663.409	40648.22
663.76	41092.28
664.11	40952.85
664.461	40849.58
664.811	40857.49
665.161	40822.91
665.511	40783.81
665.862	40854.32
666.212	40939.97
666.562	40928.9
666.912	40709.69
667.262	40779.52
667.612	40760.31
667.962	40832.17
668.312	40745.17
668.662	40861.1
669.011	40872.63
669.361	40832.17
669.711	40658.39
670.06	40753.98
670.41	40675.12
670.76	40538.85
671.109	40755.57
671.459	40652.07
671.808	40548.11
672.157	40695.68
672.507	40403.71
672.856	40520.77
673.205	40592.63
673.554	40518.74
673.904	40480.32
674.253	40652.07
674.602	40561.22
674.951	40000.33
675.3	39872.88
675.649	40422.02
675.998	40340.66
676.346	40319.87
676.695	40532.07
677.044	40232.87
677.393	40385.18
677.741	40297.05
678.09	40315.58
678.438	40165.53
678.787	40217.05
679.135	40222.7
679.484	39987.45
679.832	40268.57
680.181	39996.49
680.529	40065.64
680.877	39902.26
681.225	39969.37
681.573	40147
681.922	39787.68
682.27	39640.12
682.618	39829.49
682.966	39670.4
683.314	39769.83
683.661	39638.76
684.009	39402.83
684.357	39537.75
684.705	39306.79
685.053	39381.37
685.4	39455.71
685.748	39229.73
686.095	39215.72
686.443	39058.89
686.79	39040.58
687.138	39070.19
687.485	39144.31
687.832	39013.01
688.18	39026.8
688.527	38727.37
688.874	38763.3
689.221	38619.58
689.568	38608.96
689.915	38466.59
690.262	38543.42
690.609	38359.02
690.956	38246.25
691.303	38181.62
691.65	38007.16
691.997	38119.48
692.344	37873.61
692.69	37782.31
693.037	37788.19
693.383	37619.15
693.73	37627.29
694.077	37471.13
694.423	37413.51
694.769	37435.43
695.116	37270.91
695.462	37082.9
695.808	37032.73
696.155	37138.26
696.501	36901.43
696.847	36769.23
697.193	36667.99
697.539	36657.37
697.885	36485.17
698.231	36325.4
698.577	36411.05
698.923	36343.71
699.269	36175.12
699.614	35982.58
699.96	35922.47
700.306	36072.98
700.651	35763.61
700.997	35742.37
701.342	35751.86
701.688	35734.46
702.033	35603.16
702.379	35439.77
702.724	35341.02
703.069	35461.02
703.415	35132.66
703.76	35120.23
704.105	35111.65
704.45	34942.39
704.795	34790.75
705.14	34789.17
705.485	34861.26
705.83	34579.46
706.175	34701.94
706.52	34419.01
706.865	34466.24
707.209	34398.67
707.554	34271.67
707.899	34339.92
708.243	34134.5
708.588	34032.81
708.932	33811.79
709.277	33803.66
709.621	33935.86
709.966	33642.31
710.31	33672.59
710.654	33507.17
710.998	33623.78
711.342	33551.46
711.687	33490.22
712.031	33288.64
712.375	33222.21
712.719	33288.42
713.063	33106.28
713.407	33209.78
713.75	32974.98
714.094	33044.36
714.438	32778.15
714.782	32820.86
715.125	32759.84
715.469	32739.28
715.812	32770.01
716.156	32533.18
716.499	32571.6
716.843	32499.96
717.186	32299.52
717.53	32376.13
717.873	32378.84
718.216	32207.77
718.559	32183.14
718.902	31918.29
719.246	32045.97
719.589	31895.46
719.932	31804.16
720.275	32001.67
720.617	31827.21
720.96	31807.78
721.303	31782.92
721.646	31743.37
721.989	31473.55
722.331	31691.4
722.674	31422.25
723.016	31531.4
723.359	31389.26
723.701	31438.07
724.044	31356.49
724.386	31261.81
724.729	31177.51
725.071	31168.7
725.413	31196.04
725.755	31125.09
726.097	31042.38
726.439	30822.27
726.782	30957.86
727.124	31013.22
727.465	30867.69
727.807	30838.54
728.149	30771.2
728.491	30685.78
728.833	30675.83
729.175	30682.84
729.516	30526.46
729.858	30521.94
730.199	30540.02
730.541	30333.24
730.882	30373.69
731.224	30468.38
731.565	30291.21
731.906	30297.54
732.248	30271.55
732.589	30130.08
732.93	30009.86
733.271	30092.34
733.612	30069.07
733.953	30108.62
734.294	29999.69
734.635	29862.52
734.976	29969.18
735.317	29691.9
735.658	29671.34
735.999	29834.05
736.339	29746.14
736.68	29799.24
737.021	29669.08
737.361	29573.71
737.702	29713.15
738.042	29389.31
738.383	29467.73
738.723	29543.43
739.063	29362.87
739.404	29400.61
739.744	29426.83
740.084	29171.92
740.424	29171.46
740.764	29238.81
741.104	29207.85
741.444	29042.2
741.784	29112.03
742.124	28985.48
742.464	28906.16
742.804	28955.65
743.143	28856.22
743.483	28968.76
743.823	28753.62
744.162	28873.39
744.502	28828.2
744.841	28711.82
745.181	28819.38
745.52	28521.76
745.86	28646.73
746.199	28596.11
746.538	28546.85
746.877	28519.73
747.216	28535.78
747.556	28449.68
747.895	28411.48
748.234	28296.69
748.573	28328.55
748.911	28139.4
749.25	28194.77
749.589	28144.82
749.928	28125.84
750.267	28110.48
750.605	28041.32
750.944	27915
751.283	27684.27
751.621	27833.87
751.96	27704.61
752.298	27753.65
752.636	27795.68
752.975	27663.48
753.313	27527.44
753.651	27667.1
753.989	27393.88
754.327	27373.32
754.666	27345.52
755.004	27362.02
755.342	27435.47
755.679	27284.28
756.017	27205.64
756.355	27142.37
756.693	27010.62
757.031	27182.82
757.368	26870.28
757.706	26829.38
758.044	26720.68
758.381	26872.32
758.719	26685.88
759.056	26693.11
759.394	26623.28
759.731	26514.36
760.068	26434.36
760.405	26322.5
760.743	26159.11
761.08	26219.23
761.417	26113.92
761.754	26074.37
762.091	26063.3
762.428	25864.43
762.765	25797.09
763.102	25788.05
763.438	25696.53
763.775	25587.83
764.112	25631.22
764.449	25517.78
764.785	25519.36
765.122	25236.43
765.458	25262.41
765.795	25196.88
766.131	25122.76
766.467	25020.39
766.804	24866.27
767.14	24807.74
767.476	24868.75
767.812	24621.53
768.148	24727.51
768.485	24558.03
768.821	24537.46
769.157	24476.45
769.492	24286.85
769.828	24353.74
770.164	24122.11
770.5	24015.67
770.836	24066.97
771.171	23854.77
771.507	23924.82
771.842	23780.42
772.178	23656.13
772.513	23554.89
772.849	23509.47
773.184	23349.7
773.519	23373.2
773.855	23275.12
774.19	23208.68
774.525	23181.79
774.86	23095.69
775.195	23035.13
775.53	22940.67
775.865	22740
776.2	22651.18
776.535	22532.09
776.87	22499.32
777.205	22377.07
777.539	22294.13
777.874	22293.23
778.209	22063.4
778.543	22222.04
778.878	22041.93
779.212	22041.03
779.547	21844.65
779.881	21810.3
780.215	21750.64
780.55	21726.01
780.884	21710.64
781.218	21551.33
781.552	21427.71
781.886	21379.58
782.22	21343.65
782.554	21197.66
782.888	21103.88
783.222	20992.92
783.556	20858.01
783.889	20772.82
784.223	20727.39
784.557	20632.48
784.89	20733.72
785.224	20560.39
785.557	20570.33
785.891	20450.79
786.224	20400.85
786.558	20334.18
786.891	20147.75
787.224	20076.56
787.557	20072.49
787.891	19971.25
788.224	19949.56
788.557	19930.8
788.89	19902.33
789.223	19899.84
789.556	19647.65
789.888	19695.33
790.221	19560.19
790.554	19428.22
790.887	19451.04
791.219	19352.06
791.552	19380.99
791.884	19257.38
792.217	19189.81
792.549	19042.92
792.882	18968.8
793.214	18839.76
793.546	18913.88
793.879	18775.35
794.211	18704.85
794.543	18713.43
794.875	18714.11
795.207	18624.4
795.539	18529.26
795.871	18609.48
796.203	18388.92
796.535	18307.8
796.867	18275.03
797.198	18138.76
797.53	18155.26
797.862	18040.01
798.193	18078.42
798.525	17965.43
798.856	17961.36
799.188	17776.96
799.519	17803.4
799.85	17647.47
800.182	17657.64
800.513	17655.38
800.844	17487.25
801.175	17516.4
801.506	17497.2
801.837	17499.91
802.168	17405.45
802.499	17310.31
802.83	17287.03
803.161	17231.89
803.491	17145.79
803.822	17084.32
804.153	17068.96
804.483	16894.73
804.814	16917.78
805.145	16823.09
805.475	16959.36
805.805	16744.45
806.136	16779.25
806.466	16739.93
806.796	16812.92
807.126	16629.87
807.457	16549.65
807.787	16599.14
808.117	16490.67
808.447	16351.46
808.777	16550.55
809.107	16305.14
809.436	16332.93
809.766	16282.31
810.096	16227.4
810.426	16177.23
810.755	16165.48
811.085	16182.88
811.414	16028.31
811.744	16007.52
812.073	15872.38
812.403	15893.85
812.732	15818.37
813.061	15796.9
813.39	15669.67
813.719	15757.13
814.049	15864.24
814.378	15754.42
814.707	15723.46
815.036	15692.72
815.365	15533.18
815.693	15370.25
816.022	15438.94
816.351	15332.28
816.68	15209.12
817.008	15343.58
817.337	15193.3
817.665	15156.01
817.994	15222.9
818.322	15191.27
818.651	15109.01
818.979	14959.86
819.307	15144.94
819.636	15025.85
819.964	14920.54
820.292	14987.66
820.62	14969.13
820.948	14919.64
821.276	14993.53
821.604	14861.33
821.932	14895.68
822.259	14892.97
822.587	14821.56
822.915	14881.67
823.243	14911.05
823.57	14852.29
823.898	14753.31
824.225	14786.08
824.553	14711.28
824.88	14841.45
825.207	14846.19
825.535	14814.78
825.862	14863.37
826.189	14760.77
826.516	14840.54
826.843	14861.56
827.17	14877.38
827.497	14879.19
827.824	14870.82
828.151	14933.42
828.478	14856.59
828.805	14892.07
829.131	14856.59
829.458	14752.41
829.785	14814.1
830.111	14763.48
830.438	14833.08
830.764	14783.37
831.09	14789.24
831.417	14784.05
831.743	14734.1
832.069	14762.58
832.395	14688.91
832.722	14718.74
833.048	14735.23
833.374	14642.36
833.7	14626.54
834.026	14635.12
834.351	14663.6
834.677	14617.27
835.003	14692.3
835.329	14697.04
835.654	14657.27
835.98	14533.43
836.306	14553.32
836.631	14514.67
836.956	14578.4
837.282	14524.39
837.607	14419.76
837.932	14449.37
838.258	14425.41
838.583	14370.95
838.908	14317.39
839.233	14278.52
839.558	14263.83
839.883	14276.72
840.208	14172.54
840.533	14218.41
840.858	14151.07
841.182	14229.48
841.507	14170.96
841.832	14025.2
842.156	14069.04
842.481	14062.94
842.805	14007.12
843.13	13920.34
843.454	13981.58
843.778	13857.97
844.103	13911.3
844.427	13835.6
844.751	13900.68
845.075	13834.47
845.399	13685.09
845.723	13745.2
846.047	13656.62
846.371	13622.27
846.695	13618.2
847.019	13429.28
847.343	13413.23
847.666	13350.86
847.99	13335.27
848.313	13279.23
848.637	13294.14
848.96	13203.07
849.284	13122.85
849.607	13039.23
849.931	13026.58
850.254	12867.03
850.577	12881.95
850.9	12754.5
851.223	12789.75
851.546	12667.72
851.869	12592.47
852.192	12656.87
852.515	12466.59
852.838	12539.81
853.161	12570.32
853.483	12368.97
853.806	12416.88
854.129	12317.9
854.451	12291.46
854.774	12240.38
855.096	12180.05
855.419	12156.77
855.741	12128.75
856.063	12067.73
856.385	12106.38
856.708	12078.81
857.03	11963.78
857.352	12064.34
857.674	11918.81
857.996	11805.37
858.318	11783.22
858.64	11829.32
858.961	11819.6
859.283	11737.12
859.605	11686.5
859.926	11717.91
860.248	11603.11
860.57	11632.26
860.891	11592.04
861.212	11497.81
861.534	11537.13
861.855	11519.95
862.176	11568.99
862.498	11463.23
862.819	11510.69
863.14	11469.78
863.461	11444.02
863.782	11384.81
864.103	11438.82
864.424	11315.44
864.745	11361.09
865.065	11293.06
865.386	11254.87
865.707	11215.55
866.027	11321.99
866.348	11233.18
866.668	11218.26
866.989	11164.48
867.309	11152.96
867.63	11150.02
867.95	11133.07
868.27	11111.15
868.59	11075.67
868.91	10968.55
869.23	11025.5
869.55	11014.2
869.87	11015.56
870.19	10994.32
870.51	10987.08
870.83	10966.29
871.15	10898.5
871.469	10912.06
871.789	10934.2
872.109	10903.02
872.428	10824.6
872.748	10870.7
873.067	10827.77
873.386	10880.19
873.706	10839.97
874.025	10725.4
874.344	10763.36
874.663	10705.74
874.982	10773.3
875.301	10730.37
875.62	10638.17
875.939	10649.69
876.258	10673.87
876.577	10544.84
876.896	10609.47
877.214	10600.43
877.533	10604.5
877.852	10487.44
878.17	10597.72
878.489	10534.44
878.807	10526.31
879.125	10458.96
879.444	10543.25
879.762	10441.56
880.08	10420.32
880.398	10361.79
880.716	10392.07
881.034	10306.88
881.352	10379.64
881.67	10330.15
881.988	10338.74
882.306	10257.39
882.624	10241.79
882.941	10244.5
883.259	10156.15
883.577	10207.9
883.894	10164.28
884.212	10141.91
884.529	10130.38
884.846	10063.04
885.164	9985.3
885.481	10027.79
885.798	10056.26
886.115	9998.86
886.432	9968.81
886.75	9934.91
887.067	9961.57
887.383	9913.21
887.7	9947.11
888.017	9889.94
888.334	9891.97
888.651	9883.16
888.967	9814.23
889.284	9761.81
889.6	9769.94
889.917	9714.8
890.233	9646.78
890.55	9687.01
890.866	9659.66
891.182	9634.8
891.498	9565.65
891.815	9563.17
892.131	9496.05
892.447	9437.97
892.763	9479.55
893.079	9473.68
893.395	9383.96
893.71	9313
894.026	9398.88
894.342	9283.85
894.657	9324.98
894.973	9280.46
895.289	9303.74
895.604	9302.61
895.92	9155.72
896.235	9155.95
896.55	9071.2
896.865	9071.43
897.181	9012.9
897.496	9011.54
897.811	9029.4
898.126	8981.26
898.441	8893.58
898.756	8903.07
899.071	8857.2
899.386	8840.25
899.7	8789.85
900.015	8754.37
900.33	8638.67
900.644	8668.05
900.959	8682.51
901.273	8630.54
901.588	8632.8
901.902	8605
902.216	8518.67
902.531	8459.24
902.845	8536.75
903.159	8501.05
903.473	8400.26
903.787	8373.82
904.101	8340.83
904.415	8343.76
904.729	8315.29
905.042	8253.82
905.356	8241.62
905.67	8228.29
905.984	8195.29
906.297	8149.42
906.611	8196.65
906.924	8129.76
907.237	8088.4
907.551	8053.83
907.864	8022.42
908.177	8000.72
908.491	8022.42
908.804	7916.88
909.117	7907.39
909.43	7853.83
909.743	7774.74
910.056	7754.4
910.368	7714.85
910.681	7686.38
910.994	7639.83
911.307	7637.79
911.619	7651.13
911.932	7684.12
912.244	7556.89
912.557	7526.38
912.869	7534.97
913.181	7508.53
913.494	7443.9
913.806	7431.25
914.118	7391.47
914.43	7333.62
914.742	7389.44
915.054	7232.38
915.366	7303.11
915.678	7197.35
915.99	7237.13
916.302	7132.04
916.613	7166.62
916.925	7115.55
917.236	7083.01
917.548	7000.75
917.859	7089.79
918.171	7002.56
918.482	6911.48
918.794	6959.85
919.105	6897.93
919.416	6878.94
919.727	6873.07
920.038	6814.31
920.349	6781.09
920.66	6723.69
920.971	6719.4
921.282	6676.91
921.593	6663.58
921.903	6651.15
922.214	6606.63
922.525	6556.24
922.835	6569.57
923.146	6496.35
923.456	6464.49
923.767	6487.54
924.077	6448.45
924.387	6441.89
924.697	6378.17
925.008	6370.93
925.318	6297.04
925.628	6295.23
925.938	6321.44
926.248	6251.16
926.558	6204.61
926.867	6203.25
927.177	6198.96
927.487	6160.09
927.796	6121
928.106	6092.75
928.416	6056.37
928.725	6098.4
929.034	5996.03
929.344	6038.97
929.653	6044.39
929.962	5909.03
930.271	5927.56
930.581	5921.91
930.89	5860.67
931.199	5829.48
931.508	5830.84
931.817	5828.8
932.125	5807.56
932.434	5796.26
932.743	5737.5
933.051	5763.72
933.36	5697.73
933.669	5638.52
933.977	5635.36
934.286	5610.05
934.594	5612.99
934.902	5575.02
935.21	5523.72
935.519	5554.68
935.827	5513.1
936.135	5465.42
936.443	5382.26
936.751	5404.41
937.059	5378.64
937.367	5366.67
937.674	5364.86
937.982	5317.4
938.29	5250.74
938.597	5268.36
938.905	5246.22
939.213	5201.93
939.52	5192.66
939.827	5224.3
940.135	5129.84
940.442	5127.58
940.749	5066.11
941.056	5128.03
941.363	5053.23
941.67	5057.75
941.977	5021.37
942.284	5001.03
942.591	4987.02
942.898	4961.71
943.205	4975.94
943.511	4919.9
943.818	4890.3
944.125	4881.48
944.431	4876.06
944.738	4884.65
945.044	4835.83
945.35	4751.77
945.657	4744.54
945.963	4772.78
946.269	4796.06
946.575	4726.01
946.881	4695.27
947.187	4685.55
947.493	4616.4
947.799	4651.66
948.105	4626.57
948.41	4568.27
948.716	4592.45
949.022	4562.85
949.327	4552
949.633	4452.79
949.938	4487.37
950.244	4509.51
950.549	4444.21
950.854	4433.36
951.16	4411.66
951.465	4425
951.77	4397.2
952.075	4378.67
952.38	4350.65
952.685	4337.77
952.99	4282.4
953.294	4269.29
953.599	4250.09
953.904	4227.94
954.209	4269.97
954.513	4222.97
954.818	4169.18
955.122	4126.7
955.426	4110.65
955.731	4117.89
956.035	4149.52
956.339	4118.79
956.643	4078.11
956.948	4051.45
957.252	4024.33
957.556	4044.89
957.86	3982.97
958.163	3981.17
958.467	3981.84
958.771	3962.86
959.075	3942.75
959.378	3929.19
959.682	3921.73
959.985	3895.52
960.289	3853.03
960.592	3844.22
960.896	3867.27
961.199	3820.49
961.502	3807.39
961.805	3815.52
962.108	3767.39
962.411	3749.31
962.714	3782.75
963.017	3723.77
963.32	3736.43
963.623	3675.41
963.926	3695.75
964.228	3695.07
964.531	3675.19
964.833	3612.36
965.136	3630.44
965.438	3607.84
965.741	3600.39
966.043	3556.32
966.345	3564.23
966.648	3563.1
966.95	3564.91
967.252	3509.77
967.554	3456.43
967.856	3500.95
968.158	3455.08
968.46	3457.34
968.761	3452.82
969.063	3442.88
969.365	3404.01
969.666	3365.59
969.968	3401.29
970.269	3374.18
970.571	3341.86
970.872	3330.34
971.174	3353.39
971.475	3311.35
971.776	3311.13
972.077	3275.87
972.378	3271.13
972.679	3271.81
972.98	3244.01
973.281	3266.61
973.582	3188.64
973.883	3206.5
974.183	3204.01
974.484	3163.56
974.785	3186.39
975.085	3161.08
975.386	3141.87
975.686	3107.29
975.986	3068.87
976.287	3077.91
976.587	3041.3
976.887	3064.81
977.187	3037.91
977.487	3006.5
977.787	3002.89
978.087	3032.94
978.387	2985.94
978.687	2965.15
978.987	2968.99
979.286	2905.26
979.586	2957.92
979.885	2919.27
980.185	2901.19
980.484	2859.61
980.784	2852.16
981.083	2848.09
981.382	2877.47
981.682	2841.08
981.981	2827.98
982.28	2837.02
982.579	2810.8
982.878	2802.89
983.177	2820.29
983.475	2745.72
983.774	2760.41
984.073	2719.5
984.372	2724.48
984.67	2672.95
984.969	2703.91
985.267	2703.91
985.566	2689
985.864	2697.13
986.162	2669.34
986.461	2639.05
986.759	2640.86
987.057	2630.24
987.355	2597.7
987.653	2613.52
987.951	2588.66
988.249	2554.76
988.547	2548.44
988.844	2543.01
989.142	2547.31
989.44	2552.5
989.737	2526.06
990.035	2484.48
990.332	2489
990.63	2493.97
990.927	2443.35
991.224	2456.69
991.521	2439.51
991.819	2455.78
992.116	2415.56
992.413	2411.26
992.71	2449
993.006	2397.03
993.303	2374.43
993.6	2373.98
993.897	2345.5
994.193	2360.87
994.49	2349.35
994.787	2327.65
995.083	2322.23
995.379	2305.05
995.676	2273.19
995.972	2269.8
996.268	2289.46
996.565	2255.34
996.861	2276.35
997.157	2225.05
997.453	2217.82
997.749	2233.42
998.044	2185.96
998.34	2195.45
998.636	2184.83
998.932	2179.63
999.227	2159.97
999.523	2159.97
999.818	2128.11
1000.114	2147.32
1000.409	2134.21
1000.704	2088.56
1001	2084.27
1001.295	2081.1
1001.59	2082.46
1001.885	2065.51
1002.18	2040.88
1002.475	2061.89
1002.77	2007.89
1003.065	2016.47
1003.359	2034.55
1003.654	2001.56
1003.949	1965.63
1004.243	1972.86
1004.538	1970.37
1004.832	1957.26
1005.127	1927.89
1005.421	1923.14
1005.715	1909.81
1006.009	1911.84
1006.304	1895.12
1006.598	1904.61
1006.892	1878.4
1007.186	1868.23
1007.48	1854.22
1007.773	1874.56
1008.067	1831.17
1008.361	1858.74
1008.655	1813.77
1008.948	1799.98
1009.242	1806.76
1009.535	1763.15
1009.829	1780.09
1010.122	1778.51
1010.415	1783.71
1010.708	1764.28
1011.001	1722.02
1011.295	1715.46
1011.588	1707.33
1011.881	1710.94
1012.173	1690.83
1012.466	1701
1012.759	1710.72
1013.052	1647.22
1013.344	1657.39
1013.637	1639.99
1013.93	1627.78
1014.222	1612.87
1014.514	1636.6
1014.807	1609.03
1015.099	1593.88
1015.391	1590.49
1015.683	1580.55
1015.976	1588.24
1016.268	1565.64
1016.56	1559.08
1016.851	1566.77
1017.143	1529.48
1017.435	1533.55
1017.727	1540.33
1018.018	1524.06
1018.31	1480.89
1018.602	1494.45
1018.893	1477.96
1019.185	1457.39
1019.476	1444.28
1019.767	1446.54
1020.058	1483.61
1020.35	1448.13
1020.641	1413.55
1020.932	1392.76
1021.223	1393.21
1021.514	1413.32
1021.804	1386.21
1022.095	1370.39
1022.386	1383.72
1022.677	1371.29
1022.967	1344.4
1023.258	1337.17
1023.548	1335.13
1023.839	1305.98
1024.129	1316.38
1024.419	1293.55
1024.709	1293.78
1025	1298.3
1025.29	1301.69
1025.58	1282.71
1025.87	1278.64
1026.16	1246.78
1026.449	1238.41
1026.739	1276.6
1027.029	1243.39
1027.319	1236.61
1027.608	1218.3
1027.898	1226.44
1028.187	1193.44
1028.477	1192.99
1028.766	1188.02
1029.055	1187.34
1029.344	1180.79
1029.634	1146.21
1029.923	1162.03
1030.212	1153.44
1030.501	1134.01
1030.79	1142.6
1031.078	1142.15
1031.367	1127.68
1031.656	1105.99
1031.945	1110.28
1032.233	1101.69
1032.522	1079.1
1032.81	1090.62
1033.099	1124.29
1033.387	1073.67
1033.675	1057.63
1033.963	1058.08
1034.251	1038.42
1034.54	1052.43
1034.828	1034.13
1035.116	1036.84
1035.403	1028.48
1035.691	1012.88
1035.979	1019.44
1036.267	999.32
1036.554	988.25
1036.842	1007.01
1037.129	1006.56
1037.417	1003.39
1037.704	1003.39
1037.992	994.35
1038.279	947.57
1038.566	941.7
1038.853	941.7
1039.14	941.7
