Data from hue_200_FLMS001491_00035.txt Node
Date: Tue Feb 07 16:43:11 GMT 2017
User: dcchb
Spectrometer: FLMS00149
Trigger mode: 0
Integration Time (sec): 2.000000E-2
Scans to average: 10
Electric dark correction enabled: true
Nonlinearity correction enabled: false
Boxcar width: 0
XAxis mode: Wavelengths
Number of Pixels in Spectrum: 2048
>>>>>Begin Spectral Data<<<<<
341.393	-7.77
341.776	-7.77
342.16	-7.77
342.543	-61.78
342.927	-73.08
343.31	-59.07
343.693	-78.95
344.077	-46.41
344.46	-65.17
344.843	-64.49
345.226	-22.46
345.61	-37.82
345.993	-18.16
346.376	-2.8
346.759	16.19
347.142	30.87
347.525	16.19
347.908	49.41
348.291	70.42
348.674	91.21
349.057	121.04
349.44	115.62
349.823	124.43
350.206	166.69
350.588	197.42
350.971	221.38
351.354	224.99
351.737	227.03
352.119	237.42
352.502	238.78
352.884	266.12
353.267	278.55
353.65	305.22
354.032	321.71
354.414	314.03
354.797	317.2
355.179	316.74
355.562	345.67
355.944	326.46
356.326	320.81
356.709	324.88
357.091	365.33
357.473	332.56
357.855	344.54
358.238	336.63
358.62	314.71
359.002	347.7
359.384	340.25
359.766	337.31
360.148	340.25
360.53	342.96
360.912	326.23
361.294	343.86
361.676	332.34
362.057	345.89
362.439	342.28
362.821	328.95
363.203	332.11
363.584	333.69
363.966	328.27
364.348	325.33
364.729	325.56
365.111	332.34
365.493	321.04
365.874	329.17
366.256	328.95
366.637	323.07
367.019	307.25
367.4	328.72
367.781	301.6
368.163	313.81
368.544	316.74
368.925	322.39
369.306	334.82
369.688	321.04
370.069	306.35
370.45	336.63
370.831	318.55
371.212	318.1
371.593	303.64
371.974	319.23
372.355	309.06
372.736	308.83
373.117	335.5
373.498	310.64
373.879	322.17
374.26	325.56
374.641	315.39
375.021	323.52
375.402	321.71
375.783	328.95
376.163	325.78
376.544	322.17
376.925	346.57
377.305	323.3
377.686	329.4
378.066	329.85
378.447	334.37
378.827	327.82
379.208	339.79
379.588	336.86
379.968	349.06
380.349	356.06
380.729	340.02
381.109	358.32
381.489	354.93
381.87	358.32
382.25	341.15
382.63	340.47
383.01	355.16
383.39	370.75
383.77	346.57
384.15	338.66
384.53	357.65
384.91	354.48
385.29	366.69
385.67	357.42
386.049	354.48
386.429	348.15
386.809	358.32
387.189	384.99
387.568	381.15
387.948	366.91
388.328	377.53
388.707	384.31
389.087	379.79
389.466	374.14
389.846	375.05
390.225	373.24
390.605	387.48
390.984	378.89
391.363	377.98
391.743	381.83
392.122	388.15
392.501	381.83
392.881	388.38
393.26	403.07
393.639	378.44
394.018	368.27
394.397	394.71
394.776	410.53
395.155	399.23
395.534	381.83
395.913	401.49
396.292	428.15
396.671	431.99
397.05	409.62
397.429	413.92
397.808	406.23
398.186	423.86
398.565	422.05
398.944	447.81
399.323	417.08
399.701	453.24
400.08	428.83
400.458	424.31
400.837	446.01
401.215	445.55
401.594	462.5
401.972	444.65
402.351	434.25
402.729	431.54
403.107	465.67
403.486	443.75
403.864	475.38
404.242	460.24
404.62	481.94
404.999	474.25
405.377	516.29
405.755	493.01
406.133	467.47
406.511	502.5
406.889	519.45
407.267	523.07
407.645	502.73
408.023	509.51
408.401	551.09
408.779	502.73
409.156	521.71
409.534	547.47
409.912	559
410.29	559.67
410.667	579.56
411.045	591.99
411.422	600.58
411.8	638.77
412.178	613.91
412.555	602.16
412.933	644.87
413.31	641.25
413.687	659.56
414.065	669.73
414.442	662.72
414.819	680.12
415.197	667.02
415.574	694.36
415.951	720.35
416.328	722.38
416.705	740.46
417.082	715.15
417.46	748.6
417.837	770.29
418.214	782.72
418.591	781.59
418.967	807.35
419.344	819.55
419.721	828.82
420.098	832.66
420.475	854.58
420.852	858.2
421.228	862.72
421.605	888.93
421.982	884.19
422.358	914.92
422.735	931.87
423.111	973
423.488	973.22
423.864	999.44
424.241	989.95
424.617	1024.97
424.994	1012.09
425.37	1061.13
425.746	1072.66
426.123	1064.07
426.499	1081.02
426.875	1126.89
427.251	1129.6
427.627	1133.44
428.003	1144.74
428.379	1153.56
428.756	1159.21
429.132	1213.22
429.507	1225.65
429.883	1241.24
430.259	1263.16
430.635	1288.02
431.011	1265.64
431.387	1313.78
431.763	1307.68
432.138	1340.44
432.514	1339.99
432.89	1381.12
433.265	1418.86
433.641	1412.76
434.016	1440.78
434.392	1446.88
434.767	1542.7
435.143	1540.44
435.518	1567.56
435.894	1602.36
436.269	1611.62
436.644	1691.85
437.02	1690.49
437.395	1693.88
437.77	1762.13
438.145	1754.45
438.52	1802.35
438.895	1824.73
439.271	1826.99
439.646	1883.48
440.021	1895.01
440.395	1951.95
440.77	1954.44
441.145	1987.21
441.52	2039.18
441.895	2062.46
442.27	2081.44
442.645	2089.13
443.019	2098.39
443.394	2110.14
443.769	2109.46
444.143	2132.97
444.518	2181.55
444.892	2215.22
445.267	2184.04
445.641	2233.75
446.016	2274.21
446.39	2274.21
446.764	2294.32
447.139	2318.5
447.513	2367.76
447.887	2355.11
448.262	2369.57
448.636	2378.61
449.01	2426.74
449.384	2429.91
449.758	2447.99
450.132	2508.55
450.506	2482.56
450.88	2522.79
451.254	2526.4
451.628	2550.81
452.002	2581.32
452.376	2629.45
452.75	2662.67
453.123	2694.31
453.497	2705.15
453.871	2762.78
454.244	2818.37
454.618	2801.2
454.992	2833.97
455.365	2848.88
455.739	2908.54
456.112	2929.1
456.486	2984.02
456.859	3007.52
457.232	3058.82
457.606	3049.33
457.979	3118.48
458.352	3150.79
458.725	3172.71
459.099	3213.84
459.472	3265.82
459.845	3306.27
460.218	3323.22
460.591	3342.43
460.964	3365.25
461.337	3477.56
461.71	3513.5
462.083	3567.28
462.456	3564.12
462.829	3583.1
463.201	3626.94
463.574	3653.6
463.947	3704.22
464.32	3824.9
464.692	3804.33
465.065	3847.27
465.438	3873.49
465.81	3936.53
466.183	3982.64
466.555	4063.99
466.928	4082.29
467.3	4108.51
467.672	4188.73
468.045	4252.91
468.417	4277.09
468.789	4289.07
469.161	4368.61
469.534	4461.27
469.906	4576.52
470.278	4541.49
470.65	4583.3
471.022	4700.13
471.394	4779.22
471.766	4809.96
472.138	4852.89
472.51	4959.11
472.882	5066.9
473.253	5105.77
473.625	5167.24
473.997	5233.68
474.369	5292.88
474.74	5317.74
475.112	5437.51
475.484	5527
475.855	5618.07
476.227	5632.76
476.598	5781.23
476.97	5839.54
477.341	5972.87
477.713	5996.14
478.084	6099.87
478.455	6187.78
478.827	6271.16
479.198	6451.27
479.569	6420.31
479.94	6618.5
480.311	6682.9
480.682	6825.72
481.053	6890.13
481.424	6995.44
481.795	7070.92
482.166	7215.77
482.537	7217.58
482.908	7462.54
483.279	7512.26
483.65	7640.62
484.021	7757
484.391	7808.75
484.762	7903.89
485.133	8005.35
485.503	8032.25
485.874	8258.23
486.244	8295.97
486.615	8493.7
486.985	8556.07
487.356	8716.52
487.726	8702.06
488.097	8932.56
488.467	8955.16
488.837	9108.6
489.207	9138.43
489.578	9308.6
489.948	9345.21
490.318	9455.03
490.688	9547.23
491.058	9576.16
491.428	9738.19
491.798	9837.17
492.168	9940.9
492.538	10021.57
492.908	10168.24
493.278	10199.87
493.648	10212.53
494.017	10384.05
494.387	10374.56
494.757	10582.91
495.126	10644.38
495.496	10633.31
495.866	10630.82
496.235	10738.39
496.605	10768.67
496.974	10866.07
497.344	10970.93
497.713	11005.05
498.082	11063.58
498.452	11163.01
498.821	11134.76
499.19	11196.23
499.559	11313.52
499.928	11372.27
500.298	11374.31
500.667	11436.68
501.036	11444.13
501.405	11544.24
501.774	11525.94
502.143	11628.54
502.512	11632.6
502.88	11710.79
503.249	11702.88
503.618	11771.36
503.987	11809.55
504.356	11782.43
504.724	11946.72
505.093	11916.44
505.462	11956.21
505.83	11945.14
506.199	11971.8
506.567	12237.56
506.936	12124.12
507.304	12214.28
507.672	12258.35
508.041	12301.51
508.409	12259.71
508.777	12330.89
509.145	12428.29
509.514	12314.39
509.882	12460.15
510.25	12462.19
510.618	12507.16
510.986	12453.6
511.354	12540.15
511.722	12617.21
512.09	12710.99
512.458	12647.49
512.826	12662.41
513.193	12680.71
513.561	12644.1
513.929	12754.83
514.297	12819.01
514.664	12828.05
515.032	12815.17
515.4	12873.25
515.767	12963.42
516.135	12965
516.502	12838.45
516.869	13056.75
517.237	12942.4
517.604	12933.59
517.972	13015.84
518.339	13006.35
518.706	12968.16
519.073	13066.24
519.44	13016.52
519.808	13150.3
520.175	13128.61
520.542	13212.68
520.909	13191.21
521.276	13099.01
521.643	13202.73
522.009	13283.63
522.376	13227.82
522.743	13233.24
523.11	13331.99
523.477	13389.62
523.843	13378.09
524.21	13411.54
524.577	13506.68
524.943	13464.42
525.31	13512.55
525.676	13535.83
526.043	13528.15
526.409	13577.86
526.776	13648.82
527.142	13645.66
527.508	13557.98
527.874	13583.06
528.241	13659.9
528.607	13623.29
528.973	13599.11
529.339	13498.77
529.705	13604.3
530.071	13593.68
530.437	13612.89
530.803	13680.46
531.169	13634.13
531.535	13609.73
531.901	13493.35
532.267	13493.12
532.632	13527.02
532.998	13459.67
533.364	13520.92
533.73	13492.89
534.095	13449.28
534.461	13505.55
534.826	13512.55
535.192	13511.2
535.557	13536.51
535.923	13457.19
536.288	13354.14
536.653	13325.67
537.019	13260.58
537.384	13198.66
537.749	13291.54
538.114	13221.49
538.479	13185.56
538.845	13174.26
539.21	13065.79
539.575	13110.76
539.94	13061.94
540.305	13058.33
540.67	13001.83
541.034	12938.78
541.399	12973.59
541.764	12829.41
542.129	12799.35
542.494	12755.96
542.858	12741.73
543.223	12756.87
543.587	12740.82
543.952	12599.81
544.316	12606.59
544.681	12560.49
545.045	12562.07
545.41	12590.09
545.774	12533.37
546.138	12458.8
546.503	12453.6
546.867	12370.21
547.231	12416.76
547.595	12332.25
547.959	12249.99
548.324	12155.98
548.688	12136.77
549.052	12114.4
549.416	12089.54
549.779	12011.8
550.143	11969.77
550.507	11968.41
550.871	11943.33
551.235	11900.85
551.599	11848.19
551.962	11893.16
552.326	11770.91
552.689	11806.84
553.053	11738.82
553.417	11634.41
553.78	11718.7
554.143	11649.78
554.507	11614.75
554.87	11695.2
555.234	11699.72
555.597	11515.54
555.96	11462.89
556.323	11496.79
556.686	11566.16
557.05	11469.22
557.413	11452.5
557.776	11382.67
558.139	11469.67
558.502	11430.35
558.865	11354.64
559.228	11450.46
559.59	11398.71
559.953	11352.61
560.316	11400.75
560.679	11351.93
561.041	11435.09
561.404	11406.39
561.767	11438.03
562.129	11336.79
562.492	11492.49
562.854	11364.81
563.217	11384.93
563.579	11398.49
563.941	11348.09
564.304	11339.5
564.666	11489.56
565.028	11384.7
565.39	11400.52
565.753	11427.19
566.115	11417.69
566.477	11372.95
566.839	11443.46
567.201	11495.66
567.563	11454.3
567.925	11490.23
568.287	11450.24
568.648	11459.5
569.01	11450.91
569.372	11551.25
569.734	11417.02
570.095	11514.64
570.457	11621.76
570.819	11570.46
571.18	11468.54
571.542	11604.81
571.903	11529.78
572.265	11585.15
572.626	11521.87
572.987	11555.09
573.349	11597.12
573.71	11479.16
574.071	11572.72
574.432	11605.26
574.794	11628.76
575.155	11631.7
575.516	11624.69
575.877	11611.81
576.238	11623.11
576.599	11704.47
576.96	11656.78
577.32	11644.81
577.681	11640.06
578.042	11724.13
578.403	11711.02
578.763	11689.55
579.124	11664.02
579.485	11713.51
579.845	11740.4
580.206	11705.14
580.566	11657.01
580.927	11647.29
581.287	11653.39
581.648	11742.43
582.008	11727.74
582.368	11643.68
582.728	11678.03
583.089	11742.88
583.449	11668.08
583.809	11636.67
584.169	11701.53
584.529	11646.61
584.889	11723
585.249	11606.62
585.609	11636.67
585.969	11654.98
586.329	11603.23
586.688	11676.9
587.048	11571.81
587.408	11634.86
587.768	11520.97
588.127	11581.76
588.487	11569.55
588.846	11640.51
589.206	11624.02
589.565	11553.74
589.925	11560.97
590.284	11601.87
590.643	11640.29
591.003	11642.1
591.362	11624.24
591.721	11532.27
592.08	11572.49
592.44	11550.8
592.799	11564.13
593.158	11565.03
593.517	11519.39
593.876	11475.77
594.235	11459.05
594.593	11551.93
594.952	11504.47
595.311	11444.81
595.67	11530.69
596.029	11474.19
596.387	11580.18
596.746	11540.4
597.104	11555.32
597.463	11480.07
597.822	11501.31
598.18	11503.57
598.538	11386.73
598.897	11492.49
599.255	11465.83
599.613	11592.15
599.972	11515.77
600.33	11517.35
600.688	11407.52
601.046	11521.42
601.404	11501.99
601.762	11514.19
602.12	11503.79
602.478	11516.22
602.836	11525.94
603.194	11468.54
603.552	11452.04
603.91	11455.66
604.268	11543.11
604.625	11434.19
604.983	11470.8
605.341	11389.9
605.698	11461.76
606.056	11508.31
606.413	11465.83
606.771	11471.7
607.128	11563
607.485	11475.32
607.843	11490.23
608.2	11501.31
608.557	11490.69
608.914	11454.53
609.272	11603
609.629	11572.72
609.986	11564.13
610.343	11522.32
610.7	11589.89
611.057	11598.93
611.414	11606.62
611.771	11652.04
612.127	11672.6
612.484	11598.25
612.841	11657.46
613.198	11625.15
613.554	11548.76
613.911	11683
614.267	11685.26
614.624	11609.78
614.98	11635.99
615.337	11694.3
615.693	11681.64
616.05	11619.95
616.406	11787.4
616.762	11682.55
617.118	11779.72
617.475	11759.15
617.831	11699.49
618.187	11706.27
618.543	11720.96
618.899	11832.6
619.255	11737.91
619.611	11743.79
619.967	11791.47
620.323	11757.8
620.678	11744.92
621.034	11752.6
621.39	11759.61
621.746	11677.35
622.101	11838.02
622.457	11757.12
622.812	11709.21
623.168	11792.83
623.523	11806.84
623.879	11876.67
624.234	11727.74
624.589	11789.21
624.945	11820.17
625.3	11767.74
625.655	11786.27
626.01	11810.23
626.365	11684.13
626.72	11662.43
627.075	11745.37
627.43	11714.41
627.785	11699.27
628.14	11707.4
628.495	11741.08
628.85	11747.63
629.205	11627.86
629.559	11700.4
629.914	11614.3
630.269	11616.33
630.623	11650.68
630.978	11664.02
631.332	11679.38
631.687	11680.51
632.041	11622.89
632.396	11556.45
632.75	11437.13
633.104	11581.98
633.459	11470.35
633.813	11485.04
634.167	11500.86
634.521	11539.27
634.875	11481.65
635.229	11477.81
635.583	11427.41
635.937	11417.69
636.291	11444.36
636.645	11466.51
636.999	11343.12
637.352	11371.59
637.706	11332.27
638.06	11367.75
638.413	11358.49
638.767	11251.82
639.121	11291.37
639.474	11196.23
639.828	11336.34
640.181	11305.61
640.534	11319.84
640.888	11163.92
641.241	11218.15
641.594	11240.52
641.947	11257.02
642.301	11230.81
642.654	11198.72
643.007	11249.11
643.36	11233.07
643.713	11187.42
644.066	11235.55
644.419	11113.3
644.771	11112.17
645.124	10991.49
645.477	10958.05
645.83	10878.73
646.182	10866.3
646.535	10836.92
646.888	10866.75
647.24	10718.5
647.593	10863.13
647.945	10754.43
648.298	10734.1
648.65	10701.55
649.002	10761.21
649.355	10796.02
649.707	10781.33
650.059	10772.74
650.411	10972.73
650.763	10963.69
651.115	11033.07
651.467	11029.91
651.819	10969.34
652.171	10991.04
652.523	10936.58
652.875	11020.42
653.227	10942.45
653.578	11002.11
653.93	10987.87
654.282	10919.18
654.633	10900.42
654.985	10977.03
655.337	11001.89
655.688	11035.11
656.039	10991.72
656.391	10972.73
656.742	10938.16
657.094	10980.64
657.445	11025.16
657.796	11016.57
658.147	10918.72
658.498	11022
658.849	11039.4
659.2	10986.29
659.551	10960.98
659.902	11031.72
660.253	10937.93
660.604	11055.22
660.955	10939.74
661.306	11022.22
661.656	11019.96
662.007	11047.31
662.358	11006.86
662.708	11025.84
663.059	10986.97
663.409	11038.5
663.76	11048.66
664.11	11048.21
664.461	11050.02
664.811	11043.24
665.161	10979.29
665.511	10992.17
665.862	11017.7
666.212	11076.01
666.562	11036.46
666.912	11070.36
667.262	11082.34
667.612	10980.19
667.962	11003.69
668.312	10997.14
668.662	11088.89
669.011	11055.9
669.361	11017.25
669.711	11041.66
670.06	10992.85
670.41	11005.5
670.76	10944.26
671.109	11007.76
671.459	11022.9
671.808	10977.25
672.157	10989.46
672.507	10847.31
672.856	10875.11
673.205	10922.79
673.554	10939.29
673.904	10886.18
674.253	10974.32
674.602	10918.5
674.951	10757.82
675.3	10719.18
675.649	10888.67
675.998	10867.43
676.346	10829.91
676.695	10913.98
677.044	10750.37
677.393	10805.51
677.741	10795.56
678.09	10795.34
678.438	10728.67
678.787	10779.07
679.135	10814.09
679.484	10736.58
679.832	10766.64
680.181	10676.7
680.529	10740.2
680.877	10683.48
681.225	10641.9
681.573	10699.75
681.922	10586.98
682.27	10542.24
682.618	10562.58
682.966	10574.55
683.314	10538.17
683.661	10561.9
684.009	10408
684.357	10477.15
684.705	10478.51
685.053	10465.85
685.4	10375.46
685.748	10390.6
686.095	10366.42
686.443	10303.83
686.79	10269.02
687.138	10269.02
687.485	10336.37
687.832	10202.36
688.18	10279.19
688.527	10189.25
688.874	10154.9
689.221	10136.15
689.568	10141.12
689.915	10103.15
690.262	10143.38
690.609	10019.09
690.956	9965.08
691.303	10008.24
691.65	9919.2
691.997	9944.29
692.344	9832.88
692.69	9833.55
693.037	9887.34
693.383	9739.77
693.73	9747.23
694.077	9662.94
694.423	9584.07
694.769	9624.07
695.116	9599.44
695.462	9488.03
695.808	9522.83
696.155	9519.21
696.501	9459.78
696.847	9425.66
697.193	9425.66
697.539	9426.11
697.885	9300.69
698.231	9239.67
698.577	9241.71
698.923	9172.78
699.269	9194.48
699.614	9111.31
699.96	9061.6
700.306	9156.74
700.651	9100.47
700.997	9090.07
701.342	8963.07
701.688	9015.27
702.033	8971.88
702.379	8892.79
702.724	8892.34
703.069	8935.73
703.415	8869.06
703.76	8802.85
704.105	8790.19
704.45	8765.56
704.795	8732.57
705.14	8678.11
705.485	8721.04
705.83	8683.98
706.175	8633.59
706.52	8580.71
706.865	8583.87
707.209	8563.76
707.554	8529.63
707.899	8561.95
708.243	8507.94
708.588	8497.09
708.932	8406.02
709.277	8368.51
709.621	8367.15
709.966	8274.95
710.31	8404.44
710.654	8285.57
710.998	8292.13
711.342	8291
711.687	8289.19
712.031	8206.03
712.375	8120.83
712.719	8203.77
713.063	8127.16
713.407	8173.26
713.75	8172.36
714.094	8128.52
714.438	8109.53
714.782	8167.38
715.125	8078.57
715.469	8108.18
715.812	8028.18
716.156	8059.14
716.499	7980.04
716.843	8011.91
717.186	7942.31
717.53	8005.35
717.873	8006.94
718.216	7962.19
718.559	7905.92
718.902	7870.67
719.246	7906.83
719.589	7839.71
719.932	7801.29
720.275	7849.88
720.617	7805.81
720.96	7778.02
721.303	7805.36
721.646	7826.38
721.989	7734.63
722.331	7806.49
722.674	7767.39
723.016	7794.29
723.359	7734.18
723.701	7756.77
724.044	7749.77
724.386	7693.95
724.729	7760.16
725.071	7723.78
725.413	7692.14
725.755	7747.28
726.097	7680.84
726.439	7686.49
726.782	7664.8
727.124	7739.82
727.465	7717.23
727.807	7615.31
728.149	7711.12
728.491	7679.26
728.833	7719.94
729.175	7623.67
729.516	7598.59
729.858	7631.8
730.199	7596.1
730.541	7654.63
730.882	7650.56
731.224	7625.93
731.565	7622.31
731.906	7644.69
732.248	7603.78
732.589	7645.82
732.93	7637.45
733.271	7590.22
733.612	7588.64
733.953	7590.22
734.294	7573.5
734.635	7601.07
734.976	7613.5
735.317	7570.34
735.658	7520.17
735.999	7621.64
736.339	7640.39
736.68	7625.03
737.021	7625.03
737.361	7652.82
737.702	7631.13
738.042	7553.39
738.383	7654.86
738.723	7599.04
739.063	7609.66
739.404	7629.32
739.744	7634.74
740.084	7654.63
740.424	7644.69
740.764	7665.02
741.104	7663.89
741.444	7667.51
741.784	7720.16
742.124	7717.23
742.464	7669.77
742.804	7734.63
743.143	7725.14
743.483	7862.53
743.823	7828.18
744.162	7834.51
744.502	7814.85
744.841	7928.75
745.181	7991.12
745.52	7972.59
745.86	8015.98
746.199	8027.05
746.538	8047.61
746.877	8109.08
747.216	8204.22
747.556	8204.9
747.895	8241.73
748.234	8300.04
748.573	8346.36
748.911	8356.76
749.25	8404.89
749.589	8498.45
749.928	8579.35
750.267	8639.01
750.605	8672.68
750.944	8722.85
751.283	8841.04
751.621	8916.52
751.96	8970.98
752.298	9122.39
752.636	9237.64
752.975	9293.46
753.313	9308.37
753.651	9502.04
753.989	9561.47
754.327	9734.57
754.666	9769.83
755.004	9954.23
755.342	10110.38
755.679	10224.51
756.017	10313.54
756.355	10474.22
756.693	10639.86
757.031	10823.13
757.368	10847.99
757.706	11007.76
758.044	11238.04
758.381	11346.96
758.719	11523
759.056	11688.65
759.394	11790.11
759.731	11928.19
760.068	12193.94
760.405	12383.77
760.743	12437.55
761.08	12766.81
761.417	12798
761.754	13047.03
762.091	13227.59
762.428	13384.2
762.765	13545.77
763.102	13818.99
763.438	13900.79
763.775	14031.41
764.112	14269.14
764.449	14518.86
764.785	14640.66
765.122	14743.26
765.458	14954.78
765.795	15152.29
766.131	15343.47
766.467	15504.37
766.804	15582.33
767.14	15773.06
767.476	15948.2
767.812	16068.19
768.148	16312.03
768.485	16346.15
768.821	16471.35
769.157	16719.02
769.492	16789.98
769.828	17007.6
770.164	16991.56
770.5	17173.7
770.836	17427.48
771.171	17339.12
771.507	17592.45
771.842	17618.89
772.178	17759.22
772.513	17832.44
772.849	18028.37
773.184	18006
773.519	18135.26
773.855	18266.33
774.19	18227.68
774.525	18303.61
774.86	18529.82
775.195	18651.4
775.53	18640.33
775.865	18640.33
776.2	18697.05
776.535	18699.08
776.87	18757.16
777.205	18768.69
777.539	18786.99
777.874	19040.54
778.209	18946.99
778.543	18914.45
778.878	19016.36
779.212	18999.64
779.547	18983.82
779.881	19181.56
780.215	19144.95
780.55	19217.26
780.884	19144.04
781.218	19154.67
781.552	19292.06
781.886	19253.19
782.22	19301.33
782.554	19269.47
782.888	19195.57
783.222	19145.63
783.556	19215.91
783.889	19232.63
784.223	19163.71
784.557	19090.49
784.89	19197.6
785.224	19213.2
785.557	19156.93
785.891	19198.73
786.224	19169.13
786.558	19146.53
786.891	19130.26
787.224	18959.87
787.557	19081.45
787.891	19071.96
788.224	19047.32
788.557	19118.06
788.89	19048.91
789.223	19106.76
789.556	18928.23
789.888	19018.85
790.221	18889.81
790.554	18858.18
790.887	18751.06
791.219	18773.88
791.552	18791.51
791.884	18703.6
792.217	18726.2
792.549	18723.94
792.882	18678.97
793.214	18450.5
793.546	18724.39
793.879	18539.77
794.211	18448.24
794.543	18577.73
794.875	18504.97
795.207	18594.45
795.539	18411.18
795.871	18490.95
796.203	18282.6
796.535	18243.05
796.867	18194.01
797.198	18130.06
797.53	18217.52
797.862	18096.39
798.193	18244.86
798.525	18019.33
798.856	18045.99
799.188	17955.38
799.519	17832.21
799.85	17784.31
800.182	17918.99
800.513	17864.53
800.844	17707.7
801.175	17789.96
801.506	17804.42
801.837	17801.93
802.168	17638.55
802.499	17728.26
802.83	17579.11
803.161	17498.89
803.491	17584.31
803.822	17582.05
804.153	17511.09
804.483	17307.93
804.814	17373.47
805.145	17300.93
805.475	17205.11
805.805	17227.03
806.136	17150.2
806.466	17178.22
806.796	17229.97
807.126	17030.65
807.457	17028.17
807.787	17036.3
808.117	16877.66
808.447	16918.34
808.777	16972.35
809.107	16874.95
809.436	16804.67
809.766	16728.51
810.096	16636.09
810.426	16608.97
810.755	16705.46
811.085	16624.11
811.414	16723.32
811.744	16568.07
812.073	16468.63
812.403	16560.16
812.732	16359.71
813.061	16332.37
813.39	16379.6
813.719	16290.11
814.049	16374.63
814.378	16291.92
814.707	16261.86
815.036	16152.71
815.365	16096.22
815.693	16070.68
816.022	16067.74
816.351	16075.2
816.68	16010.79
817.008	16040.17
817.337	15935.32
817.665	15811.7
817.994	15896.22
818.322	15996.78
818.651	15836.56
818.979	15710.91
819.307	15861.87
819.636	15820.74
819.964	15696.9
820.292	15774.42
820.62	15778.94
820.948	15860.06
821.276	15834.98
821.604	15687.86
821.932	15755.89
822.259	15721.76
822.587	15677.02
822.915	15612.39
823.243	15744.81
823.57	15708.43
823.898	15595.89
824.225	15568.55
824.553	15651.48
824.88	15634.76
825.207	15660.52
825.535	15700.52
825.862	15713.63
826.189	15645.38
826.516	15684.93
826.843	15724.93
827.17	15826.17
827.497	15848.99
827.824	15745.49
828.151	15817.58
828.478	15649.45
828.805	15791.14
829.131	15792.49
829.458	15752.72
829.785	15664.81
830.111	15716.11
830.438	15790.91
830.764	15797.01
831.09	15795.21
831.417	15704.59
831.743	15735.77
832.069	15710.46
832.395	15693.51
832.722	15674.98
833.048	15669.11
833.374	15636.11
833.7	15616.23
834.026	15536.46
834.351	15643.12
834.677	15636.79
835.003	15627.53
835.329	15577.58
835.654	15579.62
835.98	15586.62
836.306	15563.35
836.631	15520.41
836.956	15496.91
837.282	15583.91
837.607	15442.67
837.932	15454.42
838.258	15408.1
838.583	15316.8
838.908	15268.21
839.233	15366.74
839.558	15312.06
839.883	15312.51
840.208	15235.67
840.533	15228.22
840.858	15173.53
841.182	15284.49
841.507	15231.15
841.832	15042.68
842.156	15015.57
842.481	15083.13
842.805	15047.66
843.13	15004.27
843.454	15020.99
843.778	14891.5
844.103	14936.92
844.427	14852.86
844.751	14911.84
845.075	14747.78
845.399	14752.3
845.723	14687.89
846.047	14696.7
846.371	14614.22
846.695	14589.81
847.019	14475.69
847.343	14402.93
847.666	14365.64
847.99	14305.98
848.313	14325.19
848.637	14117.51
848.96	14171.29
849.284	14158.86
849.607	14013.56
849.931	13939.66
850.254	13916.16
850.577	13839.1
850.9	13749.61
851.223	13818.99
851.546	13687.46
851.869	13626.45
852.192	13716.16
852.515	13493.8
852.838	13474.82
853.161	13531.08
853.483	13336.51
853.806	13343.07
854.129	13381.03
854.451	13280.02
854.774	13218.32
855.096	13181.94
855.419	13227.36
855.741	13117.08
856.063	13055.17
856.385	12939.46
856.708	12907.37
857.03	12949.18
857.352	12934.49
857.674	12871.22
857.996	12826.7
858.318	12713.03
858.64	12776.53
858.961	12739.47
859.283	12706.02
859.605	12642.29
859.926	12669.86
860.248	12561.84
860.57	12585.12
860.891	12585.8
861.212	12413.83
861.534	12496.08
861.855	12491.56
862.176	12385.58
862.498	12372.02
862.819	12373.15
863.14	12325.47
863.461	12313.49
863.782	12273.26
864.103	12293.83
864.424	12239.37
864.745	12243.89
865.065	12226.26
865.386	12202.76
865.707	12163.21
866.027	12143.55
866.348	12118.92
866.668	12025.59
866.989	12063.1
867.309	12003.89
867.63	12019.94
867.95	12031.01
868.27	11923.22
868.59	12058.58
868.91	11930.9
869.23	11856.78
869.55	11854.52
869.87	11838.02
870.19	11844.8
870.51	11922.77
870.83	11829.89
871.15	11814.52
871.469	11877.34
871.789	11738.14
872.109	11773.17
872.428	11688.42
872.748	11741.53
873.067	11668.99
873.386	11763.67
873.706	11672.38
874.025	11610.68
874.344	11575.2
874.663	11593.28
874.982	11525.26
875.301	11602.32
875.62	11512.38
875.939	11596.9
876.258	11547.86
876.577	11516.45
876.896	11506.51
877.214	11440.52
877.533	11394.64
877.852	11405.04
878.17	11409.56
878.489	11412.95
878.807	11365.27
879.125	11368.2
879.444	11429.9
879.762	11287.3
880.08	11247.08
880.398	11310.35
880.716	11269.45
881.034	11222.9
881.352	11231.03
881.67	11244.14
881.988	11194.42
882.306	11146.51
882.624	11109
882.941	11041.43
883.259	11016.57
883.577	11045.73
883.894	10967.08
884.212	10976.35
884.529	10984.03
884.846	10884.15
885.164	10914.88
885.481	10829.91
885.798	10827.88
886.115	10701.55
886.432	10751.72
886.75	10731.84
887.067	10730.71
887.383	10624.72
887.7	10700.65
888.017	10598.05
888.334	10670.82
888.651	10544.04
888.967	10650.71
889.284	10517.83
889.6	10492.07
889.917	10514.89
890.233	10426.31
890.55	10388.57
890.866	10359.87
891.182	10343.37
891.498	10397.83
891.815	10236.48
892.131	10260.66
892.447	10230.38
892.763	10193.09
893.079	10189.7
893.395	10235.8
893.71	10114.9
894.026	10141.57
894.342	10040.1
894.657	9956.94
894.973	9988.35
895.289	9969.14
895.604	9977.51
895.92	9843.27
896.235	9824.29
896.55	9887.79
896.865	9867.23
897.181	9715.82
897.496	9770.28
897.811	9722.37
898.126	9667.91
898.441	9638.53
898.756	9564.18
899.071	9531.64
899.386	9530.96
899.7	9466.11
900.015	9454.36
900.33	9387.47
900.644	9333.68
900.959	9330.74
901.273	9352.66
901.588	9281.48
901.902	9232.89
902.216	9198.54
902.531	9223.18
902.845	9169.17
903.159	9109.73
903.473	9013.92
903.787	9038.1
904.101	8994.71
904.415	8953.13
904.729	8932.56
905.042	8831.1
905.356	8863.41
905.67	8756.07
905.984	8841.26
906.297	8767.82
906.611	8631.78
906.924	8667.94
907.237	8615.73
907.551	8617.32
907.864	8604.89
908.177	8546.81
908.491	8555.62
908.804	8401.95
909.117	8398.56
909.43	8381.84
909.743	8431.56
910.056	8314.27
910.368	8274.27
910.681	8229.53
910.994	8212.58
911.307	8279.47
911.619	8201.28
911.932	8167.16
912.244	8034.05
912.557	8072.02
912.869	7978.01
913.181	8040.83
913.494	7966.03
913.806	7924.68
914.118	7885.36
914.43	7829.99
914.742	7807.17
915.054	7842.42
915.366	7754.74
915.678	7769.88
915.99	7749.54
916.302	7613.73
916.613	7638.58
916.925	7660.28
917.236	7587.29
917.548	7538.02
917.859	7580.51
918.171	7491.7
918.482	7432.49
918.794	7436.1
919.105	7408.76
919.416	7375.77
919.727	7334.86
920.038	7340.97
920.349	7276.56
920.66	7287.18
920.971	7266.84
921.282	7226.62
921.593	7138.94
921.903	7087.41
922.214	7141.87
922.525	7017.58
922.835	7063.68
923.146	6992.05
923.456	7004.48
923.767	6965.16
924.077	6984.14
924.387	6917.25
924.697	6896.91
925.008	6882.9
925.318	6826.85
925.628	6789.34
925.938	6782.11
926.248	6740.98
926.558	6676.12
926.867	6697.82
927.177	6678.61
927.487	6677.71
927.796	6525.17
928.106	6593.64
928.416	6560.42
928.725	6557.71
929.034	6499.63
929.344	6534.88
929.653	6435
929.962	6401.55
930.271	6432.51
930.581	6358.84
930.89	6323.82
931.199	6312.29
931.508	6316.36
931.817	6272.97
932.125	6282.46
932.434	6242.69
932.743	6150.94
933.051	6140.09
933.36	6143.03
933.669	6078.85
933.977	6121.56
934.286	6000.21
934.594	6060.09
934.902	5991.4
935.21	5976.71
935.519	5931.28
935.827	5924.51
936.135	5945.52
936.443	5866.43
936.751	5840.89
937.059	5822.14
937.367	5820.78
937.674	5814.68
937.982	5764.51
938.29	5706.66
938.597	5729.93
938.905	5675.47
939.213	5622.14
939.52	5601.8
939.827	5649.71
940.135	5593.89
940.442	5593.89
940.749	5557.51
941.056	5529.49
941.363	5494.46
941.67	5512.31
941.977	5440.45
942.284	5398.87
942.591	5419.66
942.898	5387.12
943.205	5337.18
943.511	5322.04
943.818	5357.29
944.125	5280.45
944.431	5280.45
944.738	5262.6
945.044	5239.55
945.35	5242.26
945.657	5192.77
945.963	5170.17
946.269	5143.73
946.575	5092.89
946.881	5094.92
947.187	5068.26
947.493	5063.96
947.799	4981.03
948.105	5029.16
948.41	4981.71
948.716	4973.57
949.022	4949.39
949.327	4899.45
949.633	4866.45
949.938	4884.31
950.244	4862.84
950.549	4846.12
950.854	4795.27
951.16	4747.59
951.465	4774.48
951.77	4720.24
952.075	4719.79
952.38	4706.23
952.685	4700.36
952.99	4647.25
953.294	4624.2
953.599	4627.59
953.904	4590.75
954.209	4550.08
954.513	4584.88
954.818	4527.25
955.122	4524.77
955.426	4506.92
955.731	4503.3
956.035	4455.62
956.339	4447.93
956.643	4428.95
956.948	4390.99
957.252	4359.35
957.556	4315.51
957.86	4362.06
958.163	4336.98
958.467	4301.05
958.771	4285.45
959.075	4271.67
959.378	4274.38
959.682	4228.96
959.985	4260.59
960.289	4179.92
960.592	4172.23
960.896	4125.23
961.199	4194.16
961.502	4149.41
961.805	4119.35
962.108	4118.68
962.411	4080.49
962.714	4012.69
963.017	4079.36
963.32	4042.75
963.623	3991.9
963.926	4003.2
964.228	3927.27
964.531	3989.19
964.833	3931.56
965.136	3875.29
965.438	3909.42
965.741	3887.27
966.043	3882.98
966.345	3868.97
966.648	3805.01
966.95	3840.94
967.252	3796.43
967.554	3792.81
967.856	3760.72
968.158	3723.66
968.46	3722.98
968.761	3723.89
969.063	3709.2
969.365	3662.87
969.666	3714.39
969.968	3609.76
970.269	3611.35
970.571	3678.01
970.872	3621.97
971.174	3610.44
971.475	3571.8
971.776	3557.56
972.077	3554.17
972.378	3547.17
972.679	3527.73
972.98	3471.01
973.281	3500.16
973.582	3489.32
973.883	3441.18
974.183	3416.55
974.484	3402.31
974.785	3408.87
975.085	3416.77
975.386	3377.91
975.686	3361.41
975.986	3330.22
976.287	3343.33
976.587	3279.15
976.887	3270.11
977.187	3288.42
977.487	3294.07
977.787	3236.67
978.087	3265.14
978.387	3259.49
978.687	3207.51
978.987	3212.49
979.286	3191.47
979.586	3218.59
979.885	3158.93
980.185	3126.84
980.484	3107.86
980.784	3144.92
981.083	3100.85
981.382	3086.84
981.682	3081.87
981.981	3040.06
982.28	3058.59
982.579	3043.9
982.878	3025.82
983.177	3045.03
983.475	3014.75
983.774	2969.78
984.073	2955.54
984.372	2932.49
984.67	2953.06
984.969	2921.42
985.267	2931.36
985.566	2931.82
985.864	2899.27
986.162	2862.21
986.461	2846.85
986.759	2836.22
987.057	2835.32
987.355	2826.73
987.653	2809.78
987.951	2807.07
988.249	2801.65
988.547	2787.19
988.844	2731.59
989.142	2732.72
989.44	2714.87
989.737	2734.98
990.035	2694.99
990.332	2679.39
990.63	2679.84
990.927	2673.52
991.224	2668.55
991.521	2667.87
991.819	2642.11
992.116	2649.11
992.413	2631.48
992.71	2585.38
993.006	2588.55
993.303	2577.93
993.6	2564.82
993.897	2554.42
994.193	2539.06
994.49	2547.64
994.787	2511.49
995.083	2482.79
995.379	2480.53
995.676	2473.97
995.972	2485.95
996.268	2452.73
996.565	2429.23
996.861	2450.02
997.157	2410.47
997.453	2432.39
997.749	2408.67
998.044	2376.35
998.34	2360.98
998.636	2368.44
998.932	2340.19
999.227	2309.91
999.523	2337.71
999.818	2345.16
1000.114	2321.66
1000.409	2303.58
1000.704	2260.42
1001	2251.83
1001.295	2259.06
1001.59	2217.71
1001.885	2215.45
1002.18	2261.32
1002.475	2240.53
1002.77	2188.78
1003.065	2146.98
1003.359	2144.49
1003.654	2144.49
1003.949	2136.13
1004.243	2124.61
1004.538	2108.33
1004.832	2105.85
1005.127	2071.95
1005.421	2060.65
1005.715	2048.45
1006.009	2054.78
1006.304	2053.42
1006.598	2049.35
1006.892	2020.2
1007.186	1980.43
1007.48	1986.3
1007.773	2008.9
1008.067	1946.98
1008.361	1944.27
1008.655	1958.96
1008.948	1916.7
1009.242	1933.65
1009.535	1940.43
1009.829	1906.76
1010.122	1903.37
1010.415	1885.29
1010.708	1895.68
1011.001	1888
1011.295	1843.71
1011.588	1860.21
1011.881	1819.98
1012.173	1807.55
1012.466	1794.9
1012.759	1804.39
1013.052	1752.86
1013.344	1759.42
1013.637	1750.83
1013.93	1743.15
1014.222	1747.89
1014.514	1723.49
1014.807	1712.64
1015.099	1738.17
1015.391	1686.88
1015.683	1717.84
1015.976	1686.42
1016.268	1659.76
1016.56	1642.13
1016.851	1626.31
1017.143	1640.55
1017.435	1631.28
1017.727	1609.59
1018.018	1603.49
1018.31	1615.24
1018.602	1569.82
1018.893	1605.3
1019.185	1566.43
1019.476	1550.38
1019.767	1543.38
1020.058	1500.89
1020.35	1499.54
1020.641	1540.21
1020.932	1498.18
1021.223	1504.51
1021.514	1458.86
1021.804	1476.71
1022.095	1476.03
1022.386	1462.48
1022.677	1447.79
1022.967	1444.4
1023.258	1441.91
1023.548	1436.71
1023.839	1427
1024.129	1424.28
1024.419	1398.97
1024.709	1379.77
1025	1400.78
1025.29	1365.53
1025.58	1353.78
1025.87	1375.92
1026.16	1355.59
1026.449	1356.94
1026.739	1325.53
1027.029	1305.87
1027.319	1288.69
1027.608	1319.88
1027.898	1296.83
1028.187	1292.99
1028.477	1253.44
1028.766	1253.44
1029.055	1248.47
1029.344	1229.94
1029.634	1243.27
1029.923	1226.1
1030.212	1224.74
1030.501	1209.6
1030.79	1184.52
1031.078	1194.46
1031.367	1204.18
1031.656	1172.54
1031.945	1159.21
1032.233	1151.3
1032.522	1131.41
1032.81	1155.37
1033.099	1117.17
1033.387	1140.9
1033.675	1165.31
1033.963	1131.64
1034.251	1127.8
1034.54	1081.92
1034.828	1093.45
1035.116	1081.24
1035.403	1087.8
1035.691	1064.52
1035.979	1088.7
1036.267	1058.42
1036.554	1068.81
1036.842	1017.74
1037.129	1037.4
1037.417	1040.11
1037.704	1003.5
1037.992	1009.61
1038.279	1021.13
1038.566	1006.22
1038.853	1006.22
1039.14	1006.22
