Data from hue_310_FLMS001491_61.txt Node
Date: Mon Feb 06 15:50:00 GMT 2017
User: dcchb
Spectrometer: FLMS00149
Trigger mode: 0
Integration Time (sec): 2.000000E-2
Scans to average: 10
Electric dark correction enabled: true
Nonlinearity correction enabled: false
Boxcar width: 0
XAxis mode: Wavelengths
Number of Pixels in Spectrum: 2048
>>>>>Begin Spectral Data<<<<<
341.393	-29.96
341.776	-29.96
342.16	-29.96
342.543	-48.49
342.927	-70.18
343.31	-89.84
343.693	-64.76
344.077	-58.88
344.46	-42.39
344.843	-67.92
345.226	-27.7
345.61	-31.54
345.993	-29.5
346.376	-6.68
346.759	-7.36
347.142	20.44
347.525	53.43
347.908	74.45
348.291	72.87
348.674	113.77
349.057	91.62
349.44	116.03
349.823	138.85
350.206	150.83
350.588	197.38
350.971	201
351.354	218.85
351.737	222.24
352.119	246.65
352.502	246.65
352.884	251.17
353.267	273.31
353.65	303.59
354.032	269.24
354.414	303.14
354.797	302.46
355.179	294.33
355.562	307.89
355.944	318.06
356.326	324.38
356.709	323.93
357.091	316.47
357.473	321.22
357.855	356.7
358.238	334.55
358.62	341.11
359.002	337.04
359.384	327.32
359.766	344.04
360.148	332.07
360.53	325.29
360.912	340.43
361.294	316.25
361.676	311.73
362.057	328.9
362.439	326.19
362.821	327.55
363.203	292.97
363.584	322.35
363.966	311.5
364.348	317.38
364.729	335.91
365.111	313.76
365.493	344.04
365.874	318.06
366.256	316.02
366.637	293.65
367.019	314.44
367.4	320.99
367.781	316.25
368.163	307.44
368.544	315.34
368.925	321.45
369.306	323.48
369.688	311.28
370.069	314.44
370.45	310.15
370.831	317.6
371.212	311.73
371.593	335.01
371.974	304.27
372.355	306.98
372.736	311.73
373.117	321.67
373.498	321.67
373.879	316.7
374.26	329.13
374.641	321.67
375.021	338.62
375.402	325.74
375.783	319.41
376.163	337.04
376.544	320.54
376.925	299.3
377.305	331.39
377.686	319.19
378.066	318.51
378.447	336.36
378.827	322.8
379.208	331.16
379.588	340.65
379.968	345.63
380.349	337.27
380.729	306.98
381.109	337.27
381.489	328.23
381.87	325.97
382.25	326.64
382.63	339.52
383.01	343.82
383.39	342.69
383.77	328.68
384.15	327.55
384.53	354.44
384.91	327.32
385.29	332.75
385.67	344.5
386.049	340.65
386.429	339.52
386.809	336.59
387.189	358.73
387.568	346.53
387.948	363.93
388.328	360.77
388.707	352.18
389.087	358.06
389.466	359.86
389.846	343.82
390.225	368.22
390.605	351.73
390.984	373.65
391.363	366.64
391.743	357.6
392.122	376.36
392.501	359.64
392.881	376.36
393.26	363.71
393.639	375.68
394.018	375
394.397	376.13
394.776	382.69
395.155	377.04
395.534	361.9
395.913	372.07
396.292	369.35
396.671	379.3
397.05	363.03
397.429	386.76
397.808	390.82
398.186	376.59
398.565	376.13
398.944	407.09
399.323	395.34
399.701	384.72
400.08	391.28
400.458	384.95
400.837	397.83
401.215	408.68
401.594	394.89
401.972	399.18
402.351	402.57
402.729	395.12
403.107	405.96
403.486	410.94
403.864	415.91
404.242	414.55
404.62	411.16
404.999	419.97
405.377	424.72
405.755	421.33
406.133	443.48
406.511	428.79
406.889	454.32
407.267	437.83
407.645	440.31
408.023	453.19
408.401	442.35
408.779	452.74
409.156	482.57
409.534	475.11
409.912	469.92
410.29	484.38
410.667	480.99
411.045	505.4
411.422	505.62
411.8	509.92
412.178	495.68
412.555	516.92
412.933	545.17
413.31	550.37
413.687	529.8
414.065	564.6
414.442	547.66
414.819	566.64
415.197	576.13
415.574	576.81
415.951	546.98
416.328	584.04
416.705	604.15
417.082	592.63
417.46	580.2
417.837	605.73
418.214	625.85
418.591	611.38
418.967	621.33
419.344	644.6
419.721	657.93
420.098	656.13
420.475	652.29
420.852	673.3
421.228	673.3
421.605	684.6
421.982	713.75
422.358	714.88
422.735	693.19
423.111	687.99
423.488	698.39
423.864	710.14
424.241	751.27
424.617	750.81
424.994	762.11
425.37	748.33
425.746	774.77
426.123	756.24
426.499	772.06
426.875	796.69
427.251	798.27
427.627	825.84
428.003	808.44
428.379	820.64
428.756	830.59
429.132	827.42
429.507	840.53
429.883	838.49
430.259	878.72
430.635	862.22
431.011	883.92
431.387	887.99
431.763	897.25
432.138	919.85
432.514	927.76
432.89	942.67
433.265	925.5
433.641	974.54
434.016	962.11
434.392	989.68
434.767	983.12
435.143	1005.27
435.518	1004.59
435.894	984.25
436.269	1029.9
436.644	1027.42
437.02	1060.86
437.395	1081.43
437.77	1059.28
438.145	1092.5
438.52	1103.35
438.895	1096.34
439.271	1098.83
439.646	1128.66
440.021	1101.09
440.395	1126.4
440.77	1123.01
441.145	1140.41
441.52	1170.69
441.895	1160.75
442.27	1147.87
442.645	1140.18
443.019	1156.45
443.394	1170.69
443.769	1172.27
444.143	1172.5
444.518	1174.76
444.892	1177.02
445.267	1195.1
445.641	1191.71
446.016	1200.97
446.39	1212.04
446.764	1222.21
447.139	1212.5
447.513	1232.83
447.887	1242.78
448.262	1226.73
448.636	1218.37
449.01	1234.42
449.384	1257.24
449.758	1282.1
450.132	1268.31
450.506	1271.93
450.88	1290.91
451.254	1273.74
451.628	1309.89
452.002	1301.99
452.376	1327.97
452.75	1303.79
453.123	1316.22
453.497	1326.39
453.871	1331.14
454.244	1362.55
454.618	1370.46
454.992	1372.72
455.365	1376.79
455.739	1375.66
456.112	1385.83
456.486	1389.89
456.859	1394.19
457.232	1430.12
457.606	1394.41
457.979	1432.15
458.352	1439.84
458.725	1436.9
459.099	1479.83
459.472	1490.46
459.845	1483.68
460.218	1471.7
460.591	1504.01
460.964	1536.78
461.337	1547.18
461.71	1545.82
462.083	1551.24
462.456	1559.83
462.829	1575.2
463.201	1568.65
463.574	1611.36
463.947	1617.23
464.32	1629.21
464.692	1627.85
465.065	1648.64
465.438	1664.46
465.81	1677.12
466.183	1706.04
466.555	1680.51
466.928	1713.73
467.3	1697.68
467.672	1757.57
468.045	1763.22
468.417	1745.82
468.789	1782.42
469.161	1770.9
469.534	1812.71
469.906	1807.96
470.278	1832.14
470.65	1828.98
471.022	1844.8
471.394	1887.96
471.766	1886.83
472.138	1877.79
472.51	1936.55
472.882	1948.52
473.253	1986.04
473.625	2004.79
473.997	2001.18
474.369	2021.51
474.74	2020.38
475.112	2041.85
475.484	2068.75
475.855	2150.1
476.227	2124.79
476.598	2164.11
476.97	2157.56
477.341	2216.31
477.713	2220.38
478.084	2241.4
478.455	2288.4
478.827	2293.6
479.198	2315.07
479.569	2323.65
479.94	2392.13
480.311	2427.38
480.682	2428.51
481.053	2465.57
481.424	2497.21
481.795	2529.52
482.166	2529.3
482.537	2571.33
482.908	2587.6
483.279	2642.52
483.65	2660.82
484.021	2683.19
484.391	2679.8
484.762	2768.61
485.133	2737.2
485.503	2772
485.874	2801.83
486.244	2822.62
486.615	2857.42
486.985	2905.11
487.356	2915.5
487.726	2923.19
488.097	2985.56
488.467	2944.65
488.837	2991.88
489.207	3071.66
489.578	3058.1
489.948	3094.71
490.318	3149.17
490.688	3128.38
491.058	3160.69
491.428	3199.56
491.798	3184.42
492.168	3310.29
492.538	3309.39
492.908	3322.05
493.278	3299
493.648	3367.92
494.017	3370.86
494.387	3427.13
494.757	3451.99
495.126	3382.61
495.496	3429.16
495.866	3460.8
496.235	3465.54
496.605	3504.19
496.974	3557.29
497.344	3566.56
497.713	3563.62
498.082	3570.17
498.452	3633.9
498.821	3602.26
499.19	3629.61
499.559	3701.7
499.928	3663.05
500.298	3674.8
500.667	3720
501.036	3678.19
501.405	3698.31
501.774	3678.65
502.143	3739.89
502.512	3774.01
502.88	3756.61
503.249	3759.77
503.618	3796.61
503.987	3821.02
504.356	3815.59
504.724	3835.25
505.093	3868.92
505.462	3863.05
505.83	3882.48
506.199	3861.69
506.567	3910.28
506.936	3914.12
507.304	3941.24
507.672	3938.75
508.041	3971.52
508.409	3968.13
508.777	3992.76
509.145	4000.9
509.514	4019.65
509.882	4045.19
510.25	4013.1
510.618	4095.36
510.986	4069.14
511.354	4068.92
511.722	4098.3
512.09	4122.48
512.458	4134.68
512.826	4124.28
513.193	4160.22
513.561	4152.53
513.929	4170.84
514.297	4211.29
514.664	4245.41
515.032	4232.08
515.4	4225.75
515.767	4229.37
516.135	4281.79
516.502	4199.31
516.869	4267.11
517.237	4253.77
517.604	4299.42
517.972	4271.4
518.339	4292.64
518.706	4329.93
519.073	4334.22
519.44	4331.74
519.808	4418.97
520.175	4374.9
520.542	4434.33
520.909	4410.38
521.276	4446.54
521.643	4446.99
522.009	4472.07
522.376	4469.36
522.743	4470.94
523.11	4533.31
523.477	4520.43
523.843	4545.97
524.21	4622.58
524.577	4605.63
524.943	4594.78
525.31	4665.06
525.676	4670.26
526.043	4663.93
526.409	4730.6
526.776	4724.04
527.142	4752.74
527.508	4767.43
527.874	4789.35
528.241	4813.76
528.607	4824.15
528.973	4847.2
529.339	4873.64
529.705	4850.82
530.071	4892.17
530.437	4928.78
530.803	4948.44
531.169	5017.82
531.535	4946.64
531.901	4994.09
532.267	4967.2
532.632	5044.03
532.998	5103.02
533.364	5128.78
533.73	5173.52
534.095	5151.38
534.461	5206.52
534.826	5169.91
535.192	5205.39
535.557	5265.5
535.923	5267.76
536.288	5324.93
536.653	5361.77
537.019	5305.04
537.384	5371.71
537.749	5374.65
538.114	5381.65
538.479	5392.73
538.845	5411.71
539.21	5399.05
539.575	5429.11
539.94	5473.18
540.305	5461.42
540.67	5487.41
541.034	5545.04
541.399	5540.29
541.764	5576.9
542.129	5592.04
542.494	5639.5
542.858	5637.69
543.223	5672.27
543.587	5690.34
543.952	5728.76
544.316	5717.91
544.681	5768.31
545.045	5698.93
545.41	5801.08
545.774	5774.41
546.138	5839.04
546.503	5896.89
546.867	5888.98
547.231	5906.38
547.595	5967.85
547.959	5920.17
548.324	5935.54
548.688	6033.61
549.052	6026.38
549.416	6009.43
549.779	6020.51
550.143	6023.67
550.507	6121.52
550.871	6080.84
551.235	6112.03
551.599	6134.63
551.962	6169.88
552.326	6217.11
552.689	6192.03
553.053	6238.8
553.417	6240.16
553.78	6314.51
554.143	6295.3
554.507	6335.98
554.87	6291.46
555.234	6335.98
555.597	6330.55
555.96	6401.51
556.323	6377.78
556.686	6391.8
557.05	6405.13
557.413	6482.64
557.776	6446.71
558.139	6490.1
558.502	6501.85
558.865	6535.07
559.228	6550.89
559.59	6559.25
559.953	6632.01
560.316	6642.18
560.679	6646.93
561.041	6683.76
561.404	6677.66
561.767	6772.58
562.129	6676.76
562.492	6761.73
562.854	6816.42
563.217	6737.32
563.579	6773.93
563.941	6822.07
564.304	6860.94
564.666	6928.73
565.028	6864.78
565.39	6894.61
565.753	6953.14
566.115	6924.44
566.477	6968.05
566.839	7018.22
567.201	7025.9
567.563	6999.01
567.925	7146.58
568.287	7109.74
568.648	7085.34
569.01	7202.62
569.372	7192.23
569.734	7178.44
570.095	7213.47
570.457	7271.09
570.819	7342.96
571.18	7319
571.542	7341.6
571.903	7429.06
572.265	7452.11
572.626	7473.8
572.987	7543.4
573.349	7580.92
573.71	7565.32
574.071	7693.23
574.432	7680.35
574.794	7777.75
575.155	7789.72
575.516	7811.42
575.877	7873.56
576.238	8006.22
576.599	7998.76
576.96	8109.49
577.32	8166.21
577.681	8264.06
578.042	8346.32
578.403	8409.37
578.763	8470.16
579.124	8569.37
579.485	8777.95
579.845	8798.96
580.206	8827.44
580.566	8953.99
580.927	9113.31
581.287	9250.7
581.648	9281.66
582.008	9505.39
582.368	9554.42
582.728	9784.47
583.089	9904.02
583.449	10047.97
583.809	10217.01
584.169	10364.8
584.529	10476.21
584.889	10852.92
585.249	10889.08
585.609	11074.84
585.969	11264.66
586.329	11514.15
586.688	11687.25
587.048	11902.61
587.408	12061.25
587.768	12341.47
588.127	12532.88
588.487	12849.03
588.846	13207.89
589.206	13233.65
589.565	13532.17
589.925	13765.16
590.284	14103
590.643	14246.05
591.003	14659.37
591.362	14903.89
591.721	15226.14
592.08	15434.27
592.44	15678.33
592.799	15954.26
593.158	16286.9
593.517	16526.67
593.876	16803.95
594.235	17165.07
594.593	17523.48
594.952	17718.5
595.311	18041.66
595.67	18307.41
596.029	18698.36
596.387	19044.8
596.746	19346.26
597.104	19534.95
597.463	19808.84
597.822	20184.2
598.18	20433.91
598.538	20683.4
598.897	21008.81
599.255	21254.91
599.613	21754.56
599.972	21969.69
600.33	22219.18
600.688	22426.85
601.046	22783.68
601.404	23165.37
601.762	23399.03
602.12	23753.37
602.478	23972.8
602.836	24206.92
603.194	24409.4
603.552	24833.8
603.91	24899.11
604.268	25354.46
604.625	25504.51
604.983	25937.27
605.341	25945.63
605.698	26279.86
606.056	26605.28
606.413	26889.11
606.771	27137.92
607.128	27326.84
607.485	27550.33
607.843	27770.89
608.2	28247.04
608.557	28487.94
608.914	28538.33
609.272	28824.65
609.629	29125.43
609.986	29323.62
610.343	29432.09
610.7	29828.02
611.057	29848.35
611.414	30154.11
611.771	30300.32
612.127	30620.08
612.484	30738.05
612.841	31021.88
613.198	31074.76
613.554	31284.7
613.911	31620.74
614.267	31773.73
614.624	31794.52
614.98	32102.31
615.337	32274.73
615.693	32523.54
616.05	32564.89
616.406	32926.24
616.762	32866.35
617.118	33034.03
617.475	33209.62
617.831	33315.38
618.187	33539.78
618.543	33721.7
618.899	33887.34
619.255	34039.88
619.611	34130.5
619.967	34338.18
620.323	34500.21
620.678	34486.42
621.034	34494.33
621.39	34662.24
621.746	34842.35
622.101	35252.51
622.457	34978.39
622.812	35155.33
623.168	35389.45
623.523	35417.25
623.879	35544.93
624.234	35392.16
624.589	35692.72
624.945	35800.51
625.3	36015.2
625.655	35932.71
626.01	36007.51
626.365	36163.89
626.72	36169.09
627.075	36297
627.43	36465.58
627.785	36393.27
628.14	36489.99
628.495	36532.47
628.85	36555.52
629.205	36389.2
629.559	36722.75
629.914	36653.15
630.269	36688.4
630.623	36648.17
630.978	36663.77
631.332	36857.66
631.687	36859.02
632.041	36876.64
632.396	36957.77
632.75	36785.57
633.104	36938.79
633.459	36802.52
633.813	36968.84
634.167	36962.52
634.521	36873.48
634.875	37102.85
635.229	36973.14
635.583	36899.24
635.937	36932.24
636.291	36972.46
636.645	36952.57
636.999	36966.58
637.352	37121.16
637.706	36910.09
638.06	37019.01
638.413	36912.35
638.767	36930.65
639.121	36925.68
639.474	36856.08
639.828	36973.36
640.181	36989.86
640.534	36983.08
640.888	36905.34
641.241	36873.25
641.594	36880.03
641.947	37028.28
642.301	37003.65
642.654	36906.25
643.007	36902.18
643.36	36816.98
643.713	36922.97
644.066	36961.39
644.419	36885.68
644.771	36673.26
645.124	36346.49
645.477	36322.53
645.83	36177.45
646.182	35935.65
646.535	35831.02
646.888	35998.25
647.24	35756.45
647.593	36117.12
647.945	35904.47
648.298	35776.11
648.65	35724.36
649.002	35712.38
649.355	35737.69
649.707	35775.2
650.059	35849.55
650.411	36295.87
650.763	36315.3
651.115	36735.63
651.467	36558.46
651.819	36628.51
652.171	36502.87
652.523	36432.59
652.875	36502.64
653.227	36309.43
653.578	36676.87
653.93	36456.32
654.282	36365.24
654.633	36325.92
654.985	36344.45
655.337	36368.18
655.688	36253.16
656.039	36509.42
656.391	36124.57
656.742	36304.46
657.094	36313.04
657.445	36395.53
657.796	36409.99
658.147	36220.84
658.498	36243.44
658.849	36428.52
659.2	36242.99
659.551	36254.74
659.902	36365.02
660.253	36254.06
660.604	36382.87
660.955	36027.4
661.306	36386.49
661.656	36170
662.007	36139.26
662.358	36371.57
662.708	36162.31
663.059	36123.44
663.409	35942.88
663.76	36161.18
664.11	36207.28
664.461	36190.33
664.811	36224.23
665.161	36310.1
665.511	36064.24
665.862	36181.97
666.212	36318.24
666.562	36133.16
666.912	36220.39
667.262	36180.16
667.612	36073.27
667.962	36217.9
668.312	36024.91
668.662	36175.64
669.011	36154.4
669.361	36178.36
669.711	36162.76
670.06	35921.19
670.41	36031.02
670.76	35915.76
671.109	36108.53
671.459	36136.1
671.808	35893.39
672.157	36094.52
672.507	35861.75
672.856	35815.2
673.205	35957.35
673.554	35962.54
673.904	35708.76
674.253	36104.91
674.602	35901.3
674.951	35513.29
675.3	35187.42
675.649	35729.33
675.998	35717.13
676.346	35875.77
676.695	36012.71
677.044	35575.21
677.393	35703.11
677.741	35798.25
678.09	35798.25
678.438	35647.52
678.787	35696.34
679.135	35692.72
679.484	35494.76
679.832	35637.81
680.181	35437.13
680.529	35505.83
680.877	35488.88
681.225	35396
681.573	35591.93
681.922	35361.43
682.27	35294.99
682.618	35247.08
682.966	35233.75
683.314	35210.47
683.661	35118.95
684.009	34999.63
684.357	35021.32
684.705	34978.84
685.053	34846.87
685.4	34969.57
685.748	34715.57
686.095	34835.12
686.443	34525.29
686.79	34576.36
687.138	34532.3
687.485	34667.21
687.832	34488.23
688.18	34470.6
688.527	34256.83
688.874	34369.59
689.221	34183.61
689.568	34191.06
689.915	34044.85
690.262	34124.17
690.609	33940.45
690.956	33862.94
691.303	33921.47
691.65	33717.4
691.997	33704.52
692.344	33579.1
692.69	33509.05
693.037	33509.73
693.383	33228.15
693.73	33374.81
694.077	33147.93
694.423	33114.93
694.769	33005.11
695.116	32989.74
695.462	32838.33
695.808	32795.62
696.155	32859.57
696.501	32676.75
696.847	32686.92
697.193	32401.51
697.539	32521.28
697.885	32355.86
698.231	32154.28
698.577	32161.06
698.923	32098.24
699.269	32096.88
699.614	31868.64
699.96	31874.06
700.306	31833.16
700.651	31797
700.997	31760.17
701.342	31615.76
701.688	31620.06
702.033	31512.94
702.379	31441.76
702.724	31303.91
703.069	31452.15
703.415	31027.08
703.76	31060.3
704.105	31021.66
704.45	30886.97
704.795	30790.25
705.14	30847.88
705.485	30690.37
705.83	30584.38
706.175	30650.37
706.52	30555.91
706.865	30369.7
707.209	30408.11
707.554	30415.34
707.899	30338.28
708.243	30194.11
708.588	30120.66
708.932	29934.45
709.277	30014.68
709.621	29948.01
709.966	29802.03
710.31	29931.52
710.654	29644.07
710.998	29685.65
711.342	29637.06
711.687	29551.86
712.031	29430.96
712.375	29437.52
712.719	29432.09
713.063	29227.58
713.407	29327.69
713.75	29322.04
714.094	29065.55
714.438	28955.04
714.782	29077.53
715.125	28979.45
715.469	29103.97
715.812	28919.56
716.156	28682.51
716.499	28643.87
716.843	28711.89
717.186	28624.66
717.53	28671.66
717.873	28699.23
718.216	28612.23
718.559	28576.97
718.902	28308.06
719.246	28361.16
719.589	28302.63
719.932	28186.93
720.275	28073.71
720.617	28117.55
720.96	28074.61
721.303	28071.23
721.646	28184.67
721.989	27883.21
722.331	28020.38
722.674	27891.34
723.016	27964.11
723.359	27862.87
723.701	27814.73
724.044	27602.76
724.386	27492.71
724.729	27733.83
725.071	27560.96
725.413	27514.63
725.755	27544.23
726.097	27483.67
726.439	27341.75
726.782	27359.83
727.124	27405.71
727.465	27205.94
727.807	27238.48
728.149	27072.38
728.491	27154.64
728.833	27071.48
729.175	27020.41
729.516	27047.98
729.858	27061.99
730.199	26856.57
730.541	27004.81
730.882	26735.67
731.224	26938.6
731.565	26678.72
731.906	26675.78
732.248	26788.77
732.589	26660.64
732.93	26468.56
733.271	26487.54
733.612	26610.25
733.953	26543.58
734.294	26535.22
734.635	26373.64
734.976	26456.35
735.317	26344.26
735.658	26334.77
735.999	26255.23
736.339	26203.25
736.68	26349.01
737.021	26259.07
737.361	26186.3
737.702	26101.11
738.042	26132.29
738.383	26094.1
738.723	26144.95
739.063	25994.44
739.404	26011.17
739.744	25877.84
740.084	25832.41
740.424	25922.13
740.764	25749.93
741.104	25810.49
741.444	25654.34
741.784	25716.03
742.124	25761.68
742.464	25535.02
742.804	25689.82
743.143	25549.94
743.483	25507.45
743.823	25432.42
744.162	25437.17
744.502	25459.77
744.841	25215.26
745.181	25334.57
745.52	25242.82
745.86	25365.99
746.199	25200.57
746.538	25107.01
746.877	25221.58
747.216	25137.74
747.556	25053.45
747.895	25008.48
748.234	24894.13
748.573	24869.05
748.911	24950.4
749.25	24914.47
749.589	24760.35
749.928	24733.23
750.267	24740.01
750.605	24740.69
750.944	24755.38
751.283	24597.42
751.621	24631.32
751.96	24481.72
752.298	24617.3
752.636	24480.59
752.975	24297.09
753.313	24191.55
753.651	24384.09
753.989	24252.12
754.327	24159.46
754.666	24112.69
755.004	24087.15
755.342	24053.7
755.679	24005.12
756.017	23889.87
756.355	23959.24
756.693	23822.07
757.031	23905.91
757.368	23772.58
757.706	23724.9
758.044	23451.69
758.381	23485.36
758.719	23413.27
759.056	23507.5
759.394	23465.24
759.731	23313.61
760.068	23140.28
760.405	23116.33
760.743	23015.31
761.08	23098.25
761.417	23013.73
761.754	22953.39
762.091	22876.33
762.428	22846.73
762.765	22500.52
763.102	22705.72
763.438	22646.74
763.775	22508.21
764.112	22545.27
764.449	22429.34
764.785	22434.09
765.122	22327.42
765.458	22181.89
765.795	22184.37
766.131	22101.66
766.467	22030.25
766.804	21938.51
767.14	21828.23
767.476	21813.76
767.812	21771.96
768.148	21802.69
768.485	21669.36
768.821	21538.74
769.157	21376.03
769.492	21475.92
769.828	21294
770.164	21168.13
770.5	21100.56
770.836	21169.71
771.171	21005.87
771.507	20967.91
771.842	20895.14
772.178	20839.55
772.513	20781.7
772.849	20697.41
773.184	20627.81
773.519	20583.96
773.855	20543.74
774.19	20417.87
774.525	20338.32
774.86	20298.55
775.195	20397.75
775.53	20238.66
775.865	20030.31
776.2	19936.52
776.535	19785.12
776.87	19919.8
777.205	19723.87
777.539	19659.02
777.874	19693.14
778.209	19450.21
778.543	19470.1
778.878	19407.05
779.212	19376.76
779.547	19242.76
779.881	19348.97
780.215	19049.99
780.55	19207.73
780.884	19099.26
781.218	19004.57
781.552	19053.61
781.886	18835.31
782.22	18798.7
782.554	18648.2
782.888	18516.22
783.222	18441.2
783.556	18381.54
783.889	18427.18
784.223	18314.19
784.557	18179.51
784.89	18172.95
785.224	18175.89
785.557	18086.85
785.891	18088.44
786.224	17971.38
786.558	17861.78
786.891	17728.67
787.224	17748.33
787.557	17669.46
787.891	17700.88
788.224	17565.74
788.557	17509.69
788.89	17492.75
789.223	17516.25
789.556	17195.13
789.888	17321.45
790.221	17169.59
790.554	17024.51
790.887	17095.92
791.219	17038.52
791.552	17050.27
791.884	16876.27
792.217	16805.08
792.549	16742.94
792.882	16717.17
793.214	16635.82
793.546	16653.67
793.879	16605.09
794.211	16488.93
794.543	16494.58
794.875	16443.06
795.207	16398.31
795.539	16293.68
795.871	16175.49
796.203	16176.85
796.535	16034.93
796.867	15993.58
797.198	15955.61
797.53	15905.9
797.862	15912.9
798.193	15903.64
798.525	15787.03
798.856	15881.04
799.188	15588.62
799.519	15552.23
799.85	15583.19
800.182	15560.59
800.513	15507.94
800.844	15356.53
801.175	15503.65
801.506	15438.11
801.837	15293.03
802.168	15262.07
802.499	15186.14
802.83	15204.22
803.161	15094.62
803.491	15074.73
803.822	15163.09
804.153	15017.56
804.483	14796.09
804.814	14838.58
805.145	14844.45
805.475	14809.43
805.805	14718.58
806.136	14693.05
806.466	14821.18
806.796	14788.41
807.126	14568.98
807.457	14514.75
807.787	14484.46
808.117	14524.01
808.447	14505.71
808.777	14555.2
809.107	14356.33
809.436	14281.76
809.766	14352.72
810.096	14249.67
810.426	14222.1
810.755	14179.16
811.085	14135.55
811.414	14158.82
811.744	14012.84
812.073	14006.74
812.403	13995.89
812.732	13914.76
813.061	14021.43
813.39	13839.51
813.719	13868.89
814.049	13868.21
814.378	13796.8
814.707	13690.36
815.036	13711.83
815.365	13601.55
815.693	13505.05
816.022	13515.68
816.351	13580.98
816.68	13470.93
817.008	13470.25
817.337	13377.15
817.665	13396.58
817.994	13451.72
818.322	13370.14
818.651	13337.83
818.979	13173.31
819.307	13317.04
819.636	13217.83
819.964	13125.86
820.292	13215.57
820.62	13103.26
820.948	13107.55
821.276	13197.27
821.604	13056.93
821.932	13176.93
822.259	13095.12
822.587	13066.2
822.915	13047.67
823.243	13080.66
823.57	13108
823.898	13061.45
824.225	13079.53
824.553	13035.01
824.88	13056.93
825.207	13077.04
825.535	13039.3
825.862	13070.72
826.189	13072.98
826.516	13074.11
826.843	13083.6
827.17	13073.43
827.497	13098.96
827.824	13176.7
828.151	13043.82
828.478	13048.34
828.805	13159.98
829.131	13031.17
829.458	12991.17
829.785	12872.53
830.111	12983.94
830.438	13062.58
830.764	13087.21
831.09	13085.4
831.417	12904.17
831.743	12990.04
832.069	12998.4
832.395	12961.57
832.722	13017.16
833.048	12907.33
833.374	12923.37
833.7	12850.61
834.026	12888.35
834.351	12864.17
834.677	12862.36
835.003	12909.82
835.329	12815.58
835.654	12799.08
835.98	12826.65
836.306	12887.67
836.631	12706.21
836.956	12861.46
837.282	12770.84
837.607	12701.46
837.932	12713.66
838.258	12724.28
838.583	12661.91
838.908	12572.65
839.233	12700.33
839.558	12589.37
839.883	12584.85
840.208	12543.05
840.533	12488.81
840.858	12549.37
841.182	12510.28
841.507	12517.06
841.832	12350.73
842.156	12421.92
842.481	12339.21
842.805	12373.78
843.13	12335.37
843.454	12285.43
843.778	12248.82
844.103	12248.59
844.427	12206.33
844.751	12220.79
845.075	12163.17
845.399	12128.82
845.723	12050.4
846.047	12151.87
846.371	11994.13
846.695	11931.08
847.019	11800.69
847.343	11764.99
847.666	11776.96
847.99	11737.64
848.313	11733.58
848.637	11610.19
848.96	11644.99
849.284	11610.64
849.607	11523.86
849.931	11416.52
850.254	11348.05
850.577	11375.39
850.9	11328.16
851.223	11240.26
851.546	11266.02
851.869	11057.21
852.192	11149.41
852.515	11001.39
852.838	11033.26
853.161	11017.44
853.483	10953.71
853.806	10917.1
854.129	10871.9
854.451	10893.6
854.774	10829.42
855.096	10859.02
855.419	10768.63
855.741	10706.48
856.063	10584.45
856.385	10634.17
856.708	10599.82
857.03	10563.44
857.352	10606.6
857.674	10623.55
857.996	10502.87
858.318	10458.58
858.64	10507.62
858.961	10409.77
859.283	10342.65
859.605	10283.67
859.926	10326.83
860.248	10248.64
860.57	10229.43
860.891	10241.41
861.212	10219.27
861.534	10194.86
861.855	10151.47
862.176	10100.62
862.498	10181.53
862.819	10152.37
863.14	10090.68
863.461	10074.86
863.782	9986.05
864.103	10007.07
864.424	9920.97
864.745	10024.24
865.065	9929.56
865.386	9898.6
865.707	9934.3
866.027	9872.16
866.348	9927.52
866.668	9835.32
866.989	9797.36
867.309	9766.85
867.63	9824.25
867.95	9872.16
868.27	9731.14
868.59	9749.45
868.91	9820.18
869.23	9757.13
869.55	9589.45
869.87	9821.99
870.19	9777.24
870.51	9733.85
870.83	9700.86
871.15	9621.31
871.469	9627.42
871.789	9592.16
872.109	9670.81
872.428	9517.59
872.748	9542.67
873.067	9530.47
873.386	9490.7
873.706	9483.47
874.025	9477.82
874.344	9454.77
874.663	9470.13
874.982	9469.68
875.301	9452.28
875.62	9358.5
875.939	9443.69
876.258	9451.6
876.577	9337.93
876.896	9357.37
877.214	9305.16
877.533	9302
877.852	9308.55
878.17	9362.34
878.489	9245.05
878.807	9348.55
879.125	9226.97
879.444	9233.98
879.762	9188.56
880.08	9184.94
880.398	9156.47
880.716	9145.85
881.034	9156.92
881.352	9123.47
881.67	9097.71
881.988	9094.32
882.306	9098.62
882.624	9061.33
882.941	8995.12
883.259	9029.92
883.577	8987.89
883.894	8950.15
884.212	8916.7
884.529	8886.19
884.846	8861.56
885.164	8923.71
885.481	8795.57
885.798	8846.87
886.115	8807.55
886.432	8798.96
886.75	8796.48
887.067	8810.04
887.383	8729.81
887.7	8682.81
888.017	8622.47
888.334	8723.71
888.651	8637.16
888.967	8684.62
889.284	8567.78
889.6	8588.35
889.917	8506.99
890.233	8551.96
890.55	8478.52
890.866	8482.14
891.182	8472.64
891.498	8413.66
891.815	8429.48
892.131	8386.32
892.447	8349.71
892.763	8306.32
893.079	8313.78
893.395	8309.94
893.71	8257.51
894.026	8281.92
894.342	8208.02
894.657	8184.74
894.973	8122.15
895.289	8127.79
895.604	8167.34
895.92	8108.81
896.235	8044.41
896.55	8026.33
896.865	8022.26
897.181	8019.1
897.496	7919.66
897.811	7951.75
898.126	7978.19
898.441	7866.11
898.756	7812.77
899.071	7798.54
899.386	7752.66
899.7	7787.46
900.015	7701.14
900.33	7677.41
900.644	7702.72
900.959	7692.55
901.273	7638.32
901.588	7643.97
901.902	7618.43
902.216	7578.2
902.531	7530.3
902.845	7500.47
903.159	7454.82
903.473	7440.58
903.787	7353.58
904.101	7352.45
904.415	7350.64
904.729	7297.76
905.042	7276.29
905.356	7250.98
905.67	7242.85
905.984	7246.91
906.297	7221.38
906.611	7169.4
906.924	7134.37
907.237	7123.08
907.551	7049.41
907.864	7004.89
908.177	7055.73
908.491	7011.67
908.804	7008.5
909.117	6919.46
909.43	6889.86
909.743	6859.35
910.056	6846.7
910.368	6845.57
910.681	6825
910.994	6749.3
911.307	6754.05
911.619	6683.31
911.932	6701.84
912.244	6673.37
912.557	6610.55
912.869	6627.5
913.181	6547.72
913.494	6531.9
913.806	6528.06
914.118	6540.49
914.43	6506.14
914.742	6496.2
915.054	6378.91
915.366	6393.15
915.678	6392.47
915.99	6354.28
916.302	6278.8
916.613	6298.92
916.925	6277.22
917.236	6304.34
917.548	6235.19
917.859	6226.83
918.171	6239.48
918.482	6077.23
918.794	6141.18
919.105	6108.41
919.416	6066.61
919.727	6083.1
920.038	6041.75
920.349	5956.33
920.66	5966.27
920.971	5939.6
921.282	5941.86
921.593	5900.51
921.903	5866.16
922.214	5854.63
922.525	5842.66
922.835	5750.91
923.146	5800.85
923.456	5744.35
923.767	5726.05
924.077	5719.72
924.387	5682.89
924.697	5657.8
925.008	5688.54
925.318	5632.04
925.628	5656.45
925.938	5568.54
926.248	5549.33
926.558	5501.42
926.867	5486.06
927.177	5469.56
927.487	5421.88
927.796	5389.56
928.106	5383.69
928.416	5381.65
928.725	5408.77
929.034	5297.81
929.344	5311.37
929.653	5301.43
929.962	5275.67
930.271	5230.7
930.581	5239.51
930.89	5233.86
931.199	5137.36
931.508	5149.57
931.817	5168.1
932.125	5149.79
932.434	5096.69
932.743	5075.22
933.051	5061.43
933.36	4968.78
933.669	4978.5
933.977	4974.43
934.286	5008.1
934.594	4946.86
934.902	4878.39
935.21	4897.37
935.519	4891.72
935.827	4850.37
936.135	4823.47
936.443	4794.1
936.751	4781.67
937.059	4764.27
937.367	4757.71
937.674	4755.23
937.982	4745.74
938.29	4677.72
938.597	4708.22
938.905	4621.45
939.213	4663.25
939.52	4638.17
939.827	4614.67
940.135	4608.11
940.442	4557.95
940.749	4521.56
941.056	4585.52
941.363	4488.34
941.67	4489.47
941.977	4468
942.284	4451.73
942.591	4409.7
942.898	4404.05
943.205	4384.39
943.511	4355.92
943.818	4332.41
944.125	4324.05
944.431	4321.34
944.738	4286.31
945.044	4266.88
945.35	4288.12
945.657	4232.53
945.963	4246.54
946.269	4204.06
946.575	4199.08
946.881	4171.51
947.187	4164.96
947.493	4150.27
947.799	4086.09
948.105	4098.3
948.41	4111.4
948.716	4051.29
949.022	4058.07
949.327	4047
949.633	4014.91
949.938	4004.29
950.244	3984.4
950.549	3953.89
950.854	3950.73
951.16	3952.99
951.465	3894.91
951.77	3904.18
952.075	3883.84
952.38	3880
952.685	3848.81
952.99	3809.94
953.294	3837.96
953.599	3806.33
953.904	3797.06
954.209	3739.44
954.513	3714.58
954.818	3773.56
955.122	3734.92
955.426	3727.23
955.731	3666.22
956.035	3666.9
956.339	3642.04
956.643	3646.78
956.948	3632.09
957.252	3608.82
957.556	3607.69
957.86	3568.82
958.163	3550.29
958.467	3510.74
958.771	3552.32
959.075	3489.5
959.378	3478.88
959.682	3511.42
959.985	3462.83
960.289	3474.13
960.592	3432.78
960.896	3439.78
961.199	3400.46
961.502	3392.78
961.805	3386
962.108	3306.45
962.411	3361.37
962.714	3317.53
963.017	3310.75
963.32	3324.98
963.623	3350.75
963.926	3295.83
964.228	3251.09
964.531	3238.66
964.833	3256.51
965.136	3232.56
965.438	3209.96
965.741	3146.23
966.043	3160.69
966.345	3167.93
966.648	3128.83
966.95	3141.71
967.252	3130.64
967.554	3116.18
967.856	3125.67
968.158	3081.6
968.46	3041.6
968.761	3043.41
969.063	3062.17
969.365	3050.41
969.666	3015.16
969.968	3022.39
970.269	2970.87
970.571	2962.96
970.872	2994.82
971.174	2944.43
971.475	2946.69
971.776	2968.38
972.077	2909.85
972.378	2888.38
972.679	2914.6
972.98	2917.76
973.281	2854.26
973.582	2877.09
973.883	2885.9
974.183	2846.35
974.484	2847.03
974.785	2848.39
975.085	2781.72
975.386	2788.05
975.686	2786.69
975.986	2737.65
976.287	2755.73
976.587	2741.5
976.887	2717.99
977.187	2737.2
977.487	2725.22
977.787	2653.14
978.087	2680.03
978.387	2673.93
978.687	2647.71
978.987	2630.76
979.286	2626.7
979.586	2587.15
979.885	2617.88
980.185	2584.66
980.484	2577.21
980.784	2569.07
981.083	2556.42
981.382	2532.24
981.682	2523.2
981.981	2532.91
982.28	2552.35
982.579	2506.7
982.878	2499.47
983.177	2487.04
983.475	2516.19
983.774	2449.98
984.073	2448.17
984.372	2421.28
984.67	2401.84
984.969	2461.05
985.267	2412.46
985.566	2389.87
985.864	2401.84
986.162	2389.87
986.461	2353.03
986.759	2355.97
987.057	2314.84
987.355	2336.53
987.653	2359.81
987.951	2298.8
988.249	2317.78
988.547	2324.78
988.844	2280.26
989.142	2265.8
989.44	2262.86
989.737	2277.55
990.035	2242.07
990.332	2248.18
990.63	2247.5
990.927	2200.94
991.224	2230.55
991.521	2189.87
991.819	2230.1
992.116	2183.54
992.413	2167.05
992.71	2158.46
993.006	2153.71
993.303	2122.08
993.6	2150.78
993.897	2105.81
994.193	2104.9
994.49	2071.46
994.787	2083.66
995.083	2085.47
995.379	2065.36
995.676	2048.18
995.972	2054.51
996.268	2055.41
996.565	2038.92
996.861	1996.43
997.157	2016.77
997.453	1996.66
997.749	1991.68
998.044	1980.61
998.34	2011.35
998.636	1987.17
998.932	1965.24
999.227	1962.08
999.523	1963.66
999.818	1894.29
1000.114	1903.55
1000.409	1906.72
1000.704	1909.88
1001	1879.82
1001.295	1855.64
1001.59	1829.88
1001.885	1835.98
1002.18	1795.31
1002.475	1835.53
1002.77	1808.19
1003.065	1813.84
1003.359	1814.74
1003.654	1783.1
1003.949	1813.84
1004.243	1805.25
1004.538	1770.67
1004.832	1777.68
1005.127	1751.24
1005.421	1735.87
1005.715	1717.79
1006.009	1749.43
1006.304	1704.69
1006.598	1700.39
1006.892	1697.46
1007.186	1698.13
1007.48	1687.74
1007.773	1669.89
1008.067	1649.1
1008.361	1645.03
1008.655	1623.56
1008.948	1633.05
1009.242	1622.66
1009.535	1634.63
1009.829	1649.1
1010.122	1611.81
1010.415	1602.09
1010.708	1570.91
1011.001	1555.31
1011.295	1543.34
1011.588	1556.67
1011.881	1532.04
1012.173	1516.44
1012.466	1519.83
1012.759	1530.23
1013.052	1494.75
1013.344	1488.2
1013.637	1497.01
1013.93	1486.39
1014.222	1455.65
1014.514	1459.5
1014.807	1469.44
1015.099	1410.68
1015.391	1433.28
1015.683	1457.24
1015.976	1455.43
1016.268	1439.16
1016.56	1419.95
1016.851	1401.87
1017.143	1375.2
1017.435	1405.49
1017.727	1401.42
1018.018	1378.14
1018.31	1348.31
1018.602	1356.45
1018.893	1347.41
1019.185	1328.2
1019.476	1307.41
1019.767	1361.19
1020.058	1318.48
1020.35	1282.78
1020.641	1284.36
1020.932	1288.43
1021.223	1294.08
1021.514	1266.05
1021.804	1275.32
1022.095	1268.99
1022.386	1249.56
1022.677	1237.35
1022.967	1209.56
1023.258	1205.04
1023.548	1210.01
1023.839	1205.72
1024.129	1198.49
1024.419	1191.48
1024.709	1181.08
1025	1192.84
1025.29	1196.23
1025.58	1149.9
1025.87	1169.33
1026.16	1127.75
1026.449	1153.97
1026.739	1139.5
1027.029	1156.45
1027.319	1127.3
1027.608	1114.87
1027.898	1116.45
1028.187	1083.69
1028.477	1092.95
1028.766	1078.94
1029.055	1053.4
1029.344	1066.29
1029.634	1037.36
1029.923	1049.11
1030.212	1045.5
1030.501	1047.75
1030.79	1033.52
1031.078	1040.07
1031.367	1019.73
1031.656	1009.34
1031.945	1005.04
1032.233	1006.4
1032.522	986.74
1032.81	991.94
1033.099	1001.43
1033.387	989
1033.675	959.4
1033.963	976.34
1034.251	942.9
1034.54	961.88
1034.828	942
1035.116	926.4
1035.403	945.38
1035.691	934.54
1035.979	925.05
1036.267	930.7
1036.554	907.42
1036.842	902.9
1037.129	897.7
1037.417	891.6
1037.704	892.5
1037.992	883.24
1038.279	899.06
1038.566	861.09
1038.853	861.09
1039.14	861.09
