Data from hue_26_FLMS001491_00052.txt Node
Date: Tue Feb 07 17:14:11 GMT 2017
User: dcchb
Spectrometer: FLMS00149
Trigger mode: 0
Integration Time (sec): 2.000000E-2
Scans to average: 10
Electric dark correction enabled: true
Nonlinearity correction enabled: false
Boxcar width: 0
XAxis mode: Wavelengths
Number of Pixels in Spectrum: 2048
>>>>>Begin Spectral Data<<<<<
341.393	-28.93
341.776	-28.93
342.16	-28.93
342.543	-64.63
342.927	-61.69
343.31	-68.92
343.693	-65.76
344.077	-60.34
344.46	-59.21
344.843	-38.19
345.226	-35.71
345.61	-36.84
345.993	-22.82
346.376	-2.03
346.759	32.09
347.142	31.64
347.525	23.73
347.908	50.17
348.291	77.51
348.674	92.88
349.057	81.81
349.44	138.08
349.823	144.4
350.206	166.55
350.588	182.14
350.971	195.7
351.354	244.97
351.737	242.48
352.119	263.27
352.502	276.6
352.884	257.39
353.267	287
353.65	288.13
354.032	321.57
354.414	314.12
354.797	313.44
355.179	307.11
355.562	333.32
355.944	348.47
356.326	314.57
356.709	333.78
357.091	344.85
357.473	369.26
357.855	353.44
358.238	344.85
358.62	316.6
359.002	347.34
359.384	336.94
359.766	349.14
360.148	340.56
360.53	358.18
360.912	336.26
361.294	332.19
361.676	329.71
362.057	322.03
362.439	321.8
362.821	320.44
363.203	327.67
363.584	312.76
363.966	332.87
364.348	316.15
364.729	308.01
365.111	312.76
365.493	328.58
365.874	305.53
366.256	317.05
366.637	324.06
367.019	322.93
367.4	313.89
367.781	312.08
368.163	325.42
368.544	329.03
368.925	310.05
369.306	325.19
369.688	307.56
370.069	340.33
370.45	322.48
370.831	324.51
371.212	318.41
371.593	338.75
371.974	306.88
372.355	298.07
372.736	308.92
373.117	314.79
373.498	329.26
373.879	314.34
374.26	321.57
374.641	291.29
375.021	316.38
375.402	328.8
375.783	324.96
376.163	319.31
376.544	332.42
376.925	301.69
377.305	305.3
377.686	315.7
378.066	355.92
378.447	333.55
378.827	321.8
379.208	336.94
379.588	320.67
379.968	339.88
380.349	338.07
380.729	345.75
381.109	343.49
381.489	312.99
381.87	339.43
382.25	326.77
382.63	341.23
383.01	341.23
383.39	338.75
383.77	355.24
384.15	333.78
384.53	358.63
384.91	349.82
385.29	351.86
385.67	340.33
386.049	359.31
386.429	341.23
386.809	384.4
387.189	359.99
387.568	365.19
387.948	345.98
388.328	367.45
388.707	334.23
389.087	382.14
389.466	367.9
389.846	368.58
390.225	368.35
390.605	366.54
390.984	376.71
391.363	369.26
391.743	383.04
392.122	368.35
392.501	381.23
392.881	399.99
393.26	372.42
393.639	385.53
394.018	385.3
394.397	400.44
394.776	375.36
395.155	385.3
395.534	379.43
395.913	382.81
396.292	377.39
396.671	400.67
397.05	393.44
397.429	365.64
397.808	401.8
398.186	378.75
398.565	390.72
398.944	400.89
399.323	402.7
399.701	423.49
400.08	402.02
400.458	408.35
400.837	410.16
401.215	395.7
401.594	398.63
401.972	409.25
402.351	412.42
402.729	412.64
403.107	429.14
403.486	412.64
403.864	418.29
404.242	399.76
404.62	403.83
404.999	415.81
405.377	424.62
405.755	425.3
406.133	415.13
406.511	435.47
406.889	440.89
407.267	438.86
407.645	430.72
408.023	429.59
408.401	432.76
408.779	453.55
409.156	465.3
409.534	432.53
409.912	448.12
410.29	461.46
410.667	470.04
411.045	472.3
411.422	469.59
411.8	464.85
412.178	483.38
412.555	461.91
412.933	452.64
413.31	494.68
413.687	468.24
414.065	481.12
414.442	473.89
414.819	481.34
415.197	489.7
415.574	496.03
415.951	510.95
416.328	514.79
416.705	501.46
417.082	499.2
417.46	519.76
417.837	510.04
418.214	525.18
418.591	519.99
418.967	517.05
419.344	505.07
419.721	543.71
420.098	529.48
420.475	542.13
420.852	510.27
421.228	548.23
421.605	539.19
421.982	548.23
422.358	541.45
422.735	559.53
423.111	546.43
423.488	560.44
423.864	563.15
424.241	572.87
424.617	568.35
424.994	588.46
425.37	578.97
425.746	605.63
426.123	588.46
426.499	583.26
426.875	573.77
427.251	591.85
427.627	581.91
428.003	596.82
428.379	583.71
428.756	616.48
429.132	597.5
429.507	622.13
429.883	628.01
430.259	635.92
430.635	630.04
431.011	640.44
431.387	654.9
431.763	662.58
432.138	655.35
432.514	652.86
432.89	666.88
433.265	660.77
433.641	669.59
434.016	681.34
434.392	701.45
434.767	695.35
435.143	699.87
435.518	692.64
435.894	731.28
436.269	737.61
436.644	705.07
437.02	734.22
437.395	728.34
437.77	744.84
438.145	724.73
438.52	728.57
438.895	723.37
439.271	751.39
439.646	749.36
440.021	745.29
440.395	766.53
440.77	765.4
441.145	776.25
441.52	757.49
441.895	783.71
442.27	770.15
442.645	795.01
443.019	786.42
443.394	800.43
443.769	790.71
444.143	815.57
444.518	803.37
444.892	811.05
445.267	797.95
445.641	803.82
446.016	830.26
446.39	827.1
446.764	838.62
447.139	852.18
447.513	829.81
447.887	873.65
448.262	846.76
448.636	864.38
449.01	899.64
449.384	863.48
449.758	878.62
450.132	881.11
450.506	870.71
450.88	887.21
451.254	894.89
451.628	883.59
452.002	898.28
452.376	923.14
452.75	924.04
453.123	908.9
453.497	919.75
453.871	952.74
454.244	950.26
454.618	955.68
454.992	965.4
455.365	983.7
455.739	972.63
456.112	999.97
456.486	1040.88
456.859	1019.41
457.232	1026.64
457.606	1021.44
457.979	1030.71
458.352	1059.41
458.725	1080.65
459.099	1102.8
459.472	1115.68
459.845	1097.6
460.218	1089.01
460.591	1119.74
460.964	1102.12
461.337	1129.69
461.71	1160.42
462.083	1187.09
462.456	1206.97
462.829	1168.1
463.201	1180.08
463.574	1197.71
463.947	1220.08
464.32	1228.22
464.692	1232.74
465.065	1234.09
465.438	1295.33
465.81	1303.02
466.183	1300.76
466.555	1320.87
466.928	1330.59
467.3	1346.18
467.672	1383.24
468.045	1384.14
468.417	1387.31
468.789	1386.63
469.161	1434.99
469.534	1440.41
469.906	1496.01
470.278	1510.02
470.65	1494.65
471.022	1516.8
471.394	1531.03
471.766	1571.26
472.138	1584.14
472.51	1621.43
472.882	1627.75
473.253	1685.83
473.625	1686.96
473.997	1715.44
474.369	1736.68
474.74	1768.77
475.112	1812.38
475.484	1815.77
475.855	1864.81
476.227	1856
476.598	1866.62
476.97	1926.5
477.341	2005.6
477.713	2031.81
478.084	2059.61
478.455	2079.04
478.827	2145.48
479.198	2172.6
479.569	2195.87
479.94	2264.57
480.311	2295.08
480.682	2308.19
481.053	2379.6
481.424	2391.8
481.795	2456.43
482.166	2458.69
482.537	2540.27
482.908	2576.66
483.279	2635.18
483.65	2680.16
484.021	2716.09
484.391	2798.34
484.762	2825.01
485.133	2866.14
485.503	2878.12
485.874	2993.59
486.244	2975.51
486.615	3077.21
486.985	3126.47
487.356	3182.74
487.726	3233.59
488.097	3291.89
488.467	3327.82
488.837	3395.84
489.207	3433.81
489.578	3498.67
489.948	3536.63
490.318	3610.75
490.688	3612.33
491.058	3643.29
491.428	3754.7
491.798	3775.49
492.168	3892.55
492.538	3874.7
492.908	3921.93
493.278	4017.52
493.648	4001.93
494.017	4112.89
494.387	4133.68
494.757	4170.96
495.126	4224.52
495.496	4210.28
495.866	4283.73
496.235	4350.17
496.605	4378.64
496.974	4403.05
497.344	4449.6
497.713	4502.48
498.082	4530.73
498.452	4600.78
498.821	4588.58
499.19	4619.09
499.559	4706.09
499.928	4700.44
500.298	4721.01
500.667	4774.79
501.036	4812.08
501.405	4845.75
501.774	4824.51
502.143	4925.29
502.512	4885.75
502.88	4940.89
503.249	4968.46
503.618	5014.78
503.987	5049.13
504.356	5104.95
504.724	5121
505.093	5129.81
505.462	5145.63
505.83	5151.05
506.199	5196.93
506.567	5238.51
506.936	5274.66
507.304	5345.62
507.672	5376.58
508.041	5385.4
508.409	5419.29
508.777	5419.07
509.145	5491.38
509.514	5460.65
509.882	5476.92
510.25	5566.18
510.618	5586.07
510.986	5631.72
511.354	5596.46
511.722	5727.53
512.09	5677.36
512.458	5720.98
512.826	5772.5
513.193	5787.19
513.561	5755.78
513.929	5821.54
514.297	5890.69
514.664	5882.56
515.032	5880.75
515.4	5968.66
515.767	5938.15
516.135	6029.22
516.502	5933.4
516.869	6093.85
517.237	6037.13
517.604	6052.5
517.972	6101.53
518.339	6099.05
518.706	6148.31
519.073	6147.41
519.44	6183.34
519.808	6261.53
520.175	6246.16
520.542	6308.31
520.909	6394.63
521.276	6319.38
521.643	6381.3
522.009	6424.01
522.376	6395.31
522.743	6523.9
523.11	6495.65
523.477	6580.84
523.843	6661.07
524.21	6720.5
524.577	6694.97
524.943	6677.56
525.31	6786.49
525.676	6796.88
526.043	6834.62
526.409	6845.02
526.776	6916.43
527.142	6913.49
527.508	6962.3
527.874	6976.77
528.241	7050.44
528.607	7045.01
528.973	7107.84
529.339	7208.85
529.705	7218.57
530.071	7202.97
530.437	7268.51
530.803	7316.64
531.169	7302.63
531.535	7369.98
531.901	7360.48
532.267	7402.52
532.632	7455.4
532.998	7496.98
533.364	7612
533.73	7538.56
534.095	7543.53
534.461	7700.36
534.826	7646.58
535.192	7677.31
535.557	7765.45
535.923	7722.06
536.288	7798.66
536.653	7870.08
537.019	7805.44
537.384	7882.05
537.749	8008.83
538.114	7977.87
538.479	7948.27
538.845	8059
539.21	8045.21
539.575	8076.4
539.94	8094.7
540.305	8144.42
540.67	8218.09
541.034	8150.75
541.399	8268.03
541.764	8204.53
542.129	8270.52
542.494	8279.78
542.858	8360.46
543.223	8321.14
543.587	8371.31
543.952	8439.55
544.316	8388.71
544.681	8495.37
545.045	8511.64
545.41	8593.45
545.774	8584.18
546.138	8572.2
546.503	8629.15
546.867	8665.99
547.231	8729.71
547.595	8790.5
547.959	8794.8
548.324	8819.43
548.688	8821.24
549.052	8846.32
549.416	8918.86
549.779	8925.42
550.143	8946.66
550.507	8995.92
550.871	9033.89
551.235	9064.17
551.599	9133.55
551.962	9089.03
552.326	9127.67
552.689	9224.39
553.053	9136.71
553.417	9189.36
553.78	9266.42
554.143	9327.21
554.507	9317.27
554.87	9333.99
555.234	9441.79
555.597	9350.26
555.96	9423.03
556.323	9497.83
556.686	9457.38
557.05	9522.01
557.413	9498.51
557.776	9602.69
558.139	9643.59
558.502	9657.37
558.865	9671.16
559.228	9733.08
559.59	9782.57
559.953	9735.79
560.316	9853.98
560.679	9893.53
561.041	9990.92
561.404	10004.03
561.767	9999.74
562.129	9963.35
562.492	10054.42
562.854	10083.58
563.217	10097.14
563.579	10142.56
563.941	10165.16
564.304	10216.68
564.666	10214.87
565.028	10345.04
565.39	10319.95
565.753	10353.4
566.115	10426.39
566.477	10472.72
566.839	10469.1
567.201	10618.48
567.563	10523.11
567.925	10681.3
568.287	10564.47
568.648	10625.03
569.01	10696.89
569.372	10773.05
569.734	10787.51
570.095	10750.45
570.457	10993.84
570.819	10956.32
571.18	10868.87
571.542	11021.18
571.903	11086.04
572.265	11126.71
572.626	11137.33
572.987	11218.24
573.349	11290.78
573.71	11343.66
574.071	11325.35
574.432	11468.62
574.794	11547.27
575.155	11518.79
575.516	11493.71
575.877	11674.04
576.238	11686.7
576.599	11778.9
576.96	11919.91
577.32	11956.07
577.681	12103.41
578.042	12183.86
578.403	12286.91
578.763	12299.56
579.124	12478.77
579.485	12573.91
579.845	12713.34
580.206	12768.7
580.566	12914.91
580.927	12996.95
581.287	13157.62
581.648	13234.68
582.008	13394
582.368	13592.18
582.728	13760.77
583.089	13872.63
583.449	13999.86
583.809	14191.04
584.169	14381.32
584.529	14537.02
584.889	14857.01
585.249	14898.59
585.609	15126.38
585.969	15290.45
586.329	15538.12
586.688	15640.27
587.048	15940.6
587.408	16088.62
587.768	16321.15
588.127	16579.23
588.487	16789.84
588.846	17132.88
589.206	17253.56
589.565	17603.38
589.925	17873.65
590.284	18172.4
590.643	18504.82
591.003	18685.16
591.362	19003.79
591.721	19162.43
592.08	19465.48
592.44	19860.95
592.799	20133.48
593.158	20430.42
593.517	20539.12
593.876	20966.23
594.235	21250.06
594.593	21582.26
594.952	21854.57
595.311	22216.82
595.67	22372.07
596.029	22844.6
596.387	23175.66
596.746	23405.49
597.104	23626.05
597.463	23976.32
597.822	24256.09
598.18	24515.51
598.538	24874.15
598.897	25260.58
599.255	25258.77
599.613	26016.94
599.972	26020.33
600.33	26461.45
600.688	26622.35
601.046	27086.29
601.404	27477.47
601.762	27644.24
602.12	27996.78
602.478	28250.1
602.836	28437.9
603.194	28682.18
603.552	28950.43
603.91	29128.95
604.268	29561.93
604.625	29732.78
604.983	30034.01
605.341	30123.28
605.698	30671.74
606.056	30844.39
606.413	31024.04
606.771	31457.93
607.128	31579.51
607.485	31838.48
607.843	32106.73
608.2	32382.43
608.557	32779.93
608.914	32865.8
609.272	33202.29
609.629	33373.13
609.986	33706.01
610.343	33691.09
610.7	34052.44
611.057	34315.71
611.414	34276.39
611.771	34710.5
612.127	34792.98
612.484	35068.46
612.841	35402.68
613.198	35400.2
613.554	35644.94
613.911	35771.71
614.267	36013.06
614.624	36153.85
614.98	36391.59
615.337	36677
615.693	36835.42
616.05	36804.23
616.406	37213.48
616.762	37407.6
617.118	37347.72
617.475	37582.97
617.831	37778.89
618.187	37937.31
618.543	38059.11
618.899	38416.17
619.255	38453.68
619.611	38442.83
619.967	38695.93
620.323	38868.81
620.678	38696.61
621.034	38787.91
621.39	38991.29
621.746	39003.49
622.101	39543.82
622.457	39330.49
622.812	39503.37
623.168	39694.78
623.523	39854.77
623.879	39923.92
624.234	39791.04
624.589	39983.58
624.945	39976.58
625.3	40280.75
625.655	40322.33
626.01	40375.66
626.365	40356.23
626.72	40388.54
627.075	40370.24
627.43	40517.8
627.785	40551.7
628.14	40687.07
628.495	40765.26
628.85	40767.06
629.205	40655.65
629.559	40958.92
629.914	40951.92
630.269	40973.61
630.623	41089.54
630.978	40972.48
631.332	41085.93
631.687	41151.69
632.041	41048.41
632.396	41097.22
632.75	41082.54
633.104	41214.51
633.459	41119.6
633.813	41218.8
634.167	41225.13
634.521	41173.83
634.875	41231.91
635.229	41196.43
635.583	41024.01
635.937	41204.79
636.291	41005.25
636.645	41121.86
636.999	41162.53
637.352	41217.67
637.706	41058.36
638.06	41225.36
638.413	41127.96
638.767	41035.53
639.121	41101.52
639.474	40882.31
639.828	41042.08
640.181	41108.07
640.534	41098.13
640.888	40888.19
641.241	40829.43
641.594	40997.11
641.947	41105.59
642.301	40944.46
642.654	41028.98
643.007	41063.1
643.36	41083.89
643.713	40866.27
644.066	41124.34
644.419	40887.29
644.771	40711.02
645.124	40261.99
645.477	40198.04
645.83	40056.8
646.182	39812.96
646.535	39827.43
646.888	39868.33
647.24	39520.99
647.593	39967.08
647.945	39775.9
648.298	39719.86
648.65	39693.19
649.002	39514.22
649.355	39696.36
649.707	39633.31
650.059	39889.8
650.411	40364.81
650.763	40423.34
651.115	40823.11
651.467	40625.37
651.819	40654.07
652.171	40472.16
652.523	40494.98
652.875	40553.51
653.227	40318.94
653.578	40513.06
653.93	40490.46
654.282	40342.44
654.633	40277.81
654.985	40300.41
655.337	40424.7
655.688	40460.18
656.039	40507.41
656.391	40182.9
656.742	40229.9
657.094	40302.22
657.445	40563.23
657.796	40322.1
658.147	40360.07
658.498	40223.12
658.849	40380.86
659.2	40320.97
659.551	40288.43
659.902	40295.66
660.253	40320.97
660.604	40321.43
660.955	40017.03
661.306	40319.84
661.656	40186.29
662.007	40304.93
662.358	40095.89
662.708	40107.19
663.059	40252.05
663.409	39979.29
663.76	40217.25
664.11	40224.03
664.461	40123.92
664.811	40194.65
665.161	40276.23
665.511	40121.43
665.862	40142.22
666.212	40295.66
666.562	40217.25
666.912	40166.85
667.262	40058.83
667.612	40149.23
667.962	40213.63
668.312	40054.54
668.662	40270.81
669.011	40146.06
669.361	39999.85
669.711	40075.78
670.06	39989.23
670.41	39928.89
670.76	39918.95
671.109	39985.84
671.459	39958.95
671.808	39878.27
672.157	39954.2
672.507	39651.39
672.856	39744.72
673.205	39812.51
673.554	39987.2
673.904	39809.57
674.253	40003.47
674.602	39843.25
674.951	39403.26
675.3	39227.67
675.649	39679.18
675.998	39751.95
676.346	39695.68
676.695	39841.89
677.044	39503.14
677.393	39657.49
677.741	39770.71
678.09	39644.16
678.438	39582.24
678.787	39512.41
679.135	39568.45
679.484	39292.98
679.832	39457.04
680.181	39327.1
680.529	39436.48
680.877	39365.52
681.225	39177.27
681.573	39387.21
681.922	39156.71
682.27	39067.22
682.618	39177.73
682.966	38928.47
683.314	39072.87
683.661	38872.42
684.009	38672.2
684.357	38638.08
684.705	38641.47
685.053	38683.05
685.4	38597.18
685.748	38433.79
686.095	38468.82
686.443	38377.97
686.79	38336.85
687.138	38444.19
687.485	38396.05
687.832	38166.23
688.18	38167.81
688.527	38074.71
688.874	38087.81
689.221	38074.48
689.568	37905.44
689.915	37716.3
690.262	37720.36
690.609	37683.98
690.956	37500.71
691.303	37507.04
691.65	37246.03
691.997	37410.99
692.344	37041.29
692.69	37157.44
693.037	36984.11
693.383	36818.24
693.73	36931.01
694.077	36655.31
694.423	36750.9
694.769	36590.9
695.116	36548.64
695.462	36589.55
695.808	36315.2
696.155	36419.83
696.501	36069.33
696.847	36108.66
697.193	35976.68
697.539	36081.31
697.885	35753.41
698.231	35639.29
698.577	35726.97
698.923	35684.49
699.269	35453.08
699.614	35208.79
699.96	35210.15
700.306	35260.09
700.651	35122.92
700.997	35035.24
701.342	35006.99
701.688	34858.07
702.033	34836.15
702.379	34784.85
702.724	34791.85
703.069	34688.35
703.415	34338.53
703.76	34446.55
704.105	34446.1
704.45	34374.69
704.795	34158.42
705.14	33978.09
705.485	33984.64
705.83	33878.21
706.175	33977.86
706.52	33795.95
706.865	33645.67
707.209	33717.76
707.554	33463.75
707.899	33572
708.243	33497.42
708.588	33286.36
708.932	33203.65
709.277	33162.97
709.621	33078.23
709.966	32906.48
710.31	32956.65
710.654	32783.32
710.998	32775.41
711.342	32760.27
711.687	32670.33
712.031	32496.32
712.375	32384.46
712.719	32520.5
713.063	32377.91
713.407	32532.48
713.75	32411.58
714.094	32306.72
714.438	32160.74
714.782	32258.36
715.125	31971.14
715.469	32083.22
715.812	31791.93
716.156	31791.48
716.499	31873.06
716.843	31937.69
717.186	31736.34
717.53	31802.33
717.873	31859.28
718.216	31629.22
718.559	31530.02
718.902	31353.07
719.246	31385.84
719.589	31369.34
719.932	31077.37
720.275	31170.48
720.617	31126.87
720.96	31040.31
721.303	31052.29
721.646	31041.22
721.989	30891.17
722.331	30949.24
722.674	30870.37
723.016	30860.88
723.359	30834.44
723.701	30897.94
724.044	30608.91
724.386	30618.63
724.729	30661.34
725.071	30558.52
725.413	30544.96
725.755	30432.19
726.097	30314.46
726.439	30195.36
726.782	30224.52
727.124	30336.6
727.465	30192.65
727.807	30139.55
728.149	30097.51
728.491	30015.93
728.833	30063.62
729.175	30010.74
729.516	29915.6
729.858	29877.63
730.199	29704.08
730.541	29914.24
730.882	29664.3
731.224	29855.49
731.565	29685.32
731.906	29686.68
732.248	29698.88
732.589	29526.68
732.93	29412.56
733.271	29345.22
733.612	29399.9
733.953	29441.71
734.294	29307.03
734.635	29197.88
734.976	29338.44
735.317	29074.04
735.658	29224.54
735.999	29100.25
736.339	29116.97
736.68	29207.82
737.021	29046.47
737.361	28891.67
737.702	29093.7
738.042	28887.38
738.383	28914.49
738.723	28994.94
739.063	28789.07
739.404	28925.57
739.744	28797.66
740.084	28723.76
740.424	28713.6
740.764	28524.67
741.104	28777.32
741.444	28499.82
741.784	28494.84
742.124	28571.9
742.464	28545.01
742.804	28427.5
743.143	28315.64
743.483	28457.56
743.823	28216.66
744.162	28222.08
744.502	28171.91
744.841	28137.34
745.181	28270.67
745.52	28001.07
745.86	28119.26
746.199	27976.44
746.538	28009.88
746.877	28105.25
747.216	27996.78
747.556	27797.46
747.895	28009.66
748.234	27848.31
748.573	27761.3
748.911	27793.62
749.25	27845.6
749.589	27577.81
749.928	27568.54
750.267	27688.76
750.605	27586.62
750.944	27492.38
751.283	27297.59
751.621	27476.79
751.96	27338.49
752.298	27396.57
752.636	27389.79
752.975	27129.68
753.313	27172.62
753.651	27297.81
753.989	27107.76
754.327	27198.83
754.666	26975.11
755.004	26998.16
755.342	27037.26
755.679	26857.37
756.017	26787.09
756.355	26828.67
756.693	26803.82
757.031	26786.64
757.368	26712.52
757.706	26602.69
758.044	26509.81
758.381	26537.38
758.719	26503.48
759.056	26493.31
759.394	26401.79
759.731	26222.14
760.068	26143.72
760.405	26087.45
760.743	25990.96
761.08	26035.7
761.417	25877.06
761.754	25776.5
762.091	25692.43
762.428	25762.71
762.765	25498.76
763.102	25636.16
763.438	25536.5
763.775	25426.9
764.112	25460.35
764.449	25510.29
764.785	25340.35
765.122	25017.65
765.458	25119.11
765.795	25001.15
766.131	25009.29
766.467	24795.96
766.804	24902.85
767.14	24663.98
767.476	24745.79
767.812	24550.54
768.148	24603.42
768.485	24392.13
768.821	24332.24
769.157	24242.75
769.492	24235.07
769.828	24273.26
770.164	23887.96
770.5	23915.53
770.836	23944.46
771.171	23771.13
771.507	23729.55
771.842	23522.09
772.178	23566.16
772.513	23417.01
772.849	23391.25
773.184	23286.39
773.519	23359.61
773.855	23119.84
774.19	23058.6
774.525	23079.17
774.86	22969.34
775.195	22970.92
775.53	22850.47
775.865	22747.65
776.2	22575.68
776.535	22339.75
776.87	22479.18
777.205	22420.43
777.539	22302.69
777.874	22228.12
778.209	22070.15
778.543	22061.11
778.878	22028.12
779.212	21878.52
779.547	21736.15
779.881	21761.91
780.215	21751.52
780.55	21733.67
780.884	21533.9
781.218	21441.02
781.552	21419.55
781.886	21215.49
782.22	21183.17
782.554	21253.23
782.888	20969.39
783.222	20908.15
783.556	20885.1
783.889	20792.22
784.223	20742.51
784.557	20620.7
784.89	20688.27
785.224	20519.46
785.557	20358.79
785.891	20408.73
786.224	20241.95
786.558	20358.33
786.891	20017.1
787.224	20029.76
787.557	19939.36
787.891	19888.52
788.224	19884
788.557	19873.38
788.89	19784.34
789.223	19752.93
789.556	19620.05
789.888	19494.63
790.221	19533.27
790.554	19357.46
790.887	19331.7
791.219	19265.93
791.552	19233.17
791.884	19084.24
792.217	19078.82
792.549	18930.35
792.882	18769
793.214	18755.89
793.546	18809.45
793.879	18669.79
794.211	18575.56
794.543	18707.98
794.875	18684.25
795.207	18638.83
795.539	18566.97
795.871	18425.73
796.203	18337.82
796.535	18261.21
796.867	18230.71
797.198	18237.71
797.53	18162.23
797.862	17981
798.193	18015.57
798.525	17858.29
798.856	17869.36
799.188	17757.5
799.519	17708.46
799.85	17648.8
800.182	17624.17
800.513	17567.22
800.844	17491.74
801.175	17484.51
801.506	17593.21
801.837	17396.83
802.168	17398.86
802.499	17397.96
802.83	17230.28
803.161	17165.2
803.491	17074.81
803.822	17134.69
804.153	16989.61
804.483	16976.5
804.814	16804.53
805.145	16837.75
805.475	16845.88
805.805	16778.09
806.136	16708.26
806.466	16683.86
806.796	16637.08
807.126	16550.98
807.457	16414.48
807.787	16483.41
808.117	16407.03
808.447	16386.01
808.777	16341.04
809.107	16245.45
809.436	16277.31
809.766	16240.48
810.096	16176.52
810.426	16161.83
810.755	16123.42
811.085	15986.25
811.414	15970.43
811.744	15861.5
812.073	15866.93
812.403	15850.43
812.732	15887.49
813.061	15867.38
813.39	15699.7
813.719	15695.18
814.049	15664.22
814.378	15621.74
814.707	15517.33
815.036	15657.89
815.365	15506.26
815.693	15353.72
816.022	15384.45
816.351	15298.81
816.68	15238.7
817.008	15309.65
817.337	15106.72
817.665	15111.69
817.994	15102.43
818.322	15120.96
818.651	15071.47
818.979	14953.96
819.307	15062.2
819.636	15047.51
819.964	14902.88
820.292	14984.01
820.62	14906.05
820.948	14817.92
821.276	14920.51
821.604	14901.98
821.932	14880.74
822.259	14855.2
822.587	14758.71
822.915	14777.92
823.243	14905.82
823.57	14792.38
823.898	14832.38
824.225	14803
824.553	14747.18
824.88	14817.69
825.207	14780.85
825.535	14766.84
825.862	14809.1
826.189	14741.08
826.516	14831.7
826.843	14854.3
827.17	14782.89
827.497	14816.33
827.824	14892.26
828.151	14817.24
828.478	14890.23
828.805	14866.95
829.131	14800.97
829.458	14748.76
829.785	14676.68
830.111	14681.87
830.438	14820.85
830.764	14814.3
831.09	14747.86
831.417	14697.69
831.743	14684.36
832.069	14631.25
832.395	14717.81
832.722	14664.25
833.048	14695.66
833.374	14704.7
833.7	14579.73
834.026	14581.76
834.351	14628.09
834.677	14569.56
835.003	14573.18
835.329	14521.65
835.654	14563.01
835.98	14491.82
836.306	14499.51
836.631	14504.48
836.956	14452.95
837.282	14497.47
837.607	14455.89
837.932	14389.9
838.258	14364.37
838.583	14381.32
838.908	14312.62
839.233	14382.45
839.558	14275.56
839.883	14247.99
840.208	14181.1
840.533	14187.2
840.858	14162.34
841.182	14117.14
841.507	14212.28
841.832	14104.71
842.156	14125.73
842.481	14002.57
842.805	13997.15
843.13	13950.37
843.454	13967.09
843.778	13880.09
844.103	13909.24
844.427	13850.71
844.751	13832.63
845.075	13775.68
845.399	13729.58
845.723	13707.21
846.047	13579.3
846.371	13562.13
846.695	13542.69
847.019	13448.23
847.343	13380.21
847.666	13357.16
847.99	13224.74
848.313	13261.8
848.637	13040.34
848.96	13181.35
849.284	13067.23
849.607	13087.11
849.931	12982.26
850.254	12863.84
850.577	12854.58
850.9	12798.31
851.223	12762.15
851.546	12680.57
851.869	12653.68
852.192	12737.52
852.515	12511.76
852.838	12470.41
853.161	12475.83
853.483	12380.92
853.806	12313.8
854.129	12392.44
854.451	12266.12
854.774	12288.26
855.096	12253.46
855.419	12219.34
855.741	12143.41
856.063	12189.51
856.385	12166.23
856.708	12051.43
857.03	12088.95
857.352	12103.18
857.674	11971.89
857.996	11879.01
858.318	11821.61
858.64	11944.54
858.961	11765.57
859.283	11771.22
859.605	11638.34
859.926	11774.38
860.248	11647.15
860.57	11629.75
860.891	11626.13
861.212	11611.22
861.534	11502.52
861.855	11473.82
862.176	11467.5
862.498	11470.21
862.819	11508.62
863.14	11480.6
863.461	11387.05
863.782	11374.39
864.103	11316.99
864.424	11339.59
864.745	11326.71
865.065	11239.7
865.386	11158.58
865.707	11218.91
866.027	11299.14
866.348	11158.8
866.668	11163.77
866.989	11123.1
867.309	11107.73
867.63	11077.22
867.95	11131.46
868.27	11046.72
868.59	11037.22
868.91	10989.54
869.23	10939.83
869.55	10910.22
869.87	11014.4
870.19	10989.09
870.51	11002.65
870.83	10939.37
871.15	10961.07
871.469	10892.37
871.789	10892.14
872.109	10871.58
872.428	10791.35
872.748	10825.25
873.067	10790
873.386	10829.32
873.706	10809.66
874.025	10757.01
874.344	10665.48
874.663	10790.45
874.982	10680.62
875.301	10710.23
875.62	10600.63
875.939	10656.89
876.258	10607.86
876.577	10650.57
876.896	10627.52
877.214	10533.96
877.533	10603.34
877.852	10562.43
878.17	10489.22
878.489	10568.31
878.807	10549.1
879.125	10434.98
879.444	10506.62
879.762	10455.32
880.08	10391.82
880.398	10450.35
880.716	10364.7
881.034	10338.71
881.352	10361.08
881.67	10372.83
881.988	10277.24
882.306	10249.22
882.624	10333.29
882.941	10200.18
883.259	10158.15
883.577	10140.52
883.894	10130.36
884.212	10168.09
884.529	10113.86
884.846	10062.56
885.164	10072.5
885.481	10053.75
885.798	10093.97
886.115	9915.22
886.432	9943.92
886.75	9875.22
887.067	9895.56
887.383	9911.83
887.7	9888.33
888.017	9878.84
888.334	9933.52
888.651	9846.97
888.967	9802.23
889.284	9726.98
889.6	9808.78
889.917	9664.6
890.233	9689.91
890.55	9656.47
890.866	9640.2
891.182	9626.41
891.498	9568.56
891.815	9536.47
892.131	9506.87
892.447	9528.34
892.763	9425.51
893.079	9381.9
893.395	9396.82
893.71	9413.99
894.026	9379.41
894.342	9349.36
894.657	9310.49
894.973	9239.53
895.289	9236.37
895.604	9177.39
895.92	9100.1
896.235	9107.11
896.55	9143.04
896.865	9164.73
897.181	9059.2
897.496	9065.07
897.811	8952.98
898.126	8996.6
898.441	8975.81
898.756	8894.46
899.071	8851.52
899.386	8883.83
899.7	8798.19
900.015	8775.14
900.33	8682.71
900.644	8708.7
900.959	8724.06
901.273	8738.3
901.588	8604.52
901.902	8621.92
902.216	8570.17
902.531	8509.38
902.845	8459.66
903.159	8442.72
903.473	8427.35
903.787	8391.64
904.101	8343.28
904.415	8364.3
904.729	8324.98
905.042	8328.14
905.356	8260.35
905.67	8170.41
905.984	8187.81
906.297	8113.01
906.611	8134.93
906.924	8157.98
907.237	8094.25
907.551	8046.34
907.864	7985.78
908.177	7993.46
908.491	7907.36
908.804	7994.82
909.117	7829.85
909.43	7858.55
909.743	7848.38
910.056	7809.51
910.368	7722.96
910.681	7700.36
910.994	7696.97
911.307	7670.08
911.619	7633.92
911.932	7615.84
912.244	7542.4
912.557	7513.93
912.869	7523.19
913.181	7482.29
913.494	7427.38
913.806	7348.51
914.118	7378.56
914.43	7294.72
914.742	7319.13
915.054	7273.93
915.366	7234.39
915.678	7272.58
915.99	7228.28
916.302	7175.86
916.613	7101.28
916.925	7161.85
917.236	7121.62
917.548	6979.93
917.859	7049.31
918.171	7014.05
918.482	6901.06
918.794	6939.7
919.105	6888.18
919.416	6897.22
919.727	6840.05
920.038	6787.17
920.349	6800.05
920.66	6710.56
920.971	6693.84
921.282	6724.12
921.593	6643.89
921.903	6609.32
922.214	6601.63
922.525	6590.11
922.835	6556.21
923.146	6499.04
923.456	6530
923.767	6485.71
924.077	6454.07
924.387	6437.57
924.697	6454.07
925.008	6373.17
925.318	6348.53
925.628	6298.37
925.938	6301.98
926.248	6248.2
926.558	6274.41
926.867	6190.35
927.177	6180.18
927.487	6195.77
927.796	6084.13
928.106	6112.38
928.416	6052.95
928.725	6061.76
929.034	6007.53
929.344	6039.16
929.653	6010.01
929.962	5928.88
930.271	5903.12
930.581	5869.68
930.89	5927.75
931.199	5836
931.508	5852.05
931.817	5888.66
932.125	5785.61
932.434	5746.52
932.743	5681.88
933.051	5709.23
933.36	5631.49
933.669	5575.45
933.977	5619.97
934.286	5579.51
934.594	5592.62
934.902	5553.3
935.21	5537.03
935.519	5504.71
935.827	5494.54
936.135	5480.31
936.443	5447.31
936.751	5372.97
937.059	5382.91
937.367	5363.7
937.674	5370.48
937.982	5295
938.29	5286.64
938.597	5310.37
938.905	5204.16
939.213	5258.39
939.52	5195.12
939.827	5231.95
940.135	5196.47
940.442	5107.89
940.749	5132.75
941.056	5135.23
941.363	5071.51
941.67	5026.08
941.977	5047.55
942.284	4990.83
942.591	4986.54
942.898	4973.2
943.205	4974.78
943.511	4930.94
943.818	4889.14
944.125	4909.7
944.431	4872.87
944.738	4865.18
945.044	4824.96
945.35	4827.9
945.657	4741.57
945.963	4774.79
946.269	4736.15
946.575	4711.51
946.881	4714.9
947.187	4657.5
947.493	4636.94
947.799	4638.3
948.105	4629.26
948.41	4578.86
948.716	4559.43
949.022	4551.97
949.327	4563.27
949.633	4505.87
949.938	4497.28
950.244	4470.39
950.549	4445.98
950.854	4430.62
951.16	4434.01
951.465	4398.98
951.77	4371.18
952.075	4409.6
952.38	4363.95
952.685	4334.8
952.99	4233.11
953.294	4279.44
953.599	4247.35
953.904	4256.61
954.209	4253
954.513	4215.71
954.818	4193.11
955.122	4202.6
955.426	4172.77
955.731	4127.35
956.035	4096.84
956.339	4110.85
956.643	4106.56
956.948	4042.15
957.252	4059.78
957.556	4081.47
957.86	4017.3
958.163	3999.89
958.467	4048.03
958.771	3968.71
959.075	3951.76
959.378	3895.26
959.682	3930.97
959.985	3916.73
960.289	3944.98
960.592	3874.25
960.896	3850.07
961.199	3853.46
961.502	3805.78
961.805	3791.76
962.108	3779.34
962.411	3780.47
962.714	3738.66
963.017	3735.49
963.32	3744.99
963.623	3705.21
963.926	3665.44
964.228	3672.9
964.531	3634.71
964.833	3665.21
965.136	3654.14
965.438	3570.75
965.741	3598.78
966.043	3593.58
966.345	3538.21
966.648	3593.8
966.95	3545.67
967.252	3513.35
967.554	3500.25
967.856	3474.03
968.158	3445.56
968.46	3443.53
968.761	3434.03
969.063	3389.29
969.365	3429.29
969.666	3396.52
969.968	3367.82
970.269	3384.77
970.571	3373.47
970.872	3304.55
971.174	3312.46
971.475	3295.51
971.776	3322.17
972.077	3281.04
972.378	3293.92
972.679	3275.39
972.98	3213.93
973.281	3214.83
973.582	3232.01
973.883	3218.9
974.183	3152.91
974.484	3151.33
974.785	3161.05
975.085	3175.28
975.386	3134.15
975.686	3139.58
975.986	3071.33
976.287	3114.04
976.587	3054.16
976.887	3061.39
977.187	3038.56
977.487	3049.41
977.787	3013.71
978.087	2982.29
978.387	2973.48
978.687	3011.22
978.987	2941.62
979.286	2945.69
979.586	2917.21
979.885	2883.54
980.185	2899.36
980.484	2910.21
980.784	2902.07
981.083	2868.4
981.382	2864.11
981.682	2824.56
981.981	2839.7
982.28	2799.7
982.579	2813.49
982.878	2797.44
983.177	2816.65
983.475	2800.83
983.774	2759.25
984.073	2698.46
984.372	2736.43
984.67	2690.32
984.969	2761.51
985.267	2702.08
985.566	2710.89
985.864	2658.69
986.162	2676.54
986.461	2669.08
986.759	2600.84
987.057	2627.5
987.355	2634.96
987.653	2644.68
987.951	2596.99
988.249	2562.87
988.547	2587.28
988.844	2563.77
989.142	2550.67
989.44	2541.63
989.737	2500.5
990.035	2520.61
990.332	2511.8
990.63	2445.36
990.927	2483.32
991.224	2450.78
991.521	2489.65
991.819	2450.56
992.116	2427.28
992.413	2432.25
992.71	2394.29
993.006	2412.82
993.303	2376.89
993.6	2333.27
993.897	2382.08
994.193	2376.89
994.49	2354.97
994.787	2324.68
995.083	2278.81
995.379	2290.34
995.676	2298.7
995.972	2230.9
996.268	2268.87
996.565	2235.65
996.861	2230
997.157	2266.16
997.453	2218.92
997.749	2220.96
998.044	2185.71
998.34	2209.43
998.636	2184.35
998.932	2159.04
999.227	2175.08
999.523	2125.59
999.818	2156.55
1000.114	2122.43
1000.409	2120.62
1000.704	2089.89
1001	2064.58
1001.295	2090.79
1001.59	2051.92
1001.885	2073.17
1002.18	2062.09
1002.475	2055.99
1002.77	2044.01
1003.065	2008.76
1003.359	2037.91
1003.654	1985.94
1003.949	1942.1
1004.243	2004.92
1004.538	1976.9
1004.832	2000.85
1005.127	1909.55
1005.421	1966.5
1005.715	1940.74
1006.009	1923.11
1006.304	1913.85
1006.598	1876.79
1006.892	1898.26
1007.186	1889.44
1007.48	1869.33
1007.773	1875.2
1008.067	1867.07
1008.361	1813.74
1008.655	1806.73
1008.948	1803.34
1009.242	1799.5
1009.535	1801.08
1009.829	1800.63
1010.122	1759.28
1010.415	1774.19
1010.708	1744.13
1011.001	1723.8
1011.295	1717.92
1011.588	1740.97
1011.881	1702.55
1012.173	1679.96
1012.466	1703.91
1012.759	1681.54
1013.052	1673.85
1013.344	1659.17
1013.637	1656.45
1013.93	1639.96
1014.222	1629.79
1014.514	1647.19
1014.807	1629.34
1015.099	1587.08
1015.391	1588.21
1015.683	1578.94
1015.976	1573.97
1016.268	1565.61
1016.56	1554.31
1016.851	1565.83
1017.143	1531.71
1017.435	1521.09
1017.727	1531.03
1018.018	1502.79
1018.31	1512.28
1018.602	1491.49
1018.893	1472.05
1019.185	1484.03
1019.476	1482.22
1019.767	1452.17
1020.058	1449.68
1020.35	1447.65
1020.641	1414.2
1020.932	1424.37
1021.223	1397.25
1021.514	1409.45
1021.804	1401.77
1022.095	1362
1022.386	1369.91
1022.677	1358.16
1022.967	1366.07
1023.258	1342.34
1023.548	1316.58
1023.839	1320.42
1024.129	1291.72
1024.419	1334.2
1024.709	1321.32
1025	1274.77
1025.29	1268.22
1025.58	1252.17
1025.87	1275.22
1026.16	1280.87
1026.449	1265.05
1026.739	1258.5
1027.029	1232.51
1027.319	1241.1
1027.608	1203.36
1027.898	1208.78
1028.187	1212.17
1028.477	1202.23
1028.766	1178.95
1029.055	1176.24
1029.344	1153.87
1029.634	1166.97
1029.923	1154.32
1030.212	1147.54
1030.501	1148.9
1030.79	1127.65
1031.078	1116.81
1031.367	1118.39
1031.656	1092.4
1031.945	1110.48
1032.233	1105.06
1032.522	1101.89
1032.81	1090.37
1033.099	1077.94
1033.387	1084.27
1033.675	1055.34
1033.963	1068.45
1034.251	1074.1
1034.54	1039.97
1034.828	1035.68
1035.116	1024.15
1035.403	1006.75
1035.691	1022.8
1035.979	1008.11
1036.267	1014.44
1036.554	985.74
1036.842	1005.62
1037.129	989.35
1037.417	968.56
1037.704	964.27
1037.992	946.42
1038.279	967.66
1038.566	950.26
1038.853	950.26
1039.14	950.26
