Data from hue_290_FLMS001491_00072.txt Node
Date: Tue Feb 07 15:53:12 GMT 2017
User: dcchb
Spectrometer: FLMS00149
Trigger mode: 0
Integration Time (sec): 2.000000E-2
Scans to average: 10
Electric dark correction enabled: true
Nonlinearity correction enabled: false
Boxcar width: 0
XAxis mode: Wavelengths
Number of Pixels in Spectrum: 2048
>>>>>Begin Spectral Data<<<<<
341.393	-18.25
341.776	-18.25
342.16	-18.25
342.543	-76.1
342.927	-77.23
343.31	-70.45
343.693	-54.63
344.077	-73.39
344.46	-46.27
344.843	-55.08
345.226	-40.85
345.61	-23.67
345.993	-0.85
346.376	-13.73
346.759	3.22
347.142	20.17
347.525	38.7
347.908	59.72
348.291	72.37
348.674	63.11
349.057	121.64
349.44	115.76
349.823	157.11
350.206	148.3
350.588	183.1
350.971	206.38
351.354	218.58
351.737	232.37
352.119	243.21
352.502	270.33
352.884	266.72
353.267	280.5
353.65	271.46
354.032	272.37
354.414	285.92
354.797	307.17
355.179	316.88
355.562	317.79
355.944	315.75
356.326	325.25
356.709	317.79
357.091	314.85
357.473	330.22
357.855	347.84
358.238	336.54
358.62	343.78
359.002	313.95
359.384	337.9
359.766	334.06
360.148	334.74
360.53	336.77
360.912	339.48
361.294	330.22
361.676	327.73
362.057	339.48
362.439	324.12
362.821	313.04
363.203	297.68
363.584	311.91
363.966	311.46
364.348	308.07
364.729	321.4
365.111	307.62
365.493	289.54
365.874	315.75
366.256	321.86
366.637	318.92
367.019	304
367.4	298.58
367.781	296.77
368.163	321.4
368.544	318.47
368.925	314.17
369.306	310.33
369.688	299.94
370.069	302.65
370.45	328.41
370.831	319.14
371.212	294.74
371.593	317.34
371.974	315.3
372.355	308.3
372.736	317.56
373.117	319.82
373.498	294.29
373.879	290.44
374.26	306.04
374.641	300.16
375.021	320.27
375.402	313.04
375.783	330.44
376.163	314.4
376.544	302.42
376.925	318.47
377.305	293.38
377.686	327.73
378.066	330.22
378.447	313.27
378.827	312.59
379.208	311.46
379.588	340.84
379.968	320.5
380.349	343.55
380.729	318.92
381.109	335.87
381.489	333.38
381.87	325.7
382.25	345.13
382.63	338.58
383.01	329.31
383.39	327.51
383.77	327.73
384.15	343.78
384.53	332.93
384.91	344.91
385.29	352.14
385.67	348.97
386.049	336.09
386.429	343.32
386.809	338.8
387.189	350.78
387.568	344.45
387.948	343.78
388.328	362.98
388.707	354.17
389.087	347.17
389.466	350.1
389.846	377.45
390.225	370.44
390.605	379.71
390.984	372.48
391.363	376.77
391.743	372.25
392.122	374.51
392.501	360.5
392.881	366.83
393.26	368.63
393.639	356.21
394.018	370.22
394.397	376.54
394.776	377.9
395.155	382.87
395.534	398.24
395.913	381.06
396.292	419.25
396.671	375.87
397.05	396.88
397.429	381.52
397.808	390.1
398.186	394.17
398.565	382.87
398.944	410.89
399.323	416.09
399.701	407.5
400.08	412.7
400.458	406.37
400.837	428.29
401.215	423.77
401.594	436.43
401.972	434.85
402.351	434.4
402.729	405.47
403.107	431.46
403.486	429.65
403.864	443.21
404.242	431.46
404.62	457.9
404.999	427.62
405.377	458.12
405.755	431.68
406.133	447.95
406.511	456.77
406.889	454.06
407.267	515.52
407.645	468.29
408.023	481.4
408.401	492.47
408.779	504.9
409.156	517.78
409.534	519.82
409.912	515.3
410.29	504
410.667	535.18
411.045	523.43
411.422	535.18
411.8	526.14
412.178	543.77
412.555	566.6
412.933	544.67
413.31	569.99
413.687	564.79
414.065	567.95
414.442	576.09
414.819	614.5
415.197	584
415.574	620.61
415.951	602.53
416.328	624.67
416.705	628.97
417.082	632.58
417.46	652.24
417.837	635.52
418.214	647.05
418.591	643.2
418.967	677.33
419.344	705.35
419.721	677.33
420.098	705.35
420.475	708.51
420.852	724.11
421.228	724.78
421.605	718
421.982	729.75
422.358	730.43
422.735	772.47
423.111	773.6
423.488	804.1
423.864	761.17
424.241	771.56
424.617	807.04
424.994	787.38
425.37	801.84
425.746	814.72
426.123	826.25
426.499	844.1
426.875	861.73
427.251	849.75
427.627	871.67
428.003	879.13
428.379	875.74
428.756	906.47
429.132	931.11
429.507	912.35
429.883	929.07
430.259	918.45
430.635	947.83
431.011	973.59
431.387	1005.91
431.763	1003.19
432.138	999.13
432.514	1016.07
432.89	1040.93
433.265	1050.2
433.641	1046.13
434.016	1080.03
434.392	1090.42
434.767	1106.47
435.143	1111.21
435.518	1113.47
435.894	1117.99
436.269	1124.55
436.644	1182.85
437.02	1197.54
437.395	1174.04
437.77	1213.36
438.145	1212.91
438.52	1205.22
438.895	1238.89
439.271	1238.89
439.646	1257.88
440.021	1269.63
440.395	1261.94
440.77	1275.5
441.145	1322.06
441.52	1318.21
441.895	1345.56
442.27	1315.28
442.645	1311.43
443.019	1331.09
443.394	1337.2
443.769	1345.78
444.143	1360.47
444.518	1364.99
444.892	1366.35
445.267	1365.67
445.641	1373.58
446.016	1387.59
446.39	1386.01
446.764	1400.02
447.139	1421.04
447.513	1448.15
447.887	1421.04
448.262	1433.01
448.636	1444.76
449.01	1470.07
449.384	1429.85
449.758	1450.87
450.132	1468.27
450.506	1475.5
450.88	1478.21
451.254	1495.84
451.628	1521.82
452.002	1501.71
452.376	1521.15
452.75	1534.48
453.123	1528.15
453.497	1574.7
453.871	1572.67
454.244	1577.19
454.618	1616.06
454.992	1600.92
455.365	1621.93
455.739	1620.8
456.112	1658.32
456.486	1646.57
456.859	1664.65
457.232	1705.77
457.606	1683.85
457.979	1692.22
458.352	1730.41
458.725	1764.76
459.099	1750.52
459.472	1767.47
459.845	1821.48
460.218	1802.27
460.591	1788.71
460.964	1805.88
461.337	1847.69
461.71	1875.71
462.083	1889.27
462.456	1900.12
462.829	1888.82
463.201	1910.51
463.574	1908.48
463.947	1939.89
464.32	1976.73
464.692	1975.15
465.065	2003.39
465.438	2060.34
465.81	2042.49
466.183	2043.62
466.555	2104.86
466.928	2108.7
467.3	2098.31
467.672	2112.32
468.045	2172.2
468.417	2158.64
468.789	2162.94
469.161	2201.58
469.534	2192.09
469.906	2242.71
470.278	2265.76
470.65	2294.91
471.022	2312.54
471.394	2362.71
471.766	2339.88
472.138	2384.85
472.51	2430.28
472.882	2470.5
473.253	2499.88
473.625	2481.57
473.997	2544.85
474.369	2548.01
474.74	2553.66
475.112	2601.12
475.484	2654.22
475.855	2674.79
476.227	2646.31
476.598	2705.07
476.97	2724.73
477.341	2775.35
477.713	2820.1
478.084	2827.1
478.455	2875.69
478.827	2872.75
479.198	2981.22
479.569	2908.91
479.94	2992.07
480.311	3023.03
480.682	3081.56
481.053	3145.96
481.424	3192.29
481.795	3181.89
482.166	3233.87
482.537	3254.66
482.908	3298.95
483.279	3352.74
483.65	3348.44
484.021	3423.92
484.391	3467.31
484.762	3459.85
485.133	3507.76
485.503	3534.43
485.874	3575.1
486.244	3617.59
486.615	3645.38
486.985	3699.85
487.356	3755.21
487.726	3761.31
488.097	3811.71
488.467	3780.75
488.837	3855.1
489.207	3907.75
489.578	3928.99
489.948	3936.9
490.318	3967.41
490.688	4025.49
491.058	4088.76
491.428	4144.81
491.798	4124.69
492.168	4230.91
492.538	4162.66
492.908	4274.29
493.278	4256.67
493.648	4349.32
494.017	4350
494.387	4375.31
494.757	4403.1
495.126	4431.8
495.496	4440.62
495.866	4489.43
496.235	4539.6
496.605	4554.96
496.974	4541.41
497.344	4577.56
497.713	4594.51
498.082	4602.65
498.452	4690.33
498.821	4682.87
499.19	4687.62
499.559	4756.54
499.928	4715.86
500.298	4761.06
500.667	4759.25
501.036	4771.68
501.405	4783.89
501.774	4846.26
502.143	4832.47
502.512	4893.94
502.88	4907.27
503.249	4906.37
503.618	4875.41
503.987	4913.15
504.356	4993.82
504.724	4943.88
505.093	4949.3
505.462	4987.72
505.83	5060.71
506.199	5026.37
506.567	5103.2
506.936	5062.07
507.304	5119.7
507.672	5147.94
508.041	5144.55
508.409	5184.1
508.777	5187.49
509.145	5232.91
509.514	5207.6
509.882	5274.95
510.25	5248.28
510.618	5253.25
510.986	5309.52
511.354	5296.64
511.722	5327.15
512.09	5322.63
512.458	5366.24
512.826	5418.67
513.193	5402.63
513.561	5445.34
513.929	5496.86
514.297	5504.54
514.664	5460.7
515.032	5480.82
515.4	5557.42
515.767	5541.38
516.135	5531.66
516.502	5495.96
516.869	5589.97
517.237	5626.12
517.604	5607.37
517.972	5639.23
518.339	5662.51
518.706	5666.57
519.073	5631.09
519.44	5692.79
519.808	5737.31
520.175	5756.06
520.542	5766.01
520.909	5800.13
521.276	5755.61
521.643	5808.94
522.009	5799
522.376	5891.43
522.743	5891.2
523.11	5902.73
523.477	6001.93
523.843	5989.05
524.21	6003.97
524.577	6060.24
524.943	6077.18
525.31	6029.95
525.676	6106.11
526.043	6141.59
526.409	6144.98
526.776	6189.5
527.142	6166.9
527.508	6212.1
527.874	6276.5
528.241	6296.84
528.607	6343.17
528.973	6342.71
529.339	6279.89
529.705	6359.89
530.071	6440.11
530.437	6442.37
530.803	6484.18
531.169	6544.52
531.535	6492.09
531.901	6488.47
532.267	6492.77
532.632	6609.83
532.998	6589.94
533.364	6655.25
533.73	6602.37
534.095	6694.12
534.461	6652.08
534.826	6698.64
535.192	6716.04
535.557	6736.15
535.923	6802.59
536.288	6761.46
536.653	6791.06
537.019	6813.44
537.384	6835.13
537.749	6807.79
538.114	6803.04
538.479	6886.66
538.845	6884.17
539.21	6930.27
539.575	6932.08
539.94	6993.77
540.305	6991.06
540.67	6919.65
541.034	7020.44
541.399	7085.07
541.764	7025.86
542.129	7049.36
542.494	7058.63
542.858	7061.34
543.223	7135.24
543.587	7226.31
543.952	7169.81
544.316	7198.06
544.681	7216.59
545.045	7223.6
545.41	7268.34
545.774	7247.55
546.138	7268.79
546.503	7284.61
546.867	7291.84
547.231	7382.91
547.595	7330.94
547.959	7378.85
548.324	7442.57
548.688	7393.76
549.052	7453.65
549.416	7446.41
549.779	7426.98
550.143	7493.42
550.507	7523.02
550.871	7507.2
551.235	7471.72
551.599	7615
551.962	7535
552.326	7589.69
552.689	7700.19
553.053	7554.89
553.417	7623.81
553.78	7664.49
554.143	7617.26
554.507	7771.83
554.87	7755.56
555.234	7776.58
555.597	7768.44
555.96	7754.88
556.323	7815.22
556.686	7813.86
557.05	7798.27
557.413	7823.13
557.776	7892.28
558.139	7915.55
558.502	7847.53
558.865	7833.52
559.228	7971.6
559.59	8010.69
559.953	7964.14
560.316	8040.3
560.679	7991.71
561.041	8101.76
561.404	8099.73
561.767	8126.62
562.129	8161.88
562.492	8160.75
562.854	8174.76
563.217	8160.75
563.579	8196.9
563.941	8225.38
564.304	8212.72
564.666	8312.61
565.028	8389.67
565.39	8282.32
565.753	8295.43
566.115	8405.71
566.477	8358.93
566.839	8436.67
567.201	8467.86
567.563	8479.61
567.925	8515.76
568.287	8532.04
568.648	8545.14
569.01	8634.41
569.372	8705.36
569.734	8662.43
570.095	8682.54
570.457	8802.76
570.819	8723.89
571.18	8817
571.542	8823.1
571.903	8823.1
572.265	8800.96
572.626	8929.77
572.987	8920.5
573.349	8948.75
573.71	8996.2
574.071	9042.53
574.432	9122.08
574.794	9189.87
575.155	9171.79
575.516	9148.52
575.877	9234.84
576.238	9305.35
576.599	9342.41
576.96	9406.36
577.32	9408.62
577.681	9470.99
578.042	9576.3
578.403	9567.71
578.763	9660.59
579.124	9711.89
579.485	9804.77
579.845	9950.08
580.206	9943.75
580.566	10009.51
580.927	10107.81
581.287	10123.41
581.648	10229.62
582.008	10406.79
582.368	10315.72
582.728	10495.15
583.089	10545.99
583.449	10649.27
583.809	10695.37
584.169	10809.26
584.529	10959.54
584.889	11089.93
585.249	11119.76
585.609	11220.1
585.969	11330.15
586.329	11468
586.688	11576.7
587.048	11608.56
587.408	11821.21
587.768	11958.16
588.127	11985.96
588.487	12167.65
588.846	12396.79
589.206	12345.04
589.565	12606.05
589.925	12727.86
590.284	12851.24
590.643	12927.17
591.003	13114.97
591.362	13262.31
591.721	13369.42
592.08	13474.5
592.44	13772.35
592.799	13806.47
593.158	13887.83
593.517	13985.68
593.876	14233.81
594.235	14329.17
594.593	14501.14
594.952	14602.38
595.311	14659.56
595.67	14852.77
596.029	15011.41
596.387	15223.16
596.746	15361.01
597.104	15361.01
597.463	15456.6
597.822	15683.26
598.18	15729.13
598.538	15881.67
598.897	16060.2
599.255	15959.41
599.613	16397.82
599.972	16343.13
600.33	16553.29
600.688	16578.83
601.046	16699.73
601.404	16862.21
601.762	16963.68
602.12	17133.62
602.478	17205.48
602.836	17430.11
603.194	17380.16
603.552	17514.4
603.91	17485.47
604.268	17707.84
604.625	17760.04
604.983	17878
605.341	17918.23
605.698	18136.3
606.056	18180.82
606.413	18162.74
606.771	18311.21
607.128	18534.71
607.485	18451.32
607.843	18518.21
608.2	18727.47
608.557	18837.08
608.914	18834.14
609.272	18977.18
609.629	19106.45
609.986	19240
610.343	19176.95
610.7	19394.57
611.057	19370.85
611.414	19402.03
611.771	19440.45
612.127	19677.96
612.484	19602.25
612.841	19811.06
613.198	19711.63
613.554	19902.36
613.911	19986.65
614.267	19991.17
614.624	20048.57
614.98	20110.49
615.337	20304.61
615.693	20315.23
616.05	20316.36
616.406	20300.09
616.762	20354.55
617.118	20471.38
617.475	20373.53
617.831	20609.01
618.187	20581.89
618.543	20668.44
618.899	20778.27
619.255	20771.71
619.611	20761.54
619.967	20818.04
620.323	20949.79
620.678	20973.74
621.034	21008.77
621.39	21048.32
621.746	20964.93
622.101	21284.02
622.457	21182.78
622.812	21175.77
623.168	21179.16
623.523	21251.25
623.879	21315.65
624.234	21122.44
624.589	21323.11
624.945	21367.4
625.3	21415.99
625.655	21399.95
626.01	21361.75
626.365	21381.19
626.72	21357.69
627.075	21309.1
627.43	21345.71
627.785	21436.55
628.14	21469.1
628.495	21564.69
628.85	21378.7
629.205	21449.66
629.559	21442.2
629.914	21505.71
630.269	21476.55
630.623	21407.4
630.978	21384.58
631.332	21545.7
631.687	21512.71
632.041	21378.48
632.396	21545.03
632.75	21382.09
633.104	21533.5
633.459	21459.61
633.813	21460.74
634.167	21390
634.521	21241.08
634.875	21449.44
635.229	21382.09
635.583	21294.41
635.937	21334.86
636.291	21267.75
636.645	21355.65
636.999	21297.8
637.352	21298.71
637.706	21239.95
638.06	21204.47
638.413	21265.71
638.767	21266.16
639.121	21267.52
639.474	21081.76
639.828	21182.32
640.181	21187.3
640.534	21217.8
640.888	21146.85
641.241	21020.29
641.594	21139.61
641.947	21115.43
642.301	21051.71
642.654	21109.33
643.007	21095.1
643.36	21139.61
643.713	20958.15
644.066	21106.62
644.419	21044.47
644.771	20898.72
645.124	20814.88
645.477	20722.9
645.83	20601.55
646.182	20464.83
646.535	20455.34
646.888	20597.48
647.24	20402.01
647.593	20556.35
647.945	20468.22
648.298	20379.86
648.65	20310.93
649.002	20391.38
649.355	20353.19
649.707	20429.8
650.059	20557.26
650.411	20745.95
650.763	20782.11
651.115	21067.53
651.467	20899.39
651.819	21037.24
652.171	20844.71
652.523	20897.13
652.875	20763.35
653.227	20808.1
653.578	20994.76
653.93	20973.97
654.282	20863.91
654.633	20866.63
654.985	20918.15
655.337	20860.07
655.688	20883.35
656.039	21001.76
656.391	20764.03
656.742	20778.49
657.094	20871.6
657.445	20985.04
657.796	20872.5
658.147	20877.93
658.498	20913.86
658.849	20984.59
659.2	20956.79
659.551	20833.86
659.902	21021.65
660.253	20931.71
660.604	20884.71
660.955	20823.69
661.306	20856.23
661.656	20938.94
662.007	20907.53
662.358	21011.03
662.708	20992.05
663.059	21011.48
663.409	20878.38
663.76	21093.06
664.11	20922.44
664.461	21065.49
664.811	21086.28
665.161	20979.17
665.511	21039.28
665.862	20950.24
666.212	21024.14
666.562	21029.79
666.912	21066.17
667.262	21014.42
667.612	20931.71
667.962	21021.88
668.312	20931.94
668.662	21043.8
669.011	20951.6
669.361	20909.56
669.711	20996.11
670.06	20996.11
670.41	20872.73
670.76	20905.04
671.109	20854.2
671.459	20923.8
671.808	20797.93
672.157	20930.35
672.507	20792.5
672.856	20733.97
673.205	20933.97
673.554	20923.12
673.904	20847.87
674.253	20902.33
674.602	20832.05
674.951	20575.79
675.3	20418.28
675.649	20749.57
675.998	20758.83
676.346	20753.64
676.695	20753.86
677.044	20698.27
677.393	20738.49
677.741	20837.02
678.09	20540.53
678.438	20592.06
678.787	20654.2
679.135	20656.01
679.484	20514.55
679.832	20571.72
680.181	20436.58
680.529	20615.11
680.877	20462.57
681.225	20421.44
681.573	20505.96
681.922	20357.26
682.27	20362.91
682.618	20298.05
682.966	20257.38
683.314	20243.59
683.661	20136.7
684.009	20059.42
684.357	20069.59
684.705	19913.88
685.053	20047.44
685.4	19991.17
685.748	19920.66
686.095	19959.98
686.443	19701.23
686.79	19839.99
687.138	19765.86
687.485	19760.44
687.832	19741.01
688.18	19704.4
688.527	19612.65
688.874	19515.93
689.221	19616.26
689.568	19538.3
689.915	19378.08
690.262	19328.14
690.609	19387.8
690.956	19204.3
691.303	19230.51
691.65	19153.23
691.997	19186.67
692.344	19058.31
692.69	19010.18
693.037	18998.43
693.383	18860.8
693.73	19003.85
694.077	18797.3
694.423	18805.89
694.769	18634.14
695.116	18545.33
695.462	18572.9
695.808	18548.5
696.155	18646.57
696.501	18478.44
696.847	18448.16
697.193	18235.06
697.539	18398.89
697.885	18159.58
698.231	18167.04
698.577	18113.03
698.923	18134.49
699.269	17918
699.614	17871.45
699.96	17872.81
700.306	17875.29
700.651	17765.01
700.997	17731.34
701.342	17616.54
701.688	17614.73
702.033	17557.56
702.379	17489.54
702.724	17405.25
703.069	17492.93
703.415	17208.64
703.76	17197.57
704.105	17212.94
704.45	17153.28
704.795	17040.51
705.14	16969.78
705.485	16933.85
705.83	16878.71
706.175	16936.11
706.52	16909.89
706.865	16865.38
707.209	16725.94
707.554	16743.8
707.899	16747.64
708.243	16661.31
708.588	16569.34
708.932	16507.19
709.277	16550.58
709.621	16558.27
709.966	16358.72
710.31	16367.99
710.654	16300.42
710.998	16272.17
711.342	16217.48
711.687	16205.73
712.031	16185.85
712.375	16001.9
712.719	16048.67
713.063	16118.95
713.407	16083.93
713.75	15920.99
714.094	15951.95
714.438	15933.65
714.782	15917.15
715.125	15845.52
715.469	15874.44
715.812	15712.86
716.156	15613.88
716.499	15722.81
716.843	15736.37
717.186	15595.13
717.53	15737.95
717.873	15636.93
718.216	15617.72
718.559	15561.23
718.902	15509.48
719.246	15500.21
719.589	15462.93
719.932	15459.31
720.275	15353.33
720.617	15306.55
720.96	15378.64
721.303	15393.1
721.646	15326.66
721.989	15281.01
722.331	15300.9
722.674	15323.5
723.016	15298.86
723.359	15180
723.701	15265.64
724.044	15176.61
724.386	15249.6
724.729	15238.53
725.071	15130.51
725.413	15151.97
725.755	15115.82
726.097	15106.78
726.439	15024.52
726.782	15003.73
727.124	15139.55
727.465	15014.58
727.807	14986.56
728.149	14954.92
728.491	15002.6
728.833	15089.15
729.175	14966.44
729.516	15005.99
729.858	14934.13
730.199	14952.21
730.541	14878.31
730.882	14829.05
731.224	14869.04
731.565	14862.04
731.906	14870.4
732.248	14825.66
732.589	14759.22
732.93	14788.59
733.271	14844.41
733.612	14868.37
733.953	14765.54
734.294	14756.96
734.635	14850.29
734.976	14851.42
735.317	14717.64
735.658	14798.76
735.999	14776.17
736.339	14767.35
736.68	14830.85
737.021	14799.67
737.361	14717.18
737.702	14801.93
738.042	14814.13
738.383	14761.25
738.723	14826.56
739.063	14744.75
739.404	14799.67
739.744	14854.58
740.084	14750.4
740.424	14788.14
740.764	14838.08
741.104	14853.45
741.444	14851.87
741.784	14820.46
742.124	14949.04
742.464	14875.82
742.804	14830.63
743.143	14894.81
743.483	14882.38
743.823	14908.37
744.162	14915.14
744.502	14989.27
744.841	15003.28
745.181	15051.64
745.52	15109.94
745.86	15161.24
746.199	15127.79
746.538	15188.81
746.877	15204.4
747.216	15232.88
747.556	15277.85
747.895	15298.19
748.234	15368.69
748.573	15434
748.911	15442.14
749.25	15572.75
749.589	15509.71
749.928	15635.13
750.267	15732.52
750.605	15733.65
750.944	15802.13
751.283	15912.18
751.621	15975
751.96	15882.12
752.298	16030.14
752.636	16234.43
752.975	16147.65
753.313	16244.15
753.651	16442.56
753.989	16493.63
754.327	16510.36
754.666	16592.61
755.004	16752.38
755.342	16835.32
755.679	16974.07
756.017	16991.25
756.355	17065.82
756.693	17192.37
757.031	17378.58
757.368	17334.06
757.706	17493.38
758.044	17625.81
758.381	17753.71
758.719	17821.96
759.056	17945.12
759.394	18002.97
759.731	18158.9
760.068	18030.09
760.405	18182.63
760.743	18287.49
761.08	18500.36
761.417	18572.68
761.754	18606.8
762.091	18730.64
762.428	18800.47
762.765	18833.23
763.102	18974.7
763.438	18962.27
763.775	19002.72
764.112	19067.35
764.449	19277.52
764.785	19301.24
765.122	19383.73
765.458	19348.47
765.795	19469.38
766.131	19486.32
766.467	19573.33
766.804	19637.96
767.14	19514.57
767.476	19725.41
767.812	19604.96
768.148	19840.89
768.485	19731.97
768.821	19725.41
769.157	19791.63
769.492	19901
769.828	19890.38
770.164	19815.81
770.5	19935.13
770.836	19959.53
771.171	19834.34
771.507	19972.64
771.842	19863.94
772.178	19858.52
772.513	19909.36
772.849	19921.57
773.184	19894
773.519	19959.98
773.855	19909.59
774.19	19889.48
774.525	19821
774.86	19899.65
775.195	19897.61
775.53	19846.54
775.865	19835.47
776.2	19672.76
776.535	19704.62
776.87	19668.92
777.205	19634.12
777.539	19570.16
777.874	19610.39
778.209	19528.81
778.543	19588.92
778.878	19523.84
779.212	19498.3
779.547	19353.67
779.881	19533.78
780.215	19299.89
780.55	19388.93
780.884	19269.38
781.218	19346.89
781.552	19268.48
781.886	19114.58
782.22	19147.35
782.554	19096.73
782.888	18898.54
783.222	18824.65
783.556	18895.38
783.889	18891.09
784.223	18748.94
784.557	18719.11
784.89	18737.19
785.224	18776.51
785.557	18612.22
785.891	18540.59
786.224	18569.06
786.558	18579
786.891	18339.01
787.224	18332.46
787.557	18314.83
787.891	18202.74
788.224	18341.95
788.557	18271.89
788.89	18187.6
789.223	18195.74
789.556	18002.3
789.888	18053.59
790.221	18015.18
790.554	17861.51
790.887	17810.66
791.219	17866.25
791.552	17775.41
791.884	17649.08
792.217	17673.26
792.549	17599.37
792.882	17517.79
793.214	17430.33
793.546	17420.84
793.879	17261.52
794.211	17312.37
794.543	17337.91
794.875	17257.46
795.207	17312.14
795.539	17184.01
795.871	17122.09
796.203	17035.09
796.535	16969.55
796.867	17017.91
797.198	16890.46
797.53	16916.67
797.862	16794.64
798.193	16795.1
798.525	16730.46
798.856	16726.4
799.188	16485.95
799.519	16455.89
799.85	16439.85
800.182	16478.72
800.513	16457.93
800.844	16247.54
801.175	16374.99
801.506	16307.2
801.837	16250.93
802.168	16249.8
802.499	16200.76
802.83	16042.12
803.161	16104.49
803.491	16081.22
803.822	15990.6
804.153	15806.65
804.483	15834.89
804.814	15729.13
805.145	15736.37
805.475	15741.79
805.805	15650.04
806.136	15561.91
806.466	15655.01
806.796	15543.6
807.126	15493.66
807.457	15512.19
807.787	15509.71
808.117	15333.89
808.447	15373.21
808.777	15416.15
809.107	15297.73
809.436	15332.76
809.766	15291.41
810.096	15189.49
810.426	15140.9
810.755	15152.2
811.085	15107.23
811.414	15029.94
811.744	15032.2
812.073	15008.02
812.403	14918.53
812.732	14808.48
813.061	14893.45
813.39	14801.25
813.719	14770.97
814.049	14798.76
814.378	14720.8
814.707	14716.28
815.036	14714.02
815.365	14581.37
815.693	14505.89
816.022	14521.93
816.351	14399.45
816.68	14280.81
817.008	14415.72
817.337	14243.3
817.665	14236.07
817.994	14262.05
818.322	14278.78
818.651	14177.76
818.979	14201.72
819.307	14232.9
819.636	14180.93
819.964	14098.44
820.292	14147.03
820.62	14093.25
820.948	14120.14
821.276	14059.8
821.604	14018.44
821.932	14098.44
822.259	14096.86
822.587	13961.72
822.915	14018.22
823.243	14046.92
823.57	13959.92
823.898	14042.85
824.225	14019.8
824.553	14025.9
824.88	13995.85
825.207	14045.11
825.535	13952.23
825.862	14014.83
826.189	13980.25
826.516	14096.41
826.843	14068.61
827.17	13938.22
827.497	14032.46
827.824	14013.02
828.151	14088.5
828.478	14036.98
828.805	14065.22
829.131	14106.58
829.458	13955.17
829.785	13947.26
830.111	13904.78
830.438	14022.29
830.764	13961.95
831.09	14032.68
831.417	13953.36
831.743	13882.86
832.069	13875.62
832.395	13895.06
832.722	13936.64
833.048	13875.17
833.374	13902.97
833.7	13814.16
834.026	13861.61
834.351	13889.63
834.677	13905.68
835.003	13933.93
835.329	13815.74
835.654	13840.37
835.98	13723.54
836.306	13732.8
836.631	13702.52
836.956	13792.46
837.282	13738
837.607	13709.53
837.932	13667.49
838.258	13688.96
838.583	13607.38
838.908	13491
839.233	13614.16
839.558	13556.54
839.883	13528.06
840.208	13523.54
840.533	13490.78
840.858	13487.39
841.182	13433.6
841.507	13422.53
841.832	13337.56
842.156	13378.91
842.481	13313.15
842.805	13333.94
843.13	13315.41
843.454	13202.87
843.778	13232.93
844.103	13194.74
844.427	13104.34
844.751	13090.79
845.075	13052.82
845.399	13015.76
845.723	12961.3
846.047	12991.35
846.371	12891.02
846.695	12872.03
847.019	12725.82
847.343	12774.86
847.666	12584.58
847.99	12608.31
848.313	12584.36
848.637	12481.76
848.96	12556.56
849.284	12429.79
849.607	12406.74
849.931	12334.87
850.254	12265.95
850.577	12257.59
850.9	12099.17
851.223	12149.12
851.546	12011.72
851.869	12010.59
852.192	12082.22
852.515	11914.09
852.838	11875.9
853.161	11958.39
853.483	11760.88
853.806	11784.61
854.129	11783.25
854.451	11751.84
854.774	11639.3
855.096	11593.2
855.419	11630.49
855.741	11582.12
856.063	11431.62
856.385	11519.08
856.708	11492.86
857.03	11411.73
857.352	11419.42
857.674	11347.33
857.996	11391.85
858.318	11279.31
858.64	11155.7
858.961	11195.47
859.283	11214
859.605	11130.39
859.926	11203.6
860.248	11087
860.57	11100.56
860.891	11149.82
861.212	11008.13
861.534	10974.46
861.855	10939.43
862.176	10969.71
862.498	10927.68
862.819	10920
863.14	10901.01
863.461	10905.08
863.782	10872.54
864.103	10898.08
864.424	10794.8
864.745	10818.98
865.065	10762.94
865.386	10694.24
865.707	10794.12
866.027	10762.71
866.348	10671.87
866.668	10690.17
866.989	10562.26
867.309	10580.34
867.63	10566.78
867.95	10614.69
868.27	10527.69
868.59	10573.11
868.91	10452.21
869.23	10481.36
869.55	10392.1
869.87	10423.06
870.19	10489.95
870.51	10468.71
870.83	10533.34
871.15	10355.94
871.469	10416.73
871.789	10374.02
872.109	10282.05
872.428	10350.52
872.748	10329.95
873.067	10360.01
873.386	10340.58
873.706	10257.64
874.025	10216.74
874.344	10257.87
874.663	10314.14
874.982	10241.82
875.301	10233.91
875.62	10141.48
875.939	10138.1
876.258	10137.64
876.577	10087.93
876.896	10086.57
877.214	10110.3
877.533	10087.02
877.852	10068.27
878.17	10081.15
878.489	10014.93
878.807	10040.92
879.125	9969.06
879.444	9964.09
879.762	9912.56
880.08	9946.91
880.398	9903.3
880.716	9872.11
881.034	9871.21
881.352	9911.43
881.67	9826.01
881.988	9874.6
882.306	9778.56
882.624	9813.81
882.941	9713.7
883.259	9662.4
883.577	9714.15
883.894	9768.16
884.212	9644.1
884.529	9632.57
884.846	9608.39
885.164	9622.85
885.481	9634.15
885.798	9610.2
886.115	9521.84
886.432	9507.15
886.75	9561.16
887.067	9522.29
887.383	9434.84
887.7	9464.21
888.017	9445.23
888.334	9488.85
888.651	9408.85
888.967	9362.52
889.284	9295.86
889.6	9256.99
889.917	9183.32
890.233	9262.41
890.55	9186.71
890.866	9171.34
891.182	9087.73
891.498	9122.53
891.815	9109.87
892.131	9012.02
892.447	9037.11
892.763	8951.46
893.079	8968.41
893.395	8976.77
893.71	8967.5
894.026	8853.83
894.342	8863.78
894.657	8878.02
894.973	8825.59
895.289	8826.04
895.604	8728.41
895.92	8718.7
896.235	8645.93
896.55	8737.68
896.865	8671.47
897.181	8567.74
897.496	8628.98
897.811	8520.06
898.126	8509.21
898.441	8518.48
898.756	8490.91
899.071	8417.91
899.386	8493.62
899.7	8399.38
900.015	8312.61
900.33	8230.8
900.644	8316.22
900.959	8266.96
901.273	8228.77
901.588	8198.94
901.902	8188.32
902.216	8111.03
902.531	8081.43
902.845	8065.38
903.159	8073.97
903.473	8045.95
903.787	8013.86
904.101	7965.72
904.415	7970.92
904.729	7854.09
905.042	7859.74
905.356	7852.05
905.67	7823.13
905.984	7869
906.297	7783.13
906.611	7741.77
906.924	7709.46
907.237	7730.93
907.551	7691.83
907.864	7629.46
908.177	7631.04
908.491	7605.28
908.804	7523.7
909.117	7518.5
909.43	7406.64
909.743	7450.93
910.056	7367.32
910.368	7391.05
910.681	7350.15
910.994	7335
911.307	7260.66
911.619	7230.6
911.932	7227.89
912.244	7154.9
912.557	7198.51
912.869	7073.77
913.181	7099.08
913.494	7093.43
913.806	7019.31
914.118	7009.59
914.43	6968.91
914.742	6946.99
915.054	6926.65
915.366	6897.05
915.678	6824.51
915.99	6871.06
916.302	6773.66
916.613	6747.68
916.925	6752.87
917.236	6723.5
917.548	6748.58
917.859	6710.39
918.171	6635.81
918.482	6632.65
918.794	6602.59
919.105	6559.21
919.416	6499.09
919.727	6509.49
920.038	6496.61
920.349	6452.77
920.66	6425.65
920.971	6492.77
921.282	6405.76
921.593	6364.86
921.903	6304.98
922.214	6336.84
922.525	6219.33
922.835	6239.21
923.146	6217.52
923.456	6133.45
923.767	6130.06
924.077	6195.37
924.387	6103.62
924.697	6102.72
925.008	6097.75
925.318	6017.98
925.628	6050.52
925.938	5976.85
926.248	5923.06
926.558	5928.26
926.867	5891.43
927.177	5849.39
927.487	5837.64
927.796	5808.72
928.106	5746.12
928.416	5770.3
928.725	5717.42
929.034	5720.58
929.344	5738.44
929.653	5726.46
929.962	5626.8
930.271	5611.89
930.581	5662.28
930.89	5592.9
931.199	5534.6
931.508	5595.39
931.817	5585.22
932.125	5458.44
932.434	5502.28
932.743	5461.16
933.051	5431.1
933.36	5391.55
933.669	5319.92
933.977	5339.35
934.286	5348.16
934.594	5331.22
934.902	5241.05
935.21	5231.33
935.519	5248.96
935.827	5245.57
936.135	5231.11
936.443	5210.09
936.751	5159.69
937.059	5201.05
937.367	5119.24
937.674	5071.79
937.982	5109.75
938.29	5048.74
938.597	5040.15
938.905	4990.66
939.213	4971.9
939.52	4960.38
939.827	4948.17
940.135	4926.71
940.442	4892.58
940.749	4837.67
941.056	4902.3
941.363	4839.48
941.67	4823.88
941.977	4806.26
942.284	4764
942.591	4708.86
942.898	4747.05
943.205	4716.54
943.511	4681.74
943.818	4681.06
944.125	4652.82
944.431	4647.62
944.738	4632.03
945.044	4591.8
945.35	4585.92
945.657	4554.96
945.963	4556.55
946.269	4494.85
946.575	4502.31
946.881	4464.35
947.187	4464.8
947.493	4448.3
947.799	4404.23
948.105	4397.23
948.41	4363.78
948.716	4343.45
949.022	4335.54
949.327	4308.19
949.633	4261.41
949.938	4280.85
950.244	4277.23
950.549	4242.43
950.854	4241.53
951.16	4222.32
951.465	4200.62
951.77	4176.44
952.075	4126.05
952.38	4099.84
952.685	4140.29
952.99	4051.02
953.294	4105.26
953.599	4070.23
953.904	4047.41
954.209	3998.14
954.513	3993.4
954.818	3971.93
955.122	3984.36
955.426	3974.64
955.731	3934.87
956.035	3920.63
956.339	3900.52
956.643	3905.26
956.948	3886.06
957.252	3852.84
957.556	3854.19
957.86	3809.22
958.163	3808.77
958.467	3800.86
958.771	3806.74
959.075	3739.85
959.378	3761.09
959.682	3745.27
959.985	3726.74
960.289	3670.24
960.592	3673.86
960.896	3646.74
961.199	3664.82
961.502	3633.18
961.805	3638.38
962.108	3556.12
962.411	3570.36
962.714	3557.7
963.017	3558.61
963.32	3564.71
963.623	3519.06
963.926	3532.62
964.228	3482.68
964.531	3477.71
964.833	3442.23
965.136	3442.45
965.438	3437.71
965.741	3433.64
966.043	3390.93
966.345	3378.72
966.648	3356.13
966.95	3376.92
967.252	3341.21
967.554	3341.21
967.856	3338.95
968.158	3277.03
968.46	3314.77
968.761	3266.41
969.063	3251.72
969.365	3265.51
969.666	3250.59
969.968	3213.98
970.269	3197.71
970.571	3188.22
970.872	3171.95
971.174	3154.78
971.475	3135.12
971.776	3156.81
972.077	3152.97
972.378	3089.01
972.679	3121.56
972.98	3104.16
973.281	3079.3
973.582	3071.39
973.883	3045.63
974.183	3042.46
974.484	3022.58
974.785	3005.4
975.085	2997.04
975.386	2994.78
975.686	2948.91
975.986	2947.1
976.287	2940.32
976.587	2933.31
976.887	2913.65
977.187	2925.86
977.487	2875.24
977.787	2829.59
978.087	2851.05
978.387	2837.04
978.687	2801.11
978.987	2815.58
979.286	2811.51
979.586	2776.25
979.885	2769.7
980.185	2776.71
980.484	2720.89
980.784	2746.2
981.083	2736.93
981.382	2706.2
981.682	2747.55
981.981	2675.69
982.28	2701.68
982.579	2650.38
982.878	2665.75
983.177	2648.12
983.475	2642.92
983.774	2622.59
984.073	2585.75
984.372	2597.73
984.67	2610.61
984.969	2614.23
985.267	2590.5
985.566	2547.33
985.864	2527.9
986.162	2524.96
986.461	2525.19
986.759	2513.66
987.057	2508.47
987.355	2480.67
987.653	2504.17
987.951	2478.18
988.249	2439.99
988.547	2414
988.844	2433.66
989.142	2405.19
989.44	2386.66
989.737	2392.76
990.035	2409.94
990.332	2355.7
990.63	2384.4
990.927	2352.76
991.224	2362.03
991.521	2341.46
991.819	2335.59
992.116	2326.1
992.413	2302.14
992.71	2302.14
993.006	2281.8
993.303	2270.28
993.6	2252.65
993.897	2273.44
994.193	2223.5
994.49	2209.49
994.787	2218.53
995.083	2209.72
995.379	2201.58
995.676	2202.71
995.972	2165.42
996.268	2127.46
996.565	2159.1
996.861	2125.2
997.157	2122.03
997.453	2132.88
997.749	2101.47
998.044	2086.1
998.34	2089.72
998.636	2086.78
998.932	2085.2
999.227	2054.47
999.523	2077.97
999.818	2030.74
1000.114	2019.89
1000.409	2002.72
1000.704	2014.01
1001	1987.8
1001.295	1965.65
1001.59	1956.16
1001.885	1976.05
1002.18	1972.66
1002.475	1932.89
1002.77	1933.34
1003.065	1903.74
1003.359	1938.76
1003.654	1911.19
1003.949	1934.24
1004.243	1860.35
1004.538	1891.08
1004.832	1862.61
1005.127	1861.7
1005.421	1817.64
1005.715	1808.6
1006.009	1835.94
1006.304	1774.47
1006.598	1818.31
1006.892	1792.55
1007.186	1776.05
1007.48	1753.91
1007.773	1770.18
1008.067	1752.1
1008.361	1720.46
1008.655	1723.85
1008.948	1737.86
1009.242	1692.22
1009.535	1695.83
1009.829	1670.3
1010.122	1692.44
1010.415	1699.45
1010.708	1647.02
1011.001	1667.81
1011.295	1645.21
1011.588	1673.46
1011.881	1594.59
1012.173	1631.2
1012.466	1620.13
1012.759	1590.98
1013.052	1608.15
1013.344	1559.56
1013.637	1572.44
1013.93	1573.35
1014.222	1563.41
1014.514	1551.88
1014.807	1547.36
1015.099	1519.56
1015.391	1518.21
1015.683	1478.89
1015.976	1498.1
1016.268	1491.09
1016.56	1475.27
1016.851	1455.16
1017.143	1450.41
1017.435	1430.53
1017.727	1438.44
1018.018	1450.41
1018.31	1421.26
1018.602	1414.93
1018.893	1433.92
1019.185	1395.5
1019.476	1390.53
1019.767	1378.78
1020.058	1376.52
1020.35	1362.51
1020.641	1319.34
1020.932	1343.75
1021.223	1345.11
1021.514	1308.72
1021.804	1308.04
1022.095	1303.98
1022.386	1329.29
1022.677	1274.37
1022.967	1286.58
1023.258	1272.11
1023.548	1265.33
1023.839	1275.73
1024.129	1255.84
1024.419	1256.29
1024.709	1208.16
1025	1219.69
1025.29	1227.59
1025.58	1225.56
1025.87	1230.98
1026.16	1191.21
1026.449	1186.24
1026.739	1199.8
1027.029	1200.93
1027.319	1186.01
1027.608	1156.64
1027.898	1156.18
1028.187	1158.22
1028.477	1131.55
1028.766	1118.22
1029.055	1123.64
1029.344	1113.25
1029.634	1134.04
1029.923	1106.69
1030.212	1091.33
1030.501	1109.41
1030.79	1079.12
1031.078	1055.85
1031.367	1075.96
1031.656	1061.27
1031.945	1049.52
1032.233	1045.23
1032.522	1055.4
1032.81	1053.81
1033.099	1019.92
1033.387	998.9
1033.675	1036.87
1033.963	1026.47
1034.251	1025.79
1034.54	995.74
1034.828	1003.42
1035.116	973.82
1035.403	979.47
1035.691	987.15
1035.979	966.13
1036.267	960.03
1036.554	954.16
1036.842	969.52
1037.129	923.65
1037.417	936.53
1037.704	943.53
1037.992	926.59
1038.279	943.08
1038.566	927.26
1038.853	927.26
1039.14	927.26
