Data from hue_100_FLMS001491_00030.txt Node
Date: Tue Feb 07 17:02:57 GMT 2017
User: dcchb
Spectrometer: FLMS00149
Trigger mode: 0
Integration Time (sec): 2.000000E-2
Scans to average: 10
Electric dark correction enabled: true
Nonlinearity correction enabled: false
Boxcar width: 0
XAxis mode: Wavelengths
Number of Pixels in Spectrum: 2048
>>>>>Begin Spectral Data<<<<<
341.393	-15.01
341.776	-15.01
342.16	-15.01
342.543	-55.24
342.927	-64.5
343.31	-60.66
343.693	-63.37
344.077	-55.92
344.46	-57.95
344.843	-33.54
345.226	-51.17
345.61	-19.76
345.993	-20.89
346.376	-10.04
346.759	2.61
347.142	21.6
347.525	26.57
347.908	69.28
348.291	81.03
348.674	72.44
349.057	99.79
349.44	127.13
349.823	140.46
350.206	171.42
350.588	201.7
350.971	210.29
351.354	224.75
351.737	235.6
352.119	236.51
352.502	266.79
352.884	274.92
353.267	303.85
353.65	279.67
354.032	303.62
354.414	318.31
354.797	305.2
355.179	309.05
355.562	319.67
355.944	321.47
356.326	325.77
356.709	325.77
357.091	332.1
357.473	343.39
357.855	330.97
358.238	352.43
358.62	329.38
359.002	350.85
359.384	334.36
359.766	328.71
360.148	338.2
360.53	347.69
360.912	340.91
361.294	346.33
361.676	314.24
362.057	331.19
362.439	326.22
362.821	329.61
363.203	328.03
363.584	332.77
363.966	320.12
364.348	316.05
364.729	325.99
365.111	320.8
365.493	326.22
365.874	335.94
366.256	300.91
366.637	323.28
367.019	337.29
367.4	312.44
367.781	314.7
368.163	306.79
368.544	299.33
368.925	305.88
369.306	307.92
369.688	308.37
370.069	313.79
370.45	314.92
370.831	303.17
371.212	330.51
371.593	307.46
371.974	336.62
372.355	327.8
372.736	327.58
373.117	308.37
373.498	324.86
373.879	311.31
374.26	309.72
374.641	309.72
375.021	308.59
375.402	316.95
375.783	327.12
376.163	335.49
376.544	340.68
376.925	351.76
377.305	333
377.686	322.15
378.066	342.72
378.447	347.46
378.827	342.04
379.208	324.86
379.588	326.9
379.968	350.17
380.349	353.11
380.729	316.95
381.109	320.34
381.489	335.71
381.87	347.01
382.25	352.66
382.63	344.52
383.01	333.45
383.39	355.37
383.77	335.03
384.15	332.55
384.53	345.2
384.91	353.79
385.29	347.46
385.67	360.12
386.049	349.95
386.429	378.42
386.809	373
387.189	367.58
387.568	354.69
387.948	351.53
388.328	378.87
388.707	369.61
389.087	361.25
389.466	383.85
389.846	377.74
390.225	355.6
390.605	381.81
390.984	381.81
391.363	382.94
391.743	377.07
392.122	384.3
392.501	392.89
392.881	391.76
393.26	363.28
393.639	366.67
394.018	400.57
394.397	403.96
394.776	381.81
395.155	395.37
395.534	391.98
395.913	407.57
396.292	406.22
396.671	392.89
397.05	404.18
397.429	384.98
397.808	396.95
398.186	406.44
398.565	393.11
398.944	409.83
399.323	412.32
399.701	413
400.08	427.46
400.458	427.46
400.837	421.36
401.215	418.42
401.594	410.29
401.972	404.64
402.351	419.33
402.729	410.06
403.107	443.28
403.486	455.48
403.864	453.67
404.242	443.51
404.62	456.61
404.999	447.12
405.377	421.58
405.755	448.93
406.133	440.34
406.511	463.39
406.889	467.46
407.267	477.18
407.645	470.62
408.023	439.44
408.401	447.12
408.779	468.59
409.156	471.3
409.534	483.73
409.912	494.58
410.29	492.32
410.667	506.33
411.045	462.26
411.422	491.64
411.8	505.88
412.178	502.94
412.555	510.62
412.933	534.12
413.31	525.99
413.687	520.11
414.065	516.27
414.442	525.31
414.819	531.41
415.197	559.21
415.574	550.85
415.951	546.55
416.328	537.06
416.705	558.08
417.082	540.45
417.46	535.48
417.837	569.6
418.214	574.8
418.591	563.95
418.967	567.34
419.344	555.37
419.721	577.06
420.098	574.58
420.475	556.04
420.852	589.49
421.228	583.84
421.605	584.07
421.982	604.41
422.358	605.53
422.735	619.09
423.111	627.91
423.488	628.36
423.864	629.49
424.241	633.1
424.617	629.26
424.994	627.91
425.37	646.21
425.746	643.95
426.123	658.41
426.499	638.75
426.875	681.24
427.251	654.57
427.627	660.9
428.003	667.23
428.379	660.45
428.756	667.45
429.132	689.15
429.507	687.79
429.883	678.98
430.259	705.19
430.635	711.97
431.011	735.25
431.387	722.82
431.763	737.06
432.138	765.3
432.514	747.9
432.89	743.61
433.265	749.71
433.641	782.03
434.016	768.24
434.392	794
434.767	833.33
435.143	788.13
435.518	812.54
435.894	815.02
436.269	822.25
436.644	824.51
437.02	817.05
437.395	829.71
437.77	868.58
438.145	838.3
438.52	857.28
438.895	857.73
439.271	866.32
439.646	907.22
440.021	908.35
440.395	908.8
440.77	899.76
441.145	906.09
441.52	921.46
441.895	924.17
442.27	930.05
442.645	937.5
443.019	944.06
443.394	932.98
443.769	963.72
444.143	953.1
444.518	972.08
444.892	954.9
445.267	940.89
445.641	971.18
446.016	961.23
446.39	992.64
446.764	999.87
447.139	1003.04
447.513	1022.93
447.887	1008.69
448.262	1021.57
448.636	1041
449.01	1031.29
449.384	1049.14
449.758	1059.08
450.132	1057.27
450.506	1064.51
450.88	1075.13
451.254	1076.71
451.628	1120.78
452.002	1115.13
452.376	1116.48
452.75	1123.49
453.123	1148.8
453.497	1149.48
453.871	1150.38
454.244	1168.01
454.618	1182.69
454.992	1188.12
455.365	1198.97
455.739	1226.31
456.112	1217.04
456.486	1257.04
456.859	1255.69
457.232	1269.7
457.606	1271.51
457.979	1289.13
458.352	1333.2
458.725	1334.78
459.099	1349.92
459.472	1393.08
459.845	1388.79
460.218	1404.16
460.591	1427.89
460.964	1412.52
461.337	1443.03
461.71	1458.17
462.083	1484.61
462.456	1490.94
462.829	1546.08
463.201	1523.02
463.574	1542.91
463.947	1555.57
464.32	1603.7
464.692	1635.56
465.065	1638.5
465.438	1676.69
465.81	1702.23
466.183	1713.53
466.555	1739.52
466.928	1776.35
467.3	1763.47
467.672	1788.78
468.045	1883.24
468.417	1873.52
468.789	1875.78
469.161	1927.53
469.534	1974.76
469.906	2046.63
470.278	2019.74
470.65	2052.95
471.022	2104.7
471.394	2184.48
471.766	2184.48
472.138	2206.17
472.51	2273.29
472.882	2320.97
473.253	2377.69
473.625	2434.64
473.997	2497.46
474.369	2480.97
474.74	2568.2
475.112	2610.68
475.484	2674.63
475.855	2727.29
476.227	2793.95
476.598	2894.74
476.97	2880.73
477.341	2988.98
477.713	3096.09
478.084	3098.35
478.455	3242.53
478.827	3298.57
479.198	3440.71
479.569	3443.88
479.94	3625.34
480.311	3662.18
480.682	3738.11
481.053	3890.19
481.424	3983.98
481.795	4030.3
482.166	4158.44
482.537	4256.51
482.908	4415.6
483.279	4484.3
483.65	4600.01
484.021	4762.49
484.391	4883.39
484.762	5013.78
485.133	5082.25
485.503	5170.39
485.874	5377.39
486.244	5503.49
486.615	5605.86
486.985	5781.67
487.356	5952.29
487.726	5985.28
488.097	6207.87
488.467	6288.32
488.837	6492.61
489.207	6657.58
489.578	6796.33
489.948	6996.33
490.318	7088.98
490.688	7172.37
491.058	7382.76
491.428	7489.65
491.798	7720.15
492.168	7873.59
492.538	8066.81
492.908	8208.05
493.278	8385.22
493.648	8462.28
494.017	8668.6
494.387	8832.44
494.757	8976.39
495.126	9119.66
495.496	9170.51
495.866	9325.76
496.235	9469.26
496.605	9690.04
496.974	9798.51
497.344	9983.59
497.713	9978.17
498.082	10178.16
498.452	10335
498.821	10523.69
499.19	10506.07
499.559	10711.48
499.928	10732.05
500.298	10949.44
500.667	11126.16
501.036	11182.88
501.405	11334.52
501.774	11292.03
502.143	11519.82
502.512	11605.92
502.88	11744.68
503.249	11823.09
503.618	11945.58
503.987	12073.93
504.356	12085.46
504.724	12226.47
505.093	12313.93
505.462	12389.41
505.83	12513.92
506.199	12674.14
506.567	12875.04
506.936	12835.5
507.304	12976.28
507.672	13058.77
508.041	13111.19
508.409	13295.14
508.777	13337.86
509.145	13454.46
509.514	13409.04
509.882	13533.78
510.25	13620.79
510.618	13729.26
510.986	13778.52
511.354	13873.66
511.722	14030.27
512.09	13981.91
512.458	14013.09
512.826	14271.16
513.193	14273.65
513.561	14280.66
513.929	14314.78
514.297	14478.39
514.664	14558.61
515.032	14602.46
515.4	14706.86
515.767	14772.39
516.135	14815.1
516.502	14682.9
516.869	14888.55
517.237	14920.64
517.604	14977.36
517.972	15132.16
518.339	15154.08
518.706	15080.18
519.073	15213.96
519.44	15241.53
519.808	15361.08
520.175	15338.93
520.542	15458.93
520.909	15558.59
521.276	15420.06
521.643	15677.46
522.009	15674.97
522.376	15742.99
522.743	15888.07
523.11	15797.45
523.477	15926.26
523.843	16005.58
524.21	16140.95
524.577	16195.41
524.943	16218.91
525.31	16272.02
525.676	16283.77
526.043	16359.02
526.409	16365.57
526.776	16482.18
527.142	16438.56
527.508	16529.18
527.874	16542.74
528.241	16609.18
528.607	16561.05
528.973	16725.11
529.339	16661.16
529.705	16666.13
530.071	16765.11
530.437	16789.06
530.803	16788.84
531.169	16912.22
531.535	16718.56
531.901	16744.09
532.267	16709.74
532.632	16808.5
532.998	16813.7
533.364	16839.46
533.73	16921.94
534.095	16953.35
534.461	16881.49
534.826	16868.84
535.192	16966.91
535.557	16954.71
535.923	16850.76
536.288	16888.95
536.653	16962.17
537.019	16857.31
537.384	16855.73
537.749	16818.44
538.114	16722.63
538.479	16702.06
538.845	16786.35
539.21	16722.63
539.575	16727.37
539.94	16680.37
540.305	16819.12
540.67	16549.3
541.034	16717.88
541.399	16658.22
541.764	16732.79
542.129	16589.97
542.494	16568.28
542.858	16628.62
543.223	16503.2
543.587	16617.09
543.952	16465.68
544.316	16512.91
544.681	16436.53
545.045	16467.26
545.41	16517.43
545.774	16468.85
546.138	16320.6
546.503	16300.26
546.867	16348.62
547.231	16370.32
547.595	16291.22
547.959	16315.4
548.324	16136.88
548.688	16129.87
549.052	16154.73
549.416	16194.05
549.779	16037.67
550.143	16113.15
550.507	16232.47
550.871	16011.68
551.235	15979.37
551.599	16103.66
551.962	15996.77
552.326	15995.86
552.689	16012.14
553.053	15933.95
553.417	15852.37
553.78	16106.14
554.143	15939.82
554.507	15867.96
554.87	15896.66
555.234	16006.49
555.597	15835.19
555.96	15846.72
556.323	15880.16
556.686	15884
557.05	15838.13
557.413	15858.47
557.776	15778.24
558.139	15850.11
558.502	15792.71
558.865	15816.89
559.228	15856.43
559.59	15916.09
559.953	15838.81
560.316	15962.42
560.679	15870.67
561.041	15897.11
561.404	15938.01
561.767	16020.5
562.129	15933.72
562.492	16027.5
562.854	16008.07
563.217	15926.71
563.579	16007.16
563.941	16086.26
564.304	16087.61
564.666	16139.82
565.028	16079.25
565.39	16031.34
565.753	16173.26
566.115	16145.92
566.477	16154.5
566.839	16162.19
567.201	16181.85
567.563	16227.5
567.925	16270.21
568.287	16248.06
568.648	16209.64
569.01	16399.24
569.372	16367.61
569.734	16358.79
570.095	16442.18
570.457	16441.73
570.819	16369.19
571.18	16448.73
571.542	16501.84
571.903	16469.75
572.265	16539.35
572.626	16488.96
572.987	16481.73
573.349	16509.3
573.71	16540.71
574.071	16548.62
574.432	16591.56
574.794	16636.3
575.155	16522.4
575.516	16618.22
575.877	16725.11
576.238	16705
576.599	16695.51
576.96	16713.13
577.32	16656.19
577.681	16789.74
578.042	16695.28
578.403	16696.64
578.763	16745.9
579.124	16711.78
579.485	16786.58
579.845	16807.59
580.206	16768.27
580.566	16754.26
580.927	16735.28
581.287	16819.35
581.648	16727.6
582.008	16799.69
582.368	16702.51
582.728	16839.23
583.089	16720.14
583.449	16791.1
583.809	16773.25
584.169	16773.47
584.529	16663.64
584.889	16824.32
585.249	16590.88
585.609	16655.73
585.969	16736.64
586.329	16577.54
586.688	16671.33
587.048	16602.4
587.408	16551.56
587.768	16611.89
588.127	16489.19
588.487	16515.17
588.846	16689.86
589.206	16497.77
589.565	16505.91
589.925	16536.87
590.284	16509.3
590.643	16495.96
591.003	16559.69
591.362	16591.33
591.721	16527.6
592.08	16485.57
592.44	16533.48
592.799	16510.43
593.158	16502.74
593.517	16502.07
593.876	16458
594.235	16452.8
594.593	16386.81
594.952	16555.62
595.311	16423.88
595.67	16410.32
596.029	16479.92
596.387	16403.09
596.746	16461.39
597.104	16450.32
597.463	16404.89
597.822	16459.13
598.18	16373.26
598.538	16312.92
598.897	16427.04
599.255	16231.79
599.613	16479.24
599.972	16440.82
600.33	16460.71
600.688	16431.79
601.046	16326.03
601.404	16403.54
601.762	16495.96
602.12	16479.02
602.478	16423.65
602.836	16387.94
603.194	16410.09
603.552	16452.12
603.91	16240.83
604.268	16430.43
604.625	16366.25
604.983	16392.24
605.341	16318.79
605.698	16528.05
606.056	16436.98
606.413	16419.81
606.771	16475.17
607.128	16486.93
607.485	16448.06
607.843	16374.61
608.2	16585.23
608.557	16509.98
608.914	16415.97
609.272	16516.98
609.629	16582.74
609.986	16545.45
610.343	16626.81
610.7	16762.62
611.057	16568.96
611.414	16604.89
611.771	16504.33
612.127	16702.96
612.484	16542.97
612.841	16767.14
613.198	16704.32
613.554	16779.8
613.911	16782.06
614.267	16820.7
614.624	16704.77
614.98	16687.82
615.337	16811.21
615.693	16774.15
616.05	16807.14
616.406	16858.44
616.762	16846.01
617.118	16794.26
617.475	16783.41
617.831	16898.89
618.187	16822.28
618.543	16936.63
618.899	16943.86
619.255	16987.48
619.611	16930.53
619.967	16979.79
620.323	16939.79
620.678	16912.9
621.034	16915.39
621.39	16874.71
621.746	16923.07
622.101	17061.15
622.457	16955.61
622.812	16959
623.168	17054.14
623.523	16940.02
623.879	17017.08
624.234	16825.67
624.589	16891.89
624.945	16947.25
625.3	16914.94
625.655	16867.93
626.01	16938.89
626.365	16869.29
626.72	16953.13
627.075	16857.76
627.43	16917.42
627.785	16855.05
628.14	17023.63
628.495	16933.92
628.85	16832
629.205	16811.89
629.559	16952.68
629.914	16808.05
630.269	16857.99
630.623	16794.94
630.978	16782.28
631.332	16832
631.687	16861.83
632.041	16716.75
632.396	16828.84
632.75	16643.98
633.104	16721.72
633.459	16690.76
633.813	16668.39
634.167	16674.94
634.521	16643.98
634.875	16762.85
635.229	16625
635.583	16558.34
635.937	16552.91
636.291	16462.29
636.645	16533.93
636.999	16494.83
637.352	16623.19
637.706	16422.29
638.06	16443.08
638.413	16542.97
638.767	16420.49
639.121	16485.34
639.474	16253.71
639.828	16382.52
640.181	16330.55
640.534	16283.99
640.888	16245.12
641.241	16137.33
641.594	16182.3
641.947	16309.53
642.301	16240.38
642.654	16232.92
643.007	16211.9
643.36	16159.48
643.713	16187.05
644.066	16208.97
644.419	16161.06
644.771	16142.3
645.124	15961.74
645.477	15884.46
645.83	15771.69
646.182	15728.75
646.535	15685.14
646.888	15656.89
647.24	15574.86
647.593	15678.36
647.945	15611.69
648.298	15564.01
648.65	15499.38
649.002	15626.16
649.355	15655.76
649.707	15561.07
650.059	15689.66
650.411	15901.18
650.763	15908.86
651.115	16058.01
651.467	15983.21
651.819	15956.09
652.171	15954.74
652.523	15970.78
652.875	15953.61
653.227	15894.85
653.578	16048.52
653.93	15963.32
654.282	15887.17
654.633	15915.19
654.985	15911.35
655.337	15939.6
655.688	16038.58
656.039	15946.37
656.391	15888.97
656.742	15944.57
657.094	15931.01
657.445	15962.87
657.796	16006.26
658.147	15991.57
658.498	15952.48
658.849	15874.96
659.2	15984.57
659.551	16046.03
659.902	15976.88
660.253	16026.6
660.604	15991.8
660.955	16014.4
661.306	16032.25
661.656	15942.53
662.007	16074.28
662.358	16033.15
662.708	15923.32
663.059	15972.59
663.409	15880.84
663.76	16052.81
664.11	15951.35
664.461	16125.35
664.811	16054.39
665.161	16018.91
665.511	15938.47
665.862	15955.87
666.212	16105.92
666.562	16075.41
666.912	16018.46
667.262	16022.3
667.612	16013.04
667.962	16042.19
668.312	15931.01
668.662	16068.41
669.011	16192.92
669.361	15946.37
669.711	16034.73
670.06	15886.72
670.41	15825.02
670.76	15883.55
671.109	15951.35
671.459	15898.69
671.808	15940.5
672.157	15923.32
672.507	15779.83
672.856	15877
673.205	15873.83
673.554	15880.39
673.904	15838.13
674.253	15990.22
674.602	15811.91
674.951	15606.04
675.3	15477.23
675.649	15725.59
675.998	15858.69
676.346	15870.22
676.695	15815.98
677.044	15620.06
677.393	15766.72
677.741	15697.57
678.09	15686.27
678.438	15636.55
678.787	15710.45
679.135	15616.44
679.484	15517.01
679.832	15608.76
680.181	15443.79
680.529	15502.77
680.877	15480.62
681.225	15420.06
681.573	15553.16
681.922	15421.42
682.27	15389.78
682.618	15434.52
682.966	15383.23
683.314	15340.74
683.661	15290.57
684.009	15175.55
684.357	15201.99
684.705	15177.13
685.053	15219.61
685.4	15153.18
685.748	15158.82
686.095	15050.58
686.443	15058.04
686.79	14956.8
687.138	15024.59
687.485	15051.03
687.832	14845.39
688.18	14935.55
688.527	14910.7
688.874	14736.69
689.221	14720.42
689.568	14732.85
689.915	14758.61
690.262	14668.44
690.609	14629.12
690.956	14589.8
691.303	14549.58
691.65	14395
691.997	14537.15
692.344	14259.64
692.69	14263.93
693.037	14342.8
693.383	14173.54
693.73	14283.59
694.077	14194.33
694.423	14181.9
694.769	14033.43
695.116	14102.58
695.462	14018.97
695.808	13886.32
696.155	13897.84
696.501	13818.75
696.847	13915.24
697.193	13726.09
697.539	13724.74
697.885	13616.49
698.231	13530.84
698.577	13605.42
698.923	13560.45
699.269	13561.35
699.614	13381.7
699.96	13391.19
700.306	13414.46
700.651	13321.81
700.997	13326.1
701.342	13213.11
701.688	13237.52
702.033	13087.47
702.379	13047.69
702.724	13010.86
703.069	13041.82
703.415	12832.11
703.76	12864.42
704.105	12870.75
704.45	12843.63
704.795	12764.09
705.14	12677.31
705.485	12724.76
705.83	12688.16
706.175	12591.89
706.52	12615.39
706.865	12559.57
707.209	12507.82
707.554	12456.52
707.899	12470.31
708.243	12387.37
708.588	12398.45
708.932	12204.78
709.277	12236.87
709.621	12305.79
709.966	12163.88
710.31	12119.81
710.654	12058.57
710.998	12093.37
711.342	12069.87
711.687	12014.95
712.031	11917.33
712.375	11875.07
712.719	12009.75
713.063	11940.6
713.407	11916.65
713.75	11874.62
714.094	11869.19
714.438	11763.66
714.782	11761.63
715.125	11735.64
715.469	11745.58
715.812	11679.14
716.156	11623.55
716.499	11608.64
716.843	11721.4
717.186	11594.85
717.53	11723.43
717.873	11635.98
718.216	11645.92
718.559	11595.3
718.902	11494.74
719.246	11434.63
719.589	11481.63
719.932	11438.92
720.275	11556.21
720.617	11448.64
720.96	11447.51
721.303	11421.75
721.646	11489.54
721.989	11315.76
722.331	11329.09
722.674	11399.83
723.016	11414.52
723.359	11326.16
723.701	11414.97
724.044	11302.88
724.386	11271.02
724.729	11299.94
725.071	11282.54
725.413	11205.26
725.755	11198.48
726.097	11239.38
726.439	11169.78
726.782	11141.3
727.124	11198.7
727.465	11158.93
727.807	11186.73
728.149	11198.93
728.491	11182.21
728.833	11185.6
729.175	11163.45
729.516	11102.89
729.858	11137.46
730.199	11132.72
730.541	11147.63
730.882	11067.63
731.224	11133.62
731.565	11058.37
731.906	11079.61
732.248	11097.01
732.589	11033.51
732.93	11023.79
733.271	11086.16
733.612	11133.17
733.953	11130.46
734.294	11001.65
734.635	11054.3
734.976	11019.05
735.317	11047.29
735.658	11048.65
735.999	11048.65
736.339	11023.34
736.68	11089.78
737.021	11092.04
737.361	11063.11
737.702	11090.46
738.042	11048.88
738.383	11099.27
738.723	11133.85
739.063	11032.83
739.404	11077.58
739.744	11065.15
740.084	11113.06
740.424	11133.17
740.764	11119.38
741.104	11196.44
741.444	11192.15
741.784	11253.62
742.124	11130.46
742.464	11193.73
742.804	11231.92
743.143	11231.7
743.483	11248.87
743.823	11191.7
744.162	11278.93
744.502	11347.63
744.841	11297.91
745.181	11474.4
745.52	11396.21
745.86	11564.12
746.199	11490.9
746.538	11480.28
746.877	11578.13
747.216	11637.79
747.556	11635.3
747.895	11759.37
748.234	11745.36
748.573	11771.79
748.911	11834.62
749.25	11965.46
749.589	12041.39
749.928	12105.35
750.267	12252.46
750.605	12275.06
750.944	12274.15
751.283	12363.19
751.621	12499.91
751.96	12576.75
752.298	12580.14
752.636	12774.71
752.975	12901.71
753.313	12896.96
753.651	13014.7
753.989	13143.74
754.327	13225.09
754.666	13346.67
755.004	13509.83
755.342	13709.6
755.679	13682.03
756.017	13799.09
756.355	14105.29
756.693	14197.27
757.031	14375.12
757.368	14532.17
757.706	14612.17
758.044	14720.64
758.381	14921.99
758.719	15097.58
759.056	15193.63
759.394	15402.89
759.731	15502.09
760.068	15720.39
760.405	15833.38
760.743	15901.18
761.08	16132.58
761.417	16273.82
761.754	16490.99
762.091	16662.51
762.428	16736.86
762.765	16920.81
763.102	17132.33
763.438	17171.65
763.775	17355.38
764.112	17601.02
764.449	17732.77
764.785	17920.79
765.122	18023.16
765.458	18135.47
765.795	18233.09
766.131	18379.3
766.467	18543.59
766.804	18645.96
767.14	18724.15
767.476	18934.09
767.812	19071.94
768.148	19149.91
768.485	19269.22
768.821	19326.4
769.157	19395.32
769.492	19551.48
769.828	19687.07
770.164	19671.02
770.5	19899.49
770.836	19933.16
771.171	19988.53
771.507	20088.64
771.842	20068.53
772.178	20213.38
772.513	20311.46
772.849	20391
773.184	20413.6
773.519	20528.85
773.855	20475.97
774.19	20678.68
774.525	20713.25
774.86	20736.31
775.195	20755.06
775.53	20971.78
775.865	20849.52
776.2	20774.27
776.535	20604.33
776.87	20800.26
777.205	20848.84
777.539	20894.49
777.874	20847.94
778.209	20772.69
778.543	20801.16
778.878	20933.14
779.212	20891.56
779.547	20911.44
779.881	21068.95
780.215	20915.06
780.55	21037.31
780.884	20865.57
781.218	21003.87
781.552	20927.26
781.886	20948.28
782.22	20851.1
782.554	20993.93
782.888	20763.87
783.222	20796.64
783.556	20862.63
783.889	20718.23
784.223	20689.3
784.557	20557.33
784.89	20683.43
785.224	20611.34
785.557	20551.23
785.891	20626.25
786.224	20600.04
786.558	20624.22
786.891	20528.4
787.224	20421.96
787.557	20222.87
787.891	20407.05
788.224	20433.94
788.557	20449.98
788.89	20317.11
789.223	20306.49
789.556	20178.13
789.888	20247.05
790.221	20183.55
790.554	20060.39
790.887	20013.39
791.219	20003.22
791.552	19979.49
791.884	19852.49
792.217	19865.37
792.549	19783.79
792.882	19723.68
793.214	19692.94
793.546	19694.98
793.879	19652.72
794.211	19563.23
794.543	19627.63
794.875	19526.39
795.207	19578.14
795.539	19574.53
795.871	19480.52
796.203	19292.73
796.535	19293.63
796.867	19209.79
797.198	19249.79
797.53	19238.94
797.862	19091.83
798.193	19103.35
798.525	18950.14
798.856	19029.68
799.188	18806.86
799.519	18745.4
799.85	18700.65
800.182	18730.03
800.513	18735.68
800.844	18606.87
801.175	18740.43
801.506	18640.09
801.837	18584.05
802.168	18515.57
802.499	18462.47
802.83	18460.43
803.161	18350.15
803.491	18426.54
803.822	18385.86
804.153	18297.95
804.483	18219.31
804.814	18095.47
805.145	18119.42
805.475	18113.55
805.805	17972.54
806.136	18017.96
806.466	17887.11
806.796	17935.47
807.126	17829.71
807.457	17853.22
807.787	17811.86
808.117	17723.28
808.447	17714.92
808.777	17717.85
809.107	17578.2
809.436	17537.07
809.766	17646.67
810.096	17485.09
810.426	17434.24
810.755	17410.97
811.085	17383.62
811.414	17430.86
811.744	17218.88
812.073	17310.63
812.403	17276.51
812.732	17168.49
813.061	17173.46
813.39	17096.4
813.719	17051.88
814.049	17142.73
814.378	17053.92
814.707	16952.45
815.036	16912
815.365	16820.7
815.693	16787.03
816.022	16755.84
816.351	16693.47
816.68	16664.32
817.008	16738.9
817.337	16572.35
817.665	16555.85
817.994	16588.39
818.322	16597.43
818.651	16522.4
818.979	16452.58
819.307	16522.4
819.636	16447.83
819.964	16353.82
820.292	16465.91
820.62	16358.34
820.948	16286.25
821.276	16303.88
821.604	16271.34
821.932	16273.6
822.259	16347.04
822.587	16322.86
822.915	16240.6
823.243	16262.07
823.57	16300.04
823.898	16248.06
824.225	16245.8
824.553	16312.47
824.88	16286.25
825.207	16291.22
825.535	16280.15
825.862	16340.94
826.189	16234.05
826.516	16323.31
826.843	16305.24
827.17	16406.25
827.497	16374.39
827.824	16401.05
828.151	16302.75
828.478	16302.3
828.805	16394.5
829.131	16315.18
829.458	16226.37
829.785	16169.19
830.111	16244.67
830.438	16392.01
830.764	16288.74
831.09	16359.24
831.417	16239.25
831.743	16312.24
832.069	16293.71
832.395	16272.92
832.722	16204.67
833.048	16260.94
833.374	16258.46
833.7	16085.35
834.026	16209.42
834.351	16120.38
834.677	16138.91
835.003	16126.71
835.329	16117.67
835.654	16137.78
835.98	16116.54
836.306	16116.54
836.631	16131.68
836.956	16140.04
837.282	16055.75
837.607	16009.42
837.932	15967.39
838.258	15993.15
838.583	15960.84
838.908	15886.72
839.233	15902.08
839.558	15726.04
839.883	15826.15
840.208	15755.87
840.533	15729.88
840.858	15745.25
841.182	15756.1
841.507	15665.48
841.832	15559.27
842.156	15562.66
842.481	15600.62
842.805	15491.92
843.13	15397.46
843.454	15538.02
843.778	15378.03
844.103	15451.02
844.427	15413.73
844.751	15374.86
845.075	15258.93
845.399	15224.36
845.723	15176.45
846.047	15209.44
846.371	15034.99
846.695	15072.5
847.019	14983.69
847.343	14874.54
847.666	14784.6
847.99	14825.05
848.313	14755.67
848.637	14669.35
848.96	14702.79
849.284	14540.76
849.607	14506.19
849.931	14417.38
850.254	14327.66
850.577	14297.83
850.9	14212.63
851.223	14161.79
851.546	14154.33
851.869	13979.87
852.192	14057.16
852.515	13977.16
852.838	13931.96
853.161	13931.74
853.483	13779.65
853.806	13842.93
854.129	13710.73
854.451	13673.89
854.774	13709.6
855.096	13613.33
855.419	13532.88
855.741	13555.93
856.063	13511.86
856.385	13415.59
856.708	13387.8
857.03	13434.12
857.352	13354.58
857.674	13292.43
857.996	13197.07
858.318	13180.8
858.64	13184.64
858.961	13066
859.283	13138.99
859.605	13017.19
859.926	13082.27
860.248	12934.25
860.57	12927.24
860.891	12939
861.212	12888.38
861.534	12739.68
861.855	12762.28
862.176	12838.43
862.498	12766.35
862.819	12808.38
863.14	12704.2
863.461	12696.52
863.782	12696.74
864.103	12703.07
864.424	12582.4
864.745	12622.62
865.065	12527.03
865.386	12558.67
865.707	12517.99
866.027	12555.73
866.348	12422.63
866.668	12442.96
866.989	12434.15
867.309	12407.48
867.63	12375.85
867.95	12414.72
868.27	12327.26
868.59	12307.6
868.91	12289.07
869.23	12341.27
869.55	12168.39
869.87	12318.45
870.19	12205
870.51	12221.05
870.83	12305.34
871.15	12082.75
871.469	12141.95
871.789	12238
872.109	12147.38
872.428	12085.46
872.748	12147.38
873.067	11967.5
873.386	12073.03
873.706	12008.85
874.025	11928.4
874.344	11892.47
874.663	11990.09
874.982	11937.89
875.301	11912.36
875.62	11914.84
875.939	11808.18
876.258	11932.47
876.577	11821.29
876.896	11883.2
877.214	11795.3
877.533	11771.79
877.852	11727.28
878.17	11782.64
878.489	11830.78
878.807	11688.41
879.125	11666.26
879.444	11661.29
879.762	11583.33
880.08	11600.73
880.398	11536.77
880.716	11582.42
881.034	11583.33
881.352	11564.79
881.67	11431.92
881.988	11525.25
882.306	11433.05
882.624	11469.43
882.941	11312.37
883.259	11362.77
883.577	11344.91
883.894	11330
884.212	11255.65
884.529	11231.7
884.846	11273.05
885.164	11215.65
885.481	11159.83
885.798	11198.48
886.115	11055.88
886.432	11091.81
886.75	11115.09
887.067	11060.18
887.383	10995.32
887.7	11025.83
888.017	10999.39
888.334	10964.81
888.651	10899.28
888.967	10933.4
889.284	10877.81
889.6	10870.35
889.917	10792.16
890.233	10761.65
890.55	10755.78
890.866	10692.73
891.182	10637.14
891.498	10662.22
891.815	10604.14
892.131	10582.22
892.447	10556.23
892.763	10539.06
893.079	10465.16
893.395	10423.13
893.71	10393.3
894.026	10424.94
894.342	10367.99
894.657	10269.46
894.973	10236.92
895.289	10277.15
895.604	10332.96
895.92	10173.42
896.235	10082.35
896.55	10119.18
896.865	10052.07
897.181	10034.67
897.496	10052.52
897.811	9972.75
898.126	9925.97
898.441	9850.26
898.756	9863.37
899.071	9799.42
899.386	9830.15
899.7	9773.43
900.015	9688.46
900.33	9666.54
900.644	9661.57
900.959	9634.68
901.273	9550.61
901.588	9538.41
901.902	9467
902.216	9473.78
902.531	9435.59
902.845	9427
903.159	9315.59
903.473	9265.42
903.787	9268.81
904.101	9243.95
904.415	9218.64
904.729	9177.06
905.042	9123.73
905.356	9162.15
905.67	9118.98
905.984	9056.61
906.297	9064.97
906.611	8943.17
906.924	8912.66
907.237	8945.43
907.551	8918.99
907.864	8878.54
908.177	8848.93
908.491	8832.66
908.804	8748.37
909.117	8777.75
909.43	8651.43
909.743	8589.51
910.056	8612.33
910.368	8551.99
910.681	8526.46
910.994	8452.11
911.307	8499.56
911.619	8429.74
911.932	8449.62
912.244	8399
912.557	8348.61
912.869	8349.06
913.181	8319.46
913.494	8214.15
913.806	8247.37
914.118	8170.08
914.43	8066.58
914.742	8135.73
915.054	8029.07
915.366	8019.8
915.678	8013.48
915.99	7938.22
916.302	7946.58
916.613	7866.36
916.925	7918.56
917.236	7861.16
917.548	7826.14
917.859	7757.89
918.171	7693.03
918.482	7706.14
918.794	7654.39
919.105	7681.06
919.416	7563.54
919.727	7535.07
920.038	7538.91
920.349	7506.14
920.66	7461.63
920.971	7466.37
921.282	7393.15
921.593	7362.19
921.903	7284
922.214	7289.2
922.525	7310.44
922.835	7266.83
923.146	7176.89
923.456	7215.08
923.767	7139.15
924.077	7095.99
924.387	7083.33
924.697	7046.5
925.008	7090.11
925.318	7051.47
925.628	7027.74
925.938	6983.67
926.248	6921.75
926.558	6894.41
926.867	6840.4
927.177	6815.77
927.487	6855.31
927.796	6785.71
928.106	6750.23
928.416	6733.51
928.725	6703
929.034	6639.05
929.344	6646.05
929.653	6614.64
929.962	6524.02
930.271	6512.95
930.581	6556.56
930.89	6498.94
931.199	6421.43
931.508	6464.59
931.817	6429.79
932.125	6425.49
932.434	6368.1
932.743	6327.42
933.051	6280.19
933.36	6277.93
933.669	6210.59
933.977	6180.08
934.286	6216.69
934.594	6189.34
934.902	6182.56
935.21	6215.78
935.519	6095.33
935.827	6089.46
936.135	6098.72
936.443	5986.64
936.751	5981.66
937.059	5989.35
937.367	5975.34
937.674	5938.73
937.982	5923.81
938.29	5904.83
938.597	5848.56
938.905	5774.89
939.213	5856.47
939.52	5799.07
939.827	5771.95
940.135	5728.11
940.442	5739.41
940.749	5694.67
941.056	5743.48
941.363	5592.3
941.67	5607.89
941.977	5635.69
942.284	5559.3
942.591	5588.23
942.898	5519.98
943.205	5545.52
943.511	5484.05
943.818	5460.32
944.125	5369.93
944.431	5410.61
944.738	5406.54
945.044	5411.96
945.35	5335.35
945.657	5286.09
945.963	5275.47
946.269	5250.38
946.575	5206.54
946.881	5206.32
947.187	5155.25
947.493	5155.25
947.799	5152.99
948.105	5113.89
948.41	5095.59
948.716	5042.03
949.022	5056.72
949.327	5039.77
949.633	4988.92
949.938	5011.29
950.244	4989.15
950.549	4951.86
950.854	4924.52
951.16	4936.27
951.465	4839.77
951.77	4881.81
952.075	4872.99
952.38	4817.85
952.685	4803.62
952.99	4729.04
953.294	4730.85
953.599	4742.6
953.904	4681.81
954.209	4693.56
954.513	4665.32
954.818	4693.56
955.122	4647.69
955.426	4637.52
955.731	4578.31
956.035	4538.54
956.339	4527.69
956.643	4537.18
956.948	4480.46
957.252	4504.42
957.556	4509.84
957.86	4458.77
958.163	4461.93
958.467	4411.08
958.771	4379.22
959.075	4426.45
959.378	4357.07
959.682	4354.59
959.985	4310.75
960.289	4258.55
960.592	4260.58
960.896	4285.44
961.199	4263.52
961.502	4247.25
961.805	4237.98
962.108	4197.3
962.411	4196.63
962.714	4143.52
963.017	4108.95
963.32	4133.8
963.623	4107.36
963.926	4073.01
964.228	4074.82
964.531	4040.7
964.833	4049.29
965.136	4042.28
965.438	4014.48
965.741	4003.41
966.043	3937.88
966.345	3945.56
966.648	3941.27
966.95	3943.07
967.252	3880.25
967.554	3875.73
967.856	3855.39
968.158	3825.34
968.46	3801.61
968.761	3796.41
969.063	3773.14
969.365	3788.5
969.666	3733.14
969.968	3712.57
970.269	3703.53
970.571	3673.02
970.872	3692.46
971.174	3677.09
971.475	3656.3
971.776	3666.47
972.077	3593.7
972.378	3620.14
972.679	3588.28
972.98	3614.72
973.281	3570.88
973.582	3536.08
973.883	3569.98
974.183	3536.31
974.484	3518.68
974.785	3503.99
975.085	3482.07
975.386	3478.23
975.686	3433.03
975.986	3481.62
976.287	3396.2
976.587	3343.32
976.887	3387.61
977.187	3377.67
977.487	3341.73
977.787	3315.52
978.087	3294.05
978.387	3317.33
978.687	3284.33
978.987	3254.73
979.286	3276.88
979.586	3252.7
979.885	3233.04
980.185	3235.52
980.484	3236.65
980.784	3201.62
981.083	3184.9
981.382	3172.47
981.682	3200.49
981.981	3114.4
982.28	3109.2
982.579	3106.03
982.878	3080.05
983.177	3094.51
983.475	3079.82
983.774	3051.35
984.073	3043.44
984.372	3019.48
984.67	2985.81
984.969	3010.22
985.267	2993.04
985.566	2991.23
985.864	2953.04
986.162	2930.22
986.461	2912.14
986.759	2953.04
987.057	2867.17
987.355	2874.85
987.653	2885.02
987.951	2854.74
988.249	2859.94
988.547	2819.04
988.844	2789.21
989.142	2814.52
989.44	2763.44
989.737	2729.77
990.035	2758.47
990.332	2734.29
990.63	2713.73
990.927	2698.14
991.224	2698.81
991.521	2684.58
991.819	2670.57
992.116	2676.67
992.413	2680.06
992.71	2643.22
993.006	2632.37
993.303	2601.19
993.6	2609.55
993.897	2613.62
994.193	2572.49
994.49	2586.95
994.787	2576.78
995.083	2580.85
995.379	2536.11
995.676	2563.45
995.972	2487.29
996.268	2489.33
996.565	2471.02
996.861	2472.15
997.157	2479.38
997.453	2433.28
997.749	2464.02
998.044	2440.06
998.34	2414.53
998.636	2423.57
998.932	2427.18
999.227	2352.83
999.523	2379.27
999.818	2364.58
1000.114	2318.94
1000.409	2295.89
1000.704	2333.85
1001	2305.15
1001.295	2300.41
1001.59	2273.29
1001.885	2286.39
1002.18	2246.17
1002.475	2248.66
1002.77	2219.96
1003.065	2192.39
1003.359	2214.53
1003.654	2211.14
1003.949	2201.88
1004.243	2160.52
1004.538	2159.62
1004.832	2123.24
1005.127	2109.22
1005.421	2112.84
1005.715	2107.87
1006.009	2071.94
1006.304	2102.9
1006.598	2109
1006.892	2045.5
1007.186	2036.23
1007.48	2017.02
1007.773	2024.93
1008.067	2025.84
1008.361	1987.65
1008.655	1991.94
1008.948	1997.14
1009.242	1997.36
1009.535	1987.87
1009.829	1924.82
1010.122	1949.23
1010.415	1930.47
1010.708	1862
1011.001	1895.22
1011.295	1867.65
1011.588	1892.28
1011.881	1851.6
1012.173	1854.99
1012.466	1873.3
1012.759	1847.31
1013.052	1842.11
1013.344	1807.31
1013.637	1799.18
1013.93	1779.29
1014.222	1764.37
1014.514	1773.64
1014.807	1742.45
1015.099	1752.4
1015.391	1733.64
1015.683	1718.27
1015.976	1704.49
1016.268	1730.7
1016.56	1696.13
1016.851	1695.45
1017.143	1690.03
1017.435	1668.56
1017.727	1648.45
1018.018	1665.62
1018.31	1663.59
1018.602	1649.35
1018.893	1629.46
1019.185	1600.31
1019.476	1604.83
1019.767	1571.61
1020.058	1573.19
1020.35	1545.85
1020.641	1575.23
1020.932	1515.79
1021.223	1524.83
1021.514	1519.86
1021.804	1488.68
1022.095	1524.83
1022.386	1496.13
1022.677	1470.14
1022.967	1485.29
1023.258	1462.69
1023.548	1426.53
1023.839	1478.51
1024.129	1434.67
1024.419	1411.16
1024.709	1416.59
1025	1420.65
1025.29	1408.45
1025.58	1364.61
1025.87	1379.75
1026.16	1388.11
1026.449	1341.11
1026.739	1335.01
1027.029	1324.84
1027.319	1328
1027.608	1338.17
1027.898	1295.23
1028.187	1328.45
1028.477	1340.66
1028.766	1299.3
1029.055	1262.47
1029.344	1278.06
1029.634	1261.56
1029.923	1271.28
1030.212	1250.26
1030.501	1258.4
1030.79	1206.42
1031.078	1241.68
1031.367	1235.8
1031.656	1230.83
1031.945	1220.89
1032.233	1164.16
1032.522	1191.06
1032.81	1166.2
1033.099	1148.57
1033.387	1190.15
1033.675	1145.41
1033.963	1147.67
1034.251	1136.14
1034.54	1130.94
1034.828	1115.8
1035.116	1103.37
1035.403	1103.83
1035.691	1114.9
1035.979	1089.14
1036.267	1069.7
1036.554	1056.14
1036.842	1070.38
1037.129	1054.79
1037.417	1049.14
1037.704	1033.77
1037.992	1034.68
1038.279	1026.09
1038.566	1005.52
1038.853	1005.52
1039.14	1005.52
