Data from hue_350_FLMS001491_73.txt Node
Date: Mon Feb 06 15:38:29 GMT 2017
User: dcchb
Spectrometer: FLMS00149
Trigger mode: 0
Integration Time (sec): 2.000000E-2
Scans to average: 10
Electric dark correction enabled: true
Nonlinearity correction enabled: false
Boxcar width: 0
XAxis mode: Wavelengths
Number of Pixels in Spectrum: 2048
>>>>>Begin Spectral Data<<<<<
341.393	4.21
341.776	4.21
342.16	4.21
342.543	-71.04
342.927	-62
343.31	-76.01
343.693	-57.03
344.077	-66.07
344.46	-78.5
344.843	-41.89
345.226	-42.34
345.61	-45.51
345.993	-15.9
346.376	-24.72
346.759	11.44
347.142	22.29
347.525	51.44
347.908	83.53
348.291	68.39
348.674	116.75
349.057	94.15
349.44	124.21
349.823	135.73
350.206	173.92
350.588	192.9
350.971	199.91
351.354	188.38
351.737	224.09
352.119	235.84
352.502	253.47
352.884	280.81
353.267	282.62
353.65	260.02
354.032	295.5
354.414	316.97
354.797	305.9
355.179	314.94
355.562	313.35
355.944	309.29
356.326	324.65
356.709	322.62
357.091	331.43
357.473	328.72
357.855	334.6
358.238	319
358.62	313.35
359.002	343.86
359.384	328.49
359.766	324.88
360.148	347.93
360.53	332.79
360.912	346.12
361.294	332.79
361.676	334.14
362.057	331.88
362.439	325.56
362.821	302.28
363.203	320.13
363.584	326.69
363.966	332.11
364.348	325.56
364.729	319.23
365.111	324.65
365.493	344.76
365.874	315.39
366.256	291.21
366.637	330.08
367.019	299.57
367.4	305.67
367.781	312.22
368.163	299.79
368.544	312.22
368.925	295.73
369.306	312.22
369.688	307.48
370.069	296.86
370.45	307.93
370.831	317.2
371.212	302.05
371.593	327.59
371.974	299.79
372.355	310.42
372.736	309.51
373.117	324.2
373.498	321.04
373.879	325.56
374.26	320.13
374.641	322.17
375.021	295.73
375.402	317.2
375.783	301.83
376.163	324.65
376.544	329.17
376.925	306.12
377.305	323.75
377.686	311.55
378.066	319.68
378.447	321.04
378.827	328.27
379.208	320.13
379.588	339.57
379.968	335.95
380.349	316.52
380.729	321.04
381.109	337.53
381.489	306.8
381.87	325.1
382.25	347.25
382.63	323.07
383.01	328.72
383.39	321.71
383.77	360.36
384.15	328.95
384.53	346.12
384.91	340.02
385.29	338.21
385.67	340.25
386.049	331.66
386.429	335.73
386.809	332.11
387.189	334.37
387.568	341.15
387.948	331.21
388.328	366.46
388.707	347.93
389.087	325.78
389.466	363.52
389.846	353.58
390.225	350.64
390.605	361.71
390.984	344.31
391.363	330.3
391.743	361.71
392.122	341.38
392.501	359.91
392.881	342.51
393.26	354.71
393.639	363.97
394.018	359.68
394.397	360.81
394.776	368.49
395.155	363.3
395.534	367.82
395.913	365.56
396.292	366.01
396.671	368.27
397.05	354.26
397.429	382.73
397.808	366.23
398.186	382.05
398.565	375.95
398.944	376.4
399.323	379.79
399.701	388.15
400.08	374.14
400.458	376.63
400.837	382.5
401.215	398.77
401.594	355.84
401.972	401.26
402.351	381.37
402.729	390.19
403.107	404.88
403.486	374.14
403.864	400.13
404.242	391.09
404.62	406.23
404.999	389.06
405.377	370.53
405.755	423.86
406.133	410.07
406.511	414.14
406.889	419.34
407.267	401.49
407.645	423.86
408.023	408.94
408.401	427.47
408.779	413.46
409.156	441.71
409.534	428.6
409.912	441.49
410.29	406.46
410.667	459.79
411.045	435.16
411.422	443.29
411.8	458.66
412.178	440.13
412.555	447.59
412.933	448.72
413.31	453.01
413.687	429.51
414.065	459.11
414.442	457.98
414.819	453.01
415.197	459.56
415.574	495.72
415.951	464.76
416.328	483.97
416.705	456.63
417.082	484.42
417.46	449.39
417.837	475.16
418.214	479.45
418.591	486.23
418.967	483.07
419.344	513.8
419.721	492.33
420.098	502.73
420.475	523.74
420.852	497.76
421.228	527.36
421.605	518.55
421.982	516.96
422.358	518.32
422.735	520.13
423.111	555.83
423.488	543.18
423.864	536.17
424.241	539.11
424.617	550.86
424.994	544.31
425.37	531.65
425.746	540.24
426.123	566.23
426.499	532.33
426.875	565.55
427.251	587.24
427.627	603.74
428.003	592.22
428.379	568.71
428.756	576.17
429.132	559.45
429.507	563.29
429.883	593.12
430.259	611.65
430.635	629.5
431.011	619.79
431.387	622.27
431.763	610.97
432.138	629.28
432.514	637.64
432.89	629.05
433.265	623.63
433.641	647.36
434.016	640.58
434.392	649.16
434.767	664.08
435.143	680.12
435.518	686.68
435.894	688.26
436.269	680.58
436.644	687.35
437.02	669.28
437.395	710.18
437.77	710.41
438.145	723.29
438.52	710.63
438.895	705.21
439.271	700.91
439.646	743.62
440.021	709.5
440.395	722.61
440.77	727.58
441.145	751.08
441.52	754.02
441.895	754.02
442.27	749.5
442.645	763.06
443.019	740.69
443.394	754.92
443.769	779.1
444.143	771.19
444.518	765.54
444.892	773.91
445.267	791.31
445.641	763.06
446.016	782.72
446.39	780.69
446.764	799.89
447.139	782.04
447.513	797.86
447.887	813.91
448.262	814.13
448.636	823.4
449.01	801.48
449.384	812.55
449.758	813.23
450.132	813.68
450.506	833.57
450.88	802.61
451.254	830.4
451.628	848.71
452.002	840.8
452.376	871.08
452.75	859.78
453.123	853
453.497	877.86
453.871	864.3
454.244	895.48
454.618	899.55
454.992	919.44
455.365	904.07
455.739	898.87
456.112	905.2
456.486	927.35
456.859	937.07
457.232	944.3
457.606	937.07
457.979	945.65
458.352	975.71
458.725	971.87
459.099	961.92
459.472	974.35
459.845	985.43
460.218	1005.31
460.591	1027.23
460.964	1035.59
461.337	1034.92
461.71	1069.72
462.083	1053.9
462.456	1077.4
462.829	1073.79
463.201	1078.3
463.574	1081.92
463.947	1082.15
464.32	1100.68
464.692	1144.07
465.065	1134.57
465.438	1128.7
465.81	1160.79
466.183	1180.45
466.555	1179.32
466.928	1198.08
467.3	1194.01
467.672	1194.01
468.045	1228.81
468.417	1230.17
468.789	1224.29
469.161	1250.5
469.534	1294.12
469.906	1290.73
470.278	1304.51
470.65	1322.82
471.022	1338.64
471.394	1348.58
471.766	1390.16
472.138	1375.92
472.51	1437.84
472.882	1447.33
473.253	1443.49
473.625	1484.62
473.997	1524.85
474.369	1520.55
474.74	1514
475.112	1555.35
475.484	1578.63
475.855	1610.49
476.227	1661.79
476.598	1650.95
476.97	1651.85
477.341	1712.86
477.713	1691.85
478.084	1739.08
478.455	1764.61
478.827	1801.68
479.198	1833.99
479.569	1840.54
479.94	1873.76
480.311	1900.2
480.682	1945.4
481.053	1998.28
481.424	2022.23
481.795	2020.88
482.166	2070.6
482.537	2097.26
482.908	2138.62
483.279	2138.84
483.65	2206.18
484.021	2218.39
484.391	2296.58
484.762	2276.47
485.133	2334.09
485.503	2349.68
485.874	2397.82
486.244	2450.47
486.615	2462.45
486.985	2501.54
487.356	2531.83
487.726	2555.33
488.097	2637.36
488.467	2639.17
488.837	2684.59
489.207	2714.19
489.578	2746.06
489.948	2779.05
490.318	2807.53
490.688	2841.42
491.058	2876.45
491.428	2866.28
491.798	2955.77
492.168	2968.65
492.538	3021.76
492.908	3025.6
493.278	3110.79
493.648	3068.99
494.017	3159.38
494.387	3154.41
494.757	3186.5
495.126	3224.46
495.496	3251.81
495.866	3276.44
496.235	3257.91
496.605	3298.59
496.974	3331.35
497.344	3354.86
497.713	3387.62
498.082	3373.39
498.452	3459.49
498.821	3402.76
499.19	3478.02
499.559	3479.15
499.928	3538.35
500.298	3551.46
500.667	3578.13
501.036	3580.16
501.405	3643.44
501.774	3637.56
502.143	3649.99
502.512	3700.38
502.88	3688.41
503.249	3700.16
503.618	3741.96
503.987	3752.58
504.356	3748.52
504.724	3764.11
505.093	3765.01
505.462	3807.95
505.83	3828.06
506.199	3849.31
506.567	3893.37
506.936	3898.8
507.304	3881.62
507.672	3935.4
508.041	3948.29
508.409	3962.52
508.777	3976.76
509.145	4033.03
509.514	3996.87
509.882	3993.71
510.25	4035.74
510.618	4067.6
510.986	4088.62
511.354	4097.43
511.722	4139.47
512.09	4170.2
512.458	4168.85
512.826	4174.72
513.193	4180.82
513.561	4176.3
513.929	4196.64
514.297	4220.14
514.664	4244.78
515.032	4277.09
515.4	4296.53
515.767	4358.22
516.135	4296.53
516.502	4300.82
516.869	4323.19
517.237	4386.47
517.604	4356.41
517.972	4435.73
518.339	4377.2
518.706	4397.31
519.073	4404.77
519.44	4408.61
519.808	4501.04
520.175	4479.12
520.542	4490.64
520.909	4467.14
521.276	4559.12
521.643	4523.86
522.009	4556.86
522.376	4602.28
522.743	4571.32
523.11	4657.42
523.477	4662.84
523.843	4654.26
524.21	4732.9
524.577	4760.24
524.943	4705.1
525.31	4805.66
525.676	4811.54
526.043	4798.89
526.409	4861.93
526.776	4918.43
527.142	4884.08
527.508	4891.31
527.874	4926.11
528.241	4952.78
528.607	4998.88
528.973	5012.66
529.339	5031.2
529.705	5054.47
530.071	5097.41
530.437	5109.16
530.803	5144.64
531.169	5136.73
531.535	5189.38
531.901	5119.1
532.267	5192.55
532.632	5189.61
532.998	5238.42
533.364	5301.47
533.73	5277.29
534.095	5306.67
534.461	5348.25
534.826	5398.42
535.192	5381.24
535.557	5386.44
535.923	5448.36
536.288	5446.1
536.653	5458.3
537.019	5458.53
537.384	5546.66
537.749	5529.26
538.114	5520.9
538.479	5561.58
538.845	5560.22
539.21	5635.47
539.575	5553.89
539.94	5619.43
540.305	5679.09
540.67	5700.33
541.034	5671.63
541.399	5726.32
541.764	5752.53
542.129	5771.06
542.494	5813.32
542.858	5798.18
543.223	5825.3
543.587	5824.17
543.952	5861.23
544.316	5913.21
544.681	5931.06
545.045	5924.96
545.41	5966.54
545.774	5982.13
546.138	6025.07
546.503	6039.08
546.867	6017.61
547.231	6127.89
547.595	6102.35
547.959	6123.6
548.324	6108.91
548.688	6221.22
549.052	6204.27
549.416	6273.87
549.779	6190.26
550.143	6238.85
550.507	6278.39
550.871	6315.23
551.235	6300.31
551.599	6346.42
551.962	6355.23
552.326	6386.87
552.689	6439.29
553.053	6392.97
553.417	6420.54
553.78	6519.52
554.143	6495.34
554.507	6520.65
554.87	6511.16
555.234	6653.07
555.597	6537.6
555.96	6585.28
556.323	6630.25
556.686	6597.71
557.05	6713.64
557.413	6682.68
557.776	6653.07
558.139	6735.33
558.502	6719.29
558.865	6752.96
559.228	6817.36
559.59	6793.63
559.953	6757.93
560.316	6902.56
560.679	6881.32
561.041	6911.15
561.404	6906.17
561.767	6896.68
562.129	6975.78
562.492	6993.4
562.854	7004.25
563.217	6971.03
563.579	7032.72
563.941	7067.3
564.304	7084.25
564.666	7083.12
565.028	7161.31
565.39	7174.87
565.753	7164.7
566.115	7207.86
566.477	7217.8
566.839	7221.87
567.201	7317.01
567.563	7350.46
567.925	7370.57
568.287	7370.34
568.648	7406.73
569.01	7422.09
569.372	7517.46
569.734	7469.55
570.095	7489.89
570.457	7581.18
570.819	7518.81
571.18	7613.5
571.542	7649.88
571.903	7712.48
572.265	7756.77
572.626	7743.67
572.987	7750.67
573.349	7801.07
573.71	7931.23
574.071	7868.63
574.432	7954.96
574.794	8084.45
575.155	8067.27
575.516	8080.38
575.877	8240.6
576.238	8251.45
576.599	8297.32
576.96	8340.03
577.32	8385.01
577.681	8428.17
578.042	8585.9
578.403	8636.52
578.763	8723.75
579.124	8799.91
579.485	8893.69
579.845	9051.2
580.206	9113.35
580.566	9144.76
580.927	9250.52
581.287	9394.47
581.648	9452.32
582.008	9599.21
582.368	9698.87
582.728	9878.53
583.089	9965.53
583.449	10123.26
583.809	10260.21
584.169	10440.54
584.529	10519.41
584.889	10765.28
585.249	10935.45
585.609	11001.43
585.969	11295.89
586.329	11429.9
586.688	11641.19
587.048	11827.63
587.408	11997.79
587.768	12199.59
588.127	12346.48
588.487	12660.6
588.846	13001.61
589.206	12976.3
589.565	13275.27
589.925	13623.74
590.284	13747.58
590.643	14034.8
591.003	14288.58
591.362	14596.59
591.721	14828.68
592.08	15047.2
592.44	15362
592.799	15619.62
593.158	15763.12
593.517	16064.8
593.876	16391.35
594.235	16670.66
594.593	17036.98
594.952	17335.73
595.311	17461.83
595.67	17685.1
596.029	18174.35
596.387	18500.9
596.746	18761.23
597.104	19050.49
597.463	19230.14
597.822	19581.1
598.18	19748.32
598.538	20063.34
598.897	20493.84
599.255	20601.63
599.613	21109.19
599.972	21229.41
600.33	21643.87
600.688	21718.21
601.046	22183.74
601.404	22421.92
601.762	22550.96
602.12	23009.03
602.478	23325.4
602.836	23495.57
603.194	23649.69
603.552	24031.37
603.91	24216
604.268	24635.2
604.625	24694.86
604.983	25109.99
605.341	25275.41
605.698	25546.36
606.056	25878.1
606.413	26112
606.771	26281.48
607.128	26688.93
607.485	26806.89
607.843	26975.25
608.2	27209.6
608.557	27607.55
608.914	27744.5
609.272	28119.63
609.629	28344.71
609.986	28627.86
610.343	28746.73
610.7	29057.23
611.057	29287.05
611.414	29475.75
611.771	29523.66
612.127	29922.97
612.484	30051.1
612.841	30248.16
613.198	30294.94
613.554	30583.07
613.911	30797.52
614.267	30966.78
614.624	31212.43
614.98	31310.73
615.337	31733.54
615.693	31735.13
616.05	31940.77
616.406	32148.9
616.762	32262.12
617.118	32286.75
617.475	32442.9
617.831	32656.46
618.187	32921.76
618.543	33097.12
618.899	33223.67
619.255	33363.56
619.611	33367.63
619.967	33632.48
620.323	33877.44
620.678	33903.2
621.034	33789.31
621.39	34087.61
621.746	34001.06
622.101	34551.55
622.457	34353.59
622.812	34584.54
623.168	34650.08
623.523	34688.04
623.879	34881.26
624.234	34813.46
624.589	35045.32
624.945	35165.32
625.3	35165.77
625.655	35352.88
626.01	35424.07
626.365	35507.91
626.72	35520.79
627.075	35558.53
627.43	35579.77
627.785	35648.02
628.14	35691.18
628.495	35923.04
628.85	35976.37
629.205	35823.15
629.559	36176.82
629.914	35967.11
630.269	36014.11
630.623	36094.79
630.978	35939.76
631.332	36255.23
631.687	36345.85
632.041	36246.87
632.396	36241.45
632.75	36186.76
633.104	36406.42
633.459	36257.27
633.813	36338.62
634.167	36281.45
634.521	36330.03
634.875	36434.89
635.229	36398.96
635.583	36255.01
635.937	36346.76
636.291	36226.08
636.645	36446.64
636.999	36270.15
637.352	36434.44
637.706	36206.65
638.06	36341.78
638.413	36328.68
638.767	36291.62
639.121	36462.91
639.474	36212.52
639.828	36110.38
640.181	36432.63
640.534	36402.12
640.888	36296.81
641.241	36187.44
641.594	36310.82
641.947	36419.52
642.301	36361.45
642.654	36304.05
643.007	36305.4
643.36	36333.42
643.713	36256.59
644.066	36382.91
644.419	36168.46
644.771	35929.59
645.124	35623.39
645.477	35589.94
645.83	35417.97
646.182	35237.41
646.535	35231.98
646.888	35330.06
647.24	35098.2
647.593	35295.71
647.945	35269.5
648.298	35072.21
648.65	35094.81
649.002	34965.55
649.355	35227.92
649.707	35150.4
650.059	35303.39
650.411	35668.13
650.763	35596.49
651.115	36049.59
651.467	36105.18
651.819	35951.74
652.171	35900.44
652.523	35757.39
652.875	35922.81
653.227	35775.25
653.578	35971.4
653.93	35913.1
654.282	35615.25
654.633	35717.62
654.985	35656.38
655.337	35906.32
655.688	35756.72
656.039	35969.82
656.391	35664.29
656.742	35723.04
657.094	35687.79
657.445	35834
657.796	35805.3
658.147	35645.53
658.498	35669.03
658.849	35732.31
659.2	35626.55
659.551	35467.91
659.902	35601.69
660.253	35695.93
660.604	35702.03
660.955	35430.85
661.306	35591.97
661.656	35478.08
662.007	35617.96
662.358	35496.61
662.708	35566.44
663.059	35532.09
663.409	35418.87
663.76	35624.52
664.11	35659.32
664.461	35517.4
664.811	35567.79
665.161	35559.88
665.511	35424.97
665.862	35460.9
666.212	35658.64
666.562	35608.7
666.912	35475.59
667.262	35628.36
667.612	35514.91
667.962	35511.52
668.312	35488.7
668.662	35571.86
669.011	35491.86
669.361	35447.34
669.711	35350.85
670.06	35411.41
670.41	35361.47
670.76	35357.18
671.109	35545.65
671.459	35436.05
671.808	35338.42
672.157	35335.03
672.507	35177.52
672.856	35218.42
673.205	35300.46
673.554	35291.87
673.904	35209.61
674.253	35426.55
674.602	35249.84
674.951	34819.79
675.3	34657.76
675.649	35218.65
675.998	35119.9
676.346	35234.7
676.695	35384.07
677.044	34838.1
677.393	35129.39
677.741	35040.35
678.09	35006
678.438	34936.4
678.787	35064.76
679.135	34968.04
679.484	34818.66
679.832	34998.77
680.181	34731.66
680.529	34970.97
680.877	34756.74
681.225	34804.88
681.573	34915.38
681.922	34686.46
682.27	34657.54
682.618	34570.53
682.966	34553.13
683.314	34545
683.661	34390.88
684.009	34372.12
684.357	34345.68
684.705	34267.26
685.053	34256.19
685.4	34247.83
685.748	34036.31
686.095	34065.01
686.443	33987.27
686.79	33844.9
687.138	33977.1
687.485	34024.78
687.832	33798.35
688.18	33813.26
688.527	33702.76
688.874	33606.26
689.221	33404.69
689.568	33443.33
689.915	33424.57
690.262	33494.18
690.609	33325.59
690.956	33173.73
691.303	33195.65
691.65	33103.45
691.997	33066.62
692.344	32896
692.69	32844.48
693.037	32892.38
693.383	32692.84
693.73	32738.49
694.077	32538.49
694.423	32495.11
694.769	32416.92
695.116	32326.3
695.462	32373.75
695.808	32206.3
696.155	32185.96
696.501	32060.09
696.847	32016.25
697.193	31876.59
697.539	32069.13
697.885	31718.86
698.231	31611.06
698.577	31655.58
698.923	31517.05
699.269	31505.3
699.614	31313.89
699.96	31297.17
700.306	31279.09
700.651	31097.18
700.997	31158.64
701.342	31098.98
701.688	30888.14
702.033	30750.97
702.379	30776.73
702.724	30757.3
703.069	30828.71
703.415	30410.42
703.76	30554.37
704.105	30398.21
704.45	30392.56
704.795	30201.83
705.14	30023.53
705.485	30122.06
705.83	29901.28
706.175	29955.29
706.52	29915.74
706.865	29718.91
707.209	29678.68
707.554	29659.93
707.899	29632.36
708.243	29551
708.588	29438.46
708.932	29291.12
709.277	29298.35
709.621	29390.78
709.966	29084.35
710.31	29233.27
710.654	28979.94
710.998	29064.69
711.342	29124.12
711.687	28984.69
712.031	28942.21
712.375	28661.31
712.719	28678.94
713.063	28672.83
713.407	28800.97
713.75	28513.06
714.094	28655.21
714.438	28530.46
714.782	28530.24
715.125	28356.23
715.469	28460.86
715.812	28267.42
716.156	28113.53
716.499	28165.5
716.843	28115.33
717.186	27980.42
717.53	28152.17
717.873	28102.68
718.216	27926.41
718.559	27855.68
718.902	27705.63
719.246	27782.46
719.589	27596.93
719.932	27539.98
720.275	27626.08
720.617	27552.64
720.96	27426.99
721.303	27484.84
721.646	27470.83
721.989	27276.26
722.331	27349.7
722.674	27207.11
723.016	27296.82
723.359	27310.61
723.701	27303.6
724.044	26994.69
724.386	26959.88
724.729	27105.87
725.071	26889.83
725.413	27016.61
725.755	26980.67
726.097	26852.54
726.439	26725.31
726.782	26614.13
727.124	26780.91
727.465	26644.86
727.807	26676.73
728.149	26521.25
728.491	26493.23
728.833	26626.33
729.175	26534.36
729.516	26463.63
729.858	26397.41
730.199	26374.14
730.541	26257.08
730.882	26197.87
731.224	26339.79
731.565	26142.28
731.906	26215.27
732.248	26144.99
732.589	26041.72
732.93	25994.03
733.271	25980.7
733.612	26003.98
733.953	25949.74
734.294	25946.35
734.635	25878.78
734.976	25930.08
735.317	25759.01
735.658	25791.55
735.999	25804.21
736.339	25699.8
736.68	25732.57
737.021	25694.38
737.361	25535.29
737.702	25734.61
738.042	25661.16
738.383	25560.15
738.723	25536.87
739.063	25442.41
739.404	25394.73
739.744	25418.91
740.084	25330.1
740.424	25345.01
740.764	25202.19
741.104	25332.81
741.444	25158.58
741.784	25080.39
742.124	25244.45
742.464	25117.22
742.804	25048.52
743.143	24978.24
743.483	24956.32
743.823	24869.77
744.162	24867.28
744.502	24838.13
744.841	24789.77
745.181	24898.47
745.52	24787.29
745.86	24688.53
746.199	24742.54
746.538	24645.14
746.877	24685.37
747.216	24634.75
747.556	24569.89
747.895	24532.15
748.234	24476.33
748.573	24438.14
748.911	24451.02
749.25	24347.07
749.589	24259.84
749.928	24385.49
750.267	24322.21
750.605	24236.11
750.944	24139.39
751.283	24072.73
751.621	24157.25
751.96	24064.59
752.298	24168.32
752.636	24032.28
752.975	23805.62
753.313	23834.32
753.651	24019.62
753.989	23827.31
754.327	23796.8
754.666	23682.23
755.004	23695.79
755.342	23750.25
755.679	23695.34
756.017	23428.68
756.355	23541.22
756.693	23463.25
757.031	23502.8
757.368	23371.05
757.706	23268.46
758.044	23225.75
758.381	23341.45
758.719	23193.43
759.056	23097.39
759.394	23043.15
759.731	22957.28
760.068	22878.64
760.405	22764.97
760.743	22755.93
761.08	22709.37
761.417	22520.91
761.754	22694.01
762.091	22496.72
762.428	22420.57
762.765	22332.44
763.102	22372.21
763.438	22272.32
763.775	22177.64
764.112	22202.95
764.449	22256.96
764.785	22103.51
765.122	22043.63
765.458	21900.81
765.795	21920.47
766.131	21781.04
766.467	21815.84
766.804	21630.98
767.14	21608.16
767.476	21501.27
767.812	21440.93
768.148	21503.76
768.485	21377.21
768.821	21227.83
769.157	21117.55
769.492	21063.54
769.828	21141.05
770.164	20937.67
770.5	20901.29
770.836	20873.49
771.171	20754.85
771.507	20770.67
771.842	20598.7
772.178	20570.67
772.513	20531.58
772.849	20408.42
773.184	20356.44
773.519	20377.68
773.855	20281.87
774.19	20213.85
774.525	20086.84
774.86	20064.47
775.195	20066.05
775.53	19926.62
775.865	19782.67
776.2	19817.47
776.535	19611.38
776.87	19574.09
777.205	19457.03
777.539	19382.46
777.874	19398.73
778.209	19240.99
778.543	19299.52
778.878	19123.93
779.212	19110.37
779.547	19088
779.881	18998.74
780.215	18923.71
780.55	18961.68
780.884	18766.2
781.218	18717.16
781.552	18699.76
781.886	18556.04
782.22	18470.84
782.554	18469.03
782.888	18379.77
783.222	18244.18
783.556	18145.88
783.889	18157.4
784.223	18015.94
784.557	18008.26
784.89	18058.88
785.224	17855.72
785.557	17812.33
785.891	17743.86
786.224	17730.52
786.558	17676.29
786.891	17562.39
787.224	17456.63
787.557	17455.73
787.891	17444.65
788.224	17410.76
788.557	17354.49
788.89	17320.82
789.223	17279.01
789.556	17081.05
789.888	17120.14
790.221	16986.14
790.554	16891
790.887	16913.82
791.219	16949.07
791.552	16827.5
791.884	16715.18
792.217	16717.22
792.549	16563.32
792.882	16432.7
793.214	16436.09
793.546	16498.46
793.879	16338.02
794.211	16164.24
794.543	16352.93
794.875	16140.06
795.207	16243.33
795.539	16102.32
795.871	16168.53
796.203	15947.97
796.535	15893.51
796.867	15806.96
797.198	15807.41
797.53	15817.8
797.862	15730.8
798.193	15687.41
798.525	15610.8
798.856	15611.48
799.188	15528.77
799.519	15419.62
799.85	15375.1
800.182	15423.69
800.513	15324.71
800.844	15255.79
801.175	15288.33
801.506	15239.97
801.837	15195.45
802.168	15023.7
802.499	15123.59
802.83	14976.47
803.161	14948.67
803.491	14998.16
803.822	14873.65
804.153	14853.31
804.483	14799.53
804.814	14625.29
805.145	14647.44
805.475	14657.83
805.805	14662.13
806.136	14598.85
806.466	14629.59
806.796	14551.85
807.126	14357.05
807.457	14319.76
807.787	14377.39
808.117	14361.12
808.447	14263.27
808.777	14330.61
809.107	14193.21
809.436	14265.08
809.766	14208.13
810.096	14116.38
810.426	14028.92
810.755	14061.24
811.085	14048.13
811.414	13978.3
811.744	13893.11
812.073	13897.63
812.403	13818.99
812.732	13710.52
813.061	13783.28
813.39	13606.11
813.719	13655.38
814.049	13715.71
814.378	13676.39
814.707	13581.25
815.036	13552.1
815.365	13525.89
815.693	13389.85
816.022	13386.46
816.351	13388.26
816.68	13399.34
817.008	13312.11
817.337	13163.86
817.665	13110.3
817.994	13259.68
818.322	13247.93
818.651	13115.5
818.979	13061.72
819.307	13169.29
819.636	13058.78
819.964	12935.17
820.292	13114.15
820.62	13031.44
820.948	12918.45
821.276	12976.07
821.604	12962.51
821.932	12998.44
822.259	12914.83
822.587	12888.62
822.915	12864.89
823.243	12937.2
823.57	12918.67
823.898	12904.43
824.225	12832.8
824.553	12920.48
824.88	12912.34
825.207	12854.72
825.535	12888.16
825.862	12989.18
826.189	12877.32
826.516	12974.49
826.843	12931.78
827.17	12961.38
827.497	12859.69
827.824	12976.52
828.151	12963.64
828.478	12906.02
828.805	12812.01
829.131	12903.08
829.458	12933.13
829.785	12776.75
830.111	12827.83
830.438	12934.49
830.764	12812.91
831.09	12913.7
831.417	12833.02
831.743	12880.48
832.069	12836.87
832.395	12786.25
832.722	12815.62
833.048	12823.98
833.374	12824.89
833.7	12737.21
834.026	12790.09
834.351	12767.49
834.677	12703.31
835.003	12814.49
835.329	12711.45
835.654	12692.24
835.98	12612.46
836.306	12537.89
836.631	12546.03
836.956	12663.09
837.282	12620.37
837.607	12550.55
837.932	12555.07
838.258	12547.83
838.583	12465.35
838.908	12421.06
839.233	12502.19
839.558	12475.75
839.883	12473.94
840.208	12364.11
840.533	12374.05
840.858	12380.83
841.182	12376.09
841.507	12375.18
841.832	12293.83
842.156	12236.88
842.481	12228.75
842.805	12257.45
843.13	12133.83
843.454	12200.72
843.778	12078.47
844.103	12125.25
844.427	12042.76
844.751	12010.45
845.075	12085.93
845.399	12002.09
845.723	11917.57
846.047	11934.74
846.371	11814.75
846.695	11810.68
847.019	11702.66
847.343	11683.45
847.666	11619.95
847.99	11586.96
848.313	11623.34
848.637	11497.69
848.96	11523
849.284	11422.89
849.607	11303.12
849.931	11320.97
850.254	11236.68
850.577	11262.9
850.9	11218.15
851.223	11078.49
851.546	11041.21
851.869	11008.67
852.192	11036.91
852.515	10938.38
852.838	10922.79
853.161	10871.27
853.483	10911.04
853.806	10790.82
854.129	10748.79
854.451	10701.78
854.774	10704.27
855.096	10658.17
855.419	10556.47
855.741	10622.69
856.063	10586.98
856.385	10566.64
856.708	10457.72
857.03	10475.57
857.352	10512.18
857.674	10323.71
857.996	10351.06
858.318	10376.14
858.64	10328.01
858.961	10228.57
859.283	10257.72
859.605	10240.32
859.926	10216.6
860.248	10130.5
860.57	10151.29
860.891	10153.77
861.212	10083.72
861.534	10082.81
861.855	10070.84
862.176	10087.56
862.498	10022.48
862.819	9967.34
863.14	9950.61
863.461	9945.64
863.782	9964.85
864.103	9914.46
864.424	9891.86
864.745	9895.93
865.065	9871.07
865.386	9829.71
865.707	9796.49
866.027	9825.65
866.348	9767.79
866.668	9745.2
866.989	9733.67
867.309	9635.14
867.63	9695.93
867.95	9672.88
868.27	9589.49
868.59	9645.09
868.91	9569.61
869.23	9667.68
869.55	9620.68
869.87	9637.63
870.19	9513.34
870.51	9564.41
870.83	9555.6
871.15	9499.33
871.469	9532.77
871.789	9511.76
872.109	9498.87
872.428	9440.8
872.748	9503.39
873.067	9469.72
873.386	9501.13
873.706	9377.97
874.025	9321.93
874.344	9373.91
874.663	9376.39
874.982	9347.24
875.301	9390.85
875.62	9274.02
875.939	9276.73
876.258	9258.43
876.577	9232.67
876.896	9251.42
877.214	9216.62
877.533	9213.01
877.852	9197.64
878.17	9129.62
878.489	9173.46
878.807	9139.56
879.125	9136.4
879.444	9155.15
879.762	9114.48
880.08	9111.77
880.398	9096.4
880.716	9090.98
881.034	9047.81
881.352	9053.46
881.67	9017.31
881.988	9039.68
882.306	8987.93
882.624	8954.48
882.941	8886.46
883.259	8906.8
883.577	8929.17
883.894	8872.45
884.212	8835.16
884.529	8772.79
884.846	8855.28
885.164	8761.04
885.481	8795.84
885.798	8794.03
886.115	8670.87
886.432	8712.68
886.75	8709.06
887.067	8690.08
887.383	8605.34
887.7	8606.69
888.017	8545.45
888.334	8591.78
888.651	8526.24
888.967	8549.29
889.284	8519.92
889.6	8480.14
889.917	8420.03
890.233	8455.96
890.55	8382.97
890.866	8431.78
891.182	8400.37
891.498	8384.78
891.815	8289.41
892.131	8314.72
892.447	8232.47
892.763	8217.33
893.079	8197.44
893.395	8153.83
893.71	8151.57
894.026	8138.68
894.342	8115.18
894.657	8084.9
894.973	8105.92
895.289	8063.43
895.604	8047.16
895.92	7980.5
896.235	8008.74
896.55	7957.22
896.865	7957.22
897.181	7879.26
897.496	7898.46
897.811	7894.4
898.126	7813.95
898.441	7819.82
898.756	7767.85
899.071	7688.98
899.386	7756.55
899.7	7668.19
900.015	7646.49
900.33	7609.66
900.644	7586.83
900.959	7598.81
901.273	7541.19
901.588	7529.43
901.902	7452.6
902.216	7456.67
902.531	7458.48
902.845	7439.49
903.159	7399.95
903.473	7341.64
903.787	7340.97
904.101	7282.21
904.415	7251.7
904.729	7213.28
905.042	7237.01
905.356	7232.72
905.67	7132.84
905.984	7143.91
906.297	7098.03
906.611	7048.09
906.924	7045.61
907.237	7047.41
907.551	7079.96
907.864	7063.01
908.177	6964.48
908.491	6961.99
908.804	6876.34
909.117	6853.97
909.43	6820.98
909.743	6801.54
910.056	6790.47
910.368	6765.61
910.681	6730.13
910.994	6730.36
911.307	6686.29
911.619	6633.64
911.932	6619.85
912.244	6610.36
912.557	6550.25
912.869	6562.91
913.181	6531.27
913.494	6532.4
913.806	6481.33
914.118	6470.71
914.43	6428.9
914.742	6399.07
915.054	6335.34
915.366	6310.71
915.678	6331.95
915.99	6292.86
916.302	6271.84
916.613	6228.68
916.925	6225.51
917.236	6192.52
917.548	6126.76
917.859	6202.69
918.171	6143.26
918.482	6107.55
918.794	6053.32
919.105	6047.67
919.416	5943.04
919.727	6011.96
920.038	6001.11
920.349	5961.57
920.66	5932.64
920.971	5913.43
921.282	5819.42
921.593	5825.75
921.903	5811.97
922.214	5780.78
922.525	5730.61
922.835	5780.55
923.146	5733.55
923.456	5714.79
923.767	5641.35
924.077	5702.14
924.387	5587.79
924.697	5567.45
925.008	5627.79
925.318	5571.07
925.628	5537.17
925.938	5486.55
926.248	5497.17
926.558	5411.98
926.867	5445.65
927.177	5400.9
927.487	5374.46
927.796	5266.67
928.106	5391.64
928.416	5355.93
928.725	5349.61
929.034	5259.21
929.344	5308.93
929.653	5272.77
929.962	5198.2
930.271	5187.12
930.581	5155.03
930.89	5179.67
931.199	5049.73
931.508	5114.58
931.817	5108.26
932.125	5076.39
932.434	5029.39
932.743	5075.26
933.051	5008.82
933.36	4981.93
933.669	4990.29
933.977	4918.2
934.286	4944.42
934.594	4896.06
934.902	4863.74
935.21	4882.05
935.519	4842.95
935.827	4840.47
936.135	4780.81
936.443	4693.58
936.751	4750.52
937.059	4722.73
937.367	4683.86
937.674	4681.83
937.982	4694.03
938.29	4663.97
938.597	4684.09
938.905	4609.51
939.213	4596.18
939.52	4580.13
939.827	4570.87
940.135	4525.9
940.442	4499.23
940.749	4535.16
941.056	4483.41
941.363	4440.7
941.67	4472.34
941.977	4395.73
942.284	4367.03
942.591	4381.49
942.898	4367.26
943.205	4329.07
943.511	4304.43
943.818	4286.58
944.125	4268.96
944.431	4245.23
944.738	4211.56
945.044	4243.42
945.35	4189.18
945.657	4158.9
945.963	4233.93
946.269	4152.12
946.575	4149.64
946.881	4161.39
947.187	4082.97
947.493	4101.05
947.799	4065.35
948.105	3997.78
948.41	4043.65
948.716	4026.02
949.022	3993.03
949.327	4028.28
949.633	3984.9
949.938	3939.7
950.244	3944.9
950.549	3953.94
950.854	3883.2
951.16	3885.91
951.465	3884.56
951.77	3845.01
952.075	3815.86
952.38	3825.13
952.685	3803.21
952.99	3814.96
953.294	3761.4
953.599	3793.04
953.904	3718.24
954.209	3716.65
954.513	3725.24
954.818	3707.61
955.122	3706.03
955.426	3635.98
955.731	3632.14
956.035	3616.54
956.339	3615.64
956.643	3584
956.948	3540.84
957.252	3549.43
957.556	3579.48
957.86	3529.54
958.163	3521.86
958.467	3541.74
958.771	3480.05
959.075	3493.38
959.378	3458.13
959.682	3461.52
959.985	3421.75
960.289	3391.24
960.592	3413.61
960.896	3394.18
961.199	3377
961.502	3391.24
961.805	3355.99
962.108	3345.14
962.411	3339.94
962.714	3323.67
963.017	3275.76
963.32	3322.09
963.623	3261.52
963.926	3240.73
964.228	3235.08
964.531	3233.28
964.833	3211.58
965.136	3205.03
965.438	3215.88
965.741	3174.97
966.043	3148.76
966.345	3133.84
966.648	3117.8
966.95	3145.14
967.252	3112.15
967.554	3102.21
967.856	3058.14
968.158	3057.69
968.46	3053.62
968.761	3021.98
969.063	3036.9
969.365	3025.6
969.666	2996.22
969.968	2953.28
970.269	2965.49
970.571	2937.01
970.872	2951.48
971.174	2906.28
971.475	2927.07
971.776	2919.84
972.077	2839.84
972.378	2858.15
972.679	2881.87
972.98	2870.12
973.281	2841.65
973.582	2812.04
973.883	2837.35
974.183	2832.16
974.484	2841.65
974.785	2777.47
975.085	2768.88
975.386	2749.67
975.686	2726.62
975.986	2743.8
976.287	2753.29
976.587	2671.48
976.887	2670.13
977.187	2652.95
977.487	2680.97
977.787	2675.55
978.087	2627.19
978.387	2628.09
978.687	2649.34
978.987	2615.67
979.286	2571.15
979.586	2581.99
979.885	2567.31
980.185	2543.35
980.484	2551.03
980.784	2547.64
981.083	2554.65
981.382	2508.55
981.682	2552.16
981.981	2521.66
982.28	2513.07
982.579	2487.31
982.878	2520.98
983.177	2487.08
983.475	2457.25
983.774	2449.57
984.073	2456.35
984.372	2426.52
984.67	2417.48
984.969	2404.37
985.267	2394.43
985.566	2408.67
985.864	2361.44
986.162	2380.42
986.461	2376.35
986.759	2333.19
987.057	2308.33
987.355	2302.91
987.653	2330.25
987.951	2299.52
988.249	2295
988.547	2265.17
988.844	2235.79
989.142	2245.51
989.44	2236.01
989.737	2239.63
990.035	2235.11
990.332	2227.2
990.63	2218.61
990.927	2197.37
991.224	2206.41
991.521	2178.39
991.819	2170.71
992.116	2159.18
992.413	2152.18
992.71	2133.19
993.006	2120.76
993.303	2100.88
993.6	2124.38
993.897	2099.07
994.193	2078.73
994.49	2086.87
994.787	2054.32
995.083	2027.43
995.379	2071.73
995.676	2070.6
995.972	2033.99
996.268	2035.34
996.565	2004.38
996.861	2022.69
997.157	1997.83
997.453	1984.72
997.749	1971.39
998.044	1983.59
998.34	1975.46
998.636	1958.06
998.932	1909.47
999.227	1919.41
999.523	1904.5
999.818	1917.83
1000.114	1917.38
1000.409	1894.1
1000.704	1865.18
1001	1876.02
1001.295	1887.78
1001.59	1866.76
1001.885	1819.3
1002.18	1841.67
1002.475	1803.48
1002.77	1819.75
1003.065	1811.62
1003.359	1785.18
1003.654	1814.56
1003.949	1786.31
1004.243	1791.28
1004.538	1769.59
1004.832	1744.73
1005.127	1728.46
1005.421	1737.27
1005.715	1690.27
1006.009	1721.23
1006.304	1666.99
1006.598	1678.29
1006.892	1669.02
1007.186	1679.65
1007.48	1661.11
1007.773	1666.31
1008.067	1634
1008.361	1637.16
1008.655	1617.5
1008.948	1608.01
1009.242	1590.83
1009.535	1625.41
1009.829	1613.21
1010.122	1586.09
1010.415	1575.47
1010.708	1571.63
1011.001	1561.23
1011.295	1556.48
1011.588	1518.07
1011.881	1535.02
1012.173	1525.52
1012.466	1519.88
1012.759	1497.5
1013.052	1499.31
1013.344	1474
1013.637	1497.73
1013.93	1450.27
1014.222	1483.27
1014.514	1455.7
1014.807	1467
1015.099	1406.88
1015.391	1439.65
1015.683	1443.72
1015.976	1437.84
1016.268	1391.29
1016.56	1377.73
1016.851	1394.91
1017.143	1385.64
1017.435	1376.6
1017.727	1362.14
1018.018	1352.42
1018.31	1338.64
1018.602	1331.63
1018.893	1344.96
1019.185	1313.78
1019.476	1307.45
1019.767	1325.3
1020.058	1312.65
1020.35	1278.75
1020.641	1278.3
1020.932	1261.35
1021.223	1292.08
1021.514	1260.9
1021.804	1238.98
1022.095	1227.23
1022.386	1230.39
1022.677	1205.76
1022.967	1217.51
1023.258	1203.95
1023.548	1215.93
1023.839	1214.12
1024.129	1223.16
1024.419	1186.1
1024.709	1165.99
1025	1161.69
1025.29	1169.38
1025.58	1158.75
1025.87	1123.28
1026.16	1139.09
1026.449	1128.25
1026.739	1137.74
1027.029	1119.43
1027.319	1116.95
1027.608	1107.91
1027.898	1088.93
1028.187	1077.18
1028.477	1089.83
1028.766	1070.85
1029.055	1085.31
1029.344	1075.82
1029.634	1041.47
1029.923	1036.5
1030.212	1031.53
1030.501	1051.41
1030.79	1038.08
1031.078	1030.17
1031.367	1004.18
1031.656	1018.19
1031.945	991.08
1032.233	987.01
1032.522	984.75
1032.81	963.28
1033.099	989.72
1033.387	973.67
1033.675	963.51
1033.963	973.9
1034.251	949.27
1034.54	950.85
1034.828	921.47
1035.116	939.1
1035.403	938.65
1035.691	949.49
1035.979	930.06
1036.267	924.64
1036.554	903.39
1036.842	921.92
1037.129	902.26
1037.417	875.37
1037.704	894.13
1037.992	872.66
1038.279	886.45
1038.566	867.24
1038.853	867.24
1039.14	867.24
