Data from hue_220_FLMS001491_00073.txt Node
Date: Tue Feb 07 16:39:55 GMT 2017
User: dcchb
Spectrometer: FLMS00149
Trigger mode: 0
Integration Time (sec): 2.000000E-2
Scans to average: 10
Electric dark correction enabled: true
Nonlinearity correction enabled: false
Boxcar width: 0
XAxis mode: Wavelengths
Number of Pixels in Spectrum: 2048
>>>>>Begin Spectral Data<<<<<
341.393	-32.26
341.776	-32.26
342.16	-32.26
342.543	-53.28
342.927	-73.61
343.31	-59.83
343.693	-65.25
344.077	-72.03
344.46	-48.76
344.843	-57.8
345.226	-50.34
345.61	-11.24
345.993	-13.73
346.376	-4.24
346.759	14.97
347.142	34.41
347.525	30.79
347.908	56.1
348.291	69.43
348.674	84.8
349.057	92.71
349.44	135.87
349.823	157.34
350.206	175.87
350.588	199.6
350.971	204.8
351.354	229.88
351.737	241.18
352.119	224.68
352.502	237.34
352.884	261.74
353.267	305.59
353.65	297.68
354.032	266.04
354.414	315.53
354.797	295.87
355.179	308.52
355.562	325.02
355.944	334.51
356.326	318.01
356.709	313.27
357.091	334.06
357.473	347.39
357.855	356.43
358.238	344.91
358.62	329.77
359.002	347.39
359.384	331.57
359.766	329.99
360.148	340.16
360.53	337
360.912	348.07
361.294	325.47
361.676	300.84
362.057	333.16
362.439	334.06
362.821	317.56
363.203	313.95
363.584	323.89
363.966	322.08
364.348	334.96
364.729	321.63
365.111	319.82
365.493	299.94
365.874	319.37
366.256	316.43
366.637	321.18
367.019	290.9
367.4	337
367.781	295.64
368.163	298.35
368.544	309.88
368.925	296.32
369.306	321.18
369.688	303.78
370.069	316.21
370.45	318.92
370.831	303.1
371.212	314.4
371.593	315.08
371.974	314.62
372.355	310.33
372.736	292.93
373.117	327.51
373.498	338.8
373.879	307.39
374.26	317.11
374.641	311.46
375.021	318.01
375.402	298.13
375.783	330.9
376.163	319.6
376.544	331.8
376.925	313.04
377.305	318.24
377.686	312.36
378.066	330.44
378.447	321.63
378.827	324.34
379.208	337.67
379.588	328.86
379.968	343.55
380.349	310.56
380.729	327.05
381.109	337.9
381.489	329.09
381.87	332.48
382.25	319.37
382.63	338.8
383.01	317.34
383.39	331.8
383.77	349.65
384.15	349.2
384.53	341.29
384.91	347.17
385.29	339.93
385.67	349.2
386.049	332.03
386.429	343.55
386.809	356.21
387.189	350.33
387.568	351.91
387.948	353.27
388.328	369.76
388.707	363.66
389.087	351.46
389.466	346.26
389.846	360.05
390.225	343.32
390.605	373.61
390.984	365.7
391.363	350.33
391.743	362.98
392.122	380.39
392.501	358.47
392.881	383.1
393.26	348.07
393.639	386.94
394.018	380.61
394.397	383.78
394.776	385.81
395.155	381.97
395.534	369.31
395.913	386.94
396.292	392.36
396.671	360.05
397.05	406.6
397.429	391.68
397.808	393.49
398.186	398.01
398.565	394.85
398.944	405.92
399.323	400.5
399.701	391.01
400.08	416.32
400.458	403.66
400.837	396.66
401.215	405.92
401.594	394.62
401.972	418.35
402.351	421.29
402.729	425.58
403.107	422.19
403.486	428.75
403.864	457.22
404.242	437.56
404.62	436.43
404.999	463.77
405.377	432.59
405.755	455.19
406.133	446.82
406.511	468.07
406.889	474.85
407.267	474.62
407.645	474.17
408.023	466.48
408.401	484.34
408.779	496.54
409.156	490.44
409.534	493.83
409.912	520.49
410.29	541.29
410.667	508.74
411.045	528.4
411.422	557.78
411.8	547.39
412.178	552.13
412.555	540.38
412.933	568.4
413.31	584
413.687	587.39
414.065	583.09
414.442	620.61
414.819	610.66
415.197	630.1
415.574	615.63
415.951	636.88
416.328	647.72
416.705	639.14
417.082	672.58
417.46	662.41
417.837	663.32
418.214	666.48
418.591	698.34
418.967	688.17
419.344	712.35
419.721	734.05
420.098	706.48
420.475	737.21
420.852	749.42
421.228	738.57
421.605	787.83
421.982	755.52
422.358	793.26
422.735	825.12
423.111	802.75
423.488	815.18
423.864	808.85
424.241	860.37
424.617	862.18
424.994	852.24
425.37	882.07
425.746	893.14
426.123	929.75
426.499	930.2
426.875	928.85
427.251	965.68
427.627	959.58
428.003	960.26
428.379	1002.52
428.756	967.94
429.132	1033.48
429.507	1001.39
429.883	994.15
430.259	1036.41
430.635	1034.38
431.011	1065.34
431.387	1083.42
431.763	1099.24
432.138	1127.48
432.514	1139.91
432.89	1140.59
433.265	1161.38
433.641	1196.64
434.016	1179.69
434.392	1218.1
434.767	1276.86
435.143	1255.84
435.518	1313.92
435.894	1309.63
436.269	1340.13
436.644	1341.94
437.02	1380.81
437.395	1386.91
437.77	1399.79
438.145	1436.18
438.52	1466.68
438.895	1467.36
439.271	1481.15
439.646	1522.95
440.021	1571.54
440.395	1564.76
440.77	1566.34
441.145	1573.35
441.52	1616.06
441.895	1595.49
442.27	1655.61
442.645	1650.63
443.019	1670.52
443.394	1689.5
443.769	1697.41
444.143	1716.62
444.518	1756.85
444.892	1732.67
445.267	1745.1
445.641	1760.46
446.016	1752.1
446.39	1795.72
446.764	1790.29
447.139	1805.66
447.513	1853.57
447.887	1822.38
448.262	1840.91
448.636	1871.42
449.01	1880.01
449.384	1870.97
449.758	1913.23
450.132	1948.93
450.506	1951.42
450.88	1954.36
451.254	1984.41
451.628	1988.93
452.002	2000.91
452.376	2005.65
452.75	2045.88
453.123	2047.69
453.497	2082.04
453.871	2102.37
454.244	2115.93
454.618	2121.36
454.992	2150.28
455.365	2180.34
455.739	2243.39
456.112	2240.22
456.486	2273.22
456.859	2275.7
457.232	2340.79
457.606	2302.82
457.979	2358.41
458.352	2413.1
458.725	2425.08
459.099	2419.2
459.472	2442.03
459.845	2466.21
460.218	2506.43
460.591	2529.48
460.964	2550.72
461.337	2600.67
461.71	2618.52
462.083	2646.09
462.456	2685.86
462.829	2639.31
463.201	2714.34
463.574	2728.12
463.947	2773.54
464.32	2810.15
464.692	2847.89
465.065	2838.4
465.438	2877.27
465.81	2926.53
466.183	2941.67
466.555	3005.85
466.928	3025.97
467.3	3023.71
467.672	3047.43
468.045	3110.71
468.417	3143.7
468.789	3135.34
469.161	3167.66
469.534	3241.55
469.906	3304.15
470.278	3330.82
470.65	3380.76
471.022	3403.58
471.394	3451.04
471.766	3496.91
472.138	3522
472.51	3573.52
472.882	3630.92
473.253	3678.15
473.625	3724.25
473.997	3783.69
474.369	3784.82
474.74	3845.38
475.112	3928.31
475.484	3914.98
475.855	4012.83
476.227	4008.09
476.598	4106.16
476.97	4161.75
477.341	4207.63
477.713	4246.27
478.084	4306.38
478.455	4407.4
478.827	4431.35
479.198	4522.2
479.569	4503.67
479.94	4635.64
480.311	4679.03
480.682	4804.68
481.053	4849.19
481.424	4901.17
481.795	4954.5
482.166	5037.89
482.537	5069.53
482.908	5154.5
483.279	5213.25
483.65	5286.92
484.021	5367.6
484.391	5449.86
484.762	5448.27
485.133	5523.53
485.503	5552.45
485.874	5666.57
486.244	5657.99
486.615	5769.62
486.985	5834.93
487.356	5983.18
487.726	5964.87
488.097	6081.93
488.467	6041.25
488.837	6165.09
489.207	6242.15
489.578	6247.12
489.948	6345.2
490.318	6393.56
490.688	6425.2
491.058	6479.43
491.428	6611.63
491.798	6655.02
492.168	6814.34
492.538	6793.1
492.908	6824.06
493.278	6877.84
493.648	6931.17
494.017	6992.64
494.387	7015.01
494.757	7121.23
495.126	7093.2
495.496	7124.39
495.866	7181.11
496.235	7248.23
496.605	7290.26
496.974	7313.99
497.344	7354.44
497.713	7380.2
498.082	7488.22
498.452	7518.28
498.821	7490.71
499.19	7482.12
499.559	7559.18
499.928	7554.21
500.298	7634.43
500.667	7669.46
501.036	7652.06
501.405	7709.23
501.774	7746.29
502.143	7777.71
502.512	7805.95
502.88	7851.15
503.249	7851.6
503.618	7874.43
503.987	7928.44
504.356	7895.22
504.724	7911.94
505.093	7992.39
505.462	7969.79
505.83	7976.12
506.199	8030.58
506.567	8162.1
506.936	8080.3
507.304	8212.27
507.672	8181.54
508.041	8243.91
508.409	8192.16
508.777	8253.62
509.145	8284.13
509.514	8283.23
509.882	8247.75
510.25	8324.13
510.618	8418.59
510.986	8319.16
511.354	8381.76
511.722	8375.43
512.09	8427.18
512.458	8412.94
512.826	8451.13
513.193	8460.85
513.561	8414.52
513.929	8530.68
514.297	8470.34
514.664	8563.45
515.032	8566.16
515.4	8654.07
515.767	8646.38
516.135	8630.56
516.502	8507.86
516.869	8646.61
517.237	8615.65
517.604	8613.16
517.972	8649.09
518.339	8619.49
518.706	8622.65
519.073	8680.28
519.44	8652.48
519.808	8736.1
520.175	8708.3
520.542	8740.39
520.909	8717.12
521.276	8722.09
521.643	8778.58
522.009	8758.92
522.376	8758.47
522.743	8757.34
523.11	8922.31
523.477	8866.26
523.843	8870.33
524.21	8870.33
524.577	8915.98
524.943	8925.47
525.31	8904.46
525.676	8955.53
526.043	9014.06
526.409	9008.63
526.776	9022.87
527.142	9016.09
527.508	9034.62
527.874	9001.18
528.241	9030.55
528.607	8991.91
528.973	9068.97
529.339	9044.79
529.705	9068.29
530.071	9105.81
530.437	9055.64
530.803	9113.72
531.169	9059.71
531.535	9038.91
531.901	9037.78
532.267	9040.95
532.632	9040.95
532.998	9058.58
533.364	9062.42
533.73	9041.63
534.095	9074.85
534.461	9066.94
534.826	9093.38
535.192	9153.26
535.557	9059.71
535.923	9018.8
536.288	9001.63
536.653	9021.29
537.019	8902.65
537.384	8930.44
537.749	8950.1
538.114	8929.54
538.479	8927.96
538.845	8927.73
539.21	8838.92
539.575	8841.63
539.94	8847.06
540.305	8861.74
540.67	8802.08
541.034	8849.77
541.399	8807.06
541.764	8785.36
542.129	8779.71
542.494	8773.39
542.858	8785.36
543.223	8726.61
543.587	8650
543.952	8698.81
544.316	8660.62
544.681	8665.82
545.045	8651.35
545.41	8685.93
545.774	8638.02
546.138	8614.52
546.503	8585.59
546.867	8534.52
547.231	8651.58
547.595	8626.04
547.959	8556.22
548.324	8558.93
548.688	8535.88
549.052	8499.95
549.416	8437.57
549.779	8404.58
550.143	8458.37
550.507	8412.94
550.871	8386.05
551.235	8393.51
551.599	8430.8
551.962	8382.21
552.326	8399.16
552.689	8405.94
553.053	8325.94
553.417	8297.47
553.78	8383.56
554.143	8260.63
554.507	8320.52
554.87	8300.63
555.234	8376.56
555.597	8287.3
555.96	8279.84
556.323	8287.97
556.686	8214.98
557.05	8263.34
557.413	8183.8
557.776	8273.74
558.139	8251.36
558.502	8229.9
558.865	8186.28
559.228	8300.86
559.59	8256.56
559.953	8245.72
560.316	8312.15
560.679	8227.41
561.041	8357.8
561.404	8301.53
561.767	8285.04
562.129	8215.43
562.492	8293.85
562.854	8311.7
563.217	8293.17
563.579	8261.08
563.941	8341.31
564.304	8351.25
564.666	8326.84
565.028	8371.36
565.39	8347.41
565.753	8445.71
566.115	8380.85
566.477	8391.47
566.839	8387.18
567.201	8464.47
567.563	8444.35
567.925	8522.32
568.287	8531.58
568.648	8444.13
569.01	8472.38
569.372	8543.56
569.734	8460.4
570.095	8520.74
570.457	8568.19
570.819	8567.29
571.18	8560.51
571.542	8585.14
571.903	8564.8
572.265	8661.98
572.626	8648.87
572.987	8619.94
573.349	8680.05
573.71	8733.16
574.071	8747.62
574.432	8683.67
574.794	8775.42
575.155	8768.87
575.516	8749.88
575.877	8765.7
576.238	8775.42
576.599	8782.2
576.96	8790.33
577.32	8859.94
577.681	8855.19
578.042	8937.9
578.403	8867.62
578.763	8934.51
579.124	8961.4
579.485	8952.59
579.845	8981.06
580.206	9031.23
580.566	8990.78
580.927	8981.29
581.287	8995.3
581.648	9022.64
582.008	9131.12
582.368	9114.62
582.728	9087.73
583.089	9114.17
583.449	9155.07
583.809	9069.65
584.169	9162.75
584.529	9219.25
584.889	9206.59
585.249	9133.6
585.609	9249.08
585.969	9291.11
586.329	9263.32
586.688	9234.62
587.048	9313.94
587.408	9257.89
587.768	9254.28
588.127	9324.56
588.487	9329.08
588.846	9385.57
589.206	9301.51
589.565	9321.39
589.925	9443.88
590.284	9357.32
590.643	9391.67
591.003	9391.9
591.362	9381.5
591.721	9453.59
592.08	9441.62
592.44	9480.71
592.799	9487.94
593.158	9449.3
593.517	9482.07
593.876	9497.43
594.235	9510.99
594.593	9513.7
594.952	9531.56
595.311	9508.73
595.67	9529.3
596.029	9577.21
596.387	9603.42
596.746	9613.82
597.104	9585.57
597.463	9573.82
597.822	9636.19
598.18	9637.77
598.538	9549.64
598.897	9592.35
599.255	9509.41
599.613	9742.4
599.972	9661.95
600.33	9709.63
600.688	9670.08
601.046	9673.7
601.404	9650.65
601.762	9685.45
602.12	9689.75
602.478	9709.86
602.836	9723.64
603.194	9656.98
603.552	9667.15
603.91	9614.94
604.268	9717.32
604.625	9695.85
604.983	9728.16
605.341	9680.71
605.698	9680.71
606.056	9688.84
606.413	9731.33
606.771	9765
607.128	9705.79
607.485	9767.94
607.843	9785.34
608.2	9807.93
608.557	9811.1
608.914	9740.14
609.272	9854.71
609.629	9812.91
609.986	9860.14
610.343	9859.01
610.7	9935.61
611.057	9872.79
611.414	9870.53
611.771	9853.81
612.127	9888.61
612.484	9913.47
612.841	9975.84
613.198	9945.33
613.554	9934.71
613.911	9978.78
614.267	9974.71
614.624	9984.88
614.98	9943.75
615.337	10024.88
615.693	10039.34
616.05	10025.33
616.406	10095.16
616.762	9990.53
617.118	10063.52
617.475	9992.79
617.831	9977.65
618.187	10041.37
618.543	10062.16
618.899	10093.12
619.255	10100.13
619.611	10014.03
619.967	10118.89
620.323	10143.29
620.678	10063.75
621.034	10098.77
621.39	10104.42
621.746	10072.56
622.101	10183.52
622.457	10090.86
622.812	10091.54
623.168	10085.89
623.523	10119.56
623.879	10182.39
624.234	10106.46
624.589	10125.21
624.945	10172.9
625.3	10077.08
625.655	10177.42
626.01	10127.47
626.365	10138.55
626.72	10128.6
627.075	10113.91
627.43	10082.05
627.785	10097.19
628.14	10132.22
628.495	10055.61
628.85	10091.09
629.205	10046.57
629.559	10065.78
629.914	9998.44
630.269	10108.04
630.623	10002.73
630.978	9989.17
631.332	10028.27
631.687	10045.22
632.041	10049.96
632.396	9991.21
632.75	9987.36
633.104	9988.27
633.459	9893.58
633.813	9909.4
634.167	9920.02
634.521	9891.1
634.875	9924.09
635.229	9908.72
635.583	9896.29
635.937	9842.06
636.291	9879.12
636.645	9915.28
636.999	9837.54
637.352	9849.29
637.706	9824.66
638.06	9872.11
638.413	9802.74
638.767	9828.5
639.121	9788.73
639.474	9780.36
639.828	9777.88
640.181	9747.82
640.534	9723.87
640.888	9660.37
641.241	9675.51
641.594	9686.13
641.947	9711.21
642.301	9714.15
642.654	9686.13
643.007	9675.51
643.36	9620.59
643.713	9632.8
644.066	9693.36
644.419	9618.56
644.771	9596.41
645.124	9484.33
645.477	9522.07
645.83	9466.47
646.182	9403.43
646.535	9380.15
646.888	9405.01
647.24	9318.23
647.593	9346.93
647.945	9365.23
648.298	9306.25
648.65	9260.6
649.002	9305.8
649.355	9387.38
649.707	9279.36
650.059	9380.15
650.411	9513.7
650.763	9506.02
651.115	9558.9
651.467	9589.18
651.819	9648.16
652.171	9629.63
652.523	9547.83
652.875	9529.75
653.227	9491.78
653.578	9578.11
653.93	9563.87
654.282	9512.8
654.633	9490.65
654.985	9527.94
655.337	9504.44
655.688	9525.46
656.039	9583.08
656.391	9550.31
656.742	9516.19
657.094	9549.64
657.445	9555.51
657.796	9486.81
658.147	9560.03
658.498	9546.47
658.849	9480.03
659.2	9552.12
659.551	9536.53
659.902	9540.6
660.253	9547.38
660.604	9545.34
660.955	9509.18
661.306	9565.68
661.656	9532.91
662.007	9633.7
662.358	9569.52
662.708	9598
663.059	9595.28
663.409	9551.22
663.76	9594.15
664.11	9577.21
664.461	9586.25
664.811	9597.32
665.161	9573.14
665.511	9584.66
665.862	9609.52
666.212	9573.36
666.562	9636.64
666.912	9582.18
667.262	9553.48
667.612	9548.51
667.962	9576.3
668.312	9560.03
668.662	9574.04
669.011	9621.5
669.361	9612.91
669.711	9546.02
670.06	9550.54
670.41	9563.87
670.76	9521.39
671.109	9553.25
671.459	9512.12
671.808	9530.43
672.157	9513.03
672.507	9531.33
672.856	9468.96
673.205	9497.21
673.554	9476.19
673.904	9498.56
674.253	9544.89
674.602	9506.7
674.951	9389.87
675.3	9355.06
675.649	9444.55
675.998	9473.25
676.346	9455.18
676.695	9444.1
677.044	9366.36
677.393	9434.61
677.741	9395.74
678.09	9441.16
678.438	9426.25
678.787	9420.6
679.135	9362.07
679.484	9300.83
679.832	9400.26
680.181	9214.28
680.529	9251.11
680.877	9328.85
681.225	9260.6
681.573	9296.54
681.922	9177.22
682.27	9233.26
682.618	9200.27
682.966	9189.19
683.314	9180.38
683.661	9173.6
684.009	9129.31
684.357	9098.8
684.705	9050.67
685.053	9086.82
685.4	9051.8
685.748	9020.84
686.095	8983.78
686.443	8980.39
686.79	9030.55
687.138	9000.05
687.485	9031.01
687.832	8909.88
688.18	8936.54
688.527	8854.29
688.874	8872.14
689.221	8804.8
689.568	8784.46
689.915	8806.15
690.262	8786.04
690.609	8724.8
690.956	8675.76
691.303	8678.92
691.65	8650.22
691.997	8671.47
692.344	8612.03
692.69	8542.88
693.037	8539.72
693.383	8514.41
693.73	8481.87
694.077	8517.12
694.423	8407.52
694.769	8389.21
695.116	8386.95
695.462	8381.98
695.808	8327.07
696.155	8349.44
696.501	8210.46
696.847	8225.38
697.193	8158.49
697.539	8224.25
697.885	8109.22
698.231	8141.99
698.577	8127.3
698.923	8029.9
699.269	8055.21
699.614	7974.99
699.96	8012.73
700.306	7968.66
700.651	7880.08
700.997	7879.4
701.342	7897.93
701.688	7859.06
702.033	7801.89
702.379	7836.46
702.724	7802.56
703.069	7757.59
703.415	7688.89
703.76	7646.64
704.105	7666.75
704.45	7630.36
704.795	7589.01
705.14	7542.91
705.485	7564.83
705.83	7456.58
706.175	7547.43
706.52	7434.89
706.865	7447.32
707.209	7426.08
707.554	7460.43
707.899	7421.33
708.243	7380.88
708.588	7342.46
708.932	7283.03
709.277	7269.47
709.621	7278.51
709.966	7248
710.31	7257.94
710.654	7254.78
710.998	7190.83
711.342	7214.56
711.687	7121.9
712.031	7163.26
712.375	7094.56
712.719	7155.35
713.063	7145.86
713.407	7088.91
713.75	7072.19
714.094	7051.62
714.438	7039.87
714.782	7093.2
715.125	7038.06
715.469	7052.53
715.812	7024.28
716.156	6937.5
716.499	6962.36
716.843	6942.7
717.186	6946.77
717.53	7050.72
717.873	6953.55
718.216	7023.15
718.559	6916.48
718.902	6886.88
719.246	6879.2
719.589	6920.33
719.932	6844.17
720.275	6849.37
720.617	6870.84
720.96	6831.06
721.303	6814.57
721.646	6836.03
721.989	6798.97
722.331	6875.36
722.674	6741.35
723.016	6812.76
723.359	6818.41
723.701	6824.74
724.044	6745.64
724.386	6750.61
724.729	6784.06
725.071	6766.88
725.413	6797.39
725.755	6712.87
726.097	6693.44
726.439	6727.11
726.782	6684.17
727.124	6758.3
727.465	6706.77
727.807	6678.98
728.149	6635.36
728.491	6640.11
728.833	6693.89
729.175	6664.06
729.516	6703.38
729.858	6727.11
730.199	6736.6
730.541	6701.8
730.882	6708.35
731.224	6722.14
731.565	6628.58
731.906	6673.55
732.248	6655.93
732.589	6656.83
732.93	6645.76
733.271	6629.49
733.612	6680.56
733.953	6711.29
734.294	6685.98
734.635	6661.12
734.976	6679.88
735.317	6644.85
735.658	6688.02
735.999	6699.99
736.339	6681.24
736.68	6709.03
737.021	6709.71
737.361	6694.57
737.702	6732.99
738.042	6697.73
738.383	6736.15
738.723	6704.29
739.063	6725.98
739.404	6738.64
739.744	6759.65
740.084	6768.24
740.424	6725.3
740.764	6752.42
741.104	6788.58
741.444	6805.98
741.784	6836.26
742.124	6811.4
742.464	6865.41
742.804	6822.25
743.143	6850.05
743.483	6903.83
743.823	6906.99
744.162	6979.76
744.502	6950.38
744.841	7018.63
745.181	7045.97
745.52	7042.13
745.86	7053.66
746.199	7079.64
746.538	7143.82
746.877	7206.19
747.216	7211.17
747.556	7273.54
747.895	7327.32
748.234	7319.41
748.573	7376.81
748.911	7387.43
749.25	7500.42
749.589	7476.92
749.928	7603.02
750.267	7683.24
750.605	7747.2
750.944	7833.75
751.283	7853.86
751.621	7995.55
751.96	8044.36
752.298	8121.65
752.636	8195.1
752.975	8312.83
753.313	8391.7
753.651	8562.09
753.989	8569.1
754.327	8685.03
754.666	8781.52
755.004	8895.87
755.342	9083.43
755.679	9134.73
756.017	9216.09
756.355	9383.99
756.693	9438
757.031	9635.06
757.368	9684.55
757.706	9908.5
758.044	10064.2
758.381	10195.49
758.719	10298.54
759.056	10544.86
759.394	10708.25
759.731	10750.96
760.068	11017.62
760.405	11079.77
760.743	11272.98
761.08	11419.19
761.417	11623.48
761.754	11849.01
762.091	11937.37
762.428	12068.21
762.765	12300.75
763.102	12496
763.438	12549.78
763.775	12801.75
764.112	12945.03
764.449	13173.27
764.785	13268.63
765.122	13375.75
765.458	13597.44
765.795	13784.1
766.131	13862.06
766.467	14109.06
766.804	14137.54
767.14	14323.52
767.476	14525.1
767.812	14620.91
768.148	14838.76
768.485	14933.9
768.821	15080.11
769.157	15162.6
769.492	15256.6
769.828	15408.69
770.164	15572.53
770.5	15747.21
770.836	15735.69
771.171	15886.19
771.507	16018.17
771.842	16098.62
772.178	16156.24
772.513	16311.27
772.849	16429
773.184	16471.94
773.519	16521.43
773.855	16599.17
774.19	16760.97
774.525	16745.6
774.86	16953.74
775.195	16991.25
775.53	17065.6
775.865	16964.13
776.2	17031.7
776.535	17041.42
776.87	17191.69
777.205	17288.87
777.539	17295.19
777.874	17384.46
778.209	17330.67
778.543	17377.9
778.878	17422.42
779.212	17504.91
779.547	17460.39
779.881	17568.86
780.215	17501.74
780.55	17692.25
780.884	17593.94
781.218	17614.51
781.552	17703.55
781.886	17667.16
782.22	17678.69
782.554	17721.62
782.888	17612.47
783.222	17698.8
783.556	17553.49
783.889	17687.28
784.223	17599.14
784.557	17548.75
784.89	17624
785.224	17562.98
785.557	17557.56
785.891	17543.32
786.224	17644.11
786.558	17656.99
786.891	17495.19
787.224	17494.96
787.557	17360.73
787.891	17471.46
788.224	17488.41
788.557	17525.02
788.89	17533.83
789.223	17558.69
789.556	17408.64
789.888	17403.21
790.221	17431.24
790.554	17266.5
790.887	17323.67
791.219	17315.31
791.552	17292.71
791.884	17198.25
792.217	17213.39
792.549	17205.25
792.882	17167.97
793.214	17146.72
793.546	17083.45
793.879	17011.81
794.211	17008.42
794.543	17054.3
794.875	16974.07
795.207	17097.01
795.539	16942.44
795.871	16901.31
796.203	16797.13
796.535	16828.09
796.867	16820.86
797.198	16775.43
797.53	16837.35
797.862	16696.57
798.193	16704.93
798.525	16581.32
798.856	16629.45
799.188	16523.92
799.519	16462
799.85	16414.54
800.182	16425.61
800.513	16407.76
800.844	16353.98
801.175	16402.79
801.506	16346.52
801.837	16330.47
802.168	16197.14
802.499	16157.6
802.83	16114.44
803.161	16214.09
803.491	16113.98
803.822	16153.08
804.153	16049.58
804.483	15987.66
804.814	15897.49
805.145	15921.67
805.475	15860.2
805.805	15878.51
806.136	15782.24
806.466	15780.88
806.796	15850.26
807.126	15707.21
807.457	15710.83
807.787	15703.37
808.117	15632.87
808.447	15596.48
808.777	15568.46
809.107	15432.65
809.436	15435.36
809.766	15389.71
810.096	15460.21
810.426	15329.37
810.755	15387.22
811.085	15342.48
811.414	15402.82
811.744	15224.97
812.073	15207.79
812.403	15244.63
812.732	15223.39
813.061	15241.01
813.39	15089.83
813.719	15037.85
814.049	15110.17
814.378	15076.04
814.707	15016.38
815.036	14968.02
815.365	14939.78
815.693	14839.21
816.022	14965.54
816.351	14855.03
816.68	14770.74
817.008	14936.61
817.337	14802.61
817.665	14758.99
817.994	14699.33
818.322	14679.9
818.651	14598.54
818.979	14627.69
819.307	14731.19
819.636	14676.05
819.964	14549.73
820.292	14637.41
820.62	14473.8
820.948	14497.3
821.276	14551.09
821.604	14462.05
821.932	14530.75
822.259	14528.04
822.587	14495.95
822.915	14549.96
823.243	14519.9
823.57	14491.43
823.898	14509.05
824.225	14465.89
824.553	14381.37
824.88	14450.52
825.207	14479.9
825.535	14476.06
825.862	14554.48
826.189	14415.5
826.516	14450.75
826.843	14624.76
827.17	14451.2
827.497	14543.4
827.824	14513.12
828.151	14536.85
828.478	14504.76
828.805	14579.79
829.131	14467.25
829.458	14458.66
829.785	14420.24
830.111	14498.21
830.438	14573.91
830.764	14526.45
831.09	14506.79
831.417	14393.35
831.743	14528.94
832.069	14497.3
832.395	14481.26
832.722	14522.61
833.048	14384.99
833.374	14481.48
833.7	14361.94
834.026	14423.63
834.351	14488.94
834.677	14466.34
835.003	14448.72
835.329	14431.32
835.654	14400.13
835.98	14303.41
836.306	14356.97
836.631	14251.21
836.956	14346.12
837.282	14372.56
837.607	14307.7
837.932	14280.13
838.258	14289.62
838.583	14249.63
838.908	14208.04
839.233	14159.01
839.558	14152
839.883	14058.22
840.208	14075.62
840.533	14094.15
840.858	14147.93
841.182	14103.19
841.507	13982.06
841.832	13975.96
842.156	13957.66
842.481	13926.02
842.805	13886.25
843.13	13898
843.454	13920.59
843.778	13755.63
844.103	13778.68
844.427	13754.27
844.751	13708.4
845.075	13689.87
845.399	13705.01
845.723	13647.16
846.047	13643.99
846.371	13516.31
846.695	13509.08
847.019	13381.4
847.343	13286.94
847.666	13238.35
847.99	13206.49
848.313	13170.56
848.637	13183.66
848.96	13113.84
849.284	13029.09
849.607	12969.43
849.931	12887.85
850.254	12848.31
850.577	12842.43
850.9	12813.5
851.223	12729.44
851.546	12674.3
851.869	12616.22
852.192	12609.89
852.515	12496.23
852.838	12481.54
853.161	12465.72
853.483	12378.49
853.806	12374.87
854.129	12246.74
854.451	12302.11
854.774	12234.09
855.096	12182.56
855.419	12163.8
855.741	12142.79
856.063	12086.29
856.385	11967.43
856.708	11983.24
857.03	11948.89
857.352	11949.8
857.674	11883.81
857.996	11829.35
858.318	11737.37
858.64	11860.31
858.961	11735.34
859.283	11658.51
859.605	11687.66
859.926	11673.65
860.248	11649.24
860.57	11572.63
860.891	11628.9
861.212	11470.04
861.534	11555.68
861.855	11445.18
862.176	11477.49
862.498	11486.53
862.819	11430.94
863.14	11433.2
863.461	11382.81
863.782	11428.68
864.103	11349.14
864.424	11299.87
864.745	11316.6
865.065	11217.84
865.386	11138.52
865.707	11289.93
866.027	11197.28
866.348	11239.53
866.668	11173.77
866.989	11156.37
867.309	11014.46
867.63	11061.46
867.95	11102.36
868.27	11032.99
868.59	11034.79
868.91	10999.99
869.23	11021.69
869.55	10933.33
869.87	10995.02
870.19	10961.35
870.51	10995.47
870.83	10968.13
871.15	10885.42
871.469	10915.93
871.789	10925.19
872.109	10816.5
872.428	10820.79
872.748	10810.39
873.067	10840.9
873.386	10814.69
873.706	10796.38
874.025	10663.73
874.344	10687.91
874.663	10749.15
874.982	10696.72
875.301	10669.83
875.62	10683.39
875.939	10628.03
876.258	10626.9
876.577	10582.38
876.896	10616.95
877.214	10596.84
877.533	10567.46
877.852	10538.08
878.17	10561.36
878.489	10555.03
878.807	10539.21
879.125	10495.6
879.444	10479.78
879.762	10382.38
880.08	10510.74
880.398	10401.14
880.716	10457.41
881.034	10364.76
881.352	10393
881.67	10360.01
881.988	10302.84
882.306	10265.78
882.624	10247.92
882.941	10274.81
883.259	10166.34
883.577	10143.07
883.894	10164.76
884.212	10142.61
884.529	10136.06
884.846	10119.56
885.164	10046.8
885.481	10042.73
885.798	10082.05
886.115	9938.78
886.432	9925.22
886.75	9981.94
887.067	9886.8
887.383	9868.95
887.7	9890.19
888.017	9800.7
888.334	9902.39
888.651	9789.63
888.967	9808.84
889.284	9745.79
889.6	9764.09
889.917	9666.47
890.233	9689.52
890.55	9638
890.866	9605.23
891.182	9649.97
891.498	9540.14
891.815	9515.51
892.131	9502.41
892.447	9449.3
892.763	9409.75
893.079	9427.38
893.395	9416.98
893.71	9395.06
894.026	9317.55
894.342	9338.12
894.657	9182.41
894.973	9232.36
895.289	9223.54
895.604	9235.52
895.92	9148.52
896.235	9105.81
896.55	9086.37
896.865	9060.38
897.181	9069.2
897.496	9047.73
897.811	8929.54
898.126	8939.48
898.441	8979.26
898.756	8920.95
899.071	8861.74
899.386	8797.34
899.7	8748.53
900.015	8743.56
900.33	8685.93
900.644	8649.32
900.959	8650.9
901.273	8636.21
901.588	8641.19
901.902	8600.06
902.216	8539.94
902.531	8519.61
902.845	8482.09
903.159	8412.04
903.473	8405.94
903.787	8380.63
904.101	8309.22
904.415	8281.42
904.729	8266.51
905.042	8235.55
905.356	8207.3
905.67	8190.35
905.984	8149.22
906.297	8132.27
906.611	8046.4
906.924	8074.42
907.237	8035.1
907.551	8012.95
907.864	7914.65
908.177	7952.16
908.491	7889.34
908.804	7821.77
909.117	7795.33
909.43	7738.84
909.743	7706.75
910.056	7681.89
910.368	7692.96
910.681	7602.57
910.994	7630.14
911.307	7596.24
911.619	7521.67
911.932	7539.52
912.244	7426.98
912.557	7477.37
912.869	7403.03
913.181	7420.65
913.494	7397.83
913.806	7285.29
914.118	7329.81
914.43	7291.39
914.742	7202.13
915.054	7240.09
915.366	7207.55
915.678	7194.44
915.99	7133.2
916.302	7103.82
916.613	7036.26
916.925	7055.46
917.236	7056.14
917.548	6987.44
917.859	6976.14
918.171	6921.68
918.482	6930.27
918.794	6912.87
919.105	6855.47
919.416	6805.98
919.727	6786.09
920.038	6788.35
920.349	6721.91
920.66	6707.68
920.971	6702.93
921.282	6661.12
921.593	6622.03
921.903	6576.61
922.214	6538.19
922.525	6553.33
922.835	6591.52
923.146	6458.64
923.456	6509.04
923.767	6414.58
924.077	6426.55
924.387	6386.1
924.697	6417.97
925.008	6292.77
925.318	6258.42
925.628	6363.05
925.938	6296.84
926.248	6242.83
926.558	6196.5
926.867	6168.93
927.177	6167.8
927.487	6122.83
927.796	6089.16
928.106	6087.13
928.416	6027.02
928.725	6022.95
929.034	6020.46
929.344	6001.03
929.653	6001.93
929.962	5954.48
930.271	5871.77
930.581	5864.31
930.89	5829.73
931.199	5839.22
931.508	5824.54
931.817	5846.46
932.125	5801.49
932.434	5770.3
932.743	5709.51
933.051	5726.46
933.36	5679.91
933.669	5681.49
933.977	5629.51
934.286	5620.47
934.594	5594.49
934.902	5534.37
935.21	5543.64
935.519	5554.71
935.827	5469.29
936.135	5452.57
936.443	5408.73
936.751	5388.16
937.059	5452.34
937.367	5410.54
937.674	5357.88
937.982	5380.03
938.29	5328.5
938.597	5351.55
938.905	5238.79
939.213	5230.88
939.52	5219.58
939.827	5212.35
940.135	5199.69
940.442	5115.63
940.749	5166.47
941.056	5105.01
941.363	5087.83
941.67	5049.42
941.977	5050.55
942.284	4997.67
942.591	4980.49
942.898	4966.71
943.205	4938.46
943.511	4931
943.818	4894.84
944.125	4885.58
944.431	4900.04
944.738	4874.73
945.044	4849.19
945.35	4821.4
945.657	4759.71
945.963	4778.01
946.269	4693.49
946.575	4758.35
946.881	4703.44
947.187	4701.63
947.493	4706.83
947.799	4663.44
948.105	4685.13
948.41	4651.46
948.716	4622.76
949.022	4595.64
949.327	4532.82
949.633	4550.45
949.938	4524.01
950.244	4470.9
950.549	4488.3
950.854	4433.16
951.16	4427.96
951.465	4421.64
951.77	4428.41
952.075	4411.47
952.38	4367.4
952.685	4399.04
952.99	4318.81
953.294	4357.23
953.599	4348.19
953.904	4291.24
954.209	4269.55
954.513	4234.52
954.818	4217.8
955.122	4187.97
955.426	4167.4
955.731	4210.79
956.035	4180.74
956.339	4154.3
956.643	4126.5
956.948	4122.66
957.252	4099.38
957.556	4077.92
957.86	4027.3
958.163	4045.15
958.467	4042.89
958.771	4001.31
959.075	3994.3
959.378	3926.96
959.682	4003.79
959.985	3914.08
960.289	3910.46
960.592	3898.49
960.896	3863.23
961.199	3864.81
961.502	3833.18
961.805	3812.84
962.108	3800.18
962.411	3806.51
962.714	3747.08
963.017	3771.03
963.32	3772.61
963.623	3763.12
963.926	3726.96
964.228	3713.41
964.531	3688.77
964.833	3680.19
965.136	3630.24
965.438	3659.62
965.741	3614.42
966.043	3589.57
966.345	3586.85
966.648	3589.11
966.95	3554.31
967.252	3550.47
967.554	3493.75
967.856	3525.16
968.158	3462.11
968.46	3476.58
968.761	3469.12
969.063	3455.11
969.365	3448.55
969.666	3423.7
969.968	3384.15
970.269	3320.2
970.571	3383.02
970.872	3377.37
971.174	3328.33
971.475	3334.66
971.776	3363.81
972.077	3313.42
972.378	3285.85
972.679	3268.9
972.98	3267.54
973.281	3268.9
973.582	3197.94
973.883	3198.62
974.183	3156.81
974.484	3154.78
974.785	3214.89
975.085	3149.58
975.386	3195.68
975.686	3134.89
975.986	3140.54
976.287	3094.21
976.587	3083.14
976.887	3054.67
977.187	3059.64
977.487	3009.92
977.787	3040.2
978.087	3023.48
978.387	2981
978.687	3002.24
978.987	2982.35
979.286	2957.94
979.586	2969.02
979.885	2935.57
980.185	2924.5
980.484	2911.62
980.784	2883.82
981.083	2917.04
981.382	2868.91
981.682	2847.67
981.981	2863.71
982.28	2855.35
982.579	2822.81
982.878	2809.93
983.177	2780.1
983.475	2817.38
983.774	2761.57
984.073	2767.22
984.372	2777.16
984.67	2735.13
984.969	2728.35
985.267	2709.36
985.566	2727.44
985.864	2716.6
986.162	2657.61
986.461	2649.03
986.759	2644.28
987.057	2630.27
987.355	2616.94
987.653	2593.43
987.951	2610.61
988.249	2614.45
988.547	2567.45
988.844	2576.49
989.142	2602.25
989.44	2554.34
989.737	2526.09
990.035	2495.13
990.332	2544.85
990.63	2500.78
990.927	2490.16
991.224	2479.54
991.521	2453.1
991.819	2443.16
992.116	2440.9
992.413	2401.12
992.71	2409.03
993.006	2406.77
993.303	2405.64
993.6	2380.56
993.897	2360.45
994.193	2387.34
994.49	2398.19
994.787	2338.07
995.083	2310.96
995.379	2320
995.676	2303.05
995.972	2290.39
996.268	2282.93
996.565	2272.31
996.861	2270.96
997.157	2256.04
997.453	2262.37
997.749	2247.23
998.044	2209.26
998.34	2201.35
998.636	2211.52
998.932	2210.85
999.227	2150.96
999.523	2142.37
999.818	2138.08
1000.114	2157.06
1000.409	2126.1
1000.704	2097.18
1001	2105.99
1001.295	2123.84
1001.59	2069.83
1001.885	2057.63
1002.18	2059.21
1002.475	2060.57
1002.77	2046.33
1003.065	2053.11
1003.359	1977.18
1003.654	2021.25
1003.949	1978.08
1004.243	1968.37
1004.538	1950.29
1004.832	1983.06
1005.127	1915.26
1005.421	1920.91
1005.715	1960.23
1006.009	1890.85
1006.304	1909.84
1006.598	1876.17
1006.892	1861.93
1007.186	1891.08
1007.48	1842.04
1007.773	1841.59
1008.067	1862.61
1008.361	1806.34
1008.655	1803.17
1008.948	1818.31
1009.242	1812.21
1009.535	1788.48
1009.829	1788.48
1010.122	1775.83
1010.415	1767.02
1010.708	1741.93
1011.001	1727.24
1011.295	1731.31
1011.588	1720.24
1011.881	1705.1
1012.173	1687.7
1012.466	1710.07
1012.759	1703.06
1013.052	1654.93
1013.344	1642.73
1013.637	1652.44
1013.93	1624.42
1014.222	1635.04
1014.514	1632.78
1014.807	1647.7
1015.099	1605.21
1015.391	1586.68
1015.683	1588.49
1015.976	1576.51
1016.268	1562.28
1016.56	1565.67
1016.851	1560.24
1017.143	1537.87
1017.435	1545.78
1017.727	1534.25
1018.018	1508.04
1018.31	1494.48
1018.602	1482.96
1018.893	1483.41
1019.185	1473.01
1019.476	1476.18
1019.767	1462.39
1020.058	1452.9
1020.35	1438.66
1020.641	1420.36
1020.932	1430.98
1021.223	1399.79
1021.514	1403.18
1021.804	1380.13
1022.095	1387.36
1022.386	1362.73
1022.677	1360.7
1022.967	1362.73
1023.258	1357.53
1023.548	1329.97
1023.839	1348.95
1024.129	1324.32
1024.419	1314.6
1024.709	1288.61
1025	1300.36
1025.29	1304.88
1025.58	1298.1
1025.87	1255.39
1026.16	1244.77
1026.449	1240.7
1026.739	1230.98
1027.029	1240.93
1027.319	1257.88
1027.608	1207.03
1027.898	1230.08
1028.187	1211.78
1028.477	1179.23
1028.766	1206.35
1029.055	1172.23
1029.344	1183.3
1029.634	1165.68
1029.923	1131.55
1030.212	1141.72
1030.501	1137.2
1030.79	1154.6
1031.078	1123.64
1031.367	1133.81
1031.656	1132.68
1031.945	1113.02
1032.233	1088.84
1032.522	1079.58
1032.81	1079.12
1033.099	1088.62
1033.387	1078.45
1033.675	1074.15
1033.963	1054.27
1034.251	1088.62
1034.54	1052.01
1034.828	1049.07
1035.116	1009.3
1035.403	1033.25
1035.691	1029.86
1035.979	1013.59
1036.267	997.77
1036.554	988.73
1036.842	1004.55
1037.129	980.6
1037.417	972.46
1037.704	976.3
1037.992	979.92
1038.279	964.1
1038.566	950.99
1038.853	950.99
1039.14	950.99
