Data from hue_200_FLMS001491_00039.txt Node
Date: Tue Feb 07 16:43:12 GMT 2017
User: dcchb
Spectrometer: FLMS00149
Trigger mode: 0
Integration Time (sec): 2.000000E-2
Scans to average: 10
Electric dark correction enabled: true
Nonlinearity correction enabled: false
Boxcar width: 0
XAxis mode: Wavelengths
Number of Pixels in Spectrum: 2048
>>>>>Begin Spectral Data<<<<<
341.393	22.91
341.776	22.91
342.16	22.91
342.543	-41.95
342.927	-84.88
343.31	-71.1
343.693	-66.58
344.077	-55.96
344.46	-69.74
344.843	-72
345.226	-31.78
345.61	-22.06
345.993	-21.84
346.376	-11.21
346.759	-0.82
347.142	43.93
347.525	41.21
347.908	62
348.291	82.79
348.674	85.05
349.057	108.1
349.44	125.05
349.823	151.49
350.206	165.73
350.588	193.07
350.971	215.9
351.354	224.49
351.737	232.62
352.119	259.74
352.502	262.22
352.884	261.77
353.267	293.86
353.65	295.9
354.032	290.92
354.414	300.19
354.797	309.91
355.179	330.92
355.562	313.52
355.944	298.83
356.326	340.87
356.709	335.9
357.091	343.58
357.473	321.88
357.855	338.38
358.238	321.43
358.62	339.74
359.002	325.73
359.384	346.06
359.766	334.99
360.148	336.57
360.53	328.66
360.912	331.6
361.294	333.41
361.676	326.63
362.057	349.23
362.439	314.88
362.821	333.64
363.203	323.69
363.584	336.57
363.966	349.23
364.348	319.85
364.729	324.6
365.111	315.33
365.493	338.61
365.874	329.57
366.256	320.3
366.637	323.24
367.019	299.06
367.4	315.1
367.781	316.23
368.163	318.04
368.544	323.24
368.925	301.77
369.306	338.38
369.688	306.07
370.069	299.51
370.45	320.98
370.831	329.12
371.212	295.9
371.593	325.27
371.974	311.94
372.355	305.39
372.736	320.75
373.117	299.96
373.498	304.71
373.879	342.45
374.26	328.66
374.641	321.88
375.021	307.42
375.402	312.17
375.783	322.11
376.163	330.7
376.544	336.35
376.925	334.09
377.305	332.73
377.686	339.51
378.066	326.4
378.447	325.95
378.827	340.19
379.208	338.15
379.588	331.83
379.968	340.19
380.349	343.58
380.729	356.69
381.109	364.37
381.489	375.44
381.87	331.15
382.25	330.92
382.63	361.88
383.01	366.18
383.39	363.69
383.77	346.97
384.15	353.3
384.53	379.06
384.91	351.04
385.29	367.76
385.67	353.75
386.049	377.93
386.429	346.29
386.809	363.47
387.189	378.15
387.568	365.72
387.948	373.41
388.328	380.64
388.707	364.82
389.087	359.85
389.466	396.68
389.846	368.21
390.225	376.35
390.605	391.49
390.984	375.22
391.363	383.13
391.743	379.51
392.122	396.01
392.501	387.65
392.881	377.48
393.26	375.67
393.639	383.35
394.018	404.59
394.397	388.1
394.776	401.66
395.155	402.11
395.534	388.1
395.913	397.36
396.292	410.47
396.671	434.2
397.05	412.28
397.429	427.64
397.808	398.94
398.186	423.35
398.565	426.97
398.944	421.99
399.323	418.38
399.701	431.26
400.08	428.77
400.458	419.06
400.837	447.98
401.215	440.53
401.594	428.1
401.972	436.46
402.351	438.94
402.729	446.4
403.107	467.19
403.486	477.59
403.864	477.81
404.242	462.22
404.62	477.59
404.999	494.99
405.377	484.14
405.755	486.4
406.133	496.34
406.511	487.08
406.889	523.69
407.267	508.55
407.645	515.78
408.023	537.25
408.401	517.59
408.779	542.67
409.156	541.54
409.534	550.58
409.912	559.17
410.29	573.4
410.667	572.95
411.045	568.43
411.422	595.32
411.8	603.23
412.178	613.63
412.555	613.4
412.933	625.61
413.31	659.95
413.687	667.86
414.065	660.18
414.442	670.35
414.819	680.07
415.197	705.83
415.574	693.4
415.951	712.61
416.328	726.39
416.705	733.17
417.082	743.34
417.46	783.57
417.837	771.14
418.214	774.53
418.591	780.86
418.967	798.03
419.344	801.19
419.721	812.49
420.098	822.66
420.475	847.07
420.852	838.93
421.228	867.63
421.605	900.17
421.982	868.54
422.358	930.46
422.735	946.95
423.111	942.88
423.488	985.37
423.864	981.3
424.241	1008.87
424.617	1009.1
424.994	1036.44
425.37	1072.15
425.746	1043.9
426.123	1094.75
426.499	1092.03
426.875	1107.85
427.251	1141.07
427.627	1155.76
428.003	1174.74
428.379	1199.83
428.756	1210.67
429.132	1214.74
429.507	1188.98
429.883	1245.93
430.259	1253.61
430.635	1266.49
431.011	1307.85
431.387	1301.52
431.763	1347.17
432.138	1334.74
432.514	1382.65
432.89	1392.36
433.265	1436.88
433.641	1453.15
434.016	1457.22
434.392	1509.65
434.767	1540.38
435.143	1581.29
435.518	1561.4
435.894	1580.61
436.269	1645.69
436.644	1674.62
437.02	1681.17
437.395	1717.33
437.77	1726.14
438.145	1754.16
438.52	1781.28
438.895	1820.83
439.271	1854.95
439.646	1908.74
440.021	1938.79
440.395	1931.11
440.77	1919.81
441.145	2001.39
441.52	2048.39
441.895	2050.65
442.27	2092.01
442.645	2043.87
443.019	2108.96
443.394	2115.06
443.769	2137.66
444.143	2159.12
444.518	2172.01
444.892	2176.52
445.267	2256.97
445.641	2228.95
446.016	2275.28
446.39	2278.67
446.764	2300.82
447.139	2309.85
447.513	2356.18
447.887	2357.99
448.262	2372.9
448.636	2394.37
449.01	2440.02
449.384	2438.21
449.758	2494.71
450.132	2502.39
450.506	2539.9
450.88	2506.23
451.254	2546.01
451.628	2555.5
452.002	2629.39
452.376	2635.5
452.75	2669.85
453.123	2676.17
453.497	2715.72
453.871	2725.89
454.244	2824.19
454.618	2827.13
454.992	2852.44
455.365	2828.26
455.739	2939.44
456.112	2942.15
456.486	2996.84
456.859	2969.72
457.232	3080
457.606	3044.75
457.979	3075.71
458.352	3181.92
458.725	3162.49
459.099	3225.08
459.472	3291.52
459.845	3320.9
460.218	3329.49
460.591	3338.3
460.964	3380.79
461.337	3467.34
461.71	3528.81
462.083	3507.79
462.456	3593.89
462.829	3602.93
463.201	3656.03
463.574	3682.7
463.947	3682.02
464.32	3798.63
464.692	3804.73
465.065	3874.33
465.438	3888.8
465.81	3928.57
466.183	4012.86
466.555	4133.08
466.928	4122.24
467.3	4113.65
467.672	4205.85
468.045	4277.71
468.417	4284.72
468.789	4321.1
469.161	4362.68
469.534	4436.58
469.906	4543.92
470.278	4556.35
470.65	4685.16
471.022	4679.28
471.394	4803.57
471.766	4824.14
472.138	4885.83
472.51	4961.54
472.882	5029.11
473.253	5086.28
473.625	5157.69
473.997	5287.63
474.369	5332.6
474.74	5328.08
475.112	5411.24
475.484	5529.88
475.855	5631.58
476.227	5653.72
476.598	5815.3
476.97	5866.6
477.341	5956.99
477.713	5991.34
478.084	6098.46
478.455	6226.14
478.827	6265.23
479.198	6412.8
479.569	6507.03
479.94	6627.93
480.311	6683.3
480.682	6765.33
481.053	6960.58
481.424	7054.14
481.795	7169.61
482.166	7234.24
482.537	7282.61
482.908	7418.65
483.279	7471.75
483.65	7625.87
484.021	7761.91
484.391	7848.24
484.762	7878.07
485.133	7994.9
485.503	8099.31
485.874	8261.79
486.244	8282.8
486.615	8449.81
486.985	8635.79
487.356	8711.04
487.726	8802.34
488.097	8958.72
488.467	9001.66
488.837	9149.45
489.207	9206.17
489.578	9313.96
489.948	9379.05
490.318	9524.58
490.688	9527.29
491.058	9683.9
491.428	9743.33
491.798	9769.09
492.168	10018.58
492.538	10040.05
492.908	10105.58
493.278	10200.72
493.648	10296.09
494.017	10389.87
494.387	10433.71
494.757	10505.8
495.126	10550.99
495.496	10607.94
495.866	10650.65
496.235	10810.42
496.605	10881.15
496.974	10932.23
497.344	10939.23
497.713	11080.02
498.082	11118.44
498.452	11210.41
498.821	11210.64
499.19	11235.72
499.559	11307.81
499.928	11346.23
500.298	11368.15
500.667	11496.51
501.036	11389.39
501.405	11520.23
501.774	11540.8
502.143	11621.93
502.512	11724.75
502.88	11715.48
503.249	11743.28
503.618	11742.37
503.987	11797.97
504.356	11870.96
504.724	11889.72
505.093	11912.54
505.462	11906.66
505.83	11941.92
506.199	12080.22
506.567	12131.74
506.936	12128.13
507.304	12184.4
507.672	12206.09
508.041	12237.05
508.409	12341
508.777	12390.95
509.145	12435.24
509.514	12376.48
509.882	12478.4
510.25	12455.58
510.618	12540.55
510.986	12460.1
511.354	12576.7
511.722	12622.58
512.09	12719.98
512.458	12662.58
512.826	12669.58
513.193	12689.69
513.561	12740.54
513.929	12841.1
514.297	12891.05
514.664	12899.63
515.032	12949.35
515.4	12914.77
515.767	12994.77
516.135	12988.67
516.502	12894.43
516.869	13031.61
517.237	13017.82
517.604	13002.45
517.972	13029.57
518.339	13018.95
518.706	13092.62
519.073	13077.93
519.44	13122.9
519.808	13155.67
520.175	13117.93
520.542	13241.32
520.909	13289.23
521.276	13149.12
521.643	13259.62
522.009	13353.18
522.376	13310.24
522.743	13326.29
523.11	13406.96
523.477	13371.26
523.843	13476.11
524.21	13498.49
524.577	13564.02
524.943	13542.1
525.31	13595.43
525.676	13578.48
526.043	13545.72
526.409	13550.24
526.776	13621.2
527.142	13616.9
527.508	13654.41
527.874	13665.94
528.241	13646.05
528.607	13545.04
528.973	13691.25
529.339	13653.06
529.705	13695.32
530.071	13660.97
530.437	13718.82
530.803	13673.62
531.169	13753.85
531.535	13576.68
531.901	13604.47
532.267	13512.27
532.632	13561.99
532.998	13547.3
533.364	13546.17
533.73	13529.22
534.095	13598.37
534.461	13563.12
534.826	13525.38
535.192	13458.94
535.557	13502.33
535.923	13459.62
536.288	13344.14
536.653	13466.4
537.019	13285.61
537.384	13284.48
537.749	13301.66
538.114	13259.4
538.479	13188.66
538.845	13205.61
539.21	13115.45
539.575	13101.89
539.94	13148.67
540.305	13157.93
540.67	12916.58
541.034	13014.66
541.399	12998.61
541.764	12960.42
542.129	12863.02
542.494	12785.06
542.858	12870.48
543.223	12738.05
543.587	12764.72
543.952	12705.97
544.316	12623.93
544.681	12528.34
545.045	12527.66
545.41	12595.91
545.774	12480.43
546.138	12476.59
546.503	12439.08
546.867	12359.76
547.231	12324.05
547.595	12420.1
547.959	12305.3
548.324	12256.94
548.688	12178.75
549.052	12185.75
549.416	12111.63
549.779	12074.34
550.143	12073.67
550.507	11978.3
550.871	11989.83
551.235	11937.62
551.599	11908.02
551.962	11881.81
552.326	11915.93
552.689	11807.23
553.053	11742.83
553.417	11727.23
553.78	11794.58
554.143	11703.73
554.507	11630.51
554.87	11691.08
555.234	11714.8
555.597	11616.05
555.96	11600.46
556.323	11544.41
556.686	11495.38
557.05	11600.46
557.413	11497.86
557.776	11530.18
558.139	11521.14
558.502	11448.82
558.865	11431.65
559.228	11509.39
559.59	11415.15
559.953	11401.82
560.316	11502.61
560.679	11516.62
561.041	11421.48
561.404	11446.34
561.767	11488.14
562.129	11374.93
562.492	11456.05
562.854	11431.2
563.217	11424.64
563.579	11338.54
563.941	11435.04
564.304	11403.63
564.666	11496.28
565.028	11416.73
565.39	11430.29
565.753	11357.98
566.115	11323.4
566.477	11487.01
566.839	11456.51
567.201	11484.08
567.563	11422.84
567.925	11504.87
568.287	11458.77
568.648	11539.89
569.01	11533.57
569.372	11581.93
569.734	11538.76
570.095	11536.5
570.457	11535.37
570.819	11533.34
571.18	11471.42
571.542	11532.89
571.903	11582.83
572.265	11640.68
572.626	11650.85
572.987	11567.92
573.349	11550.97
573.71	11618.31
574.071	11609.05
574.432	11628.48
574.794	11685.2
575.155	11611.76
575.516	11602.49
575.877	11738.53
576.238	11618.31
576.599	11753.45
576.96	11612.21
577.32	11669.16
577.681	11680
578.042	11722.04
578.403	11673.45
578.763	11724.97
579.124	11682.94
579.485	11842.71
579.845	11746.89
580.206	11730.62
580.566	11729.95
580.927	11748.02
581.287	11729.72
581.648	11665.31
582.008	11796.38
582.368	11646.11
582.728	11688.36
583.089	11654.47
583.449	11753.67
583.809	11683.85
584.169	11707.12
584.529	11644.52
584.889	11802.03
585.249	11667.35
585.609	11578.31
585.969	11759.78
586.329	11682.72
586.688	11690.4
587.048	11702.6
587.408	11705.31
587.768	11603.62
588.127	11619.44
588.487	11619.89
588.846	11657.86
589.206	11611.53
589.565	11658.99
589.925	11679.78
590.284	11535.6
590.643	11622.83
591.003	11610.63
591.362	11644.98
591.721	11615.15
592.08	11581.02
592.44	11539.44
592.799	11570.63
593.158	11554.58
593.517	11462.61
593.876	11567.01
594.235	11574.02
594.593	11589.38
594.952	11553
595.311	11434.36
595.67	11554.58
596.029	11580.35
596.387	11572.66
596.746	11621.93
597.104	11530.4
597.463	11504.64
597.822	11562.49
598.18	11520.69
598.538	11530.18
598.897	11541.02
599.255	11456.96
599.613	11574.02
599.972	11562.04
600.33	11571.98
600.688	11490.63
601.046	11539.89
601.404	11507.13
601.762	11469.16
602.12	11529.73
602.478	11521.36
602.836	11535.6
603.194	11489.5
603.552	11439.78
603.91	11473.46
604.268	11489.95
604.625	11428.48
604.983	11501.93
605.341	11457.18
605.698	11503.29
606.056	11519.1
606.413	11532.66
606.771	11510.06
607.128	11528.82
607.485	11503.06
607.843	11491.53
608.2	11535.37
608.557	11604.07
608.914	11587.12
609.272	11571.53
609.629	11562.94
609.986	11557.97
610.343	11576.96
610.7	11652.66
611.057	11619.67
611.414	11641.13
611.771	11676.84
612.127	11639.1
612.484	11588.03
612.841	11691.08
613.198	11618.08
613.554	11654.24
613.911	11677.07
614.267	11648.59
614.624	11682.04
614.98	11629.84
615.337	11731.53
615.693	11723.17
616.05	11716.61
616.406	11816.05
616.762	11714.8
617.118	11724.97
617.475	11741.7
617.831	11741.02
618.187	11734.01
618.543	11801.58
618.899	11870.73
619.255	11808.59
619.611	11749.15
619.967	11793.22
620.323	11833.22
620.678	11760.91
621.034	11801.58
621.39	11720.68
621.746	11737.63
622.101	11896.95
622.457	11743.28
622.812	11744.18
623.168	11840
623.523	11773.79
623.879	11768.81
624.234	11746.22
624.589	11741.47
624.945	11751.87
625.3	11784.41
625.655	11776.95
626.01	11722.26
626.365	11818.76
626.72	11744.86
627.075	11749.83
627.43	11707.35
627.785	11656.5
628.14	11707.57
628.495	11753
628.85	11732.88
629.205	11645.88
629.559	11722.94
629.914	11677.07
630.269	11706.9
630.623	11679.55
630.978	11592.1
631.332	11739.21
631.687	11716.61
632.041	11687.24
632.396	11639.78
632.75	11581.93
633.104	11560.68
633.459	11596.39
633.813	11581.93
634.167	11551.42
634.521	11523.4
634.875	11506.67
635.229	11501.03
635.583	11397.98
635.937	11442.72
636.291	11464.64
636.645	11461.03
636.999	11435.94
637.352	11413.34
637.706	11424.64
638.06	11379.22
638.413	11398.66
638.767	11328.6
639.121	11411.54
639.474	11311.88
639.828	11289.05
640.181	11270.75
640.534	11354.81
640.888	11226.91
641.241	11258.55
641.594	11277.08
641.947	11310.75
642.301	11233.91
642.654	11270.52
643.007	11199.56
643.36	11214.48
643.713	11228.04
644.066	11233.46
644.419	11249.28
644.771	11160.92
645.124	11020.13
645.477	11021.49
645.83	10965.9
646.182	10900.36
646.535	10887.71
646.888	10837.54
647.24	10769.97
647.593	10827.6
647.945	10743.98
648.298	10739.69
648.65	10690.2
649.002	10754.6
649.355	10789.41
649.707	10742.18
650.059	10868.27
650.411	10977.65
650.763	11026.24
651.115	11095.84
651.467	11013.58
651.819	10967.03
652.171	11000.02
652.523	11030.08
652.875	10956.18
653.227	10919.12
653.578	11082.51
653.93	11009.51
654.282	11009.06
654.633	10948.95
654.985	10980.81
655.337	10939.01
655.688	11051.09
656.039	11140.13
656.391	11020.36
656.742	11007.03
657.094	11007.25
657.445	11075.05
657.796	11022.39
658.147	11032.34
658.498	10947.37
658.849	11032.79
659.2	11011.09
659.551	11028.95
659.902	11079.57
660.253	10985.78
660.604	11002.73
660.955	11013.13
661.306	11020.36
661.656	11028.04
662.007	10999.57
662.358	11051.77
662.708	11008.83
663.059	11140.13
663.409	10953.92
663.76	10994.37
664.11	11136.97
664.461	11138.55
664.811	11052.9
665.161	11014.94
665.511	11004.09
665.862	11038.66
666.212	11124.99
666.562	11075.5
666.912	11079.57
667.262	11089.74
667.612	11073.47
667.962	11050.19
668.312	11053.81
668.662	11076.86
669.011	11145.33
669.361	11052.9
669.711	11006.35
670.06	11008.38
670.41	11040.92
670.76	10977.42
671.109	10993.92
671.459	10977.88
671.808	10955.28
672.157	10974.49
672.507	10873.7
672.856	10928.16
673.205	11001.15
673.554	11034.14
673.904	10936.07
674.253	10962.06
674.602	10858.78
674.951	10842.74
675.3	10753.02
675.649	10918.22
675.998	10892.68
676.346	10874.6
676.695	10940.59
677.044	10841.38
677.393	10830.53
677.741	10855.84
678.09	10828.5
678.438	10818.33
678.787	10805.68
679.135	10753.93
679.484	10777.2
679.832	10781.27
680.181	10668.96
680.529	10756.86
680.877	10732.91
681.225	10698.11
681.573	10757.09
681.922	10584.44
682.27	10641.16
682.618	10613.82
682.966	10601.16
683.314	10576.3
683.661	10591.67
684.009	10547.6
684.357	10518.9
684.705	10457.44
685.053	10439.81
685.4	10417.21
685.748	10361.17
686.095	10331.11
686.443	10301.28
686.79	10351
687.138	10254.28
687.485	10295.41
687.832	10304.45
688.18	10257.89
688.527	10162.98
688.874	10146.48
689.221	10248.18
689.568	10123.43
689.915	10078.46
690.262	10127.73
690.609	9987.17
690.956	9995.53
691.303	9964.57
691.65	9934.96
691.997	9891.35
692.344	9843.89
692.69	9814.29
693.037	9832.14
693.383	9714.18
693.73	9789.88
694.077	9683.67
694.423	9688.19
694.769	9643.67
695.116	9695.2
695.462	9662.66
695.808	9588.99
696.155	9506.28
696.501	9465.82
696.847	9492.49
697.193	9400.74
697.539	9470.8
697.885	9321.2
698.231	9392.15
698.577	9315.77
698.923	9314.19
699.269	9198.26
699.614	9109.22
699.96	9147.41
700.306	9136.57
700.651	9017.25
700.997	9039.4
701.342	9053.86
701.688	9003.92
702.033	8915.33
702.379	8993.97
702.724	8921.66
703.069	8982.67
703.415	8826.52
703.76	8856.35
704.105	8830.81
704.45	8805.05
704.795	8723.25
705.14	8744.26
705.485	8696.35
705.83	8635.79
706.175	8642.57
706.52	8664.04
706.865	8597.37
707.209	8559.41
707.554	8550.37
707.899	8579.07
708.243	8465.62
708.588	8444.16
708.932	8445.96
709.277	8427.21
709.621	8466.08
709.966	8349.02
710.31	8320.32
710.654	8331.62
710.998	8315.57
711.342	8322.35
711.687	8272.86
712.031	8219.76
712.375	8146.99
712.719	8205.29
713.063	8231.96
713.407	8177.72
713.75	8213.2
714.094	8150.6
714.438	8073.09
714.782	8118.74
715.125	8089.59
715.469	8101.34
715.812	8025.86
716.156	7992.19
716.499	7961.23
716.843	7999.42
717.186	7950.38
717.53	8017.73
717.873	7992.42
718.216	7975.69
718.559	7949.71
718.902	7916.94
719.246	7908.58
719.589	7843.49
719.932	7847.11
720.275	7862.25
720.617	7823.61
720.96	7855.7
721.303	7855.47
721.646	7825.87
721.989	7809.37
722.331	7801.01
722.674	7822.25
723.016	7823.83
723.359	7732.08
723.701	7834.68
724.044	7740.9
724.386	7706.32
724.729	7810.27
725.071	7723.27
725.413	7779.99
725.755	7730.5
726.097	7639.43
726.439	7656.83
726.782	7687.79
727.124	7758.52
727.465	7684.18
727.807	7662.93
728.149	7689.37
728.491	7637.4
728.833	7689.37
729.175	7661.8
729.516	7705.42
729.858	7652.09
730.199	7620.68
730.541	7629.26
730.882	7657.96
731.224	7610.96
731.565	7567.12
731.906	7603.95
732.248	7664.97
732.589	7595.82
732.93	7569.15
733.271	7612.77
733.612	7614.12
733.953	7612.77
734.294	7582.94
734.635	7543.62
734.976	7583.84
735.317	7592.2
735.658	7623.39
735.999	7624.07
736.339	7652.54
736.68	7632.88
737.021	7685.53
737.361	7601.47
737.702	7680.79
738.042	7635.82
738.383	7653.22
738.723	7648.02
739.063	7615.93
739.404	7686.89
739.744	7658.41
740.084	7671.52
740.424	7673.1
740.764	7623.16
741.104	7739.77
741.444	7720.79
741.784	7732.31
742.124	7782.93
742.464	7794.68
742.804	7799.88
743.143	7726.66
743.483	7836.26
743.823	7800.33
744.162	7759.43
744.502	7873.78
744.841	7898.18
745.181	7980.89
745.52	7969.59
745.86	8034
746.199	8016.37
746.538	8039.65
746.877	8182.24
747.216	8152.64
747.556	8169.36
747.895	8255.46
748.234	8290.49
748.573	8404.84
748.911	8448
749.25	8464.27
749.589	8536.13
749.928	8523.93
750.267	8628.78
750.605	8719.18
750.944	8794.43
751.283	8804.37
751.621	8950.13
751.96	8990.13
752.298	9055.44
752.636	9270.8
752.975	9315.09
753.313	9346.96
753.651	9568.42
753.989	9570.45
754.327	9658.14
754.666	9823.78
755.004	9952.82
755.342	10110.55
755.679	10241.17
756.017	10366.37
756.355	10516.42
756.693	10608.39
757.031	10733.59
757.368	10963.41
757.706	11085.44
758.044	11249.05
758.381	11434.59
758.719	11548.93
759.056	11690.17
759.394	11841.13
759.731	11976.49
760.068	12139.2
760.405	12310.27
760.743	12531.28
761.08	12757.49
761.417	12898.73
761.754	13035
762.091	13292.84
762.428	13452.84
762.765	13510.69
763.102	13795.65
763.438	13971.69
763.775	14100.5
764.112	14326.26
764.449	14521.96
764.785	14733.26
765.122	14817.55
765.458	14928.73
765.795	15176.86
766.131	15350.87
766.467	15570.75
766.804	15677.19
767.14	15731.65
767.476	15942.04
767.812	16116.72
768.148	16383.16
768.485	16401.46
768.821	16543.83
769.157	16661.57
769.492	16883.48
769.828	16992.18
770.164	17054.33
770.5	17222.46
770.836	17339.29
771.171	17447.31
771.507	17563.01
771.842	17611.15
772.178	17756.91
772.513	17899.28
772.849	18026.28
773.184	18065.37
773.519	18265.37
773.855	18186.05
774.19	18273.5
774.525	18397.12
774.86	18472.14
775.195	18581.97
775.53	18670.55
775.865	18708.97
776.2	18773.83
776.535	18692.47
776.87	18849.98
777.205	18806.37
777.539	18875.97
777.874	19044.1
778.209	18977.66
778.543	19002.75
778.878	18958
779.212	19089.07
779.547	19000.26
779.881	19246.58
780.215	19208.39
780.55	19391.89
780.884	19210.43
781.218	19263.53
781.552	19306.47
781.886	19352.57
782.22	19262.4
782.554	19225.12
782.888	19133.59
783.222	19237.55
783.556	19207.49
783.889	19241.84
784.223	19249.75
784.557	19218.56
784.89	19268.28
785.224	19191.22
785.557	19212.23
785.891	19260.37
786.224	19125.23
786.558	19196.19
786.891	19091.33
787.224	19085.91
787.557	19123.2
787.891	19137.43
788.224	19120.94
788.557	19173.82
788.89	19048.62
789.223	19169.07
789.556	19027.16
789.888	19012.47
790.221	18962.52
790.554	18797.33
790.887	18961.39
791.219	18757.78
791.552	18974.5
791.884	18777.67
792.217	18828.29
792.549	18803.43
792.882	18687.5
793.214	18608.64
793.546	18657.22
793.879	18572.93
794.211	18456.1
794.543	18576.32
794.875	18464.91
795.207	18600.73
795.539	18452.25
795.871	18461.52
796.203	18396.21
796.535	18383.56
796.867	18289.1
797.198	18254.97
797.53	18202.54
797.862	18214.07
798.193	18221.53
798.525	18088.2
798.856	18114.86
799.188	17965.04
799.519	17961.65
799.85	17833.51
800.182	17866.06
800.513	17939.5
800.844	17793.74
801.175	17885.49
801.506	17867.41
801.837	17670.13
802.168	17691.37
802.499	17633.97
802.83	17575.44
803.161	17596.23
803.491	17585.39
803.822	17644.82
804.153	17489.57
804.483	17351.72
804.814	17361.66
805.145	17251.16
805.475	17316.24
805.805	17272.85
806.136	17264.49
806.466	17247.77
806.796	17210.03
807.126	17001.45
807.457	17010.26
807.787	16990.37
808.117	17005.74
808.447	16978.17
808.777	17046.19
809.107	16895.23
809.436	16787.67
809.766	16831.51
810.096	16757.84
810.426	16756.93
810.755	16788.57
811.085	16664.73
811.414	16664.05
811.744	16575.02
812.073	16540.89
812.403	16535.47
812.732	16483.04
813.061	16394
813.39	16325.76
813.719	16384.06
814.049	16440.33
814.378	16343.61
814.707	16248.47
815.036	16384.74
815.365	16236.72
815.693	16106.33
816.022	16125.99
816.351	16039.66
816.68	15956.5
817.008	16107.23
817.337	15990.17
817.665	15883.96
817.994	15816.17
818.322	15943.62
818.651	15972.32
818.979	15843.06
819.307	15853.68
819.636	15821.36
819.964	15696.62
820.292	15842.38
820.62	15777.75
820.948	15791.76
821.276	15772.1
821.604	15684.42
821.932	15746.56
822.259	15775.49
822.587	15661.82
822.915	15716.51
823.243	15680.35
823.57	15766
823.898	15763.51
824.225	15701.14
824.553	15636.96
824.88	15640.58
825.207	15806.67
825.535	15795.83
825.862	15743.17
826.189	15687.58
826.516	15740.24
826.843	15841.48
827.17	15746.11
827.497	15826.11
827.824	15773.91
828.151	15768.48
828.478	15754.02
828.805	15869.72
829.131	15765.09
829.458	15764.87
829.785	15633.57
830.111	15818.65
830.438	15817.75
830.764	15849.84
831.09	15742.5
831.417	15735.26
831.743	15756.28
832.069	15806.67
832.395	15661.37
832.722	15764.87
833.048	15714.02
833.374	15687.13
833.7	15636.74
834.026	15720.12
834.351	15745.43
834.677	15784.53
835.003	15596.28
835.329	15711.99
835.654	15703.4
835.98	15575.27
836.306	15505.89
836.631	15499.79
836.956	15617.53
837.282	15547.47
837.607	15555.38
837.932	15513.12
838.258	15633.35
838.583	15414.14
838.908	15417.98
839.233	15455.5
839.558	15328.27
839.883	15240.36
840.208	15272.9
840.533	15267.03
840.858	15308.38
841.182	15264.99
841.507	15220.02
841.832	15139.57
842.156	15062.74
842.481	15141.38
842.805	15114.94
843.13	15092.8
843.454	15039.24
843.778	15013.7
844.103	14937.77
844.427	14852.12
844.751	14957.43
845.075	14857.55
845.399	14838.56
845.723	14689.19
846.047	14775.52
846.371	14609.64
846.695	14590.89
847.019	14507.73
847.343	14448.52
847.666	14394.06
847.99	14312.25
848.313	14308.18
848.637	14244.68
848.96	14213.72
849.284	14218.69
849.607	14080.62
849.931	14019.83
850.254	13994.97
850.577	13885.37
850.9	13857.8
851.223	13805.37
851.546	13737.12
851.869	13564.25
852.192	13726.96
852.515	13547.3
852.838	13530.35
853.161	13521.31
853.483	13472.05
853.806	13434.53
854.129	13394.31
854.451	13353.63
854.774	13242.9
855.096	13224.37
855.419	13111.38
855.741	13137.14
856.063	13064.6
856.385	13008.1
856.708	13001.78
857.03	12993.64
857.352	12991.83
857.674	12912.29
857.996	12812.63
858.318	12842.46
858.64	12810.14
858.961	12807.21
859.283	12682.01
859.605	12706.19
859.926	12703.93
860.248	12650.6
860.57	12572.64
860.891	12607.66
861.212	12530.38
861.534	12478.4
861.855	12442.24
862.176	12478.4
862.498	12424.62
862.819	12490.6
863.14	12383.71
863.461	12297.84
863.782	12287.45
864.103	12301.23
864.424	12304.85
864.745	12271.4
865.065	12288.8
865.386	12166.32
865.707	12170.16
866.027	12213.1
866.348	12130.39
866.668	12228.46
866.989	12144.62
867.309	12025.76
867.63	12056.94
867.95	12027.34
868.27	11976.72
868.59	12027.57
868.91	11940.11
869.23	11910.73
869.55	11913.9
869.87	11987.57
870.19	11940.79
870.51	11864.41
870.83	11843.16
871.15	11879.77
871.469	11786.67
871.789	11800.23
872.109	11801.13
872.428	11711.19
872.748	11700.12
873.067	11775.37
873.386	11720.23
873.706	11707.35
874.025	11650.63
874.344	11617.18
874.663	11617.18
874.982	11679.55
875.301	11644.75
875.62	11475.49
875.939	11583.96
876.258	11529.73
876.577	11549.84
876.896	11446.56
877.214	11585.54
877.533	11486.11
877.852	11440.01
878.17	11426.22
878.489	11360.24
878.807	11430.74
879.125	11360.69
879.444	11338.54
879.762	11338.77
880.08	11268.94
880.398	11235.95
880.716	11263.97
881.034	11240.02
881.352	11214.71
881.67	11205.44
881.988	11190.75
882.306	11188.94
882.624	11054.48
882.941	11100.13
883.259	11101.49
883.577	10988.5
883.894	10986.91
884.212	10980.36
884.529	11016.29
884.846	10995.73
885.164	10933.81
885.481	10958.21
885.798	10887.71
886.115	10750.54
886.432	10829.18
886.75	10700.59
887.067	10749.18
887.383	10731.1
887.7	10801.83
888.017	10725.23
888.334	10688.17
888.651	10654.49
888.967	10585.57
889.284	10612.24
889.6	10546.7
889.917	10491.79
890.233	10465.57
890.55	10462.63
890.866	10467.38
891.182	10420.15
891.498	10362.52
891.815	10348.06
892.131	10335.18
892.447	10266.26
892.763	10257.44
893.079	10243.21
893.395	10204.34
893.71	10105.13
894.026	10169.31
894.342	10120.5
894.657	10022.42
894.973	10060.39
895.289	10006.15
895.604	9994.4
895.92	9900.39
896.235	9880.5
896.55	9844.57
896.865	9817
897.181	9802.99
897.496	9759.83
897.811	9717.8
898.126	9671.47
898.441	9638.48
898.756	9621.07
899.071	9608.87
899.386	9570.45
899.7	9444.13
900.015	9464.02
900.33	9431.7
900.644	9375.66
900.959	9423.79
901.273	9363.68
901.588	9366.17
901.902	9223.35
902.216	9237.81
902.531	9185.83
902.845	9192.16
903.159	9134.31
903.473	9081.65
903.787	9033.29
904.101	8969.57
904.415	8991.71
904.729	8941.09
905.042	8864.03
905.356	8876.46
905.67	8849.12
905.984	8839.4
906.297	8817.71
906.611	8766.18
906.924	8750.82
907.237	8716.24
907.551	8723.25
907.864	8628.11
908.177	8624.72
908.491	8569.8
908.804	8492.74
909.117	8485.51
909.43	8367.77
909.743	8370.94
910.056	8400.77
910.368	8308.34
910.681	8301.11
910.994	8243.71
911.307	8259.75
911.619	8209.13
911.932	8206.2
912.244	8145.86
912.557	8048.01
912.869	8104.96
913.181	8057.73
913.494	8023.15
913.806	7960.55
914.118	7935.92
914.43	7880.56
914.742	7862.25
915.054	7842.36
915.366	7779.54
915.678	7790.39
915.99	7700.22
916.302	7701.13
916.613	7600.11
916.925	7653.89
917.236	7610.51
917.548	7639.88
917.859	7608.25
918.171	7451.41
918.482	7493
918.794	7418.65
919.105	7407.35
919.416	7378.65
919.727	7324.19
920.038	7348.14
920.349	7304.3
920.66	7272.44
920.971	7268.82
921.282	7218.2
921.593	7202.83
921.903	7142.04
922.214	7149.5
922.525	7118.54
922.835	7080.35
923.146	7010.3
923.456	7010.07
923.767	6978.21
924.077	6989.51
924.387	6944.99
924.697	6916.97
925.008	6887.14
925.318	6797.65
925.628	6840.81
925.938	6816.85
926.248	6727.14
926.558	6681.94
926.867	6714.94
927.177	6721.94
927.487	6716.97
927.796	6626.13
928.106	6572.79
928.416	6578.89
928.725	6575.05
929.034	6522.85
929.344	6510.42
929.653	6474.26
929.962	6390.88
930.271	6452.8
930.581	6380.48
930.89	6366.47
931.199	6326.7
931.508	6303.42
931.817	6308.85
932.125	6302.74
932.434	6251.45
932.743	6207.61
933.051	6161.73
933.36	6121.73
933.669	6142.97
933.977	6079.7
934.286	6106.36
934.594	6059.81
934.902	6011.68
935.21	6013.71
935.519	5973.26
935.827	6034.05
936.135	5928.74
936.443	5884.22
936.751	5889.65
937.059	5857.33
937.367	5822.98
937.674	5796.54
937.982	5774.4
938.29	5718.58
938.597	5691.46
938.905	5642.42
939.213	5673.61
939.52	5618.92
939.827	5636.09
940.135	5611.69
940.442	5586.38
940.749	5559.03
941.056	5607.17
941.363	5534.85
941.67	5469.55
941.977	5458.92
942.284	5398.59
942.591	5464.57
942.898	5427.29
943.205	5345.03
943.511	5266.61
943.818	5321.07
944.125	5312.26
944.431	5283.11
944.738	5262.09
945.044	5234.3
945.35	5243.56
945.657	5209.44
945.963	5178.48
946.269	5141.42
946.575	5123.57
946.881	5081.53
947.187	5086.96
947.493	5071.36
947.799	5003.34
948.105	5018.26
948.41	4955.43
948.716	4983
949.022	5000.41
949.327	4976.23
949.633	4914.76
949.938	4902.78
950.244	4822.1
950.549	4804.93
950.854	4804.25
951.16	4829.56
951.465	4790.69
951.77	4719.73
952.075	4709.79
952.38	4718.38
952.685	4671.83
952.99	4654.43
953.294	4638.61
953.599	4635.67
953.904	4620.75
954.209	4567.42
954.513	4564.94
954.818	4564.94
955.122	4535.78
955.426	4484.03
955.731	4465.28
956.035	4487.65
956.339	4499.4
956.643	4414.88
956.948	4472.74
957.252	4365.62
957.556	4409.91
957.86	4350.03
958.163	4338.73
958.467	4339.86
958.771	4306.41
959.075	4294.66
959.378	4294.66
959.682	4242.91
959.985	4222.57
960.289	4200.65
960.592	4219.41
960.896	4187.32
961.199	4190.48
961.502	4158.39
961.805	4100.77
962.108	4117.49
962.411	4045.85
962.714	4063.93
963.017	4050.6
963.32	4058.51
963.623	3994.56
963.926	4027.1
964.228	3995.46
964.531	3964.95
964.833	3956.82
965.136	3945.74
965.438	3893.54
965.741	3921.56
966.043	3879.3
966.345	3815.35
966.648	3875.92
966.95	3839.08
967.252	3848.12
967.554	3803.83
967.856	3770.16
968.158	3761.79
968.46	3735.81
968.761	3688.35
969.063	3730.61
969.365	3743.94
969.666	3667.78
969.968	3682.25
970.269	3630.5
970.571	3636.6
970.872	3613.32
971.174	3603.83
971.475	3587.11
971.776	3558.41
972.077	3515.47
972.378	3566.54
972.679	3570.61
972.98	3495.13
973.281	3521.35
973.582	3464.85
973.883	3487.68
974.183	3430.73
974.484	3454.23
974.785	3401.13
975.085	3404.97
975.386	3467.56
975.686	3399.32
975.986	3347.79
976.287	3363.39
976.587	3308.02
976.887	3298.08
977.187	3274.57
977.487	3269.38
977.787	3268.25
978.087	3261.69
978.387	3245.88
978.687	3275.25
978.987	3237.74
979.286	3198.19
979.586	3208.59
979.885	3167.91
980.185	3149.38
980.484	3115.71
980.784	3139.66
981.083	3089.04
981.382	3103.51
981.682	3125.88
981.981	3059.21
982.28	3016.95
982.579	3058.31
982.878	3046.11
983.177	3019.21
983.475	3019.21
983.774	2927.69
984.073	2967.92
984.372	2971.31
984.67	2974.24
984.969	2961.81
985.267	2907.35
985.566	2910.29
985.864	2887.92
986.162	2875.72
986.461	2844.98
986.759	2833.91
987.057	2798.88
987.355	2778.09
987.653	2806.56
987.951	2797.75
988.249	2783.97
988.547	2792.78
988.844	2783.51
989.142	2763.63
989.44	2742.61
989.737	2723.18
990.035	2711.2
990.332	2696.51
990.63	2696.74
990.927	2689.73
991.224	2685.66
991.521	2637.53
991.819	2691.77
992.116	2629.85
992.413	2616.74
992.71	2616.51
993.006	2588.27
993.303	2577.87
993.6	2576.29
993.897	2563.18
994.193	2511.88
994.49	2572.45
994.787	2495.84
995.083	2500.58
995.379	2490.64
995.676	2450.19
995.972	2466.46
996.268	2429.63
996.565	2453.35
996.861	2430.3
997.157	2367.25
997.453	2420.13
997.749	2364.32
998.044	2368.84
998.34	2350.98
998.636	2394.82
998.932	2357.08
999.227	2304.88
999.523	2324.54
999.818	2287.48
1000.114	2298.33
1000.409	2311.21
1000.704	2264.88
1001	2251.1
1001.295	2227.37
1001.59	2242.29
1001.885	2238.67
1002.18	2187.6
1002.475	2229.86
1002.77	2204.32
1003.065	2195.28
1003.359	2177.2
1003.654	2166.36
1003.949	2101.05
1004.243	2135.62
1004.538	2096.07
1004.832	2108.5
1005.127	2091.1
1005.421	2031.67
1005.715	2082.74
1006.009	2084.32
1006.304	2050.65
1006.598	2054.49
1006.892	2027.83
1007.186	1998.22
1007.48	1998.45
1007.773	1994.38
1008.067	1969.75
1008.361	1930.2
1008.655	1907.83
1008.948	1933.37
1009.242	1897.89
1009.535	1895.63
1009.829	1934.27
1010.122	1885.23
1010.415	1849.3
1010.708	1865.35
1011.001	1872.8
1011.295	1847.95
1011.588	1827.16
1011.881	1807.27
1012.173	1801.17
1012.466	1782.64
1012.759	1802.52
1013.052	1766.59
1013.344	1776.76
1013.637	1747.38
1013.93	1775.86
1014.222	1737.44
1014.514	1725.24
1014.807	1725.69
1015.099	1704.67
1015.391	1715.52
1015.683	1702.41
1015.976	1656.99
1016.268	1665.58
1016.56	1653.83
1016.851	1653.6
1017.143	1654.96
1017.435	1612.02
1017.727	1615.86
1018.018	1617.9
1018.31	1599.59
1018.602	1593.94
1018.893	1598.91
1019.185	1572.25
1019.476	1549.2
1019.767	1568.41
1020.058	1562.08
1020.35	1532.93
1020.641	1531.34
1020.932	1515.53
1021.223	1494.28
1021.514	1505.81
1021.804	1466.94
1022.095	1483.66
1022.386	1446.6
1022.677	1434.85
1022.967	1388.3
1023.258	1437.11
1023.548	1414.06
1023.839	1423.55
1024.129	1424
1024.419	1407.96
1024.709	1368.41
1025	1349.88
1025.29	1371.35
1025.58	1368.86
1025.87	1343.78
1026.16	1311.01
1026.449	1349.43
1026.739	1306.72
1027.029	1322.99
1027.319	1306.72
1027.608	1284.8
1027.898	1291.58
1028.187	1274.85
1028.477	1287.06
1028.766	1262.42
1029.055	1249.32
1029.344	1234.4
1029.634	1210.45
1029.923	1236.21
1030.212	1257.45
1030.501	1212.26
1030.79	1235.98
1031.078	1186.95
1031.367	1177
1031.656	1185.59
1031.945	1158.47
1032.233	1180.84
1032.522	1155.08
1032.81	1127.74
1033.099	1166.16
1033.387	1128.87
1033.675	1147.4
1033.963	1113.95
1034.251	1147.85
1034.54	1094.52
1034.828	1120.96
1035.116	1075.99
1035.403	1065.59
1035.691	1067.85
1035.979	1084.35
1036.267	1088.87
1036.554	1034.63
1036.842	1065.82
1037.129	1060.62
1037.417	1041.87
1037.704	1035.54
1037.992	1023.56
1038.279	1025.14
1038.566	1019.49
1038.853	1019.49
1039.14	1019.49
