Data from hue_230_FLMS001491_00025.txt Node
Date: Tue Feb 07 16:37:00 GMT 2017
User: dcchb
Spectrometer: FLMS00149
Trigger mode: 0
Integration Time (sec): 2.000000E-2
Scans to average: 10
Electric dark correction enabled: true
Nonlinearity correction enabled: false
Boxcar width: 0
XAxis mode: Wavelengths
Number of Pixels in Spectrum: 2048
>>>>>Begin Spectral Data<<<<<
341.393	-0.59
341.776	-0.59
342.16	-0.59
342.543	-54.83
342.927	-75.39
343.31	-56.86
343.693	-71.78
344.077	-61.83
344.46	-59.12
344.843	-48.05
345.226	-29.74
345.61	-34.04
345.993	-32.68
346.376	-10.08
346.759	17.49
347.142	25.62
347.525	35.11
347.908	56.35
348.291	75.11
348.674	95.22
349.057	99.29
349.44	119.86
349.823	146.07
350.206	178.39
350.588	182.23
350.971	213.86
351.354	247.31
351.737	233.75
352.119	240.76
352.502	247.76
352.884	282.11
353.267	277.37
353.65	290.7
354.032	299.96
354.414	311.49
354.797	292.28
355.179	318.72
355.562	297.48
355.944	328.66
356.326	321.43
356.709	315.78
357.091	298.83
357.473	338.15
357.855	334.99
358.238	351.94
358.62	342.22
359.002	344.03
359.384	324.6
359.766	337.03
360.148	323.24
360.53	324.37
360.912	311.94
361.294	318.27
361.676	318.72
362.057	335.44
362.439	328.44
362.821	304.94
363.203	330.25
363.584	317.14
363.966	321.43
364.348	316.23
364.729	302
365.111	319.4
365.493	309.23
365.874	296.57
366.256	285.5
366.637	280.53
367.019	312.84
367.4	311.49
367.781	294.09
368.163	301.77
368.544	297.93
368.925	319.4
369.306	295.9
369.688	318.72
370.069	330.7
370.45	305.61
370.831	299.96
371.212	313.07
371.593	307.65
371.974	291.15
372.355	301.77
372.736	326.86
373.117	297.25
373.498	293.64
373.879	300.87
374.26	320.08
374.641	305.16
375.021	299.51
375.402	303.81
375.783	300.87
376.163	316.91
376.544	322.56
376.925	330.47
377.305	328.21
377.686	330.02
378.066	315.1
378.447	301.55
378.827	328.89
379.208	314.43
379.588	329.12
379.968	316.69
380.349	311.71
380.729	321.88
381.109	347.87
381.489	333.86
381.87	355.78
382.25	333.41
382.63	324.37
383.01	315.33
383.39	312.84
383.77	318.72
384.15	340.19
384.53	327.53
384.91	333.86
385.29	343.8
385.67	354.43
386.049	331.6
386.429	359.85
386.809	358.95
387.189	339.74
387.568	352.39
387.948	340.41
388.328	349.91
388.707	337.7
389.087	360.75
389.466	373.41
389.846	353.07
390.225	375.22
390.605	366.63
390.984	371.15
391.363	377.7
391.743	371.37
392.122	359.17
392.501	358.49
392.881	368.66
393.26	376.8
393.639	387.87
394.018	369.57
394.397	377.93
394.776	361.88
395.155	363.47
395.534	372.96
395.913	365.95
396.292	358.95
396.671	388.55
397.05	379.06
397.429	384.26
397.808	380.19
398.186	404.14
398.565	388.32
398.944	400.53
399.323	405.5
399.701	381.77
400.08	399.85
400.458	406.18
400.837	379.06
401.215	410.47
401.594	409.57
401.972	402.79
402.351	398.27
402.729	413.41
403.107	422.45
403.486	432.84
403.864	418.15
404.242	417.7
404.62	419.51
404.999	426.97
405.377	432.16
405.755	439.85
406.133	433.75
406.511	455.89
406.889	440.75
407.267	458.38
407.645	454.76
408.023	454.99
408.401	475.33
408.779	478.04
409.156	492.28
409.534	475.33
409.912	483.91
410.29	484.82
410.667	509.9
411.045	519.17
411.422	516
411.8	506.51
412.178	528.66
412.555	510.13
412.933	548.54
413.31	564.36
413.687	530.24
414.065	545.61
414.442	565.04
414.819	574.31
415.197	581.76
415.574	599.62
415.951	590.13
416.328	596.45
416.705	601.42
417.082	610.92
417.46	607.3
417.837	607.07
418.214	620.63
418.591	636.68
418.967	638.49
419.344	642.78
419.721	643.68
420.098	664.7
420.475	664.47
420.852	678.03
421.228	689.78
421.605	691.14
421.982	688.65
422.358	700.41
422.735	699.5
423.111	735.66
423.488	758.03
423.864	748.31
424.241	752.61
424.617	775.88
424.994	787.41
425.37	772.95
425.746	791.02
426.123	791.7
426.499	801.65
426.875	821.31
427.251	829.22
427.627	838.93
428.003	878.48
428.379	865.6
428.756	879.16
429.132	878.25
429.507	866.28
429.883	901.3
430.259	925.03
430.635	915.54
431.011	923.22
431.387	946.05
431.763	967.06
432.138	967.74
432.514	988.31
432.89	964.81
433.265	1015.43
433.641	1046.84
434.016	1031.7
434.392	1056.1
434.767	1089.1
435.143	1082.09
435.518	1113.73
435.894	1096.78
436.269	1134.74
436.644	1137.46
437.02	1159.83
437.395	1197.12
437.77	1217.45
438.145	1195.53
438.52	1235.98
438.895	1236.21
439.271	1311.46
439.646	1299.26
440.021	1311.69
440.395	1297.45
440.77	1303.78
441.145	1327.96
441.52	1357.56
441.895	1364.79
442.27	1385.81
442.645	1391.69
443.019	1390.56
443.394	1428.07
443.769	1427.17
444.143	1406.6
444.518	1438.01
444.892	1452.93
445.267	1468.75
445.641	1485.24
446.016	1481.63
446.39	1484.79
446.764	1517.78
447.139	1517.11
447.513	1503.55
447.887	1521.85
448.262	1511.91
448.636	1544.9
449.01	1566.6
449.384	1586.48
449.758	1583.32
450.132	1559.37
450.506	1588.74
450.88	1628.74
451.254	1615.86
451.628	1662.19
452.002	1643.21
452.376	1704.67
452.75	1692.7
453.123	1682.75
453.497	1720.49
453.871	1732.24
454.244	1771.56
454.618	1809.53
454.992	1790.32
455.365	1783.77
455.739	1837.1
456.112	1856.31
456.486	1856.53
456.859	1885.46
457.232	1915.06
457.606	1915.97
457.979	1936.76
458.352	1981.95
458.725	1979.69
459.099	2007.04
459.472	2036.19
459.845	2082.06
460.218	2053.82
460.591	2056.75
460.964	2060.82
461.337	2148.5
461.71	2182.17
462.083	2206.35
462.456	2211.78
462.829	2197.54
463.201	2246.58
463.574	2266.24
463.947	2254.94
464.32	2329.97
464.692	2377.42
465.065	2357.99
465.438	2373.81
465.81	2402.06
466.183	2435.95
466.555	2485.9
466.928	2491.32
467.3	2475.27
467.672	2534.71
468.045	2600.47
468.417	2585.55
468.789	2629.85
469.161	2606.57
469.534	2659.68
469.906	2707.13
470.278	2738.54
470.65	2786.45
471.022	2800.92
471.394	2858.31
471.766	2898.77
472.138	2883.17
472.51	2945.32
472.882	2970.4
473.253	3017.41
473.625	3017.86
473.997	3112.55
474.369	3130.17
474.74	3138.99
475.112	3174.92
475.484	3249.72
475.855	3318.42
476.227	3292.88
476.598	3402.03
476.97	3404.06
477.341	3494.46
477.713	3511.4
478.084	3497.85
478.455	3659.2
478.827	3641.34
479.198	3746.2
479.569	3737.39
479.94	3813.54
480.311	3857.61
480.682	3871.85
481.053	3982.58
481.424	4042.92
481.795	4102.8
482.166	4142.12
482.537	4171.5
482.908	4246.75
483.279	4307.32
483.65	4388.44
484.021	4401.78
484.391	4463.7
484.762	4499.85
485.133	4527.2
485.503	4595.22
485.874	4642.22
486.244	4707.98
486.615	4761.32
486.985	4809.68
487.356	4916.34
487.726	4885.83
488.097	4967.19
488.467	4980.07
488.837	5093.06
489.207	5166.5
489.578	5180.97
489.948	5255.09
490.318	5317.91
490.688	5361.53
491.058	5361.98
491.428	5407.17
491.798	5502.31
492.168	5570.56
492.538	5602.2
492.908	5656.66
493.278	5660.27
493.648	5688.07
494.017	5782.53
494.387	5788.86
494.757	5856.43
495.126	5884
495.496	5843.09
495.866	5901.17
496.235	5976.65
496.605	6016.65
496.974	6053.03
497.344	6146.82
497.713	6161.05
498.082	6148.4
498.452	6190.66
498.821	6239.24
499.19	6213.48
499.559	6308.85
499.928	6314.72
500.298	6316.08
500.667	6404.66
501.036	6355.4
501.405	6457.54
501.774	6475.85
502.143	6429.97
502.512	6468.84
502.88	6562.85
503.249	6533.47
503.618	6579.35
503.987	6539.12
504.356	6615.05
504.724	6642.17
505.093	6574.83
505.462	6661.83
505.83	6663.64
506.199	6713.13
506.567	6762.84
506.936	6759.23
507.304	6784.54
507.672	6829.06
508.041	6832.9
508.409	6837.42
508.777	6881.26
509.145	6964.87
509.514	6944.53
509.882	6937.53
510.25	6962.16
510.618	7015.95
510.986	6982.73
511.354	7013.69
511.722	7077.64
512.09	7108.82
512.458	7085.32
512.826	7131.65
513.193	7141.59
513.561	7115.6
513.929	7201.93
514.297	7251.87
514.664	7234.47
515.032	7229.05
515.4	7237.86
515.767	7220.46
516.135	7289.84
516.502	7217.52
516.869	7329.84
517.237	7304.75
517.604	7295.26
517.972	7356.95
518.339	7333.23
518.706	7341.81
519.073	7346.78
519.44	7380.68
519.808	7446.89
520.175	7305.2
520.542	7412.09
520.909	7439.21
521.276	7386.78
521.643	7508.14
522.009	7503.84
522.376	7508.14
522.743	7537.06
523.11	7584.07
523.477	7632.88
523.843	7603.05
524.21	7628.13
524.577	7671.75
524.943	7626.55
525.31	7682.14
525.676	7727.79
526.043	7766.66
526.409	7711.07
526.776	7783.83
527.142	7740.67
527.508	7791.52
527.874	7859.09
528.241	7772.99
528.607	7737.06
528.973	7822.25
529.339	7823.38
529.705	7829.26
530.071	7855.7
530.437	7827
530.803	7913.55
531.169	7904.28
531.535	7855.25
531.901	7874.23
532.267	7880.33
532.632	7852.99
532.998	7843.49
533.364	7873.55
533.73	7891.85
534.095	7896.83
534.461	7843.04
534.826	7929.37
535.192	7975.24
535.557	7916.26
535.923	7902.93
536.288	7872.65
536.653	7895.24
537.019	7859.99
537.384	7897.96
537.749	7883.27
538.114	7829.03
538.479	7891.4
538.845	7848.69
539.21	7803.04
539.575	7821.57
539.94	7819.99
540.305	7842.14
540.67	7797.39
541.034	7832.65
541.399	7805.98
541.764	7747.23
542.129	7754.91
542.494	7792.2
542.858	7789.71
543.223	7809.37
543.587	7809.14
543.952	7707.23
544.316	7706.1
544.681	7760.56
545.045	7763.5
545.41	7762.14
545.774	7748.81
546.138	7694.57
546.503	7730.73
546.867	7683.72
547.231	7741.12
547.595	7685.08
547.959	7695.02
548.324	7623.16
548.688	7617.74
549.052	7622.03
549.416	7617.96
549.779	7560.11
550.143	7627
550.507	7570.28
550.871	7611.64
551.235	7574.35
551.599	7629.04
551.962	7589.72
552.326	7642.14
552.689	7601.92
553.053	7552.2
553.417	7567.8
553.78	7628.36
554.143	7510.17
554.507	7562.15
554.87	7599.88
555.234	7610.73
555.597	7586.78
555.96	7532.09
556.323	7612.09
556.686	7544.29
557.05	7623.61
557.413	7614.57
557.776	7641.24
558.139	7619.77
558.502	7588.81
558.865	7567.34
559.228	7645.76
559.59	7608.02
559.953	7656.15
560.316	7744.51
560.679	7655.02
561.041	7664.97
561.404	7746.1
561.767	7692.76
562.129	7706.55
562.492	7668.36
562.854	7677.17
563.217	7713.1
563.579	7767.79
563.941	7785.19
564.304	7770.73
564.666	7864.74
565.028	7838.75
565.39	7786.32
565.753	7879.88
566.115	7881.23
566.477	7912.19
566.839	7891.18
567.201	7869.48
567.563	7920.55
567.925	7973.43
568.287	8029.93
568.648	7937.05
569.01	7975.24
569.372	8012.76
569.734	7982.47
570.095	8049.59
570.457	8032.42
570.819	8123.04
571.18	8037.16
571.542	8138.18
571.903	8152.19
572.265	8131.62
572.626	8139.31
572.987	8177.72
573.349	8222.92
573.71	8263.14
574.071	8196.03
574.432	8198.51
574.794	8350.15
575.155	8301.79
575.516	8301.11
575.877	8279.64
576.238	8308.57
576.599	8357.15
576.96	8330.71
577.32	8352.86
577.681	8446.19
578.042	8443.03
578.403	8440.31
578.763	8470.37
579.124	8485.06
579.485	8527.32
579.845	8490.93
580.206	8457.26
580.566	8524.83
580.927	8523.48
581.287	8560.76
581.648	8532.74
582.008	8584.49
582.368	8621.78
582.728	8607.54
583.089	8586.53
583.449	8584.72
583.809	8604.15
584.169	8634.43
584.529	8654.32
584.889	8738.39
585.249	8622.68
585.609	8741.1
585.969	8727.76
586.329	8703.81
586.688	8752.17
587.048	8746.97
587.408	8777.48
587.768	8730.02
588.127	8731.38
588.487	8775.67
588.846	8750.59
589.206	8782.23
589.565	8827.2
589.925	8791.27
590.284	8781.32
590.643	8817.25
591.003	8919.4
591.362	8892.05
591.721	8878.72
592.08	8886.18
592.44	8896.12
592.799	8883.47
593.158	8908.78
593.517	8895.22
593.876	8920.3
594.235	8965.05
594.593	8919.85
594.952	8886.4
595.311	9015.89
595.67	8894.31
596.029	9062.22
596.387	8975.67
596.746	9115.1
597.104	8978.15
597.463	9014.09
597.822	9035.78
598.18	8985.16
598.538	9008.21
598.897	9029.23
599.255	9026.29
599.613	9100.41
599.972	9086.63
600.33	9112.16
600.688	9092.95
601.046	9103.12
601.404	9136.12
601.762	9112.39
602.12	9155.32
602.478	9194.19
602.836	9162.33
603.194	9109.22
603.552	9170.24
603.91	9136.12
604.268	9170.92
604.625	9115.1
604.983	9208.88
605.341	9126.17
605.698	9197.36
606.056	9184.7
606.413	9204.36
606.771	9240.29
607.128	9238.71
607.485	9164.59
607.843	9204.36
608.2	9273.97
608.557	9303.12
608.914	9225.83
609.272	9239.16
609.629	9254.98
609.986	9324.36
610.343	9199.16
610.7	9345.6
611.057	9320.52
611.414	9367.97
611.771	9284.81
612.127	9366.84
612.484	9316.9
612.841	9338.6
613.198	9282.55
613.554	9345.38
613.911	9401.19
614.267	9366.62
614.624	9353.96
614.98	9363.68
615.337	9447.07
615.693	9439.16
616.05	9367.52
616.406	9440.51
616.762	9454.98
617.118	9377.92
617.475	9402.1
617.831	9425.37
618.187	9422.89
618.543	9483.45
618.899	9502.89
619.255	9488.42
619.611	9471.25
619.967	9509.67
620.323	9498.59
620.678	9457.01
621.034	9448.65
621.39	9484.13
621.746	9440.06
622.101	9606.16
622.457	9461.53
622.812	9498.59
623.168	9494.52
623.523	9471.25
623.879	9534.98
624.234	9504.24
624.589	9483.23
624.945	9526.16
625.3	9543.34
625.655	9527.29
626.01	9524.58
626.365	9507.18
626.72	9483.9
627.075	9506.28
627.43	9454.75
627.785	9485.49
628.14	9563
628.495	9501.98
628.85	9525.71
629.205	9425.83
629.559	9482.55
629.914	9387.18
630.269	9435.32
630.623	9453.62
630.978	9474.19
631.332	9428.31
631.687	9547.63
632.041	9396.22
632.396	9385.83
632.75	9337.47
633.104	9362.78
633.459	9350.57
633.813	9362.32
634.167	9336.79
634.521	9287.52
634.875	9321.65
635.229	9369.78
635.583	9235.32
635.937	9267.41
636.291	9271.93
636.645	9252.27
636.999	9229.9
637.352	9289.78
637.706	9230.8
638.06	9241.42
638.413	9190.8
638.767	9148.09
639.121	9219.96
639.474	9143.35
639.828	9160.3
640.181	9116.68
640.534	9207.07
640.888	9142.44
641.241	9088.21
641.594	9098.6
641.947	9097.92
642.301	9103.35
642.654	9156
643.007	9134.31
643.36	9072.61
643.713	8998.27
644.066	9144.93
644.419	9089.79
644.771	9011.83
645.124	8846.18
645.477	8888.21
645.83	8888.21
646.182	8849.12
646.535	8712.17
646.888	8808.21
647.24	8807.54
647.593	8760.98
647.945	8755.79
648.298	8688.67
648.65	8699.29
649.002	8681.44
649.355	8744.71
649.707	8729.12
650.059	8772.51
650.411	8916.91
650.763	8833.07
651.115	8976.57
651.467	8916.01
651.819	9028.32
652.171	8931.83
652.523	8946.74
652.875	8935.89
653.227	8886.63
653.578	8896.35
653.93	8980.87
654.282	8896.35
654.633	8870.36
654.985	8943.13
655.337	8917.36
655.688	8879.4
656.039	8930.02
656.391	8851.6
656.742	8865.61
657.094	8835.11
657.445	8964.82
657.796	8856.58
658.147	8831.94
658.498	8906.97
658.849	8956.01
659.2	8947.65
659.551	8845.5
659.902	8958.04
660.253	8906.07
660.604	8874.65
660.955	8844.6
661.306	8885.95
661.656	8966.4
662.007	8941.54
662.358	8880.08
662.708	8860.64
663.059	8884.6
663.409	8787.2
663.76	8962.11
664.11	8895.44
664.461	8962.79
664.811	8906.97
665.161	8948.78
665.511	8920.98
665.862	8875.33
666.212	8877.14
666.562	8964.37
666.912	8950.81
667.262	8936.35
667.612	8888.66
667.962	8985.61
668.312	8848.89
668.662	8978.38
669.011	8912.62
669.361	8859.06
669.711	8871.94
670.06	8903.81
670.41	8850.93
670.76	8841.89
671.109	8900.87
671.459	8847.99
671.808	8795.79
672.157	8873.3
672.507	8784.49
672.856	8802.11
673.205	8802.79
673.554	8780.87
673.904	8817.71
674.253	8867.2
674.602	8807.54
674.951	8669.24
675.3	8708.78
675.649	8765.5
675.998	8738.61
676.346	8747.65
676.695	8775.67
677.044	8721.89
677.393	8773.87
677.741	8762.57
678.09	8723.02
678.438	8697.03
678.787	8726.86
679.135	8684.38
679.484	8609.12
679.832	8665.62
680.181	8603.93
680.529	8659.29
680.877	8630.82
681.225	8633.08
681.573	8633.3
681.922	8591.72
682.27	8532.74
682.618	8635.56
682.966	8553.31
683.314	8514.66
683.661	8523.48
684.009	8493.42
684.357	8496.81
684.705	8519.63
685.053	8469.47
685.4	8460.88
685.748	8399.19
686.095	8377.72
686.443	8331.17
686.79	8347.21
687.138	8335.46
687.485	8331.84
687.832	8328.45
688.18	8263.37
688.527	8268.79
688.874	8203.48
689.221	8256.82
689.568	8263.14
689.915	8229.92
690.262	8179.76
690.609	8135.46
690.956	8107.44
691.303	8080.78
691.65	8023.6
691.997	8034.9
692.344	8050.27
692.69	8017.95
693.037	7989.71
693.383	7919.65
693.73	7932.98
694.077	7926.66
694.423	7918.52
694.769	7858.18
695.116	7848.69
695.462	7850.05
695.808	7817.96
696.155	7822.48
696.501	7704.97
696.847	7776.38
697.193	7708.58
697.539	7741.58
697.885	7589.26
698.231	7640.34
698.577	7574.57
698.923	7566.44
699.269	7550.85
699.614	7522.37
699.96	7456.39
700.306	7460.91
700.651	7406.44
700.997	7394.24
701.342	7338.2
701.688	7335.71
702.033	7324.86
702.379	7361.47
702.724	7287.8
703.069	7305.43
703.415	7220.69
703.76	7193.12
704.105	7258.65
704.45	7157.86
704.795	7190.4
705.14	7110.86
705.485	7119.9
705.83	7062.5
706.175	7078.99
706.52	7059.11
706.865	6997.87
707.209	7031.54
707.554	7017.98
707.899	7023.18
708.243	6942.05
708.588	6942.05
708.932	6917.19
709.277	6899.11
709.621	6908.15
709.966	6841.26
710.31	6862.73
710.654	6806.69
710.998	6823.63
711.342	6794.71
711.687	6786.57
712.031	6757.87
712.375	6695.05
712.719	6723.07
713.063	6708.16
713.407	6736.18
713.75	6663.19
714.094	6706.58
714.438	6667.48
714.782	6709.06
715.125	6629.51
715.469	6643.98
715.812	6631.32
716.156	6668.38
716.499	6588.61
716.843	6610.98
717.186	6562.17
717.53	6567.14
717.873	6605.33
718.216	6511.33
718.559	6541.83
718.902	6509.07
719.246	6500.03
719.589	6430.88
719.932	6453.93
720.275	6511.33
720.617	6427.49
720.96	6499.35
721.303	6441.27
721.646	6416.87
721.989	6468.62
722.331	6377.54
722.674	6445.79
723.016	6431.1
723.359	6416.64
723.701	6441.05
724.044	6431.78
724.386	6403.08
724.729	6423.42
725.071	6366.25
725.413	6410.54
725.755	6419.58
726.097	6381.39
726.439	6372.8
726.782	6328.51
727.124	6335.96
727.465	6379.58
727.807	6362.4
728.149	6332.8
728.491	6304.78
728.833	6308.17
729.175	6336.87
729.516	6326.7
729.858	6364.66
730.199	6324.89
730.541	6263.42
730.882	6243.31
731.224	6275.85
731.565	6259.13
731.906	6323.53
732.248	6379.58
732.589	6342.06
732.93	6270.43
733.271	6267.72
733.612	6265.46
733.953	6268.17
734.294	6296.19
734.635	6255.97
734.976	6295.06
735.317	6234.95
735.658	6263.42
735.999	6308.85
736.339	6276.08
736.68	6304.55
737.021	6264.55
737.361	6270.2
737.702	6318.34
738.042	6276.98
738.383	6338.22
738.723	6303.42
739.063	6310.2
739.404	6361.27
739.744	6295.74
740.084	6278.56
740.424	6276.3
740.764	6301.61
741.104	6384.78
741.444	6346.13
741.784	6316.75
742.124	6327.6
742.464	6339.13
742.804	6344.55
743.143	6381.61
743.483	6406.92
743.823	6390.88
744.162	6416.64
744.502	6464.1
744.841	6418.9
745.181	6477.43
745.52	6505
745.86	6544.77
746.199	6520.14
746.538	6574.15
746.877	6602.4
747.216	6637.65
747.556	6665.22
747.895	6724.88
748.234	6681.49
748.573	6737.53
748.911	6782.51
749.25	6744.09
749.589	6810.53
749.928	6905.89
750.267	6975.95
750.605	6949.73
750.944	7040.8
751.283	7083.06
751.621	7138.65
751.96	7135.94
752.298	7261.81
752.636	7304.98
752.975	7342.94
753.313	7363.28
753.651	7500.68
753.989	7567.8
754.327	7624.52
754.666	7736.83
755.004	7815.7
755.342	7896.37
755.679	8012.08
756.017	8061.34
756.355	8181.79
756.693	8211.17
757.031	8361.22
757.368	8455.46
757.706	8501.1
758.044	8601.44
758.381	8754.88
758.719	8877.14
759.056	8924.6
759.394	9040.98
759.731	9097.02
760.068	9223.8
760.405	9300.63
760.743	9455.88
761.08	9594.86
761.417	9696.33
761.754	9811.8
762.091	9902.42
762.428	9996.43
762.765	10117.56
763.102	10301.73
763.438	10310.1
763.775	10473.71
764.112	10643.19
764.449	10674.38
764.785	10859.69
765.122	10900.36
765.458	11031.89
765.795	11165.21
766.131	11246.34
766.467	11304.65
766.804	11415.83
767.14	11541.25
767.476	11557.75
767.812	11685.43
768.148	11797.74
768.485	11857.85
768.821	11895.14
769.157	11955.7
769.492	12115.7
769.828	12174.68
770.164	12191.18
770.5	12418.06
770.836	12485.63
771.171	12436.82
771.507	12458.74
771.842	12496.93
772.178	12656.02
772.513	12767.21
772.849	12808.34
773.184	12792.97
773.519	12854.21
773.855	12835.68
774.19	12887.66
774.525	13052.17
774.86	13013.08
775.195	13044.94
775.53	13172.39
775.865	13139.17
776.2	13107.08
776.535	13085.62
776.87	13199.96
777.205	13218.04
777.539	13103.02
777.874	13261.2
778.209	13229.57
778.543	13193.64
778.878	13219.17
779.212	13270.24
779.547	13310.02
779.881	13325.61
780.215	13242.67
780.55	13257.14
780.884	13330.58
781.218	13321.09
781.552	13324.71
781.886	13345.27
782.22	13297.14
782.554	13272.05
782.888	13185.27
783.222	13228.21
783.556	13204.48
783.889	13168.55
784.223	13226.18
784.557	13170.13
784.89	13192.28
785.224	13177.37
785.557	13160.64
785.891	13115.45
786.224	13152.73
786.558	13218.72
786.891	13092.85
787.224	13013.75
787.557	12968.33
787.891	13027.99
788.224	13053.75
788.557	13062.57
788.89	13035.9
789.223	13088.78
789.556	13005.39
789.888	12940.99
790.221	12952.51
790.554	12839.3
790.887	12840.65
791.219	12836.36
791.552	12727.21
791.884	12790.71
792.217	12783.25
792.549	12711.16
792.882	12611.73
793.214	12758.62
793.546	12645.4
793.879	12546.42
794.211	12504.61
794.543	12533.77
794.875	12511.39
795.207	12626.42
795.539	12514.33
795.871	12533.77
796.203	12415.35
796.535	12375.13
796.867	12324.05
797.198	12335.13
797.53	12274.79
797.862	12292.42
798.193	12347.33
798.525	12191.4
798.856	12239.76
799.188	12247.67
799.519	12163.61
799.85	12064.63
800.182	12021.46
800.513	12088.13
800.844	12058.3
801.175	12008.58
801.506	12049.03
801.837	11983.5
802.168	11928.13
802.499	11891.52
802.83	11892.65
803.161	11901.92
803.491	11791.87
803.822	11821.69
804.153	11819.89
804.483	11698.53
804.814	11661.25
805.145	11677.97
805.475	11791.87
805.805	11586.45
806.136	11619.44
806.466	11574.7
806.796	11555.71
807.126	11466.22
807.457	11399.79
807.787	11531.53
808.117	11425.32
808.447	11441.82
808.777	11448.6
809.107	11407.92
809.436	11324.98
809.766	11314.36
810.096	11295.15
810.426	11273.01
810.755	11292.22
811.085	11237.76
811.414	11261.03
811.744	11128.15
812.073	11137.87
812.403	11145.55
812.732	11116.85
813.061	11089.74
813.39	11042.28
813.719	11052.22
814.049	11141.03
814.378	10991.89
814.707	10940.81
815.036	11001.6
815.365	10970.42
815.693	10833.7
816.022	10812.23
816.351	10817.2
816.68	10769.75
817.008	10879.8
817.337	10762.51
817.665	10794.83
817.994	10696.75
818.322	10689.07
818.651	10696.07
818.979	10653.82
819.307	10762.29
819.636	10678
819.964	10669.63
820.292	10699.69
820.62	10550.99
820.948	10589.18
821.276	10701.5
821.604	10677.09
821.932	10638.22
822.259	10584.89
822.587	10637.77
822.915	10650.65
823.243	10628.05
823.57	10529.07
823.898	10584.44
824.225	10542.41
824.553	10512.8
824.88	10577.66
825.207	10516.42
825.535	10605.68
825.862	10645.91
826.189	10571.56
826.516	10626.7
826.843	10630.31
827.17	10649.75
827.497	10620.14
827.824	10605.91
828.151	10665.12
828.478	10635.29
828.805	10611.78
829.131	10625.12
829.458	10622.63
829.785	10575.17
830.111	10645.91
830.438	10661.73
830.764	10613.37
831.09	10682.97
831.417	10565.91
831.743	10580.6
832.069	10612.24
832.395	10551.45
832.722	10575.85
833.048	10595.96
833.374	10571.56
833.7	10535.17
834.026	10534.27
834.351	10500.15
834.677	10476.87
835.003	10463.54
835.329	10492.92
835.654	10440.71
835.98	10466.7
836.306	10400.94
836.631	10457.66
836.956	10474.39
837.282	10485.23
837.607	10503.54
837.932	10462.41
838.258	10354.16
838.583	10388.06
838.908	10319.14
839.233	10299.25
839.558	10313.03
839.883	10329.98
840.208	10266.03
840.533	10278.91
840.858	10228.97
841.182	10245.92
841.507	10231.68
841.832	10139.03
842.156	10194.39
842.481	10195.97
842.805	10121.4
843.13	10150.33
843.454	10091.8
843.778	10047.5
844.103	10045.92
844.427	10014.51
844.751	10064.68
845.075	9977
845.399	10017
845.723	9938.58
846.047	9895.42
846.371	9821.07
846.695	9872.37
847.019	9800.51
847.343	9690.45
847.666	9600.51
847.99	9616.78
848.313	9631.24
848.637	9660.62
848.96	9537.46
849.284	9509.44
849.607	9494.98
849.931	9382.44
850.254	9360.97
850.577	9409.33
850.9	9319.39
851.223	9324.13
851.546	9223.35
851.869	9186.28
852.192	9252.04
852.515	9138.15
852.838	9075.1
853.161	9089.34
853.483	9072.61
853.806	9018.83
854.129	8985.16
854.451	8972.96
854.774	8956.46
855.096	8826.29
855.419	8944.03
855.741	8928.21
856.063	8813.64
856.385	8793.3
856.708	8739.06
857.03	8740.19
857.352	8711.04
857.674	8738.61
857.996	8646.41
858.318	8592.63
858.64	8648.67
858.961	8643.25
859.283	8518.5
859.605	8572.29
859.926	8611.38
860.248	8571.16
860.57	8516.47
860.891	8532.06
861.212	8461.56
861.534	8433.08
861.855	8401.67
862.176	8418.62
862.498	8436.02
862.819	8425.85
863.14	8316.25
863.461	8378.4
863.782	8346.31
864.103	8273.99
864.424	8309.92
864.745	8307.66
865.065	8235.12
865.386	8235.8
865.707	8256.59
866.027	8175.69
866.348	8242.58
866.668	8130.49
866.989	8181.79
867.309	8151.96
867.63	8173.66
867.95	8157.84
868.27	8136.14
868.59	8123.49
868.91	8060.21
869.23	8065.41
869.55	8056.6
869.87	8100.44
870.19	8078.29
870.51	8027.67
870.83	8066.31
871.15	7951.29
871.469	8023.15
871.789	8019.53
872.109	7988.58
872.428	7987.22
872.748	7978.18
873.067	7995.58
873.386	8007.56
873.706	7932.98
874.025	7899.76
874.344	7838.75
874.663	7827.9
874.982	7856.15
875.301	7813.66
875.62	7824.06
875.939	7810.95
876.258	7830.16
876.577	7774.34
876.896	7802.82
877.214	7789.94
877.533	7782.93
877.852	7722.14
878.17	7753.55
878.489	7722.37
878.807	7764.63
879.125	7669.71
879.444	7704.97
879.762	7657.96
880.08	7681.01
880.398	7631.07
880.716	7612.54
881.034	7554.69
881.352	7642.6
881.67	7612.77
881.988	7540.9
882.306	7546.33
882.624	7579.32
882.941	7479.66
883.259	7505.2
883.577	7440.79
883.894	7483.28
884.212	7417.29
884.529	7458.87
884.846	7370.96
885.164	7427.91
885.481	7385.65
885.798	7354.47
886.115	7266.11
886.432	7306.33
886.75	7342.72
887.067	7334.13
887.383	7248.03
887.7	7229.5
888.017	7267.01
888.334	7212.32
888.651	7215.49
888.967	7174.81
889.284	7199.44
889.6	7126.68
889.917	7140.91
890.233	7077.86
890.55	7070.41
890.866	7097.3
891.182	7064.53
891.498	7035.83
891.815	6981.37
892.131	6908.6
892.447	6971.65
892.763	6931.2
893.079	6933.69
893.395	6875.16
893.71	6913.35
894.026	6908.6
894.342	6837.87
894.657	6847.59
894.973	6823.63
895.289	6803.97
895.604	6796.29
895.92	6742.96
896.235	6737.31
896.55	6757.65
896.865	6686.46
897.181	6681.49
897.496	6633.36
897.811	6604.43
898.126	6616.63
898.441	6589.52
898.756	6595.84
899.071	6508.84
899.386	6503.87
899.7	6505.68
900.015	6422.29
900.33	6375.74
900.644	6396.53
900.959	6426.81
901.273	6360.82
901.588	6353.59
901.902	6332.57
902.216	6385.91
902.531	6293.48
902.845	6257.32
903.159	6247.38
903.473	6190.88
903.787	6183.88
904.101	6100.94
904.415	6158.57
904.729	6116.31
905.042	6102.3
905.356	6098
905.67	6076.76
905.984	6054.84
906.297	6011.9
906.611	5959.48
906.924	5969.42
907.237	5949.08
907.551	5907.95
907.864	5875.18
908.177	5815.53
908.491	5898.69
908.804	5865.47
909.117	5731.23
909.43	5751.8
909.743	5758.8
910.056	5757.9
910.368	5759.93
910.681	5650.33
910.994	5651.46
911.307	5645.81
911.619	5585.25
911.932	5607.17
912.244	5550.22
912.557	5546.38
912.869	5514.97
913.181	5490.34
913.494	5493.5
913.806	5442.2
914.118	5458.02
914.43	5406.04
914.742	5401.75
915.054	5342.54
915.366	5386.38
915.678	5317.23
915.99	5346.61
916.302	5272.26
916.613	5308.42
916.925	5262.32
917.236	5237.46
917.548	5179.61
917.859	5197.01
918.171	5201.08
918.482	5142.55
918.794	5081.53
919.105	5078.6
919.416	5076.11
919.727	4983.46
920.038	5065.04
920.349	5025.04
920.66	4995.66
920.971	5009.44
921.282	4965.15
921.593	4939.39
921.903	4893.74
922.214	4918.6
922.525	4876.34
922.835	4876.79
923.146	4870.69
923.456	4821.43
923.767	4811.94
924.077	4812.16
924.387	4758.83
924.697	4775.33
925.008	4731.49
925.318	4727.64
925.628	4692.62
925.938	4681.09
926.248	4681.54
926.558	4631.38
926.867	4624.14
927.177	4632.28
927.487	4575.33
927.796	4558.61
928.106	4514.54
928.416	4544.37
928.725	4537.37
929.034	4456.46
929.344	4482.45
929.653	4463.47
929.962	4431.15
930.271	4444.94
930.581	4423.25
930.89	4373.08
931.199	4367.65
931.508	4350.25
931.817	4370.37
932.125	4314.1
932.434	4296.92
932.743	4292.63
933.051	4261.67
933.36	4262.8
933.669	4230.48
933.977	4217.83
934.286	4221.44
934.594	4188
934.902	4162.91
935.21	4177.83
935.519	4146.42
935.827	4127.66
936.135	4102.58
936.443	4086.53
936.751	4091.28
937.059	4075.01
937.367	4056.02
937.674	3990.71
937.982	4008.11
938.29	3980.32
938.597	3997.27
938.905	3968.57
939.213	3930.38
939.52	3925.86
939.827	3929.92
940.135	3852.86
940.442	3880.43
940.749	3835.01
941.056	3870.04
941.363	3835.01
941.67	3816.26
941.977	3801.79
942.284	3806.09
942.591	3787.1
942.898	3781.91
943.205	3732.19
943.511	3735.81
943.818	3687.22
944.125	3702.81
944.431	3658.97
944.738	3657.39
945.044	3664.85
945.35	3651.74
945.657	3578.97
945.963	3564.51
946.269	3605.41
946.575	3546.43
946.881	3549.14
947.187	3576.26
947.493	3492.87
947.799	3483.83
948.105	3458.3
948.41	3461.01
948.716	3464.85
949.022	3463.04
949.327	3450.62
949.633	3420.56
949.938	3432.99
950.244	3387.79
950.549	3435.25
950.854	3383.5
951.16	3332.43
951.465	3323.84
951.77	3359.54
952.075	3337.4
952.38	3309.15
952.685	3312.54
952.99	3272.99
953.294	3274.57
953.599	3241.13
953.904	3240.45
954.209	3196.16
954.513	3213.79
954.818	3172.43
955.122	3191.19
955.426	3164.3
955.731	3117.52
956.035	3135.82
956.339	3074.35
956.643	3112.09
956.948	3111.42
957.252	3053.79
957.556	3065.09
957.86	3058.31
958.163	3061.47
958.467	3044.98
958.771	3002.94
959.075	3029.84
959.378	2988.93
959.682	3024.86
959.985	2986.9
960.289	2951.42
960.592	2953.23
960.896	2939.89
961.199	2940.35
961.502	2926.79
961.805	2891.76
962.108	2876.17
962.411	2892.89
962.714	2823.29
963.017	2837.98
963.32	2853.34
963.623	2824.42
963.926	2827.36
964.228	2799.11
964.531	2772.22
964.833	2769.28
965.136	2769.05
965.438	2740.58
965.741	2742.61
966.043	2722.73
966.345	2733.8
966.648	2682.5
966.95	2677.08
967.252	2693.12
967.554	2700.13
967.856	2675.95
968.158	2624.87
968.46	2600.47
968.761	2638.66
969.063	2654.03
969.365	2571.99
969.666	2625.78
969.968	2570.64
970.269	2587.36
970.571	2562.5
970.872	2547.36
971.174	2527.7
971.475	2516.85
971.776	2565.22
972.077	2500.36
972.378	2512.56
972.679	2517.31
972.98	2486.8
973.281	2434.37
973.582	2447.03
973.883	2444.31
974.183	2443.86
974.484	2426.91
974.785	2410.42
975.085	2396.18
975.386	2413.35
975.686	2366.8
975.986	2375.16
976.287	2343.75
976.587	2359.12
976.887	2334.49
977.187	2326.35
977.487	2317.54
977.787	2327.26
978.087	2275.28
978.387	2299.91
978.687	2297.65
978.987	2265.11
979.286	2251.32
979.586	2275.28
979.885	2263.53
980.185	2234.83
980.484	2236.41
980.784	2229.63
981.083	2207.71
981.382	2221.5
981.682	2206.81
981.981	2212.46
982.28	2176.07
982.579	2156.64
982.878	2204.32
983.177	2155.51
983.475	2132.46
983.774	2124.55
984.073	2102.63
984.372	2089.52
984.67	2111.67
984.969	2089.52
985.267	2101.5
985.566	2089.3
985.864	2080.26
986.162	2073.48
986.461	2073.48
986.759	2062.63
987.057	2051.56
987.355	2014.95
987.653	2023.99
987.951	2015.4
988.249	2021.95
988.547	1977.21
988.844	1993.93
989.142	1971.56
989.44	1983.31
989.737	1964.55
990.035	1955.51
990.332	1927.49
990.63	1936.76
990.927	1915.51
991.224	1949.19
991.521	1916.42
991.819	1919.36
992.116	1946.02
992.413	1906.7
992.71	1882.52
993.006	1853.14
993.303	1863.09
993.6	1858.34
993.897	1826.25
994.193	1807.72
994.49	1825.12
994.787	1814.95
995.083	1810.88
995.379	1789.19
995.676	1787.83
995.972	1768.4
996.268	1770.89
996.565	1777.44
996.861	1755.74
997.157	1758.91
997.453	1732.24
997.749	1743.77
998.044	1727.5
998.34	1715.52
998.636	1712.58
998.932	1702.41
999.227	1692.92
999.523	1705.58
999.818	1683.43
1000.114	1676.65
1000.409	1663.54
1000.704	1617.9
1001	1619.25
1001.295	1640.27
1001.59	1603.21
1001.885	1641.85
1002.18	1645.69
1002.475	1615.41
1002.77	1612.47
1003.065	1594.62
1003.359	1601.4
1003.654	1594.85
1003.949	1562.53
1004.243	1539.71
1004.538	1548.74
1004.832	1541.29
1005.127	1504.68
1005.421	1518.01
1005.715	1520.95
1006.009	1518.91
1006.304	1505.13
1006.598	1496.99
1006.892	1475.75
1007.186	1446.37
1007.48	1468.52
1007.773	1460.16
1008.067	1461.97
1008.361	1440.95
1008.655	1445.02
1008.948	1430.1
1009.242	1430.56
1009.535	1430.56
1009.829	1414.28
1010.122	1429.65
1010.415	1380.84
1010.708	1379.26
1011.001	1396.66
1011.295	1376.32
1011.588	1375.19
1011.881	1367.28
1012.173	1377.68
1012.466	1360.27
1012.759	1337.22
1013.052	1323.89
1013.344	1315.08
1013.637	1299.03
1013.93	1275.53
1014.222	1284.8
1014.514	1289.32
1014.807	1298.58
1015.099	1253.61
1015.391	1269.43
1015.683	1262.42
1015.976	1266.94
1016.268	1256.1
1016.56	1258.81
1016.851	1221.3
1017.143	1230.11
1017.435	1223.56
1017.727	1224.46
1018.018	1222.2
1018.31	1199.6
1018.602	1201.41
1018.893	1184.23
1019.185	1179.04
1019.476	1157.12
1019.767	1160.73
1020.058	1151.92
1020.35	1134.97
1020.641	1156.21
1020.932	1146.95
1021.223	1105.59
1021.514	1136.33
1021.804	1122.32
1022.095	1117.34
1022.386	1110.34
1022.677	1088.64
1022.967	1069.89
1023.258	1083.9
1023.548	1071.47
1023.839	1071.69
1024.129	1068.53
1024.419	1071.47
1024.709	1030.11
1025	1049.1
1025.29	1041.41
1025.58	1026.72
1025.87	998.93
1026.16	1017.01
1026.449	999.38
1026.739	1004.35
1027.029	993.5
1027.319	988.08
1027.608	994.86
1027.898	975.88
1028.187	986.05
1028.477	981.3
1028.766	962.55
1029.055	979.72
1029.344	979.95
1029.634	939.5
1029.923	937.01
1030.212	940.17
1030.501	926.61
1030.79	905.82
1031.078	934.3
1031.367	904.92
1031.656	920.96
1031.945	904.69
1032.233	925.71
1032.522	895.88
1032.81	878.93
1033.099	896.78
1033.387	900.85
1033.675	891.36
1033.963	894.98
1034.251	862.89
1034.54	840.06
1034.828	850.68
1035.116	849.55
1035.403	833.96
1035.691	831.25
1035.979	824.02
1036.267	823.34
1036.554	843.9
1036.842	798.03
1037.129	817.69
1037.417	801.42
1037.704	810.01
1037.992	815.66
1038.279	785.83
1038.566	796.45
1038.853	796.45
1039.14	796.45
