Data from hue_60_FLMS001491_14.txt Node
Date: Mon Feb 06 15:12:00 GMT 2017
User: dcchb
Spectrometer: FLMS00149
Trigger mode: 0
Integration Time (sec): 2.000000E-2
Scans to average: 10
Electric dark correction enabled: true
Nonlinearity correction enabled: false
Boxcar width: 0
XAxis mode: Wavelengths
Number of Pixels in Spectrum: 2048
>>>>>Begin Spectral Data<<<<<
341.393	-27.87
341.776	-27.87
342.16	-27.87
342.543	-37.36
342.927	-49.33
343.31	-60.18
343.693	-72.16
344.077	-80.75
344.46	-61.54
344.843	-41.43
345.226	-39.62
345.61	-18.38
345.993	-18.6
346.376	-5.04
346.759	18.23
347.142	29.99
347.525	22.53
347.908	44.45
348.291	61.17
348.674	107.5
349.057	113.82
349.44	103.43
349.823	141.62
350.206	154.73
350.588	193.37
350.971	198.34
351.354	204.22
351.737	239.02
352.119	257.55
352.502	271.79
352.884	287.83
353.267	285.57
353.65	276.08
354.032	320.6
354.414	304.33
354.797	329.19
355.179	317.66
355.562	325.12
355.944	333.03
356.326	352.46
356.709	346.59
357.091	346.13
357.473	340.94
357.855	336.87
358.238	365.8
358.62	342.29
359.002	347.49
359.384	346.36
359.766	338.68
360.148	345.23
360.53	351.56
360.912	358.11
361.294	327.6
361.676	319.47
362.057	331.45
362.439	316.08
362.821	333.71
363.203	322.41
363.584	342.75
363.966	333.03
364.348	322.41
364.729	337.1
365.111	336.42
365.493	330.32
365.874	343.2
366.256	326.02
366.637	340.49
367.019	326.7
367.4	304.33
367.781	315.4
368.163	324.44
368.544	326.7
368.925	288.06
369.306	309.53
369.688	321.28
370.069	314.5
370.45	294.61
370.831	309.75
371.212	309.3
371.593	300.94
371.974	322.63
372.355	330.99
372.736	307.72
373.117	335.06
373.498	321.5
373.879	287.15
374.26	336.42
374.641	328.06
375.021	315.63
375.402	319.69
375.783	321.28
376.163	331.45
376.544	344.78
376.925	338.23
377.305	327.38
377.686	326.7
378.066	349.75
378.447	324.67
378.827	332.58
379.208	352.24
379.588	329.64
379.968	314.5
380.349	339.58
380.729	345.68
381.109	343.42
381.489	339.13
381.87	341.16
382.25	352.69
382.63	356.08
383.01	334.16
383.39	366.02
383.77	360.15
384.15	336.64
384.53	357.43
384.91	348.62
385.29	354.95
385.67	356.98
386.049	361.5
386.429	378.9
386.809	345.68
387.189	342.52
387.568	349.98
387.948	343.42
388.328	364.21
388.707	368.73
389.087	350.88
389.466	343.88
389.846	353.82
390.225	362.41
390.605	353.14
390.984	388.85
391.363	360.82
391.743	364.44
392.122	386.36
392.501	375.29
392.881	368.28
393.26	359.02
393.639	398.34
394.018	374.16
394.397	395.63
394.776	361.5
395.155	377.32
395.534	359.24
395.913	376.42
396.292	392.69
396.671	378.68
397.05	396.08
397.429	390.2
397.808	374.61
398.186	382.74
398.565	365.8
398.944	407.38
399.323	382.52
399.701	382.97
400.08	393.59
400.458	387.94
400.837	388.17
401.215	394.27
401.594	386.59
401.972	406.7
402.351	386.36
402.729	390.43
403.107	398.79
403.486	408.05
403.864	399.24
404.242	407.6
404.62	401.73
404.999	415.74
405.377	414.61
405.755	412.35
406.133	413.03
406.511	408.28
406.889	399.47
407.267	424.1
407.645	426.36
408.023	415.74
408.401	412.8
408.779	426.58
409.156	429.07
409.534	449.86
409.912	430.65
410.29	423.87
410.667	444.89
411.045	459.8
411.422	448.96
411.8	439.69
412.178	454.83
412.555	437.21
412.933	450.54
413.31	459.8
413.687	480.14
414.065	467.04
414.442	457.32
414.819	452.8
415.197	481.95
415.574	477.88
415.951	480.82
416.328	487.6
416.705	481.72
417.082	472.91
417.46	486.47
417.837	507.03
418.214	502.52
418.591	499.13
418.967	498.45
419.344	486.47
419.721	509.52
420.098	519.01
420.475	502.06
420.852	529.63
421.228	523.31
421.605	502.97
421.982	508.84
422.358	534.83
422.735	512.23
423.111	526.7
423.488	535.51
423.864	533.47
424.241	545.45
424.617	549.75
424.994	541.61
425.37	556.98
425.746	560.59
426.123	558.56
426.499	536.64
426.875	554.04
427.251	557.65
427.627	561.5
428.003	569.86
428.379	572.8
428.756	588.61
429.132	580.48
429.507	587.26
429.883	615.96
430.259	587.94
430.635	591.33
431.011	575.06
431.387	588.61
431.763	602.63
432.138	598.78
432.514	617.99
432.89	622.06
433.265	609.63
433.641	622.96
434.016	624.09
434.392	639.69
434.767	655.28
435.143	650.53
435.518	662.51
435.894	659.8
436.269	647.6
436.644	689.4
437.02	679.23
437.395	668.61
437.77	675.17
438.145	688.5
438.52	674.49
438.895	710.87
439.271	697.99
439.646	703.87
440.021	704.54
440.395	712.45
440.77	684.66
441.145	709.06
441.52	709.06
441.895	709.97
442.27	742.28
442.645	742.28
443.019	733.24
443.394	721.94
443.769	737.76
444.143	743.41
444.518	754.03
444.892	743.64
445.267	766.01
445.641	771.21
446.016	768.04
446.39	784.77
446.764	782.73
447.139	784.09
447.513	759.68
447.887	764.66
448.262	787.25
448.636	787.71
449.01	806.01
449.384	783.19
449.758	804.65
450.132	802.62
450.506	824.99
450.88	824.99
451.254	832.68
451.628	845.1
452.002	846.46
452.376	850.75
452.75	829.29
453.123	860.92
453.497	868.61
453.871	865.9
454.244	880.81
454.618	898.21
454.992	899.57
455.365	893.69
455.739	933.01
456.112	931.88
456.486	938.21
456.859	957.19
457.232	947.48
457.606	951.77
457.979	966.91
458.352	997.64
458.725	980.47
459.099	1016.4
459.472	1010.75
459.845	1011.65
460.218	1004.87
460.591	1036.74
460.964	1056.62
461.337	1065.21
461.71	1083.52
462.083	1101.82
462.456	1093.23
462.829	1113.35
463.201	1103.86
463.574	1140.92
463.947	1143.4
464.32	1161.71
464.692	1160.8
465.065	1180.24
465.438	1187.47
465.81	1193.12
466.183	1211.87
466.555	1264.08
466.928	1272.89
467.3	1273.79
467.672	1287.58
468.045	1334.13
468.417	1354.7
468.789	1356.96
469.161	1377.75
469.534	1398.54
469.906	1441.93
470.278	1446.22
470.65	1481.02
471.022	1521.7
471.394	1523.28
471.766	1596.5
472.138	1595.14
472.51	1655.03
472.882	1678.53
473.253	1723.05
473.625	1730.51
473.997	1762.37
474.369	1810.96
474.74	1817.06
475.112	1879.88
475.484	1953.32
475.855	1966.43
476.227	2024.51
476.598	2074
476.97	2126.2
477.341	2182.7
477.713	2239.42
478.084	2246.2
478.455	2382.47
478.827	2420.43
479.198	2486.87
479.569	2539.75
479.94	2651.39
480.311	2706.52
480.682	2776.13
481.053	2864.71
481.424	2948.1
481.795	3012.73
482.166	3139.51
482.537	3196
482.908	3307.64
483.279	3377.47
483.65	3480.52
484.021	3595.09
484.391	3692.94
484.762	3829.89
485.133	3925.93
485.503	4000.73
485.874	4173.83
486.244	4188.97
486.615	4358.68
486.985	4450.21
487.356	4673.93
487.726	4744.21
488.097	4939.91
488.467	4974.71
488.837	5179
489.207	5302.39
489.578	5429.62
489.948	5602.72
490.318	5747.57
490.688	5833.22
491.058	5973.33
491.428	6155.93
491.798	6290.16
492.168	6472.98
492.538	6563.82
492.908	6773.54
493.278	6940.31
493.648	7014.89
494.017	7205.16
494.387	7316.8
494.757	7477.7
495.126	7624.36
495.496	7783.23
495.866	7953.17
496.235	8105.7
496.605	8340.28
496.974	8444.91
497.344	8633.37
497.713	8706.37
498.082	8876.31
498.452	9054.61
498.821	9174.38
499.19	9309.52
499.559	9448.95
499.928	9553.58
500.298	9744.98
500.667	9953.79
501.036	10030.63
501.405	10213.45
501.774	10262.71
502.143	10482.82
502.512	10542.03
502.88	10703.38
503.249	10836.93
503.618	10948.79
503.987	11147.66
504.356	11310.37
504.724	11366.18
505.093	11526.86
505.462	11612.96
505.83	11865.83
506.199	11976.34
506.567	12218.37
506.936	12199.16
507.304	12374.97
507.672	12603.21
508.041	12654.06
508.409	12823.77
508.777	13028.29
509.145	13089.98
509.514	13159.58
509.882	13369.75
510.25	13443.42
510.618	13557.54
510.986	13723.86
511.354	13871.43
511.722	14011.76
512.09	14195.26
512.458	14244.3
512.826	14415.6
513.193	14494.01
513.561	14670.96
513.929	14814.23
514.297	14934.45
514.664	15113.88
515.032	15243.6
515.4	15232.52
515.767	15438.39
516.135	15541.89
516.502	15565.62
516.869	15903.01
517.237	15938.72
517.604	15952.96
517.972	16109.11
518.339	16280.18
518.706	16358.14
519.073	16487.41
519.44	16630
519.808	16902.54
520.175	16887.17
520.542	17148.86
520.909	17240.38
521.276	17302.07
521.643	17528.96
522.009	17704.77
522.376	17808.95
522.743	17930.31
523.11	18134.59
523.477	18334.59
523.843	18335.72
524.21	18591.53
524.577	18755.14
524.943	18858.64
525.31	18985.64
525.676	19119.88
526.043	19274
526.409	19376.37
526.776	19638.51
527.142	19584.05
527.508	19768.45
527.874	20000.53
528.241	20171.83
528.607	20160.3
528.973	20377.02
529.339	20422.9
529.705	20628.09
530.071	20753.51
530.437	20857.01
530.803	20950.34
531.169	21090.9
531.535	21127.96
531.901	21306.94
532.267	21379.71
532.632	21480.72
532.998	21594.84
533.364	21729.53
533.73	21734.05
534.095	21955.51
534.461	22066.92
534.826	22220.14
535.192	22225.79
535.557	22476.4
535.923	22418.77
536.288	22429.85
536.653	22687.69
537.019	22588.71
537.384	22711.87
537.749	22920.46
538.114	22908.71
538.479	23051.3
538.845	23011.3
539.21	23124.52
539.575	23231.63
539.94	23272.54
540.305	23497.62
540.67	23483.38
541.034	23555.02
541.399	23574.45
541.764	23727.89
542.129	23754.79
542.494	23865.29
542.858	23981.9
543.223	23936.02
543.587	24178.28
543.952	24039.3
544.316	24217.37
544.681	24125.17
545.045	24306.63
545.41	24547.53
545.774	24569.68
546.138	24529.45
546.503	24712.5
546.867	24685.83
547.231	25082.89
547.595	24918.14
547.959	25032.04
548.324	25035.88
548.688	25091.7
549.052	25168.08
549.416	25252.15
549.779	25358.36
550.143	25333.95
550.507	25671.8
550.871	25657.11
551.235	25598.8
551.599	25773.49
551.962	25887.61
552.326	25958.79
552.689	26201.95
553.053	26014.39
553.417	26172.12
553.78	26394.49
554.143	26455.73
554.507	26552.45
554.87	26570.98
555.234	26861.37
555.597	26679.91
555.96	26871.09
556.323	26893.69
556.686	27098.88
557.05	27230.85
557.413	27358.08
557.776	27294.58
558.139	27565.31
558.502	27590.39
558.865	27727.11
559.228	28019.53
559.59	28002.81
559.953	28035.35
560.316	28349.69
560.679	28427.66
561.041	28524.6
561.404	28575
561.767	28873.75
562.129	28718.95
562.492	29070.58
562.854	28905.61
563.217	28999.62
563.579	29187.86
563.941	29413.85
564.304	29491.81
564.666	29660.17
565.028	29816.09
565.39	29926.15
565.753	30040.72
566.115	30113.94
566.477	30265.8
566.839	30374.27
567.201	30503.99
567.563	30512.8
567.925	30784.2
568.287	30843.19
568.648	30834.37
569.01	31020.81
569.372	31295.6
569.734	31168.38
570.095	31327.02
570.457	31493.11
570.819	31550.06
571.18	31676.84
571.542	31734.01
571.903	31747.57
572.265	31891.52
572.626	31958.41
572.987	32155.92
573.349	32122.02
573.71	32355.24
574.071	32348.91
574.432	32543.48
574.794	32759.75
575.155	32639.52
575.516	32619.86
575.877	32930.14
576.238	32906.41
576.599	33061.88
576.96	33016.69
577.32	33091.94
577.681	33128.1
578.042	33346.17
578.403	33226.63
578.763	33399.5
579.124	33392.95
579.485	33406.51
579.845	33634.3
580.206	33564.24
580.566	33591.14
580.927	33672.04
581.287	33762.21
581.648	33803.33
582.008	33803.79
582.368	33876.78
582.728	33789.32
583.089	33810.57
583.449	33829.55
583.809	33915.87
584.169	34062.54
584.529	33923.11
584.889	34222.08
585.249	33881.75
585.609	33848.3
585.969	34080.84
586.329	33988.64
586.688	34153.38
587.048	34110.44
587.408	34078.58
587.768	34121.29
588.127	33974.63
588.487	33932.82
588.846	34288.07
589.206	34026.15
589.565	34154.74
589.925	34291.23
590.284	34246.94
590.643	34220.95
591.003	34233.61
591.362	34431.79
591.721	34313.15
592.08	34157.45
592.44	34470.44
592.799	34447.16
593.158	34428.4
593.517	34263.66
593.876	34505.01
594.235	34393.83
594.593	34572.13
594.952	34611.22
595.311	34358.8
595.67	34506.14
596.029	34773.93
596.387	34887.83
596.746	34811.67
597.104	34703.2
597.463	34816.64
597.822	34930.54
598.18	34753.14
598.538	34851.22
598.897	34949.74
599.255	34585.69
599.613	35229.29
599.972	34938.9
600.33	35253.01
600.688	34982.29
601.046	35169.85
601.404	35328.94
601.762	35211.21
602.12	35326.23
602.478	35420.69
602.836	35351.32
603.194	35157.65
603.552	35460.24
603.91	35295.27
604.268	35567.13
604.625	35459.34
604.983	35546.79
605.341	35449.17
605.698	35590.86
606.056	35700.01
606.413	35681.48
606.771	35901.58
607.128	35871.3
607.485	35882.15
607.843	35873.34
608.2	36074.69
608.557	36179.09
608.914	35933.45
609.272	36265.19
609.629	36262.7
609.986	36431.06
610.343	36247.11
610.7	36581.57
611.057	36439.65
611.414	36533.88
611.771	36494.34
612.127	36695.91
612.484	36701.79
612.841	36826.76
613.198	36710.38
613.554	36771.39
613.911	37016.36
614.267	36920.09
614.624	36972.29
614.98	37108.11
615.337	37245.5
615.693	37178.39
616.05	37104.04
616.406	37423.13
616.762	37308.78
617.118	37240.31
617.475	37273.07
617.831	37475.55
618.187	37546.06
618.543	37565.72
618.899	37805.04
619.255	37782.66
619.611	37665.83
619.967	37862.44
620.323	38005.94
620.678	37718.94
621.034	37780.63
621.39	37828.54
621.746	37728.43
622.101	38180.62
622.457	37838.26
622.812	38068.08
623.168	38158.47
623.523	38175.2
623.879	38246.61
624.234	38048.19
624.589	38158.7
624.945	38263.56
625.3	38425.13
625.655	38390.78
626.01	38204.35
626.365	38381.97
626.72	38342.88
627.075	38507.17
627.43	38396.89
627.785	38350.11
628.14	38295.42
628.495	38450.67
628.85	38447.73
629.205	38273.95
629.559	38426.94
629.914	38290.9
630.269	38320.5
630.623	38303.33
630.978	38120.96
631.332	38240.51
631.687	38472.14
632.041	38318.02
632.396	38436.21
632.75	38157.34
633.104	38291.35
633.459	38000.51
633.813	38224.01
634.167	38156.89
634.521	38115.09
634.875	38194.63
635.229	38196.44
635.583	38187.4
635.937	38094.97
636.291	37988.54
636.645	37994.86
636.999	37965.26
637.352	38164.58
637.706	37823.57
638.06	38057.23
638.413	38035.31
638.767	37812.72
639.121	37982.66
639.474	37701.76
639.828	37809.56
640.181	37862.89
640.534	37837.8
640.888	37820.4
641.241	37601.2
641.594	37677.81
641.947	37713.97
642.301	37615.89
642.654	37593.52
643.007	37743.34
643.36	37591.71
643.713	37546.74
644.066	37669.45
644.419	37377.93
644.771	37330.47
645.124	36923.03
645.477	36850.03
645.83	36546.09
646.182	36560.78
646.535	36456.82
646.888	36452.3
647.24	36335.25
647.593	36510.16
647.945	36469.93
648.298	36227.23
648.65	36284.63
649.002	36173.44
649.355	36297.28
649.707	36282.14
650.059	36327.34
650.411	36707.89
650.763	36743.82
651.115	37184.26
651.467	37012.52
651.819	36902.24
652.171	37021.33
652.523	36893.65
652.875	36918.05
653.227	36822.01
653.578	37102
653.93	36873.76
654.282	36563.49
654.633	36711.51
654.985	36770.94
655.337	36681.9
655.688	36553.09
656.039	36817.49
656.391	36407.56
656.742	36613.2
657.094	36543.15
657.445	36798.74
657.796	36612.98
658.147	36502.7
658.498	36532.98
658.849	36633.99
659.2	36590.15
659.551	36475.13
659.902	36631.51
660.253	36587.89
660.604	36706.31
660.955	36284.63
661.306	36428.35
661.656	36391.29
662.007	36377.28
662.358	36487.56
662.708	36462.93
663.059	36446.43
663.409	36207.11
663.76	36597.84
664.11	36535.92
664.461	36482.59
664.811	36405.75
665.161	36434.45
665.511	36265.42
665.862	36382.93
666.212	36325.3
666.562	36457.05
666.912	36407.33
667.262	36316.71
667.612	36353.55
667.962	36344.28
668.312	36229.71
668.662	36417.28
669.011	36196.94
669.361	36261.12
669.711	36280.56
670.06	36209.15
670.41	36227.45
670.76	36078.53
671.109	36177.28
671.459	36099.55
671.808	36076.72
672.157	36304.74
672.507	36044.63
672.856	36015.93
673.205	36127.57
673.554	36132.09
673.904	36046.67
674.253	36143.61
674.602	36079.43
674.951	35576.85
675.3	35384.31
675.649	36024.97
675.998	35798.08
676.346	35905.43
676.695	35920.79
677.044	35671.08
677.393	35784.53
677.741	35789.27
678.09	35662.95
678.438	35672.66
678.787	35792.21
679.135	35842.6
679.484	35478.32
679.832	35668.6
680.181	35413.46
680.529	35530.07
680.877	35478.77
681.225	35301.37
681.573	35660.91
681.922	35372.78
682.27	35210.98
682.618	35300.92
682.966	35326.01
683.314	35330.3
683.661	35099.35
684.009	35104.09
684.357	34890.54
684.705	34863.19
685.053	35098.44
685.4	34879.92
685.748	34712.24
686.095	34791.56
686.443	34622.52
686.79	34667.27
687.138	34638.57
687.485	34588.17
687.832	34458.01
688.18	34444.9
688.527	34288.29
688.874	34283.77
689.221	34311.57
689.568	34269.08
689.915	34180.73
690.262	34091.01
690.609	33987.06
690.956	33954.29
691.303	33867.51
691.65	33703
691.997	33613.96
692.344	33520.63
692.69	33427.53
693.037	33360.63
693.383	33154.31
693.73	33381.65
694.077	33185.27
694.423	33071.83
694.769	33037.03
695.116	32945.05
695.462	32983.02
695.808	32710.71
696.155	32894.21
696.501	32603.14
696.847	32625.06
697.193	32392.07
697.539	32545.97
697.885	32357.5
698.231	32152.3
698.577	32261.68
698.923	32249.7
699.269	32078.41
699.614	31764.52
699.96	31823.5
700.306	31804.52
700.651	31643.17
700.997	31580.79
701.342	31569.49
701.688	31445.88
702.033	31418.54
702.379	31412.66
702.724	31275.27
703.069	31365.66
703.415	31004.31
703.76	31174.02
704.105	31081.37
704.45	30858.1
704.795	30762.96
705.14	30678.67
705.485	30761.61
705.83	30610.42
706.175	30538.79
706.52	30463.08
706.865	30413.37
707.209	30320.49
707.554	30329.98
707.899	30410.43
708.243	30122.3
708.588	30039.37
708.932	29875.75
709.277	29812.7
709.621	29875.3
709.966	29642.09
710.31	29831.24
710.654	29550.79
710.998	29593.05
711.342	29493.84
711.687	29398.48
712.031	29375.65
712.375	29204.36
712.719	29278.71
713.063	29229.22
713.407	29229.67
713.75	29086.4
714.094	29064.25
714.438	28909.45
714.782	28926.63
715.125	28970.24
715.469	28946.29
715.812	28667.42
716.156	28644.6
716.499	28687.99
716.843	28601.21
717.186	28546.07
717.53	28590.82
717.873	28568.22
718.216	28619.29
718.559	28406.64
718.902	28244.84
719.246	28228.79
719.589	28231.96
719.932	28080.77
720.275	28184.95
720.617	28133.43
720.96	28028.12
721.303	27987.67
721.646	27890.72
721.989	27802.81
722.331	27770.72
722.674	27861.34
723.016	27811.85
723.359	27813.66
723.701	27768.46
724.044	27518.98
724.386	27429.49
724.729	27577.06
725.071	27492.09
725.413	27426.1
725.755	27468.13
726.097	27190.85
726.439	27138.42
726.782	27147.69
727.124	27279.89
727.465	27068.6
727.807	27109.73
728.149	27014.36
728.491	26934.14
728.833	26924.19
729.175	26857.08
729.516	26808.04
729.858	26866.12
730.199	26779.34
730.541	26719.23
730.882	26740.02
731.224	26764.2
731.565	26522.62
731.906	26639.68
732.248	26682.39
732.589	26450.08
732.93	26506.13
733.271	26503.64
733.612	26492.57
733.953	26385.9
734.294	26356.3
734.635	26257.77
734.976	26394.94
735.317	26200.37
735.658	26202.86
735.999	26168.96
736.339	26083.54
736.68	26102.29
737.021	26049.41
737.361	25926.71
737.702	26173.25
738.042	25948.85
738.383	25853.71
738.723	25988.17
739.063	25825.24
739.404	25899.81
739.744	25748.86
740.084	25653.27
740.424	25781.62
740.764	25558.35
741.104	25678.35
741.444	25554.96
741.784	25442.88
742.124	25605.36
742.464	25491.69
742.804	25364.69
743.143	25335.08
743.483	25375.99
743.823	25157.91
744.162	25288.08
744.502	25278.13
744.841	25198.81
745.181	25168.53
745.52	25029.1
745.86	25190
746.199	25056.67
746.538	25064.81
746.877	25082.66
747.216	25001.53
747.556	25012.38
747.895	24945.49
748.234	24939.16
748.573	24828.43
748.911	24701.43
749.25	24744.82
749.589	24539.17
749.928	24670.47
750.267	24691.26
750.605	24552.96
750.944	24467.99
751.283	24363.36
751.621	24437.7
751.96	24312.28
752.298	24355.22
752.636	24195.68
752.975	24152.97
753.313	24089.01
753.651	24181.21
753.989	24103.7
754.327	24043.36
754.666	23855.12
755.004	23876.36
755.342	23905.52
755.679	23834.78
756.017	23640.89
756.355	23682.92
756.693	23710.94
757.031	23779.64
757.368	23575.13
757.706	23522.25
758.044	23424.62
758.381	23465.53
758.719	23339.2
759.056	23306.89
759.394	23391.63
759.731	23092.2
760.068	23055.37
760.405	23035.48
760.743	22927.24
761.08	22967.01
761.417	22776.73
761.754	22818.76
762.091	22802.72
762.428	22681.82
762.765	22503.74
763.102	22601.37
763.438	22440.02
763.775	22268.95
764.112	22279.57
764.449	22351.88
764.785	22262.62
765.122	22034.83
765.458	22010.88
765.795	22046.58
766.131	21955.96
766.467	21887.94
766.804	21787.15
767.14	21680.04
767.476	21733.82
767.812	21523.43
768.148	21633.71
768.485	21431
768.821	21278.24
769.157	21235.98
769.492	21184.23
769.828	21226.04
770.164	21059.26
770.5	20934.29
770.836	20985.59
771.171	20932.49
771.507	20815.2
771.842	20644.81
772.178	20706.73
772.513	20513.06
772.849	20603.46
773.184	20445.04
773.519	20422.67
773.855	20370.02
774.19	20157.14
774.525	20127.54
774.86	20118.27
775.195	20079.63
775.53	19973.42
775.865	19920.31
776.2	19735.23
776.535	19563.26
776.87	19613.42
777.205	19555.8
777.539	19470.6
777.874	19495.91
778.209	19301.57
778.543	19243.49
778.878	19128.69
779.212	19185.41
779.547	19065.87
779.881	19146.32
780.215	19009.83
780.55	19014.12
780.884	18844.63
781.218	18790.17
781.552	18816.61
781.886	18676.05
782.22	18564.41
782.554	18469.73
782.888	18383.63
783.222	18248.49
783.556	18201.94
783.889	18184.54
784.223	18136.4
784.557	18045.1
784.89	18132.79
785.224	17947.48
785.557	17820.7
785.891	17831.55
786.224	17688.28
786.558	17775.73
786.891	17603.08
787.224	17567.83
787.557	17457.32
787.891	17467.72
788.224	17368.74
788.557	17391.56
788.89	17394.73
789.223	17261.4
789.556	17177.56
789.888	17087.62
790.221	17088.75
790.554	16870.45
790.887	16946.6
791.219	16939.82
791.552	16854.18
791.884	16710
792.217	16722.88
792.549	16629.55
792.882	16504.13
793.214	16425.94
793.546	16431.81
793.879	16355.88
794.211	16273.17
794.543	16287.64
794.875	16311.14
795.207	16245.6
795.539	16172.39
795.871	16136.68
796.203	15981.2
796.535	15945.95
796.867	15895.33
797.198	15842
797.53	15834.09
797.862	15732.17
798.193	15779.85
798.525	15694.21
798.856	15707.99
799.188	15489.01
799.519	15433.2
799.85	15444.5
800.182	15402.69
800.513	15384.84
800.844	15296.02
801.175	15369.02
801.506	15292.18
801.837	15144.84
802.168	15150.27
802.499	15092.87
802.83	15070.27
803.161	15011.96
803.491	14989.37
803.822	14979.42
804.153	14842.03
804.483	14752.99
804.814	14647
805.145	14660.79
805.475	14709.83
805.805	14729.26
806.136	14604.07
806.466	14623.95
806.796	14584.18
807.126	14443.84
807.457	14399.1
807.787	14421.7
808.117	14349.61
808.447	14351.42
808.777	14398.19
809.107	14248.37
809.436	14207.01
809.766	14137.41
810.096	14135.15
810.426	14063.29
810.755	14019.45
811.085	14097.64
811.414	13982.84
811.744	13903.74
812.073	13900.35
812.403	13874.82
812.732	13776.52
813.061	13788.49
813.39	13675.28
813.719	13624.88
814.049	13774.48
814.378	13642.28
814.707	13536.07
815.036	13611.1
815.365	13509.86
815.693	13466.02
816.022	13452.68
816.351	13402.06
816.68	13304.21
817.008	13293.59
817.337	13273.93
817.665	13225.34
817.994	13224.44
818.322	13194.61
818.651	13086.59
818.979	13042.75
819.307	13212.92
819.636	13079.81
819.964	12928.18
820.292	13001.85
820.62	12994.62
820.948	13008.17
821.276	13046.82
821.604	13025.58
821.932	13016.76
822.259	13030.77
822.587	12953.26
822.915	12951.45
823.243	12941.74
823.57	12973.37
823.898	12923.43
824.225	12877.78
824.553	12940.83
824.88	12976.54
825.207	12924.79
825.535	12932.24
825.862	12961.4
826.189	12856.54
826.516	12926.37
826.843	12935.63
827.17	12960.72
827.497	12957.78
827.824	12907.39
828.151	12954.17
828.478	12958.46
828.805	12954.39
829.131	12865.13
829.458	12864
829.785	12874.62
830.111	12831.91
830.438	12943.77
830.764	12848.63
831.09	12973.15
831.417	12765.02
831.743	12913.04
832.069	12784.9
832.395	12721.4
832.722	12910.78
833.048	12724.79
833.374	12724.11
833.7	12733.61
834.026	12757.56
834.351	12729.76
834.677	12713.04
835.003	12765.47
835.329	12689.54
835.654	12618.13
835.98	12671.23
836.306	12707.39
836.631	12620.16
836.956	12680.5
837.282	12612.25
837.607	12556.21
837.932	12531.35
838.258	12474.86
838.583	12482.54
838.908	12418.81
839.233	12479.83
839.558	12474.4
839.883	12433.05
840.208	12367.97
840.533	12393.73
840.858	12362.54
841.182	12379.49
841.507	12375.42
841.832	12273.28
842.156	12282.32
842.481	12278.02
842.805	12212.49
843.13	12092.04
843.454	12147.18
843.778	12180.17
844.103	12089.78
844.427	12049.1
844.751	11991.25
845.075	12014.08
845.399	11919.62
845.723	11908.32
846.047	11940.86
846.371	11835.55
846.695	11811.14
847.019	11725.95
847.343	11670.36
847.666	11557.82
847.99	11569.34
848.313	11506.29
848.637	11454.32
848.96	11459.74
849.284	11424.71
849.607	11339.52
849.931	11329.12
850.254	11236.24
850.577	11260.42
850.9	11182.69
851.223	11215
851.546	11146.3
851.869	10971.84
852.192	11054.33
852.515	10931.39
852.838	10885.29
853.161	10900.89
853.483	10869.7
853.806	10771.62
854.129	10785.41
854.451	10744.28
854.774	10685.52
855.096	10635.36
855.419	10605.75
855.741	10586.77
856.063	10505.64
856.385	10496.15
856.708	10480.56
857.03	10399.2
857.352	10431.29
857.674	10444.4
857.996	10322.37
858.318	10349.04
858.64	10310.84
858.961	10287.34
859.283	10194.69
859.605	10198.76
859.926	10231.3
860.248	10142.26
860.57	10127.8
860.891	10144.52
861.212	10116.95
861.534	10054.58
861.855	10067.69
862.176	10041.25
862.498	10074.47
862.819	10059.55
863.14	9996.05
863.461	9983.62
863.782	9906.11
864.103	9927.13
864.424	9824.08
864.745	9924.19
865.065	9835.15
865.386	9817.98
865.707	9820.46
866.027	9820.91
866.348	9771.2
866.668	9690.52
866.989	9719.9
867.309	9695.95
867.63	9713.57
867.95	9679.67
868.27	9608.26
868.59	9592.9
868.91	9579.79
869.23	9650.07
869.55	9575.72
869.87	9660.69
870.19	9540.47
870.51	9573.91
870.83	9570.07
871.15	9484.65
871.469	9531.88
871.789	9546.8
872.109	9561.94
872.428	9451.66
872.748	9425.44
873.067	9433.58
873.386	9413.24
873.706	9455.27
874.025	9405.11
874.344	9308.84
874.663	9387.71
874.982	9365.11
875.301	9342.51
875.62	9286.46
875.939	9274.71
876.258	9314.71
876.577	9297.31
876.896	9213.25
877.214	9166.02
877.533	9239.01
877.852	9250.99
878.17	9258.22
878.489	9130.08
878.807	9208.5
879.125	9192.46
879.444	9114.49
879.762	9124.44
880.08	9088.96
880.398	9121.05
880.716	9089.86
881.034	9055.51
881.352	9075.4
881.67	9048.05
881.988	9042.63
882.306	9051.67
882.624	8913.14
882.941	8936.19
883.259	8876.31
883.577	8880.6
883.894	8886.48
884.212	8852.58
884.529	8885.12
884.846	8797.66
885.164	8782.52
885.481	8746.82
885.798	8834.95
886.115	8696.88
886.432	8738.46
886.75	8725.58
887.067	8647.39
887.383	8669.76
887.7	8683.77
888.017	8541.17
888.334	8566.03
888.651	8553.6
888.967	8551.79
889.284	8482.64
889.6	8479.03
889.917	8445.13
890.233	8414.17
890.55	8373.04
890.866	8459.82
891.182	8389.09
891.498	8354.96
891.815	8393.61
892.131	8317
892.447	8295.3
892.763	8242.2
893.079	8179.83
893.395	8194.74
893.71	8147.96
894.026	8195.65
894.342	8181.41
894.657	8044.24
894.973	8102.32
895.289	8051.92
895.604	8039.49
895.92	8003.11
896.235	7858.93
896.55	7931.47
896.865	7911.59
897.181	7917.24
897.496	7919.04
897.811	7827.75
898.126	7848.99
898.441	7782.32
898.756	7736
899.071	7720.18
899.386	7739.39
899.7	7603.35
900.015	7710.24
900.33	7552.95
900.644	7585.04
900.959	7602.89
901.273	7593.18
901.588	7500.07
901.902	7481.09
902.216	7432.28
902.531	7406.06
902.845	7385.72
903.159	7362
903.473	7381.43
903.787	7266.86
904.101	7273.86
904.415	7240.64
904.729	7274.09
905.042	7141.44
905.356	7200.42
905.67	7133.75
905.984	7141.44
906.297	7159.52
906.611	7090.14
906.924	7041.55
907.237	7009.69
907.551	6992.06
907.864	7003.81
908.177	6980.54
908.491	6937.6
908.804	6928.79
909.117	6863.03
909.43	6828.22
909.743	6826.42
910.056	6796.81
910.368	6798.17
910.681	6729.7
910.994	6730.15
911.307	6662.13
911.619	6599.98
911.932	6627.1
912.244	6594.11
912.557	6608.8
912.869	6493.77
913.181	6512.98
913.494	6496.26
913.806	6437.27
914.118	6432.08
914.43	6400.67
914.742	6445.64
915.054	6328.12
915.366	6336.26
915.678	6329.71
915.99	6280.44
916.302	6201.8
916.613	6206.09
916.925	6220.56
917.236	6193.44
917.548	6114.57
917.859	6166.32
918.171	6048.58
918.482	6088.36
918.794	6034.57
919.105	6050.17
919.416	5958.87
919.727	5959.55
920.038	5943.5
920.349	5889.04
920.66	5891.3
920.971	5877.29
921.282	5877.06
921.593	5861.7
921.903	5812.66
922.214	5757.74
922.525	5782.6
922.835	5750.06
923.146	5694.92
923.456	5698.54
923.767	5621.7
924.077	5622.61
924.387	5658.76
924.697	5593.45
925.008	5528.15
925.318	5505.77
925.628	5528.6
925.938	5514.59
926.248	5435.94
926.558	5470.97
926.867	5400.01
927.177	5388.94
927.487	5381.03
927.796	5335.61
928.106	5308.94
928.416	5311.2
928.725	5296.97
929.034	5279.79
929.344	5253.12
929.653	5216.74
929.962	5183.07
930.271	5157.31
930.581	5116.63
930.89	5134.71
931.199	5164.99
931.508	5087.93
931.817	5095.39
932.125	5095.61
932.434	5048.16
932.743	4996.41
933.051	4983.98
933.36	4936.97
933.669	4981.27
933.977	4873.02
934.286	4868.05
934.594	4885.9
934.902	4853.59
935.21	4851.1
935.519	4823.98
935.827	4837.54
936.135	4794.15
936.443	4739.47
936.751	4668.28
937.059	4742.86
937.367	4688.39
937.674	4690.88
937.982	4678.68
938.29	4608.85
938.597	4654.72
938.905	4552.35
939.213	4531.34
939.52	4546.25
939.827	4586.48
940.135	4515.97
940.442	4481.39
940.749	4521.17
941.056	4531.11
941.363	4442.3
941.67	4421.06
941.977	4388.74
942.284	4378.12
942.591	4404.56
942.898	4356.43
943.205	4338.35
943.511	4317.78
943.818	4306.48
944.125	4256.54
944.431	4247.95
944.738	4256.54
945.044	4263.77
945.35	4142.19
945.657	4180.38
945.963	4183.1
946.269	4147.62
946.575	4148.75
946.881	4093.83
947.187	4115.3
947.493	4068.3
947.799	4095.41
948.105	4029.88
948.41	3995.98
948.716	4018.35
949.022	4004.8
949.327	3981.97
949.633	3977
949.938	3923.44
950.244	3925.25
950.549	3876.66
950.854	3840.28
951.16	3889.32
951.465	3892.03
951.77	3838.02
952.075	3823.11
952.38	3781.75
952.685	3819.26
952.99	3760.73
953.294	3747.63
953.599	3758.7
953.904	3751.02
954.209	3695.65
954.513	3729.32
954.818	3698.36
955.122	3654.07
955.426	3647.52
955.731	3665.6
956.035	3610.23
956.339	3602.77
956.643	3629.21
956.948	3577.91
957.252	3594.86
957.556	3573.17
957.86	3501.08
958.163	3502.21
958.467	3497.24
958.771	3510.57
959.075	3482.32
959.378	3461.31
959.682	3428.54
959.985	3432.83
960.289	3398.71
960.592	3419.27
960.896	3405.49
961.199	3386.06
961.502	3335.66
961.805	3368.43
962.108	3292.5
962.411	3330.69
962.714	3279.39
963.017	3289.33
963.32	3277.81
963.623	3247.98
963.926	3247.53
964.228	3206.17
964.531	3226.06
964.833	3196.68
965.136	3167.76
965.438	3174.08
965.741	3147.87
966.043	3143.58
966.345	3153.52
966.648	3120.98
966.95	3111.03
967.252	3075.78
967.554	3079.4
967.856	3072.39
968.158	3025.39
968.46	3024.93
968.761	3023.58
969.063	3014.09
969.365	3012.28
969.666	2989.68
969.968	2945.84
970.269	2941.09
970.571	2977.25
970.872	2936.12
971.174	2904.94
971.475	2913.53
971.776	2882.11
972.077	2860.87
972.378	2868.55
972.679	2852.06
972.98	2878.27
973.281	2835.34
973.582	2832.4
973.883	2815.22
974.183	2793.08
974.484	2794.21
974.785	2783.36
975.085	2749.01
975.386	2731.16
975.686	2742
975.986	2716.24
976.287	2712.17
976.587	2691.84
976.887	2654.1
977.187	2663.14
977.487	2684.83
977.787	2629.01
978.087	2625.4
978.387	2627.88
978.687	2617.94
978.987	2579.07
979.286	2574.1
979.586	2571.39
979.885	2583.14
980.185	2563.7
980.484	2554.66
980.784	2535.68
981.083	2538.85
981.382	2512.18
981.682	2519.86
981.981	2481.45
982.28	2470.6
982.579	2510.82
982.878	2474.89
983.177	2499.3
983.475	2442.13
983.774	2412.75
984.073	2443.03
984.372	2438.06
984.67	2386.99
984.969	2390.83
985.267	2399.19
985.566	2389.7
985.864	2339.75
986.162	2332.98
986.461	2367.32
986.759	2348.34
987.057	2344.73
987.355	2321.22
987.653	2293.2
987.951	2290.49
988.249	2241.68
988.547	2281.9
988.844	2268.8
989.142	2263.82
989.44	2241.9
989.737	2211.62
990.035	2201.91
990.332	2186.31
990.63	2183.15
990.927	2201.45
991.224	2182.47
991.521	2142.02
991.819	2176.14
992.116	2159.87
992.413	2149.48
992.71	2161.91
993.006	2093.21
993.303	2123.72
993.6	2090.27
993.897	2091.63
994.193	2084.85
994.49	2088.01
994.787	2037.39
995.083	2052.76
995.379	2040.55
995.676	2061.34
995.972	2018.63
996.268	2031.29
996.565	2014.34
996.861	1967.34
997.157	1991.29
997.453	1989.03
997.749	2005.53
998.044	1943.83
998.34	1952.42
998.636	1941.12
998.932	1941.35
999.227	1933.21
999.523	1909.26
999.818	1885.53
1000.114	1873.1
1000.409	1888.02
1000.704	1879.65
1001	1863.38
1001.295	1880.11
1001.59	1856.15
1001.885	1849.82
1002.18	1842.14
1002.475	1808.92
1002.77	1795.36
1003.065	1796.49
1003.359	1797.17
1003.654	1795.36
1003.949	1769.83
1004.243	1756.04
1004.538	1752.65
1004.832	1729.6
1005.127	1749.26
1005.421	1722.6
1005.715	1680.11
1006.009	1704.07
1006.304	1691.86
1006.598	1703.39
1006.892	1659.55
1007.186	1642.82
1007.48	1647.12
1007.773	1636.27
1008.067	1622.49
1008.361	1658.64
1008.655	1603.05
1008.948	1616.84
1009.242	1605.54
1009.535	1592.2
1009.829	1576.39
1010.122	1585.88
1010.415	1575.03
1010.708	1561.02
1011.001	1572.09
1011.295	1541.58
1011.588	1548.82
1011.881	1518.76
1012.173	1504.3
1012.466	1506.33
1012.759	1507.69
1013.052	1472.21
1013.344	1502.94
1013.637	1497.97
1013.93	1477.63
1014.222	1448.25
1014.514	1451.64
1014.807	1417.97
1015.099	1423.85
1015.391	1463.17
1015.683	1428.37
1015.976	1415.49
1016.268	1432.89
1016.56	1374.13
1016.851	1388.82
1017.143	1384.3
1017.435	1378.65
1017.727	1361.25
1018.018	1358.09
1018.31	1343.17
1018.602	1342.94
1018.893	1317.86
1019.185	1341.59
1019.476	1306.11
1019.767	1308.6
1020.058	1294.13
1020.35	1300.69
1020.641	1263.62
1020.932	1271.08
1021.223	1258.65
1021.514	1266.34
1021.804	1253
1022.095	1246
1022.386	1244.87
1022.677	1223.4
1022.967	1229.28
1023.258	1226.11
1023.548	1234.02
1023.839	1203.97
1024.129	1208.94
1024.419	1208.94
1024.709	1154.93
1025	1162.61
1025.29	1180.46
1025.58	1160.35
1025.87	1156.74
1026.16	1128.71
1026.449	1132.55
1026.739	1110.86
1027.029	1115.15
1027.319	1134.81
1027.608	1074.25
1027.898	1101.37
1028.187	1101.82
1028.477	1089.62
1028.766	1084.42
1029.055	1064.99
1029.344	1058.43
1029.634	1049.62
1029.923	1050.52
1030.212	1041.26
1030.501	1043.52
1030.79	1005.78
1031.078	1029.28
1031.367	1024.31
1031.656	1023.63
1031.945	982.05
1032.233	1010.07
1032.522	989.51
1032.81	966.46
1033.099	982.73
1033.387	1004.65
1033.675	955.38
1033.963	978.89
1034.251	969.17
1034.54	959.9
1034.828	939.57
1035.116	943.86
1035.403	951.54
1035.691	952.22
1035.979	937.31
1036.267	904.31
1036.554	915.16
1036.842	904.09
1037.129	902.05
1037.417	894.14
1037.704	889.62
1037.992	881.94
1038.279	884.65
1038.566	877.87
1038.853	877.87
1039.14	877.87
