Data from hue_290_FLMS001491_00003.txt Node
Date: Tue Feb 07 15:52:07 GMT 2017
User: dcchb
Spectrometer: FLMS00149
Trigger mode: 0
Integration Time (sec): 2.000000E-2
Scans to average: 10
Electric dark correction enabled: true
Nonlinearity correction enabled: false
Boxcar width: 0
XAxis mode: Wavelengths
Number of Pixels in Spectrum: 2048
>>>>>Begin Spectral Data<<<<<
341.393	-10.34
341.776	-10.34
342.16	-10.34
342.543	-45.59
342.927	-63.67
343.31	-65.03
343.693	-60.51
344.077	-59.38
344.46	-49.89
344.843	-52.6
345.226	-45.37
345.61	-38.36
345.993	-16.89
346.376	-1.75
346.759	17.23
347.142	31.24
347.525	25.82
347.908	66.04
348.291	51.81
348.674	75.99
349.057	121.64
349.44	114.4
349.823	129.32
350.206	161.63
350.588	203.21
350.971	204.8
351.354	213.16
351.737	217.45
352.119	252.25
352.502	253.84
352.884	266.94
353.267	268.75
353.65	283.89
354.032	294.51
354.414	284.34
354.797	272.37
355.179	317.34
355.562	314.85
355.944	329.54
356.326	351.23
356.709	310.78
357.091	317.34
357.473	338.13
357.855	332.03
358.238	332.25
358.62	324.79
359.002	374.96
359.384	326.83
359.766	324.57
360.148	332.03
360.53	321.86
360.912	319.14
361.294	327.51
361.676	342.87
362.057	329.77
362.439	322.76
362.821	299.48
363.203	332.48
363.584	318.01
363.966	306.26
364.348	312.59
364.729	308.3
365.111	332.25
365.493	300.61
365.874	291.12
366.256	304.68
366.637	293.38
367.019	309.43
367.4	320.5
367.781	300.61
368.163	314.85
368.544	302.42
368.925	300.61
369.306	339.93
369.688	308.75
370.069	314.85
370.45	309.88
370.831	300.39
371.212	317.34
371.593	315.53
371.974	299.03
372.355	302.87
372.736	314.17
373.117	309.43
373.498	308.52
373.879	308.52
374.26	309.65
374.641	321.86
375.021	318.24
375.402	316.21
375.783	322.76
376.163	318.69
376.544	325.92
376.925	336.77
377.305	339.03
377.686	334.28
378.066	301.07
378.447	319.82
378.827	323.44
379.208	332.93
379.588	328.41
379.968	326.6
380.349	325.92
380.729	341.74
381.109	346.26
381.489	353.49
381.87	328.86
382.25	352.36
382.63	349.65
383.01	330.67
383.39	350.1
383.77	353.27
384.15	336.32
384.53	337.67
384.91	341.06
385.29	339.03
385.67	335.87
386.049	360.05
386.429	341.74
386.809	349.65
387.189	358.01
387.568	354.62
387.948	354.4
388.328	367.96
388.707	352.36
389.087	347.84
389.466	370.89
389.846	377.45
390.225	373.15
390.605	369.09
390.984	362.31
391.363	355.75
391.743	381.06
392.122	379.71
392.501	362.76
392.881	372.7
393.26	365.24
393.639	362.08
394.018	377.9
394.397	374.74
394.776	394.17
395.155	403.44
395.534	391.23
395.913	389.88
396.292	395.3
396.671	394.62
397.05	375.64
397.429	389.88
397.808	403.44
398.186	402.53
398.565	398.69
398.944	398.69
399.323	404.79
399.701	426.03
400.08	415.19
400.458	421.51
400.837	431.91
401.215	406.15
401.594	424.9
401.972	449.08
402.351	437.79
402.729	425.81
403.107	425.36
403.486	454.06
403.864	440.5
404.242	448.63
404.62	432.14
404.999	440.04
405.377	461.29
405.755	431.68
406.133	471.68
406.511	457.22
406.889	462.19
407.267	469.42
407.645	476.43
408.023	478.91
408.401	479.82
408.779	487.73
409.156	508.52
409.534	500.83
409.912	507.84
410.29	536.54
410.667	514.85
411.045	534.28
411.422	544
411.8	550.55
412.178	560.27
412.555	571.11
412.933	564.79
413.31	588.97
413.687	590.32
414.065	578.57
414.442	595.3
414.819	616.99
415.197	629.87
415.574	596.65
415.951	633.03
416.328	628.29
416.705	640.49
417.082	605.24
417.46	654.28
417.837	662.86
418.214	662.86
418.591	668.06
418.967	673.49
419.344	675.97
419.721	692.24
420.098	697.89
420.475	722.07
420.852	723.65
421.228	724.33
421.605	731.11
421.982	733.37
422.358	741.96
422.735	769.3
423.111	784.67
423.488	792.58
423.864	774.73
424.241	795.74
424.617	809.75
424.994	817.21
425.37	828.74
425.746	859.92
426.123	848.62
426.499	843.2
426.875	831.9
427.251	873.48
427.627	883.65
428.003	892.91
428.379	913.03
428.756	892.69
429.132	938.56
429.507	938.11
429.883	946.92
430.259	972.46
430.635	942.4
431.011	976.98
431.387	1015.4
431.763	995.74
432.138	993.93
432.514	1036.64
432.89	1026.02
433.265	1056.75
433.641	1092.46
434.016	1045
434.392	1082.29
434.767	1102.4
435.143	1117.77
435.518	1139.46
435.894	1160.03
436.269	1166.58
436.644	1171.33
437.02	1170.65
437.395	1190.08
437.77	1207.48
438.145	1249.29
438.52	1251.1
438.895	1219.69
439.271	1249.97
439.646	1290.87
440.021	1271.44
440.395	1275.28
440.77	1294.03
441.145	1322.96
441.52	1317.08
441.895	1300.59
442.27	1322.06
442.645	1289.74
443.019	1324.32
443.394	1361.38
443.769	1339.91
444.143	1346.69
444.518	1365.44
444.892	1375.61
445.267	1351.66
445.641	1407.48
446.016	1402.51
446.39	1412.45
446.764	1394.82
447.139	1397.99
447.513	1426.23
447.887	1423.3
448.262	1436.18
448.636	1425.1
449.01	1466.68
449.384	1456.74
449.758	1496.74
450.132	1478.66
450.506	1491.99
450.88	1471.43
451.254	1522.05
451.628	1531.32
452.002	1537.19
452.376	1553.69
452.75	1548.04
453.123	1527.25
453.497	1571.99
453.871	1604.08
454.244	1575.83
454.618	1596.17
454.992	1600.92
455.365	1607.7
455.739	1666.23
456.112	1679.56
456.486	1657.19
456.859	1678.43
457.232	1712.55
457.606	1703.74
457.979	1729.95
458.352	1744.87
458.725	1750.97
459.099	1773.57
459.472	1776.28
459.845	1811.08
460.218	1824.87
460.591	1796.17
460.964	1775.83
461.337	1857.63
461.71	1903.06
462.083	1903.28
462.456	1879.56
462.829	1890.4
463.201	1912.32
463.574	1909.38
463.947	1938.99
464.32	1969.27
464.692	1984.86
465.065	2016.27
465.438	1995.94
465.81	2037.97
466.183	2050.17
466.555	2075.71
466.928	2087.46
467.3	2086.1
467.672	2113.67
468.045	2165.88
468.417	2120.45
468.789	2201.58
469.161	2197.06
469.534	2200.9
469.906	2251.52
470.278	2256.27
470.65	2294.91
471.022	2314.57
471.394	2371.52
471.766	2354.34
472.138	2374.46
472.51	2413.55
472.882	2438.41
473.253	2472.31
473.625	2484.96
473.997	2543.49
474.369	2531.52
474.74	2565.19
475.112	2586.43
475.484	2604.51
475.855	2619.65
476.227	2674.11
476.598	2755.24
476.97	2743.26
477.341	2753.43
477.713	2827.55
478.084	2810.15
478.455	2882.24
478.827	2880.88
479.198	2979.19
479.569	2940.09
479.94	2989.58
480.311	3041.11
480.682	3088.34
481.053	3148
481.424	3151.39
481.795	3165.62
482.166	3225.96
482.537	3217.6
482.908	3330.36
483.279	3352.74
483.65	3364.71
484.021	3437.03
484.391	3447.65
484.762	3438.38
485.133	3461.89
485.503	3522
485.874	3570.58
486.244	3617.59
486.615	3615.78
486.985	3684.48
487.356	3760.86
487.726	3735.55
488.097	3797.24
488.467	3812.39
488.837	3856.23
489.207	3903.91
489.578	3951.59
489.948	3959.27
490.318	4020.52
490.688	4040.4
491.058	4060.29
491.428	4107.29
491.798	4136.22
492.168	4216.89
492.538	4197.46
492.908	4260.74
493.278	4332.6
493.648	4261.87
494.017	4328.3
494.387	4336.44
494.757	4370.34
495.126	4411.24
495.496	4454.63
495.866	4502.09
496.235	4466.61
496.605	4516.55
496.974	4575.3
497.344	4559.48
497.713	4577.11
498.082	4615.53
498.452	4658.47
498.821	4693.94
499.19	4645.13
499.559	4680.16
499.928	4740.72
500.298	4756.32
500.667	4758.12
501.036	4802.42
501.405	4820.72
501.774	4775.3
502.143	4860.27
502.512	4815.52
502.88	4862.75
503.249	4876.09
503.618	4908.18
503.987	4937.55
504.356	4912.24
504.724	4960.38
505.093	4951.79
505.462	4938.01
505.83	5029.53
506.199	5041.28
506.567	5081.96
506.936	5092.13
507.304	5123.31
507.672	5140.71
508.041	5153.59
508.409	5109.53
508.777	5220.03
509.145	5222.74
509.514	5202.41
509.882	5254.16
510.25	5269.97
510.618	5233.59
510.986	5272.01
511.354	5294.38
511.722	5355.85
512.09	5351.55
512.458	5354.49
512.826	5380.48
513.193	5395.85
513.561	5467.48
513.929	5458.9
514.297	5463.87
514.664	5486.69
515.032	5536.86
515.4	5535.96
515.767	5570.53
516.135	5583.64
516.502	5557.65
516.869	5557.65
517.237	5609.4
517.604	5646.69
517.972	5658.44
518.339	5712.67
518.706	5689.4
519.073	5682.39
519.44	5749.06
519.808	5722.17
520.175	5725.56
520.542	5760.36
520.909	5793.12
521.276	5804.2
521.643	5821.37
522.009	5855.04
522.376	5827.93
522.743	5905.21
523.11	5955.83
523.477	5990.63
523.843	6022.72
524.21	6034.47
524.577	6019.79
524.943	6059.33
525.31	6093.91
525.676	6189.72
526.043	6190.63
526.409	6143.85
526.776	6240.12
527.142	6218.65
527.508	6280.8
527.874	6301.59
528.241	6320.12
528.607	6380
528.973	6353.79
529.339	6346.56
529.705	6435.59
530.071	6494.35
530.437	6476.04
530.803	6490.06
531.169	6535.03
531.535	6517.85
531.901	6585.65
532.267	6591.07
532.632	6607.11
532.998	6629.03
533.364	6679.88
533.73	6665.64
534.095	6751.74
534.461	6740.44
534.826	6707.45
535.192	6795.36
535.557	6797.17
535.923	6819.76
536.288	6880.1
536.653	6870.16
537.019	6834.91
537.384	6820.44
537.749	6932.3
538.114	6908.35
538.479	6905.86
538.845	6966.43
539.21	6968.46
539.575	6955.13
539.94	7037.84
540.305	7072.41
540.67	7065.41
541.034	7074.22
541.399	7082.13
541.764	7095.24
542.129	7083.03
542.494	7108.12
542.858	7189.7
543.223	7176.59
543.587	7219.53
543.952	7209.13
544.316	7232.18
544.681	7225.86
545.045	7302.69
545.41	7287.1
545.774	7403.03
546.138	7292.75
546.503	7391.05
546.867	7382.24
547.231	7453.87
547.595	7464.72
547.959	7445.28
548.324	7434.89
548.688	7448
549.052	7516.47
549.416	7517.82
549.779	7543.81
550.143	7558.5
550.507	7573.42
550.871	7584.04
551.235	7575.9
551.599	7644.83
551.962	7640.53
552.326	7678.05
552.689	7688.44
553.053	7699.74
553.417	7686.41
553.78	7739.51
554.143	7702.45
554.507	7769.34
554.87	7743.13
555.234	7799.4
555.597	7823.58
555.96	7795.33
556.323	7848.89
556.686	7899.96
557.05	7952.62
557.413	7892.5
557.776	7968.21
558.139	7927.98
558.502	7960.07
558.865	7981.77
559.228	8109.45
559.59	8111.48
559.953	8012.5
560.316	8101.99
560.679	8074.65
561.041	8161.2
561.404	8217.02
561.767	8255.21
562.129	8233.96
562.492	8283
562.854	8319.39
563.217	8299.27
563.579	8368.65
563.941	8438.93
564.304	8438.93
564.666	8474.86
565.028	8464.92
565.39	8487.29
565.753	8538.14
566.115	8553.73
566.477	8576.78
566.839	8547.63
567.201	8592.15
567.563	8576.1
567.925	8719.38
568.287	8736.78
568.648	8668.53
569.01	8784.91
569.372	8835.3
569.734	8809.99
570.095	8842.76
570.457	8904.68
570.819	8954.85
571.18	8930.22
571.542	8967.73
571.903	8988.52
572.265	9033.49
572.626	9078.69
572.987	9087.5
573.349	9150.1
573.71	9238.23
574.071	9210.89
574.432	9290.21
574.794	9348.96
575.155	9416.76
575.516	9361.39
575.877	9449.3
576.238	9444.33
576.599	9504.21
576.96	9621.05
577.32	9632.35
577.681	9650.42
578.042	9724.55
578.403	9810.65
578.763	9788.05
579.124	9852.23
579.485	9981.04
579.845	10051.54
580.206	10014.03
580.566	10076.4
580.927	10134.93
581.287	10283.63
581.648	10390.74
582.008	10478.43
582.368	10484.3
582.728	10543.96
583.089	10602.94
583.449	10773.33
583.809	10815.14
584.169	10914.57
584.529	10974.68
584.889	11124.28
585.249	11209.25
585.609	11209.48
585.969	11456.93
586.329	11524.05
586.688	11625.74
587.048	11783.93
587.408	11846.07
587.768	11967.65
588.127	12104.15
588.487	12208.1
588.846	12383.69
589.206	12322.22
589.565	12535.55
589.925	12845.37
590.284	12881.53
590.643	13051.92
591.003	13153.38
591.362	13257.79
591.721	13358.35
592.08	13545.69
592.44	13693.03
592.799	13863.19
593.158	13923.31
593.517	14076.3
593.876	14258.21
594.235	14343.41
594.593	14472.9
594.952	14589.28
595.311	14728.03
595.67	14946.33
596.029	15038.08
596.387	15202.37
596.746	15356.71
597.104	15389.71
597.463	15479.2
597.822	15709.7
598.18	15749.47
598.538	15906.76
598.897	16120.54
599.255	16030.14
599.613	16334.54
599.972	16420.87
600.33	16578.15
600.688	16670.8
601.046	16828.77
601.404	17031.93
601.762	17033.28
602.12	17288.42
602.478	17298.36
602.836	17366.15
603.194	17348.3
603.552	17477.79
603.91	17634.85
604.268	17817.22
604.625	17823.77
604.983	17987.38
605.341	17987.15
605.698	18168.62
606.056	18315.96
606.413	18344.88
606.771	18482.28
607.128	18532.45
607.485	18562.51
607.843	18673.24
608.2	18849.5
608.557	18919.33
608.914	18956.62
609.272	19111.87
609.629	19212.21
609.986	19303.96
610.343	19269.83
610.7	19461.92
611.057	19473.67
611.414	19554.8
611.771	19673.89
612.127	19721.8
612.484	19712.31
612.841	19900.55
613.198	19944.39
613.554	20013.09
613.911	20103.48
614.267	20091.05
614.624	20202.01
614.98	20295.12
615.337	20405.62
615.693	20518.61
616.05	20356.81
616.406	20612.62
616.762	20614.2
617.118	20637.03
617.475	20592.96
617.831	20705.27
618.187	20750.92
618.543	20849.45
618.899	20917.25
619.255	20948.88
619.611	20863.69
619.967	21053.97
620.323	21126.51
620.678	21090.35
621.034	21065.04
621.39	21073.63
621.746	21147.07
622.101	21444.24
622.457	21220.29
622.812	21310.68
623.168	21429.55
623.523	21404.47
623.879	21518.36
624.234	21385.26
624.589	21443.79
624.945	21542.99
625.3	21558.59
625.655	21560.85
626.01	21567.4
626.365	21588.42
626.72	21689.88
627.075	21660.5
627.43	21686.49
627.785	21526.95
628.14	21618.92
628.495	21704.12
628.85	21601.52
629.205	21655.08
629.559	21767.85
629.914	21627.06
630.269	21620.96
630.623	21625.7
630.978	21575.31
631.332	21634.06
631.687	21634.97
632.041	21562.88
632.396	21742.76
632.75	21552.71
633.104	21601.52
633.459	21590.45
633.813	21649.66
634.167	21486.05
634.521	21475.88
634.875	21562.43
635.229	21601.3
635.583	21397.69
635.937	21500.96
636.291	21522.2
636.645	21349.55
636.999	21325.6
637.352	21435.43
637.706	21346.61
638.06	21363.34
638.413	21473.62
638.767	21308.2
639.121	21443.56
639.474	21277.01
639.828	21354.3
640.181	21265.26
640.534	21325.6
640.888	21277.46
641.241	21290.8
641.594	21336.22
641.947	21309.55
642.301	21281.08
642.654	21342.32
643.007	21278.14
643.36	21266.39
643.713	21233.85
644.066	21323.34
644.419	21229.55
644.771	20999.73
645.124	20757.93
645.477	20922.67
645.83	20765.39
646.182	20733.75
646.535	20703.69
646.888	20649.68
647.24	20595.67
647.593	20644.94
647.945	20651.94
648.298	20637.93
648.65	20567.65
649.002	20547.54
649.355	20631.6
649.707	20559.52
650.059	20596.35
650.411	20957.92
650.763	20909.11
651.115	21141.87
651.467	21150.69
651.819	21048.54
652.171	21057.36
652.523	20907.08
652.875	21105.04
653.227	21017.36
653.578	21070.01
653.93	21060.97
654.282	20994.98
654.633	20922.44
654.985	21013.97
655.337	21021.88
655.688	21007.87
656.039	21120.63
656.391	20923.35
656.742	21073.4
657.094	21003.35
657.445	21077.92
657.796	21011.03
658.147	20944.14
658.498	20951.14
658.849	21104.59
659.2	21057.81
659.551	20962.44
659.902	21178.26
660.253	21005.15
660.604	21063.01
660.955	20895.55
661.306	21131.03
661.656	21069.56
662.007	21121.08
662.358	21067.75
662.708	21095.1
663.059	21146.39
663.409	21042.67
663.76	21164.25
664.11	21238.37
664.461	21294.86
664.811	21206.5
665.161	21086.51
665.511	21110.91
665.862	21163.34
666.212	21308.65
666.562	21147.52
666.912	21125.15
667.262	21107.3
667.612	21123.57
667.962	21184.81
668.312	20999.96
668.662	21201.53
669.011	21157.24
669.361	21076.34
669.711	21061.2
670.06	21098.26
670.41	21036.57
670.76	20973.06
671.109	21047.86
671.459	21149.78
671.808	21045.6
672.157	20982.1
672.507	20887.42
672.856	20988.88
673.205	21001.99
673.554	21002.22
673.904	20900.98
674.253	21001.09
674.602	20952.05
674.951	20678.61
675.3	20491.72
675.649	20931.03
675.998	20843.12
676.346	20829.11
676.695	20924.25
677.044	20785.95
677.393	20793.86
677.741	20786.63
678.09	20788.66
678.438	20788.66
678.787	20765.39
679.135	20680.42
679.484	20530.36
679.832	20699.85
680.181	20470.25
680.529	20624.37
680.877	20489.01
681.225	20445.17
681.573	20663.24
681.922	20470.93
682.27	20407.2
682.618	20486.75
682.966	20406.3
683.314	20402.91
683.661	20255.34
684.009	20273.2
684.357	20231.39
684.705	20115.46
685.053	20128.79
685.4	20148.45
685.748	19900.1
686.095	20126.76
686.443	19934.9
686.79	19833.89
687.138	19952.3
687.485	19960.21
687.832	19926.31
688.18	19817.39
688.527	19743.94
688.874	19787.78
689.221	19724.28
689.568	19569.71
689.915	19582.82
690.262	19542.82
690.609	19426.44
690.956	19418.08
691.303	19410.17
691.65	19243.62
691.997	19313.67
692.344	19243.62
692.69	19114.36
693.037	19117.07
693.383	19054.7
693.73	19091.76
694.077	18845.89
694.423	18830.97
694.769	18873.68
695.116	18849.28
695.462	18756.85
695.808	18599.57
696.155	18758.66
696.501	18480.25
696.847	18522.96
697.193	18383.53
697.539	18382.62
697.885	18247.03
698.231	18174.04
698.577	18228.05
698.923	18167.04
699.269	18151.67
699.614	17945.35
699.96	17934.27
700.306	17903.77
700.651	17774.5
700.997	17793.49
701.342	17722.08
701.688	17699.93
702.033	17567.05
702.379	17627.84
702.724	17584.9
703.069	17553.95
703.415	17261.75
703.76	17367.51
704.105	17256.1
704.45	17160.51
704.795	17159.83
705.14	17142.2
705.485	17148.76
705.83	17061.53
706.175	16936.56
706.52	16819.5
706.865	16887.07
707.209	16720.75
707.554	16730.46
707.899	16850.01
708.243	16625.61
708.588	16701.76
708.932	16581.77
709.277	16598.04
709.621	16546.51
709.966	16395.33
710.31	16407.99
710.654	16297.48
710.998	16359.4
711.342	16348.55
711.687	16329.57
712.031	16194.88
712.375	16116.02
712.719	16233.75
713.063	16083.25
713.407	16203.25
713.75	16063.81
714.094	16099.29
714.438	15993.31
714.782	15997.6
715.125	15911.95
715.469	15989.24
715.812	15935.23
716.156	15830.83
716.499	15755.8
716.843	15796.25
717.186	15687.55
717.53	15851.17
717.873	15879.64
718.216	15729.36
718.559	15662.24
718.902	15567.33
719.246	15674.22
719.589	15586.54
719.932	15471.06
720.275	15463.15
720.617	15523.26
720.96	15431.97
721.303	15422.48
721.646	15455.7
721.989	15284.4
722.331	15426.32
722.674	15341.35
723.016	15417.96
723.359	15331.63
723.701	15346.32
724.044	15304.74
724.386	15225.19
724.729	15275.14
725.071	15247.11
725.413	15170.05
725.755	15249.6
726.097	15215.93
726.439	15115.14
726.782	15136.83
727.124	15244.18
727.465	15050.51
727.807	15042.37
728.149	15112.88
728.491	15055.25
728.833	15130.96
729.175	15056.61
729.516	14970.28
729.858	15042.6
730.199	14983.62
730.541	14991.98
730.882	14955.37
731.224	15042.82
731.565	14929.16
731.906	14982.49
732.248	14935.93
732.589	14989.72
732.93	14923.96
733.271	14877.63
733.612	14952.88
733.953	14951.3
734.294	14920.57
734.635	14810.74
734.976	14955.6
735.317	14818.2
735.658	14888.48
735.999	14814.36
736.339	14783.85
736.68	14845.09
737.021	14946.56
737.361	14897.97
737.702	14808.93
738.042	14843.06
738.383	14866.56
738.723	14950.62
739.063	14874.24
739.404	14994.46
739.744	14942.26
740.084	14953.34
740.424	14900.68
740.764	14903.17
741.104	14973
741.444	14843.73
741.784	14872.89
742.124	14951.3
742.464	14917.4
742.804	14936.84
743.143	14965.54
743.483	14957.18
743.823	14948.82
744.162	14916.73
744.502	15040.34
744.841	15062.49
745.181	15101.58
745.52	15118.3
745.86	15176.83
746.199	15208.92
746.538	15158.53
746.877	15307.68
747.216	15263.61
747.556	15286.89
747.895	15513.09
748.234	15404.62
748.573	15492.76
748.911	15488.01
749.25	15580.66
749.589	15624.05
749.928	15706.31
750.267	15772.98
750.605	15748.57
750.944	15780.43
751.283	15942.46
751.621	16055.68
751.96	16067.43
752.298	16112.4
752.636	16237.82
752.975	16332.96
753.313	16390.13
753.651	16516.01
753.989	16599.39
754.327	16647.53
754.666	16707.41
755.004	16887.3
755.342	16954.86
755.679	17089.32
756.017	17201.64
756.355	17269.43
756.693	17404.57
757.031	17584.45
757.368	17506.94
757.706	17686.15
758.044	17772.47
758.381	17930.43
758.719	17993.26
759.056	18113.7
759.394	18265.34
759.731	18294.72
760.068	18425.79
760.405	18546.69
760.743	18588.72
761.08	18703.97
761.417	18818.32
761.754	18873.46
762.091	18986
762.428	19059.89
762.765	19137.18
763.102	19276.84
763.438	19376.95
763.775	19390.73
764.112	19480.9
764.449	19629.37
764.785	19753.44
765.122	19664.17
765.458	19736.49
765.795	19922.7
766.131	19851.96
766.467	19998.63
766.804	20013.99
767.14	19926.76
767.476	20053.09
767.812	20015.58
768.148	20201.33
768.485	20211.28
768.821	20118.4
769.157	20146.87
769.492	20281.11
769.828	20253.31
770.164	20251.5
770.5	20386.19
770.836	20441.33
771.171	20395
771.507	20455.34
771.842	20419.18
772.178	20472.96
772.513	20393.87
772.849	20414.43
773.184	20402.01
773.519	20482
773.855	20473.19
774.19	20398.16
774.525	20465.28
774.86	20372.18
775.195	20432.74
775.53	20327.88
775.865	20412.18
776.2	20200.43
776.535	20166.53
776.87	20236.59
777.205	20089.25
777.539	20146.65
777.874	20265.96
778.209	20137.38
778.543	20156.14
778.878	20021.68
779.212	20037.04
779.547	19992.07
779.881	20047.89
780.215	19992.98
780.55	20014.45
780.884	19887.9
781.218	19844.96
781.552	19868.69
781.886	19728.8
782.22	19672.08
782.554	19646.32
782.888	19575.14
783.222	19497.62
783.556	19407.46
783.889	19525.42
784.223	19395.48
784.557	19312.54
784.89	19531.29
785.224	19237.52
785.557	19257.63
785.891	19232.55
786.224	19065.09
786.558	19191.87
786.891	18951.87
787.224	18939.22
787.557	18869.84
787.891	18925.43
788.224	18843.4
788.557	18874.36
788.89	18826.91
789.223	18726.8
789.556	18637.08
789.888	18681.15
790.221	18642.73
790.554	18462.4
790.887	18449.06
791.219	18373.36
791.552	18402.74
791.884	18279.35
792.217	18250.88
792.549	18157.09
792.882	18198.22
793.214	17975.18
793.546	18087.94
793.879	17953.71
794.211	17920.04
794.543	17921.17
794.875	17792.36
795.207	17927.49
795.539	17811.11
795.871	17761.4
796.203	17653.38
796.535	17563.44
796.867	17447.73
797.198	17485.47
797.53	17505.13
797.862	17364.35
798.193	17426.26
798.525	17294.07
798.856	17240.73
799.188	17069.21
799.519	17057.24
799.85	17012.26
800.182	17116.67
800.513	17040.51
800.844	16750.8
801.175	16876
801.506	17012.94
801.837	16860.18
802.168	16826.28
802.499	16772.27
802.83	16632.16
803.161	16610.92
803.491	16613.63
803.822	16557.81
804.153	16554.2
804.483	16400.3
804.814	16340.42
805.145	16363.69
805.475	16347.2
805.805	16259.52
806.136	16248.89
806.466	16163.25
806.796	16136.13
807.126	16058.17
807.457	16057.94
807.787	16095.9
808.117	15920.77
808.447	15936.13
808.777	16072.85
809.107	15905.18
809.436	15814.78
809.766	15814.56
810.096	15726.42
810.426	15658.63
810.755	15741.11
811.085	15665.41
811.414	15627.44
811.744	15593.32
812.073	15473.1
812.403	15515.35
812.732	15423.15
813.061	15398.07
813.39	15281.91
813.719	15250.73
814.049	15360.56
814.378	15306.32
814.707	15158.98
815.036	15145.87
815.365	15100.68
815.693	15017.29
816.022	15038.31
816.351	14998.76
816.68	14875.37
817.008	14940
817.337	14751.53
817.665	14779.55
817.994	14787.24
818.322	14709.73
818.651	14684.87
818.979	14683.51
819.307	14744.3
819.636	14663.63
819.964	14635.83
820.292	14639.67
820.62	14670.63
820.948	14650.74
821.276	14628.82
821.604	14608.03
821.932	14578.66
822.259	14609.39
822.587	14619.79
822.915	14512.44
823.243	14575.94
823.57	14534.14
823.898	14540.24
824.225	14450.07
824.553	14468.83
824.88	14485.1
825.207	14541.14
825.535	14506.57
825.862	14488.49
826.189	14568.94
826.516	14527.81
826.843	14600.35
827.17	14547.24
827.497	14514.7
827.824	14526.91
828.151	14571.88
828.478	14436.74
828.805	14663.85
829.131	14398.1
829.458	14496.4
829.785	14437.19
830.111	14482.16
830.438	14607.58
830.764	14507.92
831.09	14514.7
831.417	14424.31
831.743	14546.79
832.069	14487.36
832.395	14433.8
832.722	14401.26
833.048	14388.6
833.374	14332.56
833.7	14396.97
834.026	14378.21
834.351	14389.28
834.677	14367.59
835.003	14387.25
835.329	14369.62
835.654	14323.97
835.98	14276.29
836.306	14284.2
836.631	14184.54
836.956	14295.5
837.282	14248.27
837.607	14154.26
837.932	14168.5
838.258	14192.68
838.583	14147.26
838.908	14024.55
839.233	14079.01
839.558	14118.1
839.883	14008.73
840.208	14002.63
840.533	13989.29
840.858	13952.46
841.182	13956.3
841.507	13906.36
841.832	13821.61
842.156	13809.41
842.481	13829.52
842.805	13827.72
843.13	13847.15
843.454	13741.16
843.778	13610.32
844.103	13554.28
844.427	13614.39
844.751	13651.22
845.075	13568.06
845.399	13560.83
845.723	13516.76
846.047	13481.06
846.371	13396.54
846.695	13345.02
847.019	13247.62
847.343	13205.13
847.666	13204.68
847.99	13098.24
848.313	13055.76
848.637	13018.25
848.96	12899.38
849.284	12824.58
849.607	12836.78
849.931	12869.1
850.254	12722.66
850.577	12656.67
850.9	12587.3
851.223	12511.82
851.546	12423.46
851.869	12465.04
852.192	12463.68
852.515	12420.75
852.838	12259.4
853.161	12369.22
853.483	12289.68
853.806	12218.49
854.129	12151.83
854.451	12061.43
854.774	12053.75
855.096	12089.91
855.419	12009.46
855.741	11933.53
856.063	11907.99
856.385	11877.03
856.708	11893.3
857.03	11757.49
857.352	11848.11
857.674	11775.79
857.996	11661.44
858.318	11684.04
858.64	11586.19
858.961	11615.34
859.283	11578.74
859.605	11522.92
859.926	11549.58
860.248	11500.77
860.57	11483.6
860.891	11447.67
861.212	11425.29
861.534	11320.89
861.855	11432.3
862.176	11345.29
862.498	11380.1
862.819	11324.05
863.14	11298.06
863.461	11337.16
863.782	11239.53
864.103	11229.14
864.424	11190.72
864.745	11250.83
865.065	11159.31
865.386	11112.08
865.707	11084.28
866.027	11093.55
866.348	11021.69
866.668	11115.7
866.989	11074.79
867.309	11041.35
867.63	10994.57
867.95	10931.07
868.27	10957.96
868.59	10924.06
868.91	10890.17
869.23	10882.48
869.55	10801.13
869.87	10968.13
870.19	10888.58
870.51	10828.25
870.83	10796.61
871.15	10791.41
871.469	10769.94
871.789	10838.64
872.109	10771.98
872.428	10668.25
872.748	10669.38
873.067	10701.02
873.386	10667.8
873.706	10715.03
874.025	10607.01
874.344	10541.93
874.663	10593.22
874.982	10544.86
875.301	10557.29
875.62	10523.17
875.939	10497.18
876.258	10529.5
876.577	10436.39
876.896	10491.76
877.214	10407.24
877.533	10430.52
877.852	10461.02
878.17	10444.53
878.489	10393
878.807	10421.03
879.125	10331.99
879.444	10336.96
879.762	10311.42
880.08	10266.91
880.398	10280.46
880.716	10305.77
881.034	10238.43
881.352	10241.82
881.67	10209.73
881.988	10117.53
882.306	10182.39
882.624	10076.63
882.941	10046.57
883.259	10003.64
883.577	10030.53
883.894	10082.5
884.212	10003.64
884.529	10039.57
884.846	9973.58
885.164	9922.28
885.481	9906.24
885.798	9841.38
886.115	9865.11
886.432	9870.53
886.75	9851.32
887.067	9832.11
887.383	9734.49
887.7	9810.65
888.017	9710.08
888.334	9732.91
888.651	9668.28
888.967	9674.15
889.284	9669.63
889.6	9624.89
889.917	9542.86
890.233	9560.71
890.55	9515.29
890.866	9520.48
891.182	9468.73
891.498	9433.48
891.815	9446.59
892.131	9367.95
892.447	9333.6
892.763	9285.01
893.079	9262.86
893.395	9235.07
893.71	9295.18
894.026	9267.16
894.342	9159.59
894.657	9144.67
894.973	9197.1
895.289	9134.05
895.604	9057.9
895.92	8964.57
896.235	8992.36
896.55	8982.87
896.865	8937.9
897.181	8929.54
897.496	8909.43
897.811	8838.47
898.126	8866.49
898.441	8804.34
898.756	8817.68
899.071	8707.62
899.386	8671.47
899.7	8650.9
900.015	8584.01
900.33	8560.74
900.644	8503.56
900.959	8551.92
901.273	8558.93
901.588	8401.19
901.902	8428.31
902.216	8471.92
902.531	8351.48
902.845	8358.93
903.159	8381.53
903.473	8304.92
903.787	8240.74
904.101	8206.85
904.415	8188.99
904.729	8222.67
905.042	8087.3
905.356	8110.35
905.67	8083.01
905.984	8103.12
906.297	8072.61
906.611	8011.6
906.924	7955.33
907.237	7907.19
907.551	7972.73
907.864	7838.95
908.177	7866.06
908.491	7874.43
908.804	7767.76
909.117	7721.66
909.43	7725.96
909.743	7742
910.056	7650.93
910.368	7655
910.681	7620.87
910.994	7563.47
911.307	7542.68
911.619	7540.65
911.932	7500.65
912.244	7406.42
912.557	7392.86
912.869	7423.59
913.181	7365.51
913.494	7303.82
913.806	7265.85
914.118	7264.05
914.43	7242.35
914.742	7189.7
915.054	7145.63
915.366	7093.43
915.678	7116.03
915.99	7054.56
916.302	7055.92
916.613	7001
916.925	7043.71
917.236	7016.37
917.548	6935.47
917.859	6972.75
918.171	6884.17
918.482	6787.45
918.794	6817.5
919.105	6829.93
919.416	6745.64
919.727	6689.37
920.038	6766.66
920.349	6705.87
920.66	6688.69
920.971	6643.72
921.282	6610.5
921.593	6530.73
921.903	6513.33
922.214	6517.63
922.525	6498.42
922.835	6443.95
923.146	6425.2
923.456	6387.01
923.767	6346.56
924.077	6349.95
924.387	6354.69
924.697	6281.93
925.008	6287.57
925.318	6241.47
925.628	6213
925.938	6201.02
926.248	6153.34
926.558	6147.47
926.867	6144.53
927.177	6093
927.487	6020.92
927.796	6010.29
928.106	5987.24
928.416	5951.76
928.725	5959
929.034	5935.95
929.344	5905.66
929.653	5897.98
929.962	5863.18
930.271	5857.3
930.581	5823.41
930.89	5780.02
931.199	5733.47
931.508	5688.95
931.817	5722.39
932.125	5664.77
932.434	5656.18
932.743	5639.91
933.051	5623.41
933.36	5597.2
933.669	5562.85
933.977	5527.37
934.286	5467.03
934.594	5508.16
934.902	5439.91
935.21	5416.41
935.519	5436.52
935.827	5342.97
936.135	5391.1
936.443	5318.79
936.751	5316.07
937.059	5347.71
937.367	5274.95
937.674	5310.2
937.982	5267.26
938.29	5215.51
938.597	5239.92
938.905	5157.44
939.213	5137.77
939.52	5078.57
939.827	5139.13
940.135	5078.57
940.442	5036.99
940.749	5015.74
941.056	5040.38
941.363	5039.47
941.67	4966.48
941.977	4948.17
942.284	4961.96
942.591	4929.42
942.898	4907.5
943.205	4951.11
943.511	4844.45
943.818	4846.03
944.125	4811.68
944.431	4780.5
944.738	4778.24
945.044	4750.89
945.35	4686.26
945.657	4659.82
945.963	4736.2
946.269	4648.07
946.575	4636.54
946.881	4616.43
947.187	4598.81
947.493	4574.85
947.799	4525.36
948.105	4526.72
948.41	4519.26
948.716	4497.57
949.022	4458.02
949.327	4445.59
949.633	4506.6
949.938	4422.09
950.244	4415.31
950.549	4390.45
950.854	4365.37
951.16	4359.94
951.465	4302.77
951.77	4303.9
952.075	4298.93
952.38	4259.38
952.685	4314.29
952.99	4243.33
953.294	4248.76
953.599	4214.63
953.904	4141.42
954.209	4152.04
954.513	4169.66
954.818	4074.3
955.122	4092.6
955.426	4074.3
955.731	4047.41
956.035	4057.8
956.339	4061.87
956.643	4014.19
956.948	3989.56
957.252	3999.05
957.556	4016.45
957.86	3956.34
958.163	3942.55
958.467	3911.37
958.771	3902.33
959.075	3895.55
959.378	3834.98
959.682	3898.71
959.985	3845.61
960.289	3810.35
960.592	3787.75
960.896	3819.17
961.199	3762.9
961.502	3733.97
961.805	3752.5
962.108	3717.47
962.411	3702.78
962.714	3698.94
963.017	3632.73
963.32	3670.24
963.623	3639.28
963.926	3640.64
964.228	3609.45
964.531	3602.9
964.833	3584.6
965.136	3558.61
965.438	3553.18
965.741	3516.8
966.043	3527.2
966.345	3506.86
966.648	3490.81
966.95	3500.76
967.252	3443.81
967.554	3452.85
967.856	3407.42
968.158	3417.82
968.46	3412.17
968.761	3402.23
969.063	3374.88
969.365	3362.45
969.666	3354.77
969.968	3313.42
970.269	3328.33
970.571	3320.42
970.872	3276.13
971.174	3257.6
971.475	3260.08
971.776	3259.86
972.077	3230.25
972.378	3191.84
972.679	3218.28
972.98	3208.79
973.281	3165.4
973.582	3165.4
973.883	3085.85
974.183	3121.78
974.484	3105.29
974.785	3111.61
975.085	3076.59
975.386	3075.46
975.686	3078.39
975.986	3066.64
976.287	3039.07
976.587	3038.62
976.887	3032.07
977.187	2990.26
977.487	2985.97
977.787	2953.88
978.087	2930.83
978.387	2920.66
978.687	2940.32
978.987	2920.21
979.286	2884.95
979.586	2873.43
979.885	2874.78
980.185	2852.41
980.484	2819.87
980.784	2822.81
981.083	2839.76
981.382	2807.67
981.682	2783.26
981.981	2783.71
982.28	2743.71
982.579	2749.36
982.878	2761.34
983.177	2753.88
983.475	2683.15
983.774	2722.7
984.073	2668.23
984.372	2663.04
984.67	2689.48
984.969	2674.11
985.267	2662.13
985.566	2643.83
985.864	2621.91
986.162	2638.63
986.461	2601.34
986.759	2621.46
987.057	2578.75
987.355	2582.59
987.653	2577.16
987.951	2546.43
988.249	2547.56
988.547	2513.89
988.844	2507.34
989.142	2521.12
989.44	2481.57
989.737	2464.85
990.035	2436.38
990.332	2438.18
990.63	2409.71
990.927	2411.97
991.224	2413.78
991.521	2385.08
991.819	2398.64
992.116	2362.93
992.413	2388.02
992.71	2357.96
993.006	2354.34
993.303	2357.06
993.6	2327
993.897	2320.67
994.193	2302.37
994.49	2274.57
994.787	2253.78
995.083	2247.23
995.379	2270.51
995.676	2258.75
995.972	2217.17
996.268	2207.46
996.565	2228.92
996.861	2183.05
997.157	2211.52
997.453	2182.15
997.749	2165.88
998.044	2140.79
998.34	2129.49
998.636	2116.39
998.932	2118.19
999.227	2131.07
999.523	2113
999.818	2115.03
1000.114	2109.61
1000.409	2091.53
1000.704	2068.7
1001	2037.97
1001.295	2036.16
1001.59	2042.04
1001.885	2038.42
1002.18	2008.59
1002.475	1972.21
1002.77	1953.23
1003.065	1959.78
1003.359	1978.08
1003.654	1957.52
1003.949	1914.81
1004.243	1893.34
1004.538	1916.62
1004.832	1878.2
1005.127	1871.87
1005.421	1882.49
1005.715	1888.59
1006.009	1888.59
1006.304	1850.4
1006.598	1842.95
1006.892	1822.16
1007.186	1800.01
1007.48	1779.22
1007.773	1805.43
1008.067	1755.94
1008.361	1757.3
1008.655	1762.27
1008.948	1755.26
1009.242	1763.85
1009.535	1753.23
1009.829	1721.14
1010.122	1723.18
1010.415	1734.02
1010.708	1730.86
1011.001	1701.93
1011.295	1679.56
1011.588	1679.79
1011.881	1630.52
1012.173	1649.73
1012.466	1654.7
1012.759	1640.69
1013.052	1633.01
1013.344	1619
1013.637	1633.23
1013.93	1605.89
1014.222	1597.3
1014.514	1577.64
1014.807	1559.56
1015.099	1549.17
1015.391	1541.48
1015.683	1561.82
1015.976	1548.04
1016.268	1532.9
1016.56	1524.99
1016.851	1511.2
1017.143	1483.63
1017.435	1498.32
1017.727	1446.57
1018.018	1510.98
1018.31	1466.23
1018.602	1454.48
1018.893	1457.87
1019.185	1454.26
1019.476	1408.38
1019.767	1402.96
1020.058	1428.95
1020.35	1390.75
1020.641	1385.78
1020.932	1396.18
1021.223	1346.24
1021.514	1333.58
1021.804	1352.79
1022.095	1346.46
1022.386	1339
1022.677	1312.56
1022.967	1321.83
1023.258	1305.11
1023.548	1270.53
1023.839	1279.57
1024.129	1284.99
1024.419	1282.06
1024.709	1288.16
1025	1234.6
1025.29	1249.97
1025.58	1217.43
1025.87	1237.54
1026.16	1222.85
1026.449	1204.54
1026.739	1233.02
1027.029	1210.42
1027.319	1177.2
1027.608	1182.17
1027.898	1182.17
1028.187	1159.35
1028.477	1156.86
1028.766	1142.17
1029.055	1134.94
1029.344	1124.32
1029.634	1143.08
1029.923	1134.04
1030.212	1116.19
1030.501	1126.13
1030.79	1110.31
1031.078	1086.58
1031.367	1062.4
1031.656	1096.07
1031.945	1078.22
1032.233	1079.58
1032.522	1035.06
1032.81	1081.38
1033.099	1042.74
1033.387	1057.43
1033.675	1033.02
1033.963	1013.14
1034.251	1039.35
1034.54	1028.05
1034.828	1016.98
1035.116	1005.91
1035.403	1028.73
1035.691	984.44
1035.979	996.64
1036.267	969.97
1036.554	994.38
1036.842	982.86
1037.129	958
1037.417	961.61
1037.704	944.66
1037.992	944.89
1038.279	930.88
1038.566	893.14
1038.853	893.14
1039.14	893.14
