Data from hue_26_FLMS001491_00076.txt Node
Date: Tue Feb 07 17:14:30 GMT 2017
User: dcchb
Spectrometer: FLMS00149
Trigger mode: 0
Integration Time (sec): 2.000000E-2
Scans to average: 10
Electric dark correction enabled: true
Nonlinearity correction enabled: false
Boxcar width: 0
XAxis mode: Wavelengths
Number of Pixels in Spectrum: 2048
>>>>>Begin Spectral Data<<<<<
341.393	-31.96
341.776	-31.96
342.16	-31.96
342.543	-47.78
342.927	-59.98
343.31	-66.31
343.693	-65.41
344.077	-73.32
344.46	-42.36
344.843	-44.84
345.226	-51.4
345.61	-39.87
345.993	-41.45
346.376	-13.43
346.759	6.91
347.142	22.95
347.525	35.15
347.908	70.41
348.291	71.31
348.674	95.72
349.057	135.94
349.44	126.23
349.823	128.71
350.206	176.62
350.588	203.74
350.971	197.41
351.354	240.35
351.737	228.14
352.119	244.41
352.502	258.65
352.884	258.88
353.267	293.45
353.65	299.33
354.032	314.24
354.414	316.05
354.797	317.18
355.179	330.97
355.562	314.24
355.944	325.54
356.326	321.93
356.709	326.22
357.091	331.19
357.473	327.12
357.855	333.23
358.238	329.38
358.62	328.93
359.002	355.82
359.384	339.78
359.766	320.34
360.148	319.44
360.53	343.39
360.912	333.23
361.294	337.07
361.676	332.32
362.057	356.95
362.439	330.97
362.821	326.22
363.203	339.55
363.584	331.64
363.966	310.85
364.348	343.17
364.729	330.74
365.111	304.75
365.493	331.87
365.874	308.37
366.256	328.25
366.637	333.9
367.019	315.83
367.4	325.32
367.781	329.38
368.163	295.49
368.544	310.18
368.925	315.83
369.306	329.16
369.688	324.86
370.069	321.47
370.45	308.37
370.831	315.6
371.212	320.12
371.593	316.05
371.974	333.68
372.355	329.38
372.736	314.02
373.117	314.02
373.498	325.09
373.879	311.76
374.26	307.46
374.641	297.29
375.021	331.42
375.402	307.92
375.783	317.86
376.163	320.8
376.544	323.96
376.925	337.29
377.305	328.93
377.686	326.9
378.066	315.15
378.447	339.55
378.827	340.68
379.208	337.75
379.588	342.04
379.968	328.03
380.349	343.39
380.729	323.28
381.109	340.46
381.489	349.95
381.87	330.06
382.25	337.97
382.63	337.75
383.01	347.24
383.39	339.1
383.77	333
384.15	343.17
384.53	335.94
384.91	341.81
385.29	337.07
385.67	353.79
386.049	364.41
386.429	336.62
386.809	359.44
387.189	363.51
387.568	370.51
387.948	369.38
388.328	340.68
388.707	332.77
389.087	360.8
389.466	381.59
389.846	358.54
390.225	364.19
390.605	364.86
390.984	370.96
391.363	366.9
391.743	368.48
392.122	353.56
392.501	385.43
392.881	379.55
393.26	377.97
393.639	385.65
394.018	356.73
394.397	373.22
394.776	355.15
395.155	386.56
395.534	368.25
395.913	372.32
396.292	389.04
396.671	391.98
397.05	388.37
397.429	392.66
397.808	381.59
398.186	379.1
398.565	377.07
398.944	413.9
399.323	399.21
399.701	403.96
400.08	375.48
400.458	389.27
400.837	397.63
401.215	401.92
401.594	424.75
401.972	406.9
402.351	409.61
402.729	412.77
403.107	396.05
403.486	439.21
403.864	422.94
404.242	432.88
404.62	410.51
404.999	407.8
405.377	428.14
405.755	403.51
406.133	422.04
406.511	429.04
406.889	427.69
407.267	437.18
407.645	436.27
408.023	430.85
408.401	427.01
408.779	430.17
409.156	437.86
409.534	442.6
409.912	450.74
410.29	474.69
410.667	458.19
411.045	457.97
411.422	486.67
411.8	446.22
412.178	467.91
412.555	435.37
412.933	458.42
413.31	465.2
413.687	462.94
414.065	501.36
414.442	484.18
414.819	475.82
415.197	481.47
415.574	484.63
415.951	508.81
416.328	464.97
416.705	497.74
417.082	498.65
417.46	471.53
417.837	507.23
418.214	490.06
418.591	496.39
418.967	517.18
419.344	519.21
419.721	509.94
420.098	495.48
420.475	507.91
420.852	528.02
421.228	511.07
421.605	536.84
421.982	533.67
422.358	535.93
422.735	552.65
423.111	531.64
423.488	531.86
423.864	521.02
424.241	554.01
424.617	560.56
424.994	573.45
425.37	573.22
425.746	570.96
426.123	556.27
426.499	585.65
426.875	582.48
427.251	579.32
427.627	547.91
428.003	582.03
428.379	589.72
428.756	601.02
429.132	596.5
429.507	614.35
429.883	634.01
430.259	606.21
430.635	641.24
431.011	610.05
431.387	628.81
431.763	634.91
432.138	639.88
432.514	635.14
432.89	646.44
433.265	634.01
433.641	671.75
434.016	643.05
434.392	682.37
434.767	660
435.143	669.04
435.518	675.59
435.894	714.68
436.269	685.08
436.644	698.64
437.02	727.79
437.395	709.49
437.77	721.92
438.145	731.63
438.52	730.5
438.895	739.54
439.271	739.32
439.646	754.23
440.021	736.6
440.395	745.64
440.77	738.86
441.145	747.68
441.52	754.23
441.895	752.42
442.27	785.64
442.645	766.89
443.019	771.41
443.394	778.41
443.769	785.42
444.143	787.23
444.518	805.08
444.892	793.55
445.267	803.95
445.641	801.24
446.016	806.89
446.39	796.04
446.764	814.57
447.139	803.5
447.513	846.88
447.887	843.95
448.262	819.09
448.636	843.27
449.01	824.29
449.384	837.17
449.758	864.51
450.132	873.1
450.506	843.72
450.88	868.13
451.254	856.38
451.628	869.03
452.002	907.45
452.376	891.63
452.75	898.86
453.123	885.75
453.497	895.7
453.871	891.4
454.244	917.17
454.618	954.23
454.992	962.36
455.365	967.79
455.739	948.8
456.112	988.8
456.486	973.66
456.859	998.74
457.232	1002.59
457.606	995.58
457.979	1014.11
458.352	1024.05
458.725	1055.01
459.099	1057.05
459.472	1060.66
459.845	1074.22
460.218	1066.09
460.591	1089.59
460.964	1114.45
461.337	1097.73
461.71	1130.72
462.083	1179.31
462.456	1150.38
462.829	1176.14
463.201	1179.98
463.574	1187.67
463.947	1165.97
464.32	1210.04
464.692	1191.28
465.065	1223.15
465.438	1262.01
465.81	1265.18
466.183	1292.07
466.555	1281.45
466.928	1315.8
467.3	1344.95
467.672	1344.05
468.045	1374.1
468.417	1361.22
468.789	1360.32
469.161	1372.52
469.534	1403.71
469.906	1432.63
470.278	1436.02
470.65	1475.34
471.022	1492.97
471.394	1504.27
471.766	1531.39
472.138	1558.05
472.51	1575.23
472.882	1608.45
473.253	1604.6
473.625	1645.06
473.997	1679.63
474.369	1667.88
474.74	1715.11
475.112	1746.3
475.484	1769.8
475.855	1816.58
476.227	1835.79
476.598	1878.72
476.97	1915.78
477.341	1944.48
477.713	1993.97
478.084	1968.66
478.455	2043.92
478.827	2087.3
479.198	2131.14
479.569	2143.57
479.94	2227.64
480.311	2252.05
480.682	2295.89
481.053	2315.09
481.424	2368.65
481.795	2394.64
482.166	2441.64
482.537	2479.38
482.908	2568.42
483.279	2548.76
483.65	2634.18
484.021	2647.29
484.391	2712.15
484.762	2770.9
485.133	2812.71
485.503	2860.16
485.874	2901.07
486.244	2919.15
486.615	2971.12
486.985	3049.09
487.356	3123.66
487.726	3156.65
488.097	3192.36
488.467	3234.84
488.837	3339.47
489.207	3346.48
489.578	3448.85
489.948	3439.13
490.318	3535.18
490.688	3553.25
491.058	3604.1
491.428	3671.67
491.798	3685.91
492.168	3778.11
492.538	3809.74
492.908	3851.33
493.278	3933.81
493.648	3943.53
494.017	4010.64
494.387	4039.79
494.757	4094.93
495.126	4107.59
495.496	4146.46
495.866	4192.11
496.235	4247.93
496.605	4262.39
496.974	4335.83
497.344	4369.05
497.713	4366.11
498.082	4466
498.452	4480.01
498.821	4502.83
499.19	4539.44
499.559	4557.52
499.928	4627.35
500.298	4662.83
500.667	4711.42
501.036	4633.45
501.405	4705.99
501.774	4740.57
502.143	4821.24
502.512	4817.18
502.88	4853.56
503.249	4870.96
503.618	4933.56
503.987	4916.83
504.356	4987.11
504.724	5030.96
505.093	5033.44
505.462	5017.62
505.83	5058.53
506.199	5123.38
506.567	5202.25
506.936	5165.64
507.304	5269.59
507.672	5236.6
508.041	5313.89
508.409	5309.59
508.777	5311.63
509.145	5397.95
509.514	5356.82
509.882	5434.11
510.25	5396.14
510.618	5423.49
510.986	5483.15
511.354	5518.85
511.722	5556.59
512.09	5573.99
512.458	5603.82
512.826	5691.73
513.193	5593.43
513.561	5656.48
513.929	5698.73
514.297	5743.03
514.664	5781.22
515.032	5802.69
515.4	5861.22
515.767	5854.66
516.135	5892.63
516.502	5889.24
516.869	5972.17
517.237	5946.41
517.604	5869.35
517.972	5988.9
518.339	5967.2
518.706	5988.67
519.073	6027.54
519.44	6040.65
519.808	6136.01
520.175	6091.49
520.542	6153.41
520.909	6165.61
521.276	6189.57
521.643	6210.13
522.009	6283.8
522.376	6315.22
522.743	6379.85
523.11	6345.95
523.477	6424.36
523.843	6448.77
524.21	6496
524.577	6510.01
524.943	6565.15
525.31	6586.39
525.676	6670.46
526.043	6652.38
526.409	6708.43
526.776	6695.77
527.142	6793.17
527.508	6814.86
527.874	6794.3
528.241	6893.96
528.607	6900.74
528.973	6997.01
529.339	6944.8
529.705	6988.87
530.071	7112.71
530.437	7159.49
530.803	7108.19
531.169	7174.18
531.535	7207.62
531.901	7186.83
532.267	7283.33
532.632	7321.97
532.998	7317
533.364	7404.9
533.73	7350.67
534.095	7425.69
534.461	7430.21
534.826	7491.68
535.192	7489.2
535.557	7588.18
535.923	7503.88
536.288	7564.9
536.653	7639.93
537.019	7594.5
537.384	7635.63
537.749	7751.56
538.114	7751.11
538.479	7747.49
538.845	7824.33
539.21	7789.53
539.575	7850.77
539.94	7877.66
540.305	7964.66
540.67	7926.02
541.034	7959.92
541.399	8060.71
541.764	8044.66
542.129	8053.25
542.494	8114.49
542.858	8131.66
543.223	8114.26
543.587	8187.03
543.952	8164.66
544.316	8264.32
544.681	8254.37
545.045	8341.15
545.41	8276.97
545.774	8398.78
546.138	8388.61
546.503	8420.24
546.867	8407.82
547.231	8506.8
547.595	8547.7
547.959	8584.99
548.324	8541.37
548.688	8602.39
549.052	8653.23
549.416	8679.22
549.779	8687.36
550.143	8713.57
550.507	8735.49
550.871	8805.77
551.235	8749.95
551.599	8864.98
551.962	8860.23
552.326	8887.35
552.689	8948.82
553.053	8921.47
553.417	8990.85
553.78	9054.8
554.143	9051.41
554.507	9044.18
554.87	9078.98
555.234	9129.83
555.597	9095.71
555.96	9153.11
556.323	9196.72
556.686	9194.69
557.05	9242.14
557.413	9256.15
557.776	9327.11
558.139	9375.7
558.502	9385.64
558.865	9458.64
559.228	9488.24
559.59	9511.29
559.953	9468.35
560.316	9568.01
560.679	9601.23
561.041	9599.87
561.404	9669.25
561.767	9714.22
562.129	9662.7
562.492	9829.7
562.854	9817.27
563.217	9777.95
563.579	9834.22
563.941	9888.91
564.304	9865.4
564.666	9943.14
565.028	10025.4
565.39	10044.61
565.753	10066.08
566.115	10124.61
566.477	10117.38
566.839	10106.3
567.201	10269.46
567.563	10239.63
567.925	10368.67
568.287	10327.09
568.648	10316.92
569.01	10416.35
569.372	10430.36
569.734	10442.11
570.095	10562.79
570.457	10580.41
570.819	10602.56
571.18	10635.55
571.542	10787.87
571.903	10794.87
572.265	10763.23
572.626	10852.5
572.987	10932.5
573.349	10972.95
573.71	11071.7
574.071	11061.98
574.432	11052.72
574.794	11236.67
575.155	11285.71
575.516	11332.71
575.877	11397.79
576.238	11426.72
576.599	11469.43
576.96	11561.86
577.32	11609.77
577.681	11744.23
578.042	11858.57
578.403	11864.9
578.763	11982.86
579.124	12174.5
579.485	12250.43
579.845	12399.35
580.206	12430.53
580.566	12524.77
580.927	12719.34
581.287	12804.99
581.648	12994.81
582.008	13158.65
582.368	13183.96
582.728	13373.11
583.089	13585.98
583.449	13722.25
583.809	13906.65
584.169	14060.55
584.529	14173.77
584.889	14557.26
585.249	14590.7
585.609	14706.86
585.969	15122.44
586.329	15246.73
586.688	15476.1
587.048	15671.81
587.408	15863.44
587.768	16178.23
588.127	16411
588.487	16502.07
588.846	16888.95
589.206	17027.02
589.565	17425.43
589.925	17708.36
590.284	17878.53
590.643	18219.54
591.003	18521.22
591.362	18787.2
591.721	19097.93
592.08	19364.36
592.44	19673.96
592.799	19935.42
593.158	20084.34
593.517	20393.72
593.876	20732.69
594.235	21113.7
594.593	21390.07
594.952	21645.21
595.311	21851.3
595.67	22238.19
596.029	22791.39
596.387	22964.72
596.746	23287.2
597.104	23510.7
597.463	23761.99
597.822	24116.33
598.18	24368.53
598.538	24737.33
598.897	25113.59
599.255	25273.59
599.613	25797.41
599.972	25817.3
600.33	26384.74
600.688	26499.54
601.046	26851.17
601.404	27265.4
601.762	27402.12
602.12	27876.46
602.478	28177.47
602.836	28387.86
603.194	28535.65
603.552	28949.42
603.91	29065.8
604.268	29470.99
604.625	29551.21
604.983	29947.36
605.341	30108.94
605.698	30523.17
606.056	30797.74
606.413	31060.33
606.771	31280.21
607.128	31597.04
607.485	31681.55
607.843	32107.08
608.2	32350.01
608.557	32746.38
608.914	32874.74
609.272	33088.97
609.629	33273.6
609.986	33742.06
610.343	33686.25
610.7	34175.27
611.057	34345.89
611.414	34442.84
611.771	34713.56
612.127	35039.21
612.484	35098.41
612.841	35413.43
613.198	35483.49
613.554	35540.89
613.911	36028.56
614.267	36171.61
614.624	36200.98
614.98	36481.43
615.337	36703.79
615.693	36820.85
616.05	37060.62
616.406	37423.55
616.762	37387.62
617.118	37470.55
617.475	37648.85
617.831	37901.28
618.187	37953.48
618.543	38162.51
618.899	38524.09
619.255	38512.33
619.611	38591.43
619.967	38863.06
620.323	39055.82
620.678	38946.45
621.034	38976.96
621.39	39251.3
621.746	39297.4
622.101	39933.54
622.457	39540.33
622.812	39557.28
623.168	39968.79
623.523	39918.17
623.879	40281.55
624.234	39875.24
624.589	40090.15
624.945	40204.95
625.3	40453.3
625.655	40592.05
626.01	40555.44
626.365	40594.31
626.72	40731.03
627.075	40620.08
627.43	40936.23
627.785	40729.68
628.14	41021.87
628.495	41013.74
628.85	41013.96
629.205	41020.52
629.559	41267.29
629.914	41180.97
630.269	41145.26
630.623	41338.48
630.978	41086.28
631.332	41399.04
631.687	41513.16
632.041	41337.12
632.396	41321.53
632.75	41235.2
633.104	41476.32
633.459	41247.86
633.813	41303
634.167	41314.97
634.521	41423.22
634.875	41304.13
635.229	41396.55
635.583	41229.1
635.937	41370.56
636.291	41378.47
636.645	41308.19
636.999	41266.16
637.352	41558.13
637.706	41271.36
638.06	41473.16
638.413	41488.75
638.767	41388.42
639.121	41351.36
639.474	41363.56
639.828	41320.4
640.181	41356.33
640.534	41379.6
640.888	41290.11
641.241	41151.36
641.594	41251.25
641.947	41296.89
642.301	41236.78
642.654	41186.84
643.007	41368.53
643.36	41262.32
643.713	41214.18
644.066	41371.47
644.419	41023.46
644.771	40895.55
645.124	40580.3
645.477	40509.8
645.83	40329.24
646.182	40128.34
646.535	39986.65
646.888	40154.1
647.24	40096.02
647.593	40199.3
647.945	40134.44
648.298	40051.5
648.65	39907.1
649.002	39847.21
649.355	40066.64
649.707	39990.26
650.059	40310.71
650.411	40732.62
650.763	40772.39
651.115	41019.16
651.467	40929.67
651.819	40876.34
652.171	40841.54
652.523	40818.26
652.875	40672.96
653.227	40564.94
653.578	40841.31
653.93	40810.58
654.282	40513.86
654.633	40503.92
654.985	40596.57
655.337	40715.89
655.688	40653.97
656.039	40855.55
656.391	40513.41
656.742	40573.52
657.094	40651.71
657.445	40651.49
657.796	40602
658.147	40486.75
658.498	40499.4
658.849	40667.08
659.2	40560.64
659.551	40452.62
659.902	40658.72
660.253	40508.89
660.604	40571.49
660.955	40267.77
661.306	40600.87
661.656	40551.38
662.007	40529.91
662.358	40337.15
662.708	40559.96
663.059	40553.86
663.409	40234.78
663.76	40533.98
664.11	40571.94
664.461	40651.94
664.811	40591.83
665.161	40470.93
665.511	40460.31
665.862	40422.34
666.212	40648.55
666.562	40397.48
666.912	40399.52
667.262	40376.92
667.612	40557.7
667.962	40454.66
668.312	40432.28
668.662	40539.85
669.011	40437.93
669.361	40426.18
669.711	40474.32
670.06	40278.39
670.41	40275.45
670.76	40185.06
671.109	40323.13
671.459	40183.48
671.808	40172.86
672.157	40252.4
672.507	39858.74
672.856	40030.71
673.205	40016.93
673.554	40057.15
673.904	40059.41
674.253	40236.13
674.602	40052.86
674.951	39530.16
675.3	39298.08
675.649	39892.19
675.998	40010.37
676.346	39930.38
676.695	39995.23
677.044	39763.15
677.393	39974.9
677.741	39926.99
678.09	39907.78
678.438	39726.31
678.787	39798.18
679.135	40007.21
679.484	39608.35
679.832	39791.17
680.181	39566.09
680.529	39645.19
680.877	39522.93
681.225	39608.8
681.573	39815.13
681.922	39388.7
682.27	39339.21
682.618	39307.79
682.966	39261.02
683.314	39425.98
683.661	39093.34
684.009	38943.96
684.357	38922.27
684.705	38925.88
685.053	39034.13
685.4	38846.79
685.748	38845.89
686.095	38642.95
686.443	38529.06
686.79	38591.88
687.138	38642.5
687.485	38559.11
687.832	38434.6
688.18	38500.81
688.527	38194.38
688.874	38342.17
689.221	38119.12
689.568	38095.62
689.915	38010.88
690.262	37992.35
690.609	37870.77
690.956	37796.87
691.303	37757.78
691.65	37552.13
691.997	37656.99
692.344	37410.22
692.69	37289.09
693.037	37433.95
693.383	37240.05
693.73	37262.42
694.077	37126.16
694.423	37062.43
694.769	36927.74
695.116	36795.54
695.462	36728.88
695.808	36648.2
696.155	36601.42
696.501	36523.91
696.847	36429
697.193	36268.1
697.539	36405.72
697.885	36207.08
698.231	35936.36
698.577	36099.06
698.923	35948.79
699.269	35846.64
699.614	35620.89
699.96	35532.98
700.306	35546.09
700.651	35371.4
700.997	35430.61
701.342	35300.22
701.688	35319.2
702.033	35167.79
702.379	35112.42
702.724	34925.76
703.069	35040.79
703.415	34681.7
703.76	34746.33
704.105	34597.18
704.45	34453.68
704.795	34421.37
705.14	34429.05
705.485	34275.16
705.83	34202.39
706.175	34234.26
706.52	34096.41
706.865	33919.24
707.209	33892.34
707.554	33836.75
707.899	33966.47
708.243	33753.59
708.588	33675.17
708.932	33375.29
709.277	33452.35
709.621	33421.62
709.966	33234.96
710.31	33363.32
710.654	33104.57
710.998	33130.33
711.342	33044.91
711.687	33069.09
712.031	32850.34
712.375	32766.95
712.719	32771.47
713.063	32691.47
713.407	32755.42
713.75	32674.75
714.094	32690.34
714.438	32446.73
714.782	32412.38
715.125	32348.2
715.469	32455.32
715.812	32205.16
716.156	32129
716.499	32099.4
716.843	32059.85
717.186	31980.08
717.53	32055.78
717.873	32055.56
718.216	31931.94
718.559	31755.22
718.902	31631.39
719.246	31746.19
719.589	31649.46
719.932	31486.53
720.275	31616.02
720.617	31321.79
720.96	31348.91
721.303	31321.11
721.646	31282.02
721.989	31102.81
722.331	31192.08
722.674	31042.7
723.016	31193.21
723.359	31131.96
723.701	31002.48
724.044	30823.72
724.386	30841.35
724.729	30976.94
725.071	30767.23
725.413	30736.04
725.755	30714.35
726.097	30710.96
726.439	30531.3
726.782	30413.56
727.124	30657.63
727.465	30522.26
727.807	30487.69
728.149	30389.16
728.491	30340.57
728.833	30401.14
729.175	30212.89
729.516	30092.9
729.858	30143.06
730.199	30167.92
730.541	30087.25
730.882	29939.45
731.224	30029.39
731.565	30007.93
731.906	29919.57
732.248	29929.74
732.589	29808.38
732.93	29622.17
733.271	29640.7
733.612	29731.32
733.953	29701.72
734.294	29569.52
734.635	29515.06
734.976	29591.44
735.317	29273.26
735.658	29501.5
735.999	29374.5
736.339	29317.32
736.68	29449.52
737.021	29340.15
737.361	29193.71
737.702	29293.37
738.042	29197.55
738.383	29220.6
738.723	29106.25
739.063	28901.51
739.404	29125.01
739.744	28979.25
740.084	28938.12
740.424	28935.19
740.764	28826.49
741.104	29015.41
741.444	28834.85
741.784	28729.77
742.124	28814.74
742.464	28864.23
742.804	28593.73
743.143	28629.2
743.483	28652.26
743.823	28436.44
744.162	28445.25
744.502	28456.55
744.841	28325.71
745.181	28562.99
745.52	28354.18
745.86	28375.88
746.199	28292.04
746.538	28254.07
746.877	28329.33
747.216	28180.4
747.556	28182.66
747.895	28163.68
748.234	28096.34
748.573	27981.99
748.911	28011.37
749.25	27977.92
749.589	27942.67
749.928	27832.39
750.267	27919.62
750.605	27845.27
750.944	27843.24
751.283	27691.38
751.621	27751.94
751.96	27601.44
752.298	27610.93
752.636	27547.88
752.975	27526.18
753.313	27391.27
753.651	27491.38
753.989	27330.03
754.327	27276.92
754.666	27034.67
755.004	27238.96
755.342	27128.45
755.679	27205.97
756.017	26946.09
756.355	27021.11
756.693	26929.81
757.031	26984.5
757.368	26782.02
757.706	26738.63
758.044	26741.57
758.381	26807.33
758.719	26595.81
759.056	26695.47
759.394	26482.37
759.731	26367.12
760.068	26456.83
760.405	26308.59
760.743	26311.07
761.08	26192.21
761.417	26168.7
761.754	26087.8
762.091	26027.01
762.428	25794.7
762.765	25751.31
763.102	25762.84
763.438	25632.67
763.775	25550.64
764.112	25675.61
764.449	25647.14
764.785	25346.58
765.122	25339.8
765.458	25206.24
765.795	25144.55
766.131	25183.87
766.467	25103.42
766.804	24912.24
767.14	24857.1
767.476	24847.61
767.812	24649.87
768.148	24839.47
768.485	24563.1
768.821	24499.37
769.157	24481.97
769.492	24453.27
769.828	24345.25
770.164	24101.19
770.5	24098.93
770.836	24027.07
771.171	24011.47
771.507	23921.98
771.842	23772.84
772.178	23789.33
772.513	23638.15
772.849	23540.3
773.184	23534.65
773.519	23567.19
773.855	23306.18
774.19	23302.34
774.525	23216.47
774.86	23091.72
775.195	23098.28
775.53	23002.23
775.865	22856.02
776.2	22755.01
776.535	22581
776.87	22691.73
777.205	22486.54
777.539	22358.86
777.874	22415.58
778.209	22226.21
778.543	22175.82
778.878	22100.34
779.212	22178.08
779.547	21867.12
779.881	21959.55
780.215	21830.51
780.55	21828.25
780.884	21587.58
781.218	21606.11
781.552	21639.56
781.886	21343.97
782.22	21349.62
782.554	21157.08
782.888	21196.18
783.222	21108.72
783.556	20945.57
783.889	20925.45
784.223	20734.5
784.557	20807.94
784.89	20717.32
785.224	20674.61
785.557	20462.64
785.891	20473.04
786.224	20415.86
786.558	20459.7
786.891	20223.1
787.224	20174.96
787.557	20098.36
787.891	20066.72
788.224	20106.94
788.557	19983.78
788.89	19934.52
789.223	19877.34
789.556	19768.19
789.888	19713.96
790.221	19631.93
790.554	19485.49
790.887	19400.97
791.219	19365.72
791.552	19375.21
791.884	19373.18
792.217	19206.4
792.549	19214.99
792.882	18952.62
793.214	18980.87
793.546	18932.06
793.879	18782.46
794.211	18760.99
794.543	18805.28
794.875	18695.68
795.207	18805.28
795.539	18646.87
795.871	18577.72
796.203	18445.29
796.535	18381.79
796.867	18303.15
797.198	18169.37
797.53	18220.89
797.862	18125.75
798.193	18113.55
798.525	18039.2
798.856	18022.48
799.188	17790.85
799.519	17815.7
799.85	17714.92
800.182	17808.02
800.513	17729.15
800.844	17561.02
801.175	17712.66
801.506	17570.74
801.837	17479.44
802.168	17436.73
802.499	17359.9
802.83	17372.33
803.161	17302.95
803.491	17243.97
803.822	17223.63
804.153	17154.03
804.483	17022.96
804.814	16982.96
805.145	16874.26
805.475	16928.95
805.805	16836.07
806.136	16792
806.466	16738.9
806.796	16743.19
807.126	16715.62
807.457	16636.3
807.787	16567.83
808.117	16536.19
808.447	16419.81
808.777	16486.47
809.107	16388.85
809.436	16301.17
809.766	16303.88
810.096	16262.52
810.426	16166.71
810.755	16277.21
811.085	16181.62
811.414	16175.07
811.744	15981.85
812.073	16005.13
812.403	16013.04
812.732	15906.83
813.061	15865.7
813.39	15774.85
813.719	15716.32
814.049	15765.59
814.378	15772.14
814.707	15634.29
815.036	15697.12
815.365	15481.08
815.693	15418.25
816.022	15426.84
816.351	15419.61
816.68	15248.09
817.008	15408.76
817.337	15265.71
817.665	15194.3
817.994	15207.18
818.322	15199.95
818.651	15197.02
818.979	15091.26
819.307	15122.44
819.636	15104.81
819.964	15001.54
820.292	15081.31
820.62	15000.18
820.948	14852.17
821.276	15047.42
821.604	14972.61
821.932	15055.55
822.259	14993.63
822.587	14957.7
822.915	15005.61
823.243	14995.21
823.57	14894.42
823.898	14933.07
824.225	14898.49
824.553	14807.87
824.88	14923.8
825.207	14870.47
825.535	14786.18
825.862	14860.98
826.189	14828.66
826.516	14892.39
826.843	14955.44
827.17	14892.39
827.497	14965.38
827.824	14863.01
828.151	14901.43
828.478	14866.4
828.805	14878.15
829.131	14771.49
829.458	14798.16
829.785	14772.39
830.111	14869.34
830.438	14910.02
830.764	14863.69
831.09	14893.29
831.417	14806.29
831.743	14783.47
832.069	14884.26
832.395	14685.62
832.722	14861.88
833.048	14758.38
833.374	14877.93
833.7	14632.74
834.026	14751.6
834.351	14707.31
834.677	14693.98
835.003	14746.41
835.329	14687.88
835.654	14633.64
835.98	14603.58
836.306	14645.17
836.631	14544.6
836.956	14597.94
837.282	14660.08
837.607	14486.98
837.932	14516.58
838.258	14532.85
838.583	14407.43
838.908	14393.42
839.233	14476.81
839.558	14356.13
839.883	14252.86
840.208	14292.18
840.533	14251.05
840.858	14222.8
841.182	14299.19
841.507	14131.73
841.832	14174.67
842.156	14177.38
842.481	14066.88
842.805	14105.97
843.13	14075.92
843.454	14021.45
843.778	13960.21
844.103	13887.67
844.427	13886.09
844.751	13912.53
845.075	13868.46
845.399	13815.36
845.723	13708.47
846.047	13759.77
846.371	13648.81
846.695	13563.61
847.019	13561.13
847.343	13551.41
847.666	13430.73
847.99	13349.38
848.313	13347.57
848.637	13299.44
848.96	13277.52
849.284	13232.77
849.607	13118.88
849.931	13114.13
850.254	12982.84
850.577	12934.93
850.9	12827.81
851.223	12803.41
851.546	12766.8
851.869	12685.9
852.192	12770.86
852.515	12619.91
852.838	12613.58
853.161	12533.58
853.483	12488.39
853.806	12445
854.129	12348.28
854.451	12325.68
854.774	12364.32
855.096	12294.49
855.419	12180.37
855.741	12189.64
856.063	12133.82
856.385	12113.03
856.708	12085.23
857.03	12008.85
857.352	12025.35
857.674	11939.02
857.996	11932.47
858.318	11962.52
858.64	11875.3
858.961	11865.35
859.283	11775.41
859.605	11747.39
859.926	11801.17
860.248	11669.65
860.57	11732.02
860.891	11637.11
861.212	11688.18
861.534	11596.88
861.855	11577.22
862.176	11632.59
862.498	11580.84
862.819	11500.39
863.14	11526.15
863.461	11469.43
863.782	11451.35
864.103	11452.03
864.424	11400.28
864.745	11390.56
865.065	11299.49
865.386	11260.17
865.707	11295.42
866.027	11317.8
866.348	11283.67
866.668	11301.3
866.989	11257.46
867.309	11200.96
867.63	11220.85
867.95	11130.46
868.27	11007.07
868.59	11099.27
868.91	11016.79
869.23	11019.27
869.55	11003.68
869.87	11043.68
870.19	11037.58
870.51	11034.87
870.83	11013.62
871.15	10918.48
871.469	10934.3
871.789	11008.65
872.109	10952.61
872.428	10905.83
872.748	10918.26
873.067	10871.71
873.386	10853.85
873.706	10854.76
874.025	10823.8
874.344	10751.71
874.663	10808.66
874.982	10752.16
875.301	10789.67
875.62	10733.18
875.939	10729.79
876.258	10742.22
876.577	10737.92
876.896	10690.92
877.214	10638.94
877.533	10636.01
877.852	10666.06
878.17	10558.49
878.489	10572.05
878.807	10600.3
879.125	10502
879.444	10579.06
879.762	10469.68
880.08	10498.61
880.398	10452.06
880.716	10445.05
881.034	10467.87
881.352	10388.33
881.67	10385.16
881.988	10344.71
882.306	10332.74
882.624	10305.62
882.941	10263.81
883.259	10249.12
883.577	10208.67
883.894	10238.28
884.212	10177.94
884.529	10168.9
884.846	10159.63
885.164	10148.79
885.481	10021.11
885.798	10061.33
886.115	10028.11
886.432	9971.39
886.75	9928.23
887.067	10033.76
887.383	9911.96
887.7	9875.12
888.017	9826.08
888.334	9930.49
888.651	9768.91
888.967	9826.31
889.284	9797.61
889.6	9812.52
889.917	9712.64
890.233	9699.53
890.55	9654.11
890.866	9638.29
891.182	9618.86
891.498	9618.63
891.815	9577.5
892.131	9514
892.447	9558.97
892.763	9415.92
893.079	9459.09
893.395	9387.22
893.71	9412.76
894.026	9371.18
894.342	9351.29
894.657	9274.91
894.973	9277.62
895.289	9259.32
895.604	9279.21
895.92	9224.29
896.235	9154.46
896.55	9072.43
896.865	9158.76
897.181	9055.93
897.496	9053
897.811	9065.2
898.126	9008.25
898.441	8899.33
898.756	8943.62
899.071	8894.58
899.386	8850.74
899.7	8836.5
900.015	8762.83
900.33	8726.9
900.644	8720.12
900.959	8690.07
901.273	8634.93
901.588	8584.99
901.902	8538.89
902.216	8626.79
902.531	8551.31
902.845	8518.1
903.159	8461.15
903.473	8439.68
903.787	8422.28
904.101	8411.43
904.415	8427.25
904.729	8359
905.042	8377.31
905.356	8278.55
905.67	8260.47
905.984	8214.6
906.297	8208.72
906.611	8172.34
906.924	8146.35
907.237	8122.17
907.551	8052.8
907.864	8083.76
908.177	8022.06
908.491	8033.14
908.804	7975.06
909.117	7930.54
909.43	7872.01
909.743	7815.74
910.056	7766.25
910.368	7783.65
910.681	7771
910.994	7708.62
911.307	7645.12
911.619	7630.89
911.932	7663.2
912.244	7592.02
912.557	7620.49
912.869	7537.33
913.181	7512.7
913.494	7493.49
913.806	7424.34
914.118	7404.23
914.43	7376.2
914.742	7331.46
915.054	7306.6
915.366	7251.46
915.678	7241.52
915.99	7232.48
916.302	7166.04
916.613	7133.05
916.925	7144.35
917.236	7125.36
917.548	7051.02
917.859	7015.54
918.171	7015.54
918.482	7015.31
918.794	6917.01
919.105	6978.47
919.416	6883.34
919.727	6796.33
920.038	6832.04
920.349	6787.07
920.66	6735.54
920.971	6762.21
921.282	6736.22
921.593	6724.92
921.903	6669.1
922.214	6625.26
922.525	6621.2
922.835	6545.27
923.146	6500.52
923.456	6500.07
923.767	6444.48
924.077	6465.72
924.387	6463.23
924.697	6392.95
925.008	6332.39
925.318	6364.93
925.628	6343.69
925.938	6352.28
926.248	6264.6
926.558	6251.04
926.867	6225.73
927.177	6183.24
927.487	6153.19
927.796	6121.55
928.106	6136.01
928.416	6151.83
928.725	6101.89
929.034	6032.51
929.344	6104.83
929.653	5990.25
929.962	5937.82
930.271	5931.95
930.581	5951.84
930.89	5920.65
931.199	5837.71
931.508	5872.74
931.817	5863.25
932.125	5818.73
932.434	5774.66
932.743	5722.69
933.051	5732.63
933.36	5687.44
933.669	5649.92
933.977	5633.65
934.286	5667.32
934.594	5602.24
934.902	5515.91
935.21	5526.99
935.519	5541.22
935.827	5512.98
936.135	5454.67
936.443	5414
936.751	5443.6
937.059	5405.18
937.367	5375.13
937.674	5413.09
937.982	5319.31
938.29	5289.71
938.597	5343.49
938.905	5277.05
939.213	5235.47
939.52	5211.97
939.827	5208.58
940.135	5208.35
940.442	5161.8
940.749	5129.26
941.056	5122.25
941.363	5050.39
941.67	5072.99
941.977	5055.36
942.284	5041.12
942.591	5058.98
942.898	4948.92
943.205	4974.01
943.511	4987.11
943.818	4928.36
944.125	4916.38
944.431	4868.7
944.738	4872.09
945.044	4823.73
945.35	4846.78
945.657	4814.01
945.963	4793.9
946.269	4734.24
946.575	4715.48
946.881	4741.92
947.187	4648.37
947.493	4647.69
947.799	4630.97
948.105	4637.75
948.41	4640.01
948.716	4628.93
949.022	4582.15
949.327	4600.91
949.633	4508.94
949.938	4516.62
950.244	4505.09
950.549	4443.85
950.854	4433.46
951.16	4436.39
951.465	4433
951.77	4411.08
952.075	4413.12
952.38	4369.73
952.685	4384.42
952.99	4349.17
953.294	4292.22
953.599	4274.14
953.904	4247.93
954.209	4213.12
954.513	4236.4
954.818	4196.17
955.122	4190.53
955.426	4155.05
955.731	4162.5
956.035	4127.02
956.339	4117.98
956.643	4092.9
956.948	4120.47
957.252	4022.85
957.556	4063.52
957.86	4002.51
958.163	4010.19
958.467	4005.45
958.771	3989.17
959.075	3963.64
959.378	3927.48
959.682	3943.53
959.985	3878.44
960.289	3871.89
960.592	3859.23
960.896	3880.93
961.199	3804.32
961.502	3822.85
961.805	3812.23
962.108	3759.35
962.411	3782.63
962.714	3730.65
963.017	3745.79
963.32	3715.51
963.623	3703.98
963.926	3686.81
964.228	3660.82
964.531	3677.54
964.833	3664.44
965.136	3597.32
965.438	3592.8
965.741	3560.49
966.043	3576.08
966.345	3551.9
966.648	3577.89
966.95	3560.49
967.252	3530.43
967.554	3517.77
967.856	3491.56
968.158	3456.31
968.46	3477.78
968.761	3435.07
969.063	3436.65
969.365	3426.03
969.666	3441.17
969.968	3373.15
970.269	3376.99
970.571	3335.63
970.872	3337.21
971.174	3308.51
971.475	3303.09
971.776	3291.79
972.077	3282.3
972.378	3282.98
972.679	3252.24
972.98	3263.77
973.281	3240.72
973.582	3201.4
973.883	3199.14
974.183	3179.93
974.484	3176.99
974.785	3165.02
975.085	3147.61
975.386	3155.52
975.686	3139.48
975.986	3149.87
976.287	3094.74
976.587	3011.57
976.887	3060.39
977.187	3053.61
977.487	3052.7
977.787	3012.93
978.087	2997.34
978.387	2986.26
978.687	2992.36
978.987	2965.92
979.286	2942.42
979.586	2937.68
979.885	2921.18
980.185	2908.53
980.484	2905.59
980.784	2886.38
981.083	2906.94
981.382	2846.61
981.682	2842.99
981.981	2866.04
982.28	2803.67
982.579	2787.62
982.878	2827.17
983.177	2786.27
983.475	2804.35
983.774	2786.27
984.073	2772.71
984.372	2731.58
984.67	2694.75
984.969	2705.82
985.267	2707.4
985.566	2686.61
985.864	2690
986.162	2638.93
986.461	2666.05
986.759	2666.05
987.057	2628.08
987.355	2649.32
987.653	2583.56
987.951	2594.41
988.249	2590.12
988.547	2582.66
988.844	2584.69
989.142	2560.51
989.44	2542.66
989.737	2517.12
990.035	2500.17
990.332	2472.83
990.63	2485.71
990.927	2478.48
991.224	2451.14
991.521	2468.99
991.819	2457.01
992.116	2426.5
992.413	2422.89
992.71	2394.19
993.006	2424.47
993.303	2407.07
993.6	2372.27
993.897	2371.82
994.193	2354.87
994.49	2331.37
994.787	2359.16
995.083	2315.77
995.379	2303.8
995.676	2322.33
995.972	2278.94
996.268	2311.93
996.565	2274.87
996.861	2240.97
997.157	2237.36
997.453	2235.32
997.749	2221.76
998.044	2228.54
998.34	2219.28
998.636	2163.69
998.932	2139.96
999.227	2191.93
999.523	2173.18
999.818	2183.35
1000.114	2183.57
1000.409	2135.21
1000.704	2106.74
1001	2093.63
1001.295	2077.59
1001.59	2090.02
1001.885	2066.29
1002.18	2048.89
1002.475	2016.35
1002.77	2027.87
1003.065	2011.15
1003.359	2024.25
1003.654	2010.24
1003.949	2000.53
1004.243	2003.24
1004.538	1942.22
1004.832	1965.27
1005.127	1929.12
1005.421	1938.38
1005.715	1920.98
1006.009	1949.23
1006.304	1928.89
1006.598	1916.01
1006.892	1878.72
1007.186	1859.51
1007.48	1858.38
1007.773	1847.31
1008.067	1864.26
1008.361	1822
1008.655	1824.71
1008.948	1820.42
1009.242	1830.81
1009.535	1749.23
1009.829	1813.86
1010.122	1777.03
1010.415	1782.68
1010.708	1744.71
1011.001	1746.07
1011.295	1716.47
1011.588	1717.82
1011.881	1705.39
1012.173	1709.69
1012.466	1697.71
1012.759	1685.73
1013.052	1666.3
1013.344	1648.67
1013.637	1629.46
1013.93	1646.19
1014.222	1640.76
1014.514	1644.83
1014.807	1602.8
1015.099	1599.86
1015.391	1610.71
1015.683	1585.17
1015.976	1560.54
1016.268	1569.8
1016.56	1555.57
1016.851	1561.89
1017.143	1535.68
1017.435	1530.03
1017.727	1518.73
1018.018	1500.2
1018.31	1517.6
1018.602	1494.55
1018.893	1478.05
1019.185	1497.94
1019.476	1457.49
1019.767	1455
1020.058	1448.22
1020.35	1414.78
1020.641	1454.1
1020.932	1405.51
1021.223	1398.73
1021.514	1366.87
1021.804	1372.29
1022.095	1400.99
1022.386	1367.1
1022.677	1365.06
1022.967	1332.52
1023.258	1357.61
1023.548	1349.7
1023.839	1346.08
1024.129	1337.95
1024.419	1332.07
1024.709	1325.74
1025	1275.12
1025.29	1275.8
1025.58	1268.79
1025.87	1247.33
1026.16	1274.44
1026.449	1244.16
1026.739	1264.73
1027.029	1240.55
1027.319	1221.79
1027.608	1226.31
1027.898	1239.64
1028.187	1203.71
1028.477	1212.07
1028.766	1191.06
1029.055	1174.11
1029.344	1198.74
1029.634	1183.15
1029.923	1154.22
1030.212	1146.99
1030.501	1149.93
1030.79	1144.28
1031.078	1124.39
1031.367	1103.6
1031.656	1133.66
1031.945	1111.28
1032.233	1113.77
1032.522	1101.34
1032.81	1088.91
1033.099	1091.17
1033.387	1076.93
1033.675	1078.06
1033.963	1057.5
1034.251	1041.68
1034.54	1047.11
1034.828	1015.69
1035.116	1028.8
1035.403	1035.13
1035.691	1031.51
1035.979	1049.59
1036.267	1007.33
1036.554	1006.65
1036.842	989.48
1037.129	981.12
1037.417	982.47
1037.704	980.44
1037.992	969.59
1038.279	976.15
1038.566	950.16
1038.853	950.16
1039.14	950.16
