Data from hue_00_FLMS001491_91.txt Node
Date: Mon Feb 06 15:30:41 GMT 2017
User: dcchb
Spectrometer: FLMS00149
Trigger mode: 0
Integration Time (sec): 2.000000E-2
Scans to average: 10
Electric dark correction enabled: true
Nonlinearity correction enabled: false
Boxcar width: 0
XAxis mode: Wavelengths
Number of Pixels in Spectrum: 2048
>>>>>Begin Spectral Data<<<<<
341.393	-2.3
341.776	-2.3
342.16	-2.3
342.543	-60.38
342.927	-59.7
343.31	-68.97
343.693	-73.03
344.077	-71.68
344.46	-54.05
344.843	-47.27
345.226	-50.89
345.61	-38.69
345.993	-20.38
346.376	-12.47
346.759	0.64
347.142	26.62
347.525	44.48
347.908	59.84
348.291	89.45
348.674	93.97
349.057	122.44
349.44	110.69
349.823	135.32
350.206	178.71
350.588	180.74
350.971	205.15
351.354	209.44
351.737	268.2
352.119	241.99
352.502	256.22
352.884	268.65
353.267	286.73
353.65	274.53
354.032	266.39
354.414	302.32
354.797	317.46
355.179	320.18
355.562	313.85
355.944	334.19
356.326	327.86
356.709	336.9
357.091	319.05
357.473	338.93
357.855	341.42
358.238	346.16
358.62	329.89
359.002	334.19
359.384	335.77
359.766	337.8
360.148	324.92
360.53	337.58
360.912	316.33
361.294	332.83
361.676	335.09
362.057	324.47
362.439	331.47
362.821	340.74
363.203	316.56
363.584	313.85
363.966	329.44
364.348	309.78
364.729	330.12
365.111	318.82
365.493	295.09
365.874	314.53
366.256	307.07
366.637	302.1
367.019	314.3
367.4	322.89
367.781	298.03
368.163	301.87
368.544	285.15
368.925	309.78
369.306	288.76
369.688	310.91
370.069	323.11
370.45	334.19
370.831	305.26
371.212	303.68
371.593	288.31
371.974	296.22
372.355	298.03
372.736	303.45
373.117	300.74
373.498	304.13
373.879	299.61
374.26	319.05
374.641	319.72
375.021	289.67
375.402	324.02
375.783	327.86
376.163	340.97
376.544	321.76
376.925	322.66
377.305	328.76
377.686	333.28
378.066	330.57
378.447	306.84
378.827	334.86
379.208	339.38
379.588	333.73
379.968	301.42
380.349	331.47
380.729	319.5
381.109	335.32
381.489	320.18
381.87	312.27
382.25	329.44
382.63	331.25
383.01	339.84
383.39	329.21
383.77	348.65
384.15	320.63
384.53	299.16
384.91	329.67
385.29	334.86
385.67	339.61
386.049	350.68
386.429	355.65
386.809	359.27
387.189	333.51
387.568	347.97
387.948	331.25
388.328	347.75
388.707	333.96
389.087	332.6
389.466	341.42
389.846	355.88
390.225	331.47
390.605	341.87
390.984	333.51
391.363	360.4
391.743	360.17
392.122	354.3
392.501	368.31
392.881	364.69
393.26	354.52
393.639	363.34
394.018	379.16
394.397	373.73
394.776	353.17
395.155	364.69
395.534	355.88
395.913	370.8
396.292	372.15
396.671	370.57
397.05	379.83
397.429	384.81
397.808	384.81
398.186	376.44
398.565	362.43
398.944	368.08
399.323	380.06
399.701	386.16
400.08	382.77
400.458	384.35
400.837	393.17
401.215	396.56
401.594	371.93
401.972	381.19
402.351	387.07
402.729	388.2
403.107	376.44
403.486	404.69
403.864	399.5
404.242	407.4
404.62	408.99
404.999	385.94
405.377	394.75
405.755	405.14
406.133	395.88
406.511	415.31
406.889	410.34
407.267	421.87
407.645	425.48
408.023	423.9
408.401	393.62
408.779	403.56
409.156	415.31
409.534	420.29
409.912	427.97
410.29	451.02
410.667	402.43
411.045	425.48
411.422	454.63
411.8	444.92
412.178	439.95
412.555	418.48
412.933	437.46
413.31	451.25
413.687	461.19
414.065	470.45
414.442	468.87
414.819	472.71
415.197	451.02
415.574	462.77
415.951	486.27
416.328	455.31
416.705	490.34
417.082	489.44
417.46	492.37
417.837	521.3
418.214	486.95
418.591	472.04
418.967	521.07
419.344	493.5
419.721	472.04
420.098	487.85
420.475	503.22
420.852	510.45
421.228	538.25
421.605	507.74
421.982	524.69
422.358	520.4
422.735	538.02
423.111	516.1
423.488	534.41
423.864	517.91
424.241	525.82
424.617	526.05
424.994	539.38
425.37	561.07
425.746	563.78
426.123	562.65
426.499	541.41
426.875	548.42
427.251	568.53
427.627	567.17
428.003	559.72
428.379	568.98
428.756	577.12
429.132	568.3
429.507	579.38
429.883	586.83
430.259	610.11
430.635	602.43
431.011	599.94
431.387	615.31
431.763	597.23
432.138	597.91
432.514	617.34
432.89	618.25
433.265	636.33
433.641	632.94
434.016	632.71
434.392	662.99
434.767	673.84
435.143	659.15
435.518	660.96
435.894	660.05
436.269	657.79
436.644	678.13
437.02	684.46
437.395	670.45
437.77	709.32
438.145	685.59
438.52	701.86
438.895	701.63
439.271	701.63
439.646	736.66
440.021	716.32
440.395	742.54
440.77	728.98
441.145	739.83
441.52	752.71
441.895	734.85
442.27	755.87
442.645	751.8
443.019	761.97
443.394	765.59
443.769	767.85
444.143	772.82
444.518	778.47
444.892	763.1
445.267	779.82
445.641	743.67
446.016	791.12
446.39	785.93
446.764	780.95
447.139	772.59
447.513	810.33
447.887	800.16
448.262	799.48
448.636	802.65
449.01	803.78
449.384	818.69
449.758	822.53
450.132	833.16
450.506	824.79
450.88	863.89
451.254	815.98
451.628	843.33
452.002	851.01
452.376	855.75
452.75	836.09
453.123	839.26
453.497	880.39
453.871	867.96
454.244	905.47
454.618	882.19
454.992	908.41
455.365	891.01
455.739	903.21
456.112	940.95
456.486	922.87
456.859	934.85
457.232	954.73
457.606	918.35
457.979	961.51
458.352	945.24
458.725	965.81
459.099	949.54
459.472	1003.1
459.845	1018.01
460.218	1014.62
460.591	1008.52
460.964	1033.83
461.337	1030.21
461.71	1067.5
462.083	1070.21
462.456	1078.8
462.829	1065.47
463.201	1113.15
463.574	1094.84
463.947	1089.65
464.32	1105.24
464.692	1142.98
465.065	1145.92
465.438	1128.97
465.81	1173.94
466.183	1176.2
466.555	1211
466.928	1216.42
467.3	1205.35
467.672	1231.34
468.045	1242.86
468.417	1247.16
468.789	1283.31
469.161	1272.47
469.534	1279.92
469.906	1326.02
470.278	1325.57
470.65	1343.65
471.022	1379.36
471.394	1407.6
471.766	1410.54
472.138	1409.64
472.51	1447.6
472.882	1456.19
473.253	1489.64
473.625	1516.75
473.997	1502.74
474.369	1517.88
474.74	1534.38
475.112	1575.74
475.484	1607.15
475.855	1625
476.227	1668.16
476.598	1703.42
476.97	1702.74
477.341	1732.34
477.713	1779.35
478.084	1780.25
478.455	1830.87
478.827	1861.83
479.198	1893.92
479.569	1910.42
479.94	1910.64
480.311	1959.45
480.682	1974.59
481.053	2039.45
481.424	2085.55
481.795	2097.3
482.166	2133.46
482.537	2148.6
482.908	2234.25
483.279	2238.54
483.65	2265.21
484.021	2324.87
484.391	2334.36
484.762	2366.22
485.133	2443.51
485.503	2430.4
485.874	2505.88
486.244	2517.41
486.615	2583.62
486.985	2620.91
487.356	2628.14
487.726	2649.61
488.097	2702.94
488.467	2746.78
488.837	2799.66
489.207	2824.52
489.578	2844.85
489.948	2917.85
490.318	2968.69
490.688	2965.3
491.058	3034.23
491.428	3030.84
491.798	3070.39
492.168	3116.71
492.538	3144.06
492.908	3198.97
493.278	3233.32
493.648	3264.5
494.017	3291.4
494.387	3307.44
494.757	3355.58
495.126	3409.59
495.496	3398.96
495.866	3427.44
496.235	3514.89
496.605	3512.63
496.974	3541.33
497.344	3567.1
497.713	3548.56
498.082	3600.77
498.452	3672.86
498.821	3645.96
499.19	3678.5
499.559	3712.4
499.928	3727.77
500.298	3786.98
500.667	3793.3
501.036	3798.28
501.405	3860.42
501.774	3833.08
502.143	3905.84
502.512	3906.52
502.88	3972.28
503.249	3933.87
503.618	3923.02
503.987	3991.49
504.356	4021.77
504.724	4053.64
505.093	4028.1
505.462	4118.27
505.83	4074.88
506.199	4054.99
506.567	4123.92
506.936	4177.02
507.304	4189.9
507.672	4181.99
508.041	4242.33
508.409	4269
508.777	4250.02
509.145	4277.13
509.514	4312.16
509.882	4301.09
510.25	4325.95
510.618	4368.88
510.986	4395.55
511.354	4408.66
511.722	4412.05
512.09	4413.4
512.458	4466.73
512.826	4522.55
513.193	4541.53
513.561	4513.29
513.929	4544.24
514.297	4574.75
514.664	4644.81
515.032	4599.38
515.4	4608.65
515.767	4664.24
516.135	4658.82
516.502	4664.02
516.869	4703.56
517.237	4733.17
517.604	4672.83
517.972	4691.13
518.339	4764.35
518.706	4824.69
519.073	4788.31
519.44	4776.56
519.808	4819.27
520.175	4850.9
520.542	4841.41
520.909	4909.21
521.276	4904.24
521.643	4945.14
522.009	4959.15
522.376	5000.96
522.743	5020.16
523.11	5029.66
523.477	5074.85
523.843	5080.73
524.21	5146.49
524.577	5140.61
524.943	5174.74
525.31	5205.24
525.676	5289.31
526.043	5264
526.409	5252.47
526.776	5320.72
527.142	5400.72
527.508	5389.42
527.874	5411.11
528.241	5412.24
528.607	5472.81
528.973	5450.89
529.339	5435.07
529.705	5519.36
530.071	5585.35
530.437	5641.17
530.803	5653.37
531.169	5658.34
531.535	5678.9
531.901	5692.69
532.267	5711.9
532.632	5735.85
532.998	5753.7
533.364	5835.51
533.73	5849.97
534.095	5844.78
534.461	5869.63
534.826	5871.89
535.192	5922.97
535.557	5959.35
535.923	5922.29
536.288	5988.95
536.653	6011.1
537.019	5964.32
537.384	6025.11
537.749	6119.34
538.114	6062.62
538.479	6042.96
538.845	6139.91
539.21	6127.25
539.575	6182.85
539.94	6176.29
540.305	6244.31
540.67	6227.36
541.034	6241.38
541.399	6305.33
541.764	6343.75
542.129	6319.79
542.494	6425.1
542.858	6394.82
543.223	6381.03
543.587	6414.7
543.952	6454.48
544.316	6445.66
544.681	6453.12
545.045	6483.63
545.41	6579.45
545.774	6530.86
546.138	6586.9
546.503	6586.9
546.867	6652.44
547.231	6700.12
547.595	6682.72
547.959	6687.69
548.324	6751.64
548.688	6753.23
549.052	6802.26
549.416	6857.86
549.779	6816.5
550.143	6825.54
550.507	6923.84
550.871	6864.64
551.235	6924.07
551.599	6945.54
551.962	6970.85
552.326	6974.92
552.689	7017.4
553.053	6989.15
553.417	7025.54
553.78	7047.68
554.143	7086.78
554.507	7141.01
554.87	7130.39
555.234	7193.44
555.597	7139.43
555.96	7207.68
556.323	7209.03
556.686	7223.95
557.05	7239.54
557.413	7275.92
557.776	7305.3
558.139	7356.15
558.502	7309.37
558.865	7362.02
559.228	7416.94
559.59	7492.42
559.953	7535.35
560.316	7501.23
560.679	7534.9
561.041	7574.45
561.404	7617.61
561.767	7627.1
562.129	7711.17
562.492	7667.1
562.854	7663.26
563.217	7674.56
563.579	7668.91
563.941	7786.65
564.304	7798.62
564.666	7804.72
565.028	7828.9
565.39	7833.2
565.753	7895.57
566.115	7964.72
566.477	7939.86
566.839	7969.47
567.201	8013.76
567.563	8037.94
567.925	8056.24
568.287	8093.76
568.648	8150.48
569.01	8185.96
569.372	8186.41
569.734	8240.87
570.095	8256.92
570.457	8267.76
570.819	8308.67
571.18	8343.47
571.542	8318.61
571.903	8456.91
572.265	8471.15
572.626	8528.09
572.987	8491.49
573.349	8631.6
573.71	8680.63
574.071	8712.95
574.432	8728.54
574.794	8827.75
575.155	8834.98
575.516	8871.81
575.877	8916.56
576.238	8996.56
576.599	9033.17
576.96	9173.73
577.32	9204.91
577.681	9262.31
578.042	9318.36
578.403	9364.01
578.763	9430.44
579.124	9502.08
579.485	9688.74
579.845	9741.4
580.206	9808.97
580.566	9851
580.927	9960.37
581.287	10171.22
581.648	10159.24
582.008	10361.95
582.368	10468.38
582.728	10553.35
583.089	10661.15
583.449	10877.64
583.809	10994.92
584.169	11088.03
584.529	11181.81
584.889	11424.97
585.249	11565.98
585.609	11692.53
585.969	11926.2
586.329	12060.88
586.688	12323.02
587.048	12444.83
587.408	12548.33
587.768	12764.59
588.127	12924.14
588.487	13140.18
588.846	13567.06
589.206	13630.79
589.565	13927.05
589.925	14109.87
590.284	14320.94
590.643	14539.91
591.003	14810.19
591.362	15049.05
591.721	15324.53
592.08	15514.58
592.44	15829.82
592.799	16004.51
593.158	16274.78
593.517	16453.08
593.876	16750.93
594.235	17000.41
594.593	17288.32
594.952	17532.15
595.311	17744.58
595.67	18025.92
596.029	18365.58
596.387	18738
596.746	19039.46
597.104	19004.2
597.463	19438.32
597.822	19697.29
598.18	19958.98
598.538	20173.66
598.897	20639.41
599.255	20775.23
599.613	21285.95
599.972	21333.18
600.33	21588.54
600.688	21856.56
601.046	22105.37
601.404	22459.71
601.762	22686.37
602.12	22958
602.478	23179.69
602.836	23395.5
603.194	23558.21
603.552	23868.48
603.91	23952.1
604.268	24449.26
604.625	24544.85
604.983	24932.86
605.341	24961.56
605.698	25343.47
606.056	25604.26
606.413	25799.28
606.771	26018.71
607.128	26260.74
607.485	26397.23
607.843	26619.6
608.2	27009.42
608.557	27274.72
608.914	27333.48
609.272	27607.37
609.629	27878.32
609.986	28123.06
610.343	28267.01
610.7	28465.42
611.057	28673.78
611.414	28878.07
611.771	29036.93
612.127	29271.96
612.484	29424.27
612.841	29654.55
613.198	29792.17
613.554	29869.23
613.911	30150.58
614.267	30273.51
614.624	30357.8
614.98	30562.32
615.337	30816.55
615.693	30781.52
616.05	30885.47
616.406	31315.74
616.762	31317.55
617.118	31486.81
617.475	31495.63
617.831	31828.95
618.187	31897.88
618.543	32093.35
618.899	32353.46
619.255	32471.65
619.611	32485.88
619.967	32647.69
620.323	32836.61
620.678	32800.9
621.034	32814.24
621.39	32939.2
621.746	32988.92
622.101	33381
622.457	33221.91
622.812	33479.53
623.168	33510.49
623.523	33716.59
623.879	33790.48
624.234	33638.85
624.589	33851.5
624.945	33917.71
625.3	34022.79
625.655	34173.52
626.01	34230.47
626.365	34213.75
626.72	34335.78
627.075	34330.81
627.43	34454.64
627.785	34393.86
628.14	34661.19
628.495	34632.04
628.85	34444.7
629.205	34480.63
629.559	34817.8
629.914	34693.96
630.269	34792.26
630.623	34714.53
630.978	34745.26
631.332	34920.17
631.687	35137.79
632.041	34786.16
632.396	35058.02
632.75	34748.87
633.104	34925.14
633.459	34796.78
633.813	34782.09
634.167	34928.3
634.521	34878.81
634.875	35014.4
635.229	34895.99
635.583	34876.78
635.937	34988.64
636.291	34956.78
636.645	34925.14
636.999	35075.19
637.352	35080.84
637.706	34857.35
638.06	34968.53
638.413	34996.55
638.767	34777.8
639.121	34983.67
639.474	34955.87
639.828	34890.79
640.181	34849.44
640.534	34948.19
640.888	34835.2
641.241	34640.63
641.594	34813.05
641.947	34950.23
642.301	34888.08
642.654	34855.31
643.007	34894.41
643.36	34846.95
643.713	34787.97
644.066	35025.93
644.419	34826.39
644.771	34479.95
645.124	34147.76
645.477	34177.36
645.83	34152.05
646.182	33969.69
646.535	33859.63
646.888	34026.18
647.24	33765.62
647.593	33909.8
647.945	33798.16
648.298	33729.92
648.65	33636.36
649.002	33589.36
649.355	33695.57
649.707	33621.22
650.059	33837.71
650.411	34003.58
650.763	34216.01
651.115	34539.39
651.467	34399.73
651.819	34294.88
652.171	34425.27
652.523	34353.86
652.875	34374.87
653.227	34152.05
653.578	34371.94
653.93	34384.82
654.282	34204.03
654.633	34171.26
654.985	34185.27
655.337	34283.58
655.688	34379.62
656.039	34281.77
656.391	34192.73
656.742	34118.61
657.094	34188.21
657.445	34239.96
657.796	34147.31
658.147	34105.73
658.498	33989.35
658.849	34157.7
659.2	34110.25
659.551	34121.09
659.902	34126.07
660.253	34053.3
660.604	34093.3
660.955	34015.33
661.306	34094.65
661.656	34044.03
662.007	34106.41
662.358	34027.31
662.708	34126.97
663.059	34024.15
663.409	33899.86
663.76	34165.84
664.11	34108.67
664.461	34030.7
664.811	34113.64
665.161	34117.48
665.511	33873.42
665.862	34092.17
666.212	34122
666.562	34127.2
666.912	34015.11
667.262	33883.81
667.612	33816.7
667.962	33869.12
668.312	33989.12
668.662	34036.35
669.011	33840.88
669.361	33929.23
669.711	33822.8
670.06	33808.11
670.41	33846.75
670.76	33811.27
671.109	33831.61
671.459	33794.1
671.808	33795.45
672.157	33873.42
672.507	33708.9
672.856	33745.96
673.205	33721.33
673.554	33792.06
673.904	33713.2
674.253	33789.35
674.602	33722.46
674.951	33212.87
675.3	33053.33
675.649	33717.26
675.998	33653.99
676.346	33579.87
676.695	33718.85
677.044	33478.85
677.393	33537.61
677.741	33677.26
678.09	33531.28
678.438	33398.85
678.787	33559.98
679.135	33496.03
679.484	33236.82
679.832	33367.22
680.181	33127.22
680.529	33446.31
680.877	33143.04
681.225	33198.86
681.573	33349.59
681.922	33148.01
682.27	32999.99
682.618	33086.77
682.966	33035.47
683.314	33072.53
683.661	32842.26
684.009	32851.3
684.357	32667.12
684.705	32792.32
685.053	32816.27
685.4	32709.38
685.748	32606.33
686.095	32484.3
686.443	32395.49
686.79	32298.54
687.138	32518.88
687.485	32475.94
687.832	32308.94
688.18	32306.9
688.527	32125.44
688.874	32092.22
689.221	32118.66
689.568	31955.05
689.915	31867.82
690.262	31920.93
690.609	31789.63
690.956	31596.87
691.303	31655.4
691.65	31522.29
691.997	31541.5
692.344	31272.36
692.69	31341.96
693.037	31360.94
693.383	31108.29
693.73	31280.94
694.077	31026.94
694.423	31044.79
694.769	30814.51
695.116	30757.79
695.462	30847.28
695.808	30599.15
696.155	30748.08
696.501	30606.61
696.847	30615.65
697.193	30405.26
697.539	30443
697.885	30175.89
698.231	30099.28
698.577	30036.23
698.923	29997.81
699.269	29966.63
699.614	29880.3
699.96	29784.49
700.306	29843.92
700.651	29645.28
700.997	29637.82
701.342	29548.33
701.688	29457.49
702.033	29404.83
702.379	29390.6
702.724	29260.66
703.069	29326.87
703.415	28979.53
703.76	29044.62
704.105	29137.72
704.45	29041.45
704.795	28835.81
705.14	28821.12
705.485	28707.68
705.83	28644.4
706.175	28748.35
706.52	28577.06
706.865	28530.28
707.209	28495.25
707.554	28238.54
707.899	28397.86
708.243	28243.51
708.588	28189.95
708.932	27876.96
709.277	28010.97
709.621	27988.83
709.966	27830.86
710.31	27822.05
710.654	27628.61
710.998	27690.53
711.342	27698.89
711.687	27618.67
712.031	27521.72
712.375	27310.65
712.719	27388.16
713.063	27326.24
713.407	27303.19
713.75	27139.81
714.094	27226.59
714.438	27091.22
714.782	27125.8
715.125	27045.35
715.469	27034.05
715.812	26912.47
716.156	26659.14
716.499	26784.79
716.843	26838.12
717.186	26611.01
717.53	26811.68
717.873	26736.66
718.216	26562.2
718.559	26579.6
718.902	26236.56
719.246	26412.6
719.589	26388.42
719.932	26348.87
720.275	26219.16
720.617	26244.24
720.96	26101.42
721.303	26152.49
721.646	26222.09
721.989	25911.82
722.331	26117.01
722.674	26039.27
723.016	25950.46
723.359	25917.69
723.701	25928.77
724.044	25886.28
724.386	25591.6
724.729	25802.22
725.071	25739.39
725.413	25736.23
725.755	25682.22
726.097	25564.48
726.439	25511.6
726.782	25443.13
727.124	25596.8
727.465	25414.43
727.807	25346.41
728.149	25238.84
728.491	25194.32
728.833	25248.56
729.175	25212.18
729.516	25257.6
729.858	25106.19
730.199	25122.01
730.541	25064.61
730.882	24965.85
731.224	24992.75
731.565	24951.84
731.906	24988.68
732.248	24986.19
732.589	24748.91
732.93	24752.53
733.271	24783.03
733.612	24924.73
733.953	24760.21
734.294	24666.2
734.635	24675.92
734.976	24659.87
735.317	24551.4
735.658	24545.98
735.999	24528.35
736.339	24445.87
736.68	24525.64
737.021	24274.8
737.361	24205.2
737.702	24445.87
738.042	24343.05
738.383	24383.05
738.723	24385.98
739.063	24188.25
739.404	24221.69
739.744	24212.65
740.084	24196.16
740.424	24117.29
740.764	24096.95
741.104	24087.23
741.444	23931.76
741.784	23861.93
742.124	23988.48
742.464	23974.69
742.804	23899.67
743.143	23912.1
743.483	23771.76
743.823	23738.99
744.162	23686.34
744.502	23807.47
744.841	23663.06
745.181	23737.64
745.52	23569.73
745.86	23694.25
746.199	23542.84
746.538	23493.58
746.877	23557.53
747.216	23587.59
747.556	23432.56
747.895	23501.49
748.234	23301.72
748.573	23315.28
748.911	23192.12
749.25	23327.93
749.589	23150.08
749.928	23168.39
750.267	23244.54
750.605	23010.65
750.944	23106.02
751.283	23033.48
751.621	22974.72
751.96	22817.21
752.298	22938.79
752.636	22863.99
752.975	22766.14
753.313	22675.75
753.651	22785.57
753.989	22581.06
754.327	22559.82
754.666	22560.95
755.004	22633.71
755.342	22609.76
755.679	22524.56
756.017	22382.65
756.355	22452.7
756.693	22258.13
757.031	22332.93
757.368	22165.25
757.706	22204.57
758.044	22173.39
758.381	22114.4
758.719	21898.36
759.056	22086.61
759.394	21902.88
759.731	21835.77
760.068	21788.99
760.405	21681.42
760.743	21665.6
761.08	21740.85
761.417	21538.37
761.754	21479.17
762.091	21508.77
762.428	21454.31
762.765	21360.75
763.102	21401.88
763.438	21230.59
763.775	21152.4
764.112	21020.87
764.449	21165.73
764.785	20963.7
765.122	20901.55
765.458	20874.21
765.795	20797.15
766.131	20770.03
766.467	20684.39
766.804	20583.6
767.14	20443.71
767.476	20471.28
767.812	20417.27
768.148	20418.86
768.485	20353.32
768.821	20218.64
769.157	20240.78
769.492	20129.15
769.828	20070.16
770.164	19802.6
770.5	19907.23
770.836	19831.07
771.171	19766.9
771.507	19614.13
771.842	19470.63
772.178	19581.36
772.513	19551.31
772.849	19414.36
773.184	19379.79
773.519	19353.8
773.855	19281.03
774.19	19220.24
774.525	19138.66
774.86	19144.31
775.195	19012.57
775.53	19034.26
775.865	18826.36
776.2	18796.3
776.535	18679.92
776.87	18685.79
777.205	18705.91
777.539	18416.2
777.874	18514.5
778.209	18354.05
778.543	18410.1
778.878	18243.55
779.212	18213.72
779.547	17991.35
779.881	18159.71
780.215	17919.49
780.55	18094.17
780.884	17885.82
781.218	17881.3
781.552	17743.45
781.886	17765.14
782.22	17621.19
782.554	17520.85
782.888	17391.36
783.222	17313.4
783.556	17332.38
783.889	17172.61
784.223	17132.39
784.557	17084.48
784.89	17130.81
785.224	16963.81
785.557	16985.73
785.891	16912.06
786.224	16783.7
786.558	16845.62
786.891	16685.17
787.224	16590.71
787.557	16657.37
787.891	16526.98
788.224	16537.6
788.557	16540.09
788.89	16466.64
789.223	16364.05
789.556	16361.56
789.888	16220.1
790.221	16238.85
790.554	16108.23
790.887	16065.3
791.219	15969.48
791.552	15908.69
791.884	15856.26
792.217	15806.1
792.549	15814.91
792.882	15672.31
793.214	15609.72
793.546	15576.95
793.879	15481.81
794.211	15517.52
794.543	15472.32
794.875	15397.07
795.207	15452.88
795.539	15314.36
795.871	15285.43
796.203	15133.57
796.535	15099
796.867	15067.36
797.198	15020.58
797.53	15066.45
797.862	14971.77
798.193	14922.5
798.525	14840.47
798.856	14904.88
799.188	14729.97
799.519	14641.38
799.85	14601.16
800.182	14644.77
800.513	14583.53
800.844	14482.74
801.175	14607.94
801.506	14527.71
801.837	14379.69
802.168	14360.26
802.499	14311.67
802.83	14277.55
803.161	14264.22
803.491	14163.2
803.822	14209.3
804.153	14148.74
804.483	14023.32
804.814	13978.12
805.145	13972.02
805.475	13913.04
805.805	13838.46
806.136	13925.24
806.466	13849.31
806.796	13840.95
807.126	13732.7
807.457	13646.15
807.787	13676.66
808.117	13556.89
808.447	13604.57
808.777	13624.01
809.107	13606.61
809.436	13442.99
809.766	13438.47
810.096	13389.21
810.426	13382.2
810.755	13388.53
811.085	13310.57
811.414	13345.6
811.744	13174.75
812.073	13111.93
812.403	13244.58
812.732	13079.16
813.061	13075.55
813.39	13049.56
813.719	12997.81
814.049	13013.4
814.378	12996.9
814.707	12935.21
815.036	12920.3
815.365	12835.55
815.693	12776.34
816.022	12692.51
816.351	12715.78
816.68	12740.87
817.008	12705.61
817.337	12547.65
817.665	12563.7
817.994	12542.45
818.322	12542.68
818.651	12429.69
818.979	12443.25
819.307	12558.27
819.636	12460.65
819.964	12359.41
820.292	12437.14
820.62	12407.77
820.948	12267.43
821.276	12446.64
821.604	12295.68
821.932	12376.58
822.259	12354.21
822.587	12278.73
822.915	12231.5
823.243	12267.43
823.57	12232.18
823.898	12339.97
824.225	12220.88
824.553	12283.7
824.88	12312.63
825.207	12297.71
825.535	12186.98
825.862	12290.26
826.189	12228.34
826.516	12299.3
826.843	12401.44
827.17	12273.99
827.497	12312.63
827.824	12251.61
828.151	12280.76
828.478	12253.87
828.805	12304.04
829.131	12265.85
829.458	12268.56
829.785	12235.57
830.111	12288.22
830.438	12237.15
830.764	12206.87
831.09	12273.31
831.417	12174.33
831.743	12257.49
832.069	12199.41
832.395	12120.09
832.722	12219.52
833.048	12131.16
833.374	12233.31
833.7	12118.96
834.026	12172.52
834.351	12106.53
834.677	12113.99
835.003	12188.11
835.329	12064.5
835.654	12116.93
835.98	12079.41
836.306	12092.07
836.631	11983.82
836.956	12023.6
837.282	12058.85
837.607	11949.02
837.932	11931.4
838.258	11973.65
838.583	11946.54
838.908	11831.74
839.233	11862.24
839.558	11812.3
839.883	11808.69
840.208	11736.82
840.533	11713.55
840.858	11769.14
841.182	11778.63
841.507	11722.14
841.832	11671.29
842.156	11685.98
842.481	11679.88
842.805	11625.41
843.13	11508.81
843.454	11547
843.778	11572.99
844.103	11513.78
844.427	11481.69
844.751	11484.18
845.075	11431.3
845.399	11378.64
845.723	11337.06
846.047	11343.84
846.371	11303.16
846.695	11230.62
847.019	11158.31
847.343	11138.2
847.666	11040.12
847.99	11021.14
848.313	11027.01
848.637	10930.07
848.96	10895.04
849.284	10942.72
849.607	10787.47
849.931	10762.61
850.254	10774.59
850.577	10642.16
850.9	10561.26
851.223	10611.88
851.546	10506.35
851.869	10462.06
852.192	10463.41
852.515	10454.15
852.838	10382.96
853.161	10371.66
853.483	10343.41
853.806	10336.41
854.129	10244.21
854.451	10212.8
854.774	10167.83
855.096	10133.93
855.419	10117.43
855.741	10122.63
856.063	9991.33
856.385	9969.86
856.708	9986.59
857.03	9943.42
857.352	9886.03
857.674	9957.21
857.996	9844.67
858.318	9844.44
858.64	9849.19
858.961	9820.72
859.283	9767.38
859.605	9745.69
859.926	9730.55
860.248	9647.84
860.57	9643.77
860.891	9659.59
861.212	9678.57
861.534	9588.18
861.855	9534.4
862.176	9552.93
862.498	9528.97
862.819	9552.47
863.14	9517
863.461	9445.13
863.782	9429.09
864.103	9413.72
864.424	9415.3
864.745	9471.12
865.065	9357.9
865.386	9379.82
865.707	9356.32
866.027	9379.37
866.348	9303.22
866.668	9254.18
866.989	9306.38
867.309	9187.06
867.63	9214.63
867.95	9237
868.27	9185.48
868.59	9214.86
868.91	9191.35
869.23	9157.91
869.55	9138.47
869.87	9213.5
870.19	9110.23
870.51	9112.49
870.83	9154.29
871.15	9065.48
871.469	9041.3
871.789	9060.28
872.109	9040.62
872.428	9036.56
872.748	9086.05
873.067	8963.79
873.386	8979.16
873.706	8980.74
874.025	8939.84
874.344	8968.08
874.663	8913.62
874.982	8879.72
875.301	8893.74
875.62	8831.36
875.939	8876.79
876.258	8871.36
876.577	8786.39
876.896	8808.54
877.214	8745.94
877.533	8767.64
877.852	8785.04
878.17	8801.76
878.489	8740.97
878.807	8724.02
879.125	8747.07
879.444	8719.28
879.762	8684.25
880.08	8685.15
880.398	8643.57
880.716	8608.32
881.034	8571.71
881.352	8629.34
881.67	8482.9
881.988	8554.08
882.306	8559.28
882.624	8519.73
882.941	8483.8
883.259	8486.06
883.577	8451.71
883.894	8449.23
884.212	8428.66
884.529	8442.22
884.846	8338.5
885.164	8370.81
885.481	8321.77
885.798	8411.26
886.115	8259.4
886.432	8369.23
886.75	8267.99
887.067	8244.49
887.383	8186.41
887.7	8173.98
888.017	8170.82
888.334	8201.78
888.651	8118.16
888.967	8159.52
889.284	8171.27
889.6	8057.15
889.917	7990.26
890.233	7986.87
890.55	8002.91
890.866	7968.11
891.182	7968.79
891.498	7914.55
891.815	7899.18
892.131	7952.52
892.447	7898.06
892.763	7791.62
893.079	7849.69
893.395	7827.32
893.71	7767.66
894.026	7799.75
894.342	7710.94
894.657	7679.08
894.973	7679.98
895.289	7632.53
895.604	7686.08
895.92	7594.56
896.235	7614.67
896.55	7531.74
896.865	7531.51
897.181	7513.21
897.496	7477.05
897.811	7543.94
898.126	7431.85
898.441	7403.15
898.756	7412.19
899.071	7336.94
899.386	7387.79
899.7	7329.26
900.015	7275.7
900.33	7232.76
900.644	7223.95
900.959	7178.98
901.273	7161.8
901.588	7175.59
901.902	7095.59
902.216	7122.48
902.531	7114.35
902.845	7058.98
903.159	6998.19
903.473	7004.07
903.787	7000.9
904.101	6950.74
904.415	6929.27
904.729	6939.89
905.042	6922.94
905.356	6812.43
905.67	6837.29
905.984	6792.32
906.297	6804.52
906.611	6724.3
906.924	6762.72
907.237	6731.31
907.551	6716.84
907.864	6637.75
908.177	6646.34
908.491	6635.04
908.804	6554.81
909.117	6537.86
909.43	6501.93
909.743	6462.39
910.056	6470.07
910.368	6414.03
910.681	6420.13
910.994	6367.02
911.307	6346.46
911.619	6322.73
911.932	6320.24
912.244	6273.69
912.557	6286.57
912.869	6223.3
913.181	6209.51
913.494	6230.98
913.806	6179.23
914.118	6191.21
914.43	6126.35
914.742	6168.83
915.054	6059.23
915.366	6034.38
915.678	6032.34
915.99	5984.21
916.302	5974.94
916.613	5888.16
916.925	5896.98
917.236	5937.43
917.548	5869.63
917.859	5884.32
918.171	5794.16
918.482	5795.06
918.794	5779.24
919.105	5806.58
919.416	5696.31
919.727	5735.4
920.038	5667.38
920.349	5647.04
920.66	5635.06
920.971	5632.8
921.282	5603.88
921.593	5566.14
921.903	5531.79
922.214	5504.45
922.525	5505.58
922.835	5461.28
923.146	5412.24
923.456	5439.14
923.767	5391.23
924.077	5387.16
924.387	5372.7
924.697	5360.04
925.008	5342.87
925.318	5309.87
925.628	5295.64
925.938	5255.41
926.248	5229.65
926.558	5224.45
926.867	5219.93
927.177	5144
927.487	5137.22
927.796	5114.85
928.106	5122.08
928.416	5088.19
928.725	5085.93
929.034	5031.92
929.344	5097
929.653	4988.98
929.962	4934.29
930.271	5010.22
930.581	4933.39
930.89	4892.94
931.199	4903.11
931.508	4875.08
931.817	4871.02
932.125	4854.75
932.434	4808.42
932.743	4810.23
933.051	4764.58
933.36	4766.39
933.669	4719.83
933.977	4698.14
934.286	4703.79
934.594	4666.5
934.902	4668.31
935.21	4585.15
935.519	4634.64
935.827	4607.75
936.135	4579.27
936.443	4579.72
936.751	4518.48
937.059	4547.41
937.367	4522.1
937.674	4479.84
937.982	4475.09
938.29	4446.62
938.597	4442.78
938.905	4396.45
939.213	4378.15
939.52	4362.78
939.827	4336.57
940.135	4360.75
940.442	4325.95
940.749	4281.2
941.056	4282.78
941.363	4233.29
941.67	4243.24
941.977	4213.18
942.284	4240.75
942.591	4212.95
942.898	4241.88
943.205	4157.59
943.511	4092.05
943.818	4073.52
944.125	4113.3
944.431	4085.73
944.738	4044.82
945.044	4049.79
945.35	4045.27
945.657	4015.45
945.963	4005.73
946.269	3966.63
946.575	3937.48
946.881	3927.09
947.187	3967.76
947.493	3924.83
947.799	3929.8
948.105	3903.36
948.41	3868.1
948.716	3861.33
949.022	3824.04
949.327	3840.08
949.633	3759.41
949.938	3772.74
950.244	3816.35
950.549	3730.03
950.854	3749.69
951.16	3680.09
951.465	3699.75
951.77	3683.48
952.075	3669.47
952.38	3636.7
952.685	3641.44
952.99	3573.42
953.294	3607.55
953.599	3594.21
953.904	3531.16
954.209	3555.34
954.513	3572.07
954.818	3551.05
955.122	3538.4
955.426	3516.7
955.731	3502.69
956.035	3469.47
956.339	3435.35
956.643	3424.05
956.948	3396.48
957.252	3423.37
957.556	3417.95
957.86	3390.15
958.163	3363.26
958.467	3380.66
958.771	3335.46
959.075	3353.09
959.378	3309.93
959.682	3322.81
959.985	3311.51
960.289	3287.55
960.592	3255.01
960.896	3228.8
961.199	3238.06
961.502	3218.63
961.805	3233.77
962.108	3217.5
962.411	3159.87
962.714	3176.37
963.017	3160.78
963.32	3136.37
963.623	3118.07
963.926	3122.59
964.228	3109.48
964.531	3070.39
964.833	3082.59
965.136	3030.84
965.438	3047.34
965.741	3044.4
966.043	3017.73
966.345	3035.58
966.648	3017.96
966.95	2972.53
967.252	2970.95
967.554	2960.11
967.856	2939.99
968.158	2925.53
968.46	2914.91
968.761	2904.74
969.063	2905.87
969.365	2891.41
969.666	2869.94
969.968	2867.9
970.269	2832.65
970.571	2823.84
970.872	2837.85
971.174	2803.95
971.475	2783.61
971.776	2774.8
972.077	2768.02
972.378	2748.36
972.679	2777.96
972.98	2740
973.281	2725.76
973.582	2735.93
973.883	2677.18
974.183	2699.77
974.484	2658.19
974.785	2686.89
975.085	2657.74
975.386	2638.76
975.686	2594.24
975.986	2596.73
976.287	2593.11
976.587	2596.27
976.887	2597.18
977.187	2578.19
977.487	2575.71
977.787	2573.9
978.087	2586.78
978.387	2512.43
978.687	2521.93
978.987	2494.13
979.286	2512.66
979.586	2503.62
979.885	2493.68
980.185	2460.68
980.484	2436.28
980.784	2463.62
981.083	2405.54
981.382	2426.56
981.682	2385.66
981.981	2409.61
982.28	2377.07
982.579	2393.79
982.878	2380.69
983.177	2340.24
983.475	2359.9
983.774	2358.09
984.073	2377.75
984.372	2326.22
984.67	2301.14
984.969	2310.18
985.267	2300.69
985.566	2291.2
985.864	2234.48
986.162	2256.62
986.461	2253.23
986.759	2297.98
987.057	2241.03
987.355	2226.79
987.653	2179.56
987.951	2204.19
988.249	2191.54
988.547	2169.62
988.844	2177.98
989.142	2172.33
989.44	2154.7
989.737	2120.58
990.035	2163.74
990.332	2148.38
990.63	2107.7
990.927	2101.6
991.224	2100.02
991.521	2088.49
991.819	2091.65
992.116	2097.76
992.413	2041.94
992.71	2057.76
993.006	2041.26
993.303	2058.21
993.6	2021.15
993.897	1982.28
994.193	2021.83
994.49	1998.55
994.787	1978.89
995.083	1987.93
995.379	1966.23
995.676	1947.93
995.972	1958.55
996.268	1931.43
996.565	1956.29
996.861	1950.41
997.157	1945.22
997.453	1911.32
997.749	1908.83
998.044	1885.11
998.34	1862.73
998.636	1868.16
998.932	1855.05
999.227	1861.38
999.523	1850.08
999.818	1853.24
1000.114	1819.34
1000.409	1815.5
1000.704	1796.07
1001	1817.54
1001.295	1791.55
1001.59	1810.76
1001.885	1791.55
1002.18	1784.32
1002.475	1747.03
1002.77	1735.73
1003.065	1729.18
1003.359	1726.24
1003.654	1727.82
1003.949	1730.53
1004.243	1694.6
1004.538	1657.99
1004.832	1699.35
1005.127	1673.81
1005.421	1679.46
1005.715	1659.35
1006.009	1666.13
1006.304	1632.23
1006.598	1615.06
1006.892	1625.23
1007.186	1626.58
1007.48	1597.88
1007.773	1597.88
1008.067	1584.55
1008.361	1575.96
1008.655	1576.19
1008.948	1554.94
1009.242	1530.76
1009.535	1538.22
1009.829	1536.87
1010.122	1530.76
1010.415	1553.59
1010.708	1528.28
1011.001	1495.51
1011.295	1496.19
1011.588	1480.37
1011.881	1474.27
1012.173	1472.46
1012.466	1449.19
1012.759	1446.7
1013.052	1424.78
1013.344	1437.66
1013.637	1426.81
1013.93	1430.65
1014.222	1431.78
1014.514	1427.49
1014.807	1391.11
1015.099	1380.49
1015.391	1389.3
1015.683	1393.14
1015.976	1404.89
1016.268	1379.58
1016.56	1337.55
1016.851	1369.19
1017.143	1328.51
1017.435	1312.24
1017.727	1323.09
1018.018	1310.88
1018.31	1319.47
1018.602	1289.42
1018.893	1313.6
1019.185	1278.79
1019.476	1284.44
1019.767	1250.55
1020.058	1265.24
1020.35	1239.47
1020.641	1221.85
1020.932	1229.3
1021.223	1238.34
1021.514	1212.13
1021.804	1210.77
1022.095	1221.17
1022.386	1211.45
1022.677	1202.19
1022.967	1181.62
1023.258	1181.62
1023.548	1159.48
1023.839	1164.45
1024.129	1138.23
1024.419	1153.6
1024.709	1131.45
1025	1134.39
1025.29	1148.18
1025.58	1136.88
1025.87	1095.75
1026.16	1106.82
1026.449	1130.1
1026.739	1082.87
1027.029	1082.42
1027.319	1093.71
1027.608	1077.9
1027.898	1069.31
1028.187	1074.51
1028.477	1055.07
1028.766	1024.11
1029.055	1046.03
1029.344	1022.3
1029.634	1039.7
1029.923	1019.14
1030.212	1016.65
1030.501	1005.35
1030.79	994.96
1031.078	997.22
1031.367	980.27
1031.656	973.27
1031.945	1000.38
1032.233	971.68
1032.522	958.12
1032.81	969.65
1033.099	961.74
1033.387	914.06
1033.675	959.03
1033.963	931.23
1034.251	920.84
1034.54	922.42
1034.828	903.44
1035.116	914.51
1035.403	915.41
1035.691	911.12
1035.979	888.07
1036.267	879.93
1036.554	889.88
1036.842	868.86
1037.129	863.21
1037.417	865.25
1037.704	869.99
1037.992	867.96
1038.279	852.14
1038.566	840.84
1038.853	840.84
1039.14	840.84
