Data from hue_200_FLMS001491_00059.txt Node
Date: Tue Feb 07 16:43:39 GMT 2017
User: dcchb
Spectrometer: FLMS00149
Trigger mode: 0
Integration Time (sec): 2.000000E-2
Scans to average: 10
Electric dark correction enabled: true
Nonlinearity correction enabled: false
Boxcar width: 0
XAxis mode: Wavelengths
Number of Pixels in Spectrum: 2048
>>>>>Begin Spectral Data<<<<<
341.393	5.65
341.776	5.65
342.16	5.65
342.543	-53.56
342.927	-60.56
343.31	-67.12
343.693	-82.48
344.077	-61.47
344.46	-71.64
344.843	-37.74
345.226	-33.67
345.61	-35.25
345.993	-4.52
346.376	5.2
346.759	9.94
347.142	12.2
347.525	52.2
347.908	31.64
348.291	77.74
348.674	82.26
349.057	122.71
349.44	103.27
349.823	145.08
350.206	152.99
350.588	165.65
350.971	184.63
351.354	218.53
351.737	237.73
352.119	242.03
352.502	269.15
352.884	281.8
353.267	262.82
353.65	278.86
354.032	294.23
354.414	328.13
354.797	298.52
355.179	305.75
355.562	305.3
355.944	330.16
356.326	332.87
356.709	322.48
357.091	326.32
357.473	351.18
357.855	326.32
358.238	340.56
358.62	337.39
359.002	326.55
359.384	330.84
359.766	332.87
360.148	343.49
360.53	339.2
360.912	332.42
361.294	318.18
361.676	341.46
362.057	340.78
362.439	327.22
362.821	334.45
363.203	327.22
363.584	302.82
363.966	312.76
364.348	308.92
364.729	310.73
365.111	307.56
365.493	323.16
365.874	297.39
366.256	315.47
366.637	310.5
367.019	295.59
367.4	328.58
367.781	300.11
368.163	295.36
368.544	277.96
368.925	310.5
369.306	290.39
369.688	295.36
370.069	307.11
370.45	292.42
370.831	321.57
371.212	292.42
371.593	308.01
371.974	287.22
372.355	302.59
372.736	309.14
373.117	315.47
373.498	296.49
373.879	303.27
374.26	309.14
374.641	315.92
375.021	300.33
375.402	308.92
375.783	319.31
376.163	294.46
376.544	299.65
376.925	307.56
377.305	313.44
377.686	327.45
378.066	336.26
378.447	322.25
378.827	312.31
379.208	326.09
379.588	351.63
379.968	324.51
380.349	325.64
380.729	325.42
381.109	316.38
381.489	312.76
381.87	338.97
382.25	335.58
382.63	339.65
383.01	358.63
383.39	331.29
383.77	311.4
384.15	335.36
384.53	324.29
384.91	341.69
385.29	359.99
385.67	339.2
386.049	353.44
386.429	350.73
386.809	355.24
387.189	335.81
387.568	341.23
387.948	361.35
388.328	344.17
388.707	361.8
389.087	352.76
389.466	356.37
389.846	360.22
390.225	376.26
390.605	354.79
390.984	353.89
391.363	350.73
391.743	378.75
392.122	358.41
392.501	353.44
392.881	372.42
393.26	374.45
393.639	376.49
394.018	350.05
394.397	381.23
394.776	377.84
395.155	381.46
395.534	373.55
395.913	396.6
396.292	383.27
396.671	378.75
397.05	392.76
397.429	388.01
397.808	402.02
398.186	410.84
398.565	420.55
398.944	406.77
399.323	385.3
399.701	397.28
400.08	406.54
400.458	401.57
400.837	402.93
401.215	415.58
401.594	422.14
401.972	414.23
402.351	414.45
402.729	410.61
403.107	430.5
403.486	424.4
403.864	438.63
404.242	444.73
404.62	453.55
404.999	450.16
405.377	442.47
405.755	478.63
406.133	435.69
406.511	429.14
406.889	491.06
407.267	450.61
407.645	451.97
408.023	495.81
408.401	492.19
408.779	502.81
409.156	489.93
409.534	509.59
409.912	545.52
410.29	517.27
410.667	531.51
411.045	540.1
411.422	533.55
411.8	539.87
412.178	576.48
412.555	563.15
412.933	584.84
413.31	586.65
413.687	587.78
414.065	604.28
414.442	643.37
414.819	649.47
415.197	628.23
415.574	642.02
415.951	652.64
416.328	659.42
416.705	678.63
417.082	687.44
417.46	660.1
417.837	684.28
418.214	694.67
418.591	707.33
418.967	704.61
419.344	730.6
419.721	745.52
420.098	758.85
420.475	765.63
420.852	778.74
421.228	780.09
421.605	813.09
421.982	790.04
422.358	840.88
422.735	812.18
423.111	842.92
423.488	879.3
423.864	892.41
424.241	887.89
424.617	906.87
424.994	943.48
425.37	929.02
425.746	944.16
426.123	974.44
426.499	961.56
426.875	995.68
427.251	1017.15
427.627	1038.62
428.003	1038.62
428.379	1071.84
428.756	1071.16
429.132	1088.33
429.507	1071.84
429.883	1107.09
430.259	1137.37
430.635	1114.1
431.011	1162.23
431.387	1177.14
431.763	1172.62
432.138	1215.79
432.514	1195.45
432.89	1239.97
433.265	1287.42
433.641	1265.73
434.016	1295.79
434.392	1346.86
434.767	1357.03
435.143	1367.87
435.518	1392.51
435.894	1407.87
436.269	1465.5
436.644	1457.81
437.02	1519.73
437.395	1544.59
437.77	1546.4
438.145	1586.4
438.52	1617.13
438.895	1630.69
439.271	1619.17
439.646	1695.1
440.021	1704.36
440.395	1751.82
440.77	1747.75
441.145	1726.28
441.52	1800.18
441.895	1838.14
442.27	1828.65
442.645	1850.35
443.019	1898.48
443.394	1883.79
443.769	1909.33
444.143	1917.24
444.518	1953.62
444.892	1946.16
445.267	2009.44
445.641	2000.17
446.016	2015.54
446.39	2042.43
446.764	2074.97
447.139	2067.29
447.513	2113.39
447.887	2093.05
448.262	2124.01
448.636	2140.51
449.01	2141.41
449.384	2185.71
449.758	2209.43
450.132	2217.57
450.506	2244.91
450.88	2245.14
451.254	2271.58
451.628	2293.95
452.002	2347.51
452.376	2331.24
452.75	2364.23
453.123	2371.92
453.497	2432.7
453.871	2428.64
454.244	2487.62
454.618	2526.26
454.992	2530.55
455.365	2550.44
455.739	2591.8
456.112	2615.3
456.486	2630.44
456.859	2638.35
457.232	2728.74
457.606	2708.18
457.979	2714.05
458.352	2805.8
458.725	2821.85
459.099	2806.48
459.472	2905.23
459.845	2930.09
460.218	2970.77
460.591	2983.2
460.964	2999.24
461.337	3083.99
461.71	3100.94
462.083	3168.28
462.456	3175.74
462.829	3175.28
463.201	3235.17
463.574	3215.51
463.947	3283.76
464.32	3360.82
464.692	3390.42
465.065	3430.19
465.438	3465.45
465.81	3503.41
466.183	3540.25
466.555	3636.51
466.928	3653.69
467.3	3634.71
467.672	3690.52
468.045	3782.95
468.417	3782.95
468.789	3809.62
469.161	3844.19
469.534	3923.06
469.906	3978.65
470.278	4044.87
470.65	4061.59
471.022	4145.43
471.394	4229.27
471.766	4226.56
472.138	4254.58
472.51	4383.84
472.882	4442.14
473.253	4476.94
473.625	4532.31
473.997	4645.53
474.369	4638.97
474.74	4682.36
475.112	4771.4
475.484	4825.86
475.855	4886.2
476.227	4970.04
476.598	5083.48
476.97	5123.93
477.341	5238.28
477.713	5297.26
478.084	5346.98
478.455	5475.79
478.827	5520.31
479.198	5636.24
479.569	5635.33
479.94	5774.99
480.311	5825.84
480.682	5986.51
481.053	6103.12
481.424	6133.4
481.795	6179.27
482.166	6301.08
482.537	6385.37
482.908	6452.49
483.279	6513.28
483.65	6709.43
484.021	6802.76
484.391	6817.9
484.762	6920.27
485.133	6932.02
485.503	7013.15
485.874	7172.47
486.244	7196.65
486.615	7315.51
486.985	7376.53
487.356	7514.15
487.726	7547.6
488.097	7715.05
488.467	7630.53
488.837	7880.7
489.207	7967.02
489.578	8020.58
489.948	8105.55
490.318	8201.14
490.688	8199.56
491.058	8400.23
491.428	8470.74
491.798	8493.11
492.168	8649.94
492.538	8691.07
492.908	8681.81
493.278	8828.47
493.648	8850.16
494.017	8913.89
494.387	8987.79
494.757	9023.27
495.126	9096.26
495.496	9112.98
495.866	9167.67
496.235	9277.27
496.605	9298.74
496.974	9285.41
497.344	9444.27
497.713	9475.68
498.082	9522.46
498.452	9631.61
498.821	9646.53
499.19	9629.35
499.559	9693.76
499.928	9710.93
500.298	9731.27
500.667	9838.84
501.036	9856.46
501.405	9892.4
501.774	9890.59
502.143	9919.29
502.512	9926.07
502.88	9982.34
503.249	10044.48
503.618	10104.37
503.987	10086.97
504.356	10107.76
504.724	10155.89
505.093	10137.13
505.462	10128.55
505.83	10199.05
506.199	10294.87
506.567	10398.37
506.936	10265.27
507.304	10350.91
507.672	10378.94
508.041	10406.51
508.409	10498.71
508.777	10447.86
509.145	10610.12
509.514	10599.04
509.882	10508.65
510.25	10568.08
510.618	10643.79
510.986	10562.21
511.354	10655.31
511.722	10646.05
512.09	10765.37
512.458	10681.08
512.826	10799.04
513.193	10802.2
513.561	10764.69
513.929	10803.33
514.297	10841.97
514.664	10819.83
515.032	10857.57
515.4	10985.25
515.767	10900.28
516.135	10952.03
516.502	10822.99
516.869	10978.69
517.237	10928.98
517.604	10910.22
517.972	10945.25
518.339	10968.07
518.706	10947.28
519.073	10970.11
519.44	10950.45
519.808	11034.06
520.175	11069.99
520.542	11110.89
520.909	11069.54
521.276	11042.42
521.643	11135.75
522.009	11067.73
522.376	11091.46
522.743	11128.97
523.11	11202.19
523.477	11203.1
523.843	11116.32
524.21	11263.66
524.577	11274.96
524.943	11211.46
525.31	11238.35
525.676	11266.82
526.043	11257.33
526.409	11341.17
526.776	11371.68
527.142	11292.13
527.508	11307.95
527.874	11333.71
528.241	11260.04
528.607	11246.94
528.973	11339.36
529.339	11214.39
529.705	11267.73
530.071	11294.84
530.437	11244
530.803	11242.42
531.169	11333.04
531.535	11155.64
531.901	11168.75
532.267	11162.42
532.632	11155.64
532.998	11132.81
533.364	11233.38
533.73	11138.46
534.095	11156.77
534.461	11122.87
534.826	11101.4
535.192	11121.74
535.557	11040.16
535.923	10983.44
536.288	10976.66
536.653	10954.97
537.019	10895.53
537.384	10911.13
537.749	10815.76
538.114	10742.77
538.479	10814.18
538.845	10738.02
539.21	10729.21
539.575	10703
539.94	10616.9
540.305	10585.03
540.67	10531.47
541.034	10500.06
541.399	10496.22
541.764	10508.42
542.129	10462.32
542.494	10345.49
542.858	10326.73
543.223	10249.67
543.587	10228.21
543.952	10255.78
544.316	10206.96
544.681	10066.18
545.045	10080.19
545.41	10108.89
545.774	10116.57
546.138	10046.97
546.503	9960.42
546.867	9872.96
547.231	9929.91
547.595	9941.21
547.959	9811.49
548.324	9751.38
548.688	9729.46
549.052	9738.95
549.416	9700.99
549.779	9626.64
550.143	9583.48
550.507	9583.02
550.871	9609.01
551.235	9539.64
551.599	9526.08
551.962	9494.21
552.326	9474.55
552.689	9448.79
553.053	9316.82
553.417	9315.69
553.78	9392.75
554.143	9360.66
554.507	9352.97
554.87	9252.41
555.234	9293.09
555.597	9173.54
555.96	9171.96
556.323	9155.24
556.686	9095.35
557.05	9076.37
557.413	9126.09
557.776	9114.34
558.139	9057.61
558.502	9077.5
558.865	9048.12
559.228	9044.96
559.59	9040.44
559.953	9008.35
560.316	9049.48
560.679	8941.46
561.041	9019.88
561.404	8984.17
561.767	8967.67
562.129	8899.43
562.492	8986.43
562.854	8970.61
563.217	8890.16
563.579	8889.48
563.941	9000.22
564.304	8947.79
564.666	9016.94
565.028	8952.98
565.39	8998.18
565.753	9015.58
566.115	8897.85
566.477	8929.93
566.839	9000.89
567.201	9003.83
567.563	8919.31
567.925	8917.51
568.287	8970.39
568.648	8965.87
569.01	9004.96
569.372	9032.08
569.734	8931.97
570.095	8932.65
570.457	8959.54
570.819	8935.81
571.18	8905.98
571.542	9039.76
571.903	8941.69
572.265	8988.69
572.626	9047.22
572.987	9048.35
573.349	9009.93
573.71	9050.84
574.071	9102.36
574.432	9045.86
574.794	9101.68
575.155	8995.92
575.516	8963.83
575.877	9044.73
576.238	9027.33
576.599	9060.33
576.96	9031.63
577.32	9082.25
577.681	9094.22
578.042	9076.6
578.403	9122.47
578.763	9020.33
579.124	9072.98
579.485	9172.64
579.845	9113.21
580.206	9035.92
580.566	9104.85
580.927	9055.36
581.287	9027.33
581.648	9079.31
582.008	9077.73
582.368	9049.25
582.728	9100.33
583.089	9063.72
583.449	9014.9
583.809	9064.39
584.169	9031.17
584.529	9034.34
584.889	9066.2
585.249	9030.27
585.609	8978.97
585.969	9027.56
586.329	9066.2
586.688	9070.95
587.048	9049.93
587.408	8945.53
587.768	8967.9
588.127	8976.26
588.487	8981.68
588.846	9020.1
589.206	8968.58
589.565	8978.75
589.925	8980.55
590.284	8986.88
590.643	8978.75
591.003	8970.84
591.362	8957.73
591.721	8967.45
592.08	8951.86
592.44	8940.56
592.799	8966.32
593.158	8946.43
593.517	8896.49
593.876	8927.22
594.235	8887
594.593	8921.8
594.952	8943.95
595.311	8967.67
595.67	8918.86
596.029	8977.62
596.387	8919.77
596.746	8938.97
597.104	8868.24
597.463	8855.81
597.822	8882.48
598.18	8853.55
598.538	8801.8
598.897	8894.68
599.255	8825.98
599.613	8915.7
599.972	8889.48
600.33	8963.61
600.688	8873.89
601.046	8891.29
601.404	8897.85
601.762	8864.85
602.12	8871.63
602.478	8831.63
602.836	8866.89
603.194	8867.11
603.552	8833.21
603.91	8813.33
604.268	8825.3
604.625	8831.86
604.983	8854.23
605.341	8853.55
605.698	8934.68
606.056	8859.43
606.413	8846.32
606.771	8875.47
607.128	8911.18
607.485	8832.99
607.843	8890.16
608.2	8955.7
608.557	8961.57
608.914	8891.29
609.272	8884.74
609.629	8981.23
609.986	8951.63
610.343	8822.37
610.7	8945.75
611.057	8931.06
611.414	8911.86
611.771	8911.86
612.127	8965.19
612.484	8968.13
612.841	8988.24
613.198	8967.45
613.554	8950.27
613.911	8981.46
614.267	8962.7
614.624	8978.07
614.98	9002.7
615.337	9012.64
615.693	8993.21
616.05	8983.72
616.406	9025.75
616.762	9000.89
617.118	9054
617.475	8989.59
617.831	9006.32
618.187	8990.27
618.543	9054.23
618.899	9084.96
619.255	9046.32
619.611	9008.35
619.967	9116.14
620.323	9068.69
620.678	9052.64
621.034	9044.06
621.39	9050.61
621.746	8974.45
622.101	9134.68
622.457	9046.99
622.812	9035.47
623.168	9045.19
623.523	9141
623.879	9131.29
624.234	9009.71
624.589	9070.72
624.945	9094.45
625.3	9112.3
625.655	9041.34
626.01	9057.61
626.365	9022.36
626.72	9046.77
627.075	8996.6
627.43	9079.08
627.785	8973.55
628.14	9014.45
628.495	9029.59
628.85	9046.99
629.205	8945.53
629.559	9086.99
629.914	8973.32
630.269	8956.83
630.623	8966.77
630.978	8940.1
631.332	8942.82
631.687	8923.83
632.041	8936.71
632.396	8968.35
632.75	8862.14
633.104	8945.53
633.459	8860.11
633.813	8819.2
634.167	8883.61
634.521	8837.06
634.875	8856.49
635.229	8796.15
635.583	8808.58
635.937	8803.84
636.291	8766.32
636.645	8775.81
636.999	8780.79
637.352	8834.8
637.706	8745.31
638.06	8742.14
638.413	8695.14
638.767	8667.34
639.121	8731.75
639.474	8723.61
639.828	8702.14
640.181	8712.99
640.534	8780.79
640.888	8706.21
641.241	8632.09
641.594	8695.14
641.947	8704.18
642.301	8734.91
642.654	8661.92
643.007	8633.45
643.36	8607.46
643.713	8652.43
644.066	8660.79
644.419	8595.48
644.771	8529.72
645.124	8481.13
645.477	8487.91
645.83	8435.48
646.182	8337.18
646.535	8356.39
646.888	8351.19
647.24	8290.18
647.593	8362.04
647.945	8289.05
648.298	8298.99
648.65	8230.07
649.002	8295.15
649.355	8365.88
649.707	8259.22
650.059	8357.75
650.411	8500.12
650.763	8463.51
651.115	8553.22
651.467	8531.98
651.819	8529.49
652.171	8478.87
652.523	8439.1
652.875	8489.27
653.227	8484.07
653.578	8540.79
653.93	8510.96
654.282	8430.74
654.633	8439.1
654.985	8460.12
655.337	8507.8
655.688	8463.96
656.039	8528.59
656.391	8494.92
656.742	8505.99
657.094	8513
657.445	8552.54
657.796	8540.34
658.147	8492.21
658.498	8507.12
658.849	8463.05
659.2	8430.51
659.551	8510.74
659.902	8533.56
660.253	8498.76
660.604	8509.38
660.955	8490.17
661.306	8617.85
661.656	8541.92
662.007	8498.08
662.358	8547.8
662.708	8510.96
663.059	8468.93
663.409	8480
663.76	8596.38
664.11	8520.91
664.461	8661.69
664.811	8571.98
665.161	8530.85
665.511	8565.88
665.862	8527.91
666.212	8543.96
666.562	8585.76
666.912	8522.26
667.262	8570.85
667.612	8513.45
667.962	8557.74
668.312	8533.33
668.662	8590.73
669.011	8536.72
669.361	8547.8
669.711	8493.34
670.06	8485.43
670.41	8514.13
670.76	8470.74
671.109	8517.06
671.459	8421.7
671.808	8493.11
672.157	8519.78
672.507	8415.37
672.856	8442.04
673.205	8415.82
673.554	8484.75
673.904	8486.78
674.253	8512.09
674.602	8504.18
674.951	8373.57
675.3	8284.75
675.649	8452.66
675.998	8385.09
676.346	8442.04
676.695	8493.34
677.044	8378.31
677.393	8331.98
677.741	8409.72
678.09	8339.67
678.438	8335.37
678.787	8344.87
679.135	8338.76
679.484	8283.17
679.832	8290.18
680.181	8229.61
680.529	8285.21
680.877	8205.66
681.225	8236.62
681.573	8280.69
681.922	8217.41
682.27	8155.04
682.618	8219.44
682.966	8171.76
683.314	8226
683.661	8159.79
684.009	8115.27
684.357	8031.65
684.705	8032.11
685.053	8109.17
685.4	8049.28
685.748	7999.79
686.095	8047.25
686.443	8019.22
686.79	7966.12
687.138	7965.89
687.485	7949.4
687.832	7933.8
688.18	7935.61
688.527	7879.79
688.874	7876.86
689.221	7840.92
689.568	7900.13
689.915	7860.13
690.262	7820.81
690.609	7776.29
690.956	7701.27
691.303	7764.54
691.65	7733.81
691.997	7736.52
692.344	7625.56
692.69	7607.48
693.037	7569.74
693.383	7524.32
693.73	7548.95
694.077	7466.47
694.423	7555.51
694.769	7480.26
695.116	7453.36
695.462	7401.39
695.808	7353.25
696.155	7391.22
696.501	7252.46
696.847	7372.01
697.193	7287.27
697.539	7329.3
697.885	7196.19
698.231	7200.04
698.577	7118.46
698.923	7195.29
699.269	7151.68
699.614	7076.2
699.96	7042.98
700.306	7102.19
700.651	7058.12
700.997	7002.53
701.342	7000.49
701.688	6977.44
702.033	7003.43
702.379	6922.98
702.724	6908.97
703.069	6897.67
703.415	6792.36
703.76	6802.08
704.105	6824.23
704.45	6794.85
704.795	6727.73
705.14	6736.32
705.485	6734.06
705.83	6738.58
706.175	6672.82
706.52	6675.76
706.865	6607.51
707.209	6635.76
707.554	6613.84
707.899	6614.06
708.243	6526.16
708.588	6506.5
708.932	6505.37
709.277	6485.71
709.621	6523.44
709.966	6490.68
710.31	6488.87
710.654	6415.88
710.998	6405.93
711.342	6362.32
711.687	6371.36
712.031	6411.58
712.375	6375.88
712.719	6377.23
713.063	6347.4
713.407	6334.07
713.75	6260.63
714.094	6334.52
714.438	6298.82
714.782	6268.54
715.125	6283
715.469	6252.94
715.812	6198.71
716.156	6216.79
716.499	6186.96
716.843	6167.52
717.186	6186.96
717.53	6181.53
717.873	6230.12
718.216	6173.17
718.559	6127.3
718.902	6150.57
719.246	6149.44
719.589	6126.84
719.932	6072.83
720.275	6108.99
720.617	6133.4
720.96	6088.88
721.303	6066.96
721.646	6111.48
721.989	6026.73
722.331	6082.1
722.674	6023.57
723.016	6031.93
723.359	6009.79
723.701	6041.88
724.044	6010.92
724.386	6027.64
724.729	6007.3
725.071	6028.99
725.413	6031.48
725.755	6007.07
726.097	5947.64
726.439	5972.95
726.782	5923.91
727.124	5965.72
727.465	5966.17
727.807	5953.74
728.149	5928.88
728.491	5965.94
728.833	5931.82
729.175	5908.55
729.516	5924.82
729.858	5947.41
730.199	5974.53
730.541	5951.48
730.882	5955.78
731.224	5959.17
731.565	5941.09
731.906	5928.88
732.248	5975.44
732.589	5914.19
732.93	5954.65
733.271	5888.66
733.612	5911.93
733.953	5974.08
734.294	5923.69
734.635	5974.31
734.976	5908.77
735.317	5994.64
735.658	5976.79
735.999	5927.98
736.339	5946.96
736.68	6043.91
737.021	5996.9
737.361	5955.1
737.702	5969.33
738.042	6009.11
738.383	5955.1
738.723	6013.63
739.063	6025.38
739.404	6025.15
739.744	5988.32
740.084	5973.18
740.424	6058.82
740.764	6047.98
741.104	6069.67
741.444	6033.97
741.784	6087.52
742.124	6110.8
742.464	6082.1
742.804	6102.21
743.143	6164.81
743.483	6151.7
743.823	6125.94
744.162	6231.25
744.502	6220.4
744.841	6218.37
745.181	6230.12
745.52	6238.71
745.86	6252.26
746.199	6346.73
746.538	6358.48
746.877	6392.83
747.216	6466.04
747.556	6474.86
747.895	6524.12
748.234	6570
748.573	6634.4
748.911	6582.2
749.25	6731.57
749.589	6797.79
749.928	6788.07
750.267	6901.06
750.605	6929.99
750.944	6985.35
751.283	7034.84
751.621	7141.73
751.96	7254.27
752.298	7337.21
752.636	7395.51
752.975	7469.63
753.313	7484.32
753.651	7714.37
753.989	7780.81
754.327	7809.29
754.666	7898.32
755.004	8022.84
755.342	8220.8
755.679	8304.64
756.017	8438.42
756.355	8581.47
756.693	8668.7
757.031	8800.22
757.368	8913.66
757.706	9032.3
758.044	9238.63
758.381	9267.55
758.719	9463.93
759.056	9707.77
759.394	9850.81
759.731	9949.79
760.068	10105.5
760.405	10215.78
760.743	10410.12
761.08	10555.65
761.417	10740.51
761.754	10938.7
762.091	11016.43
762.428	11248.07
762.765	11331.23
763.102	11634.27
763.438	11689.64
763.775	11849.41
764.112	12114.48
764.449	12306.12
764.785	12360.13
765.122	12561.93
765.458	12740.23
765.795	12882.6
766.131	13065.19
766.467	13237.39
766.804	13414.79
767.14	13476.48
767.476	13655.46
767.812	13749.24
768.148	13980.2
768.485	14108.78
768.821	14219.51
769.157	14418.15
769.492	14470.13
769.828	14632.16
770.164	14769.78
770.5	14819.27
770.836	14982.88
771.171	15032.83
771.507	15249.77
771.842	15275.76
772.178	15372.93
772.513	15465.13
772.849	15531.8
773.184	15586.71
773.519	15763.2
773.855	15875.97
774.19	15891.11
774.525	15982.63
774.86	16082.97
775.195	16140.37
775.53	16250.42
775.865	16328.38
776.2	16273.02
776.535	16247.03
776.87	16305.11
777.205	16375.39
777.539	16343.75
777.874	16598.43
778.209	16491.54
778.543	16587.81
778.878	16653.57
779.212	16580.58
779.547	16689.73
779.881	16804.53
780.215	16724.98
780.55	16816.51
780.884	16732.67
781.218	16812.67
781.552	16850.18
781.886	16815.38
782.22	16815.15
782.554	16793.23
782.888	16746.68
783.222	16778.09
783.556	16748.03
783.889	16740.35
784.223	16806.79
784.557	16710.97
784.89	16841.37
785.224	16706.68
785.557	16694.02
785.891	16778.09
786.224	16748.26
786.558	16751.88
786.891	16701.93
787.224	16713.46
787.557	16718.2
787.891	16645.44
788.224	16762.72
788.557	16747.36
788.89	16750.75
789.223	16700.35
789.556	16643.63
789.888	16644.76
790.221	16583.29
790.554	16505.1
790.887	16483.41
791.219	16437.76
791.552	16485.44
791.884	16388.5
792.217	16462.39
792.549	16439.79
792.882	16319.57
793.214	16314.83
793.546	16434.6
793.879	16279.12
794.211	16230.99
794.543	16369.06
794.875	16149.63
795.207	16300.81
795.539	16181.95
795.871	16185.34
796.203	16103.76
796.535	16035.96
796.867	15972.46
797.198	16032.57
797.53	16009.3
797.862	15922.75
798.193	15989.86
798.525	15785.57
798.856	15890.66
799.188	15778.79
799.519	15743.31
799.85	15625.58
800.182	15759.59
800.513	15706.71
800.844	15560.72
801.175	15664.22
801.506	15675.07
801.837	15573.6
802.168	15544
802.499	15527.73
802.83	15405.47
803.161	15393.27
803.491	15432.14
803.822	15398.69
804.153	15310.56
804.483	15223.1
804.814	15148.75
805.145	15270.78
805.475	15176.1
805.805	15051.58
806.136	15166.83
806.466	15139.71
806.796	15171.58
807.126	14932.04
807.457	14972.26
807.787	14923.22
808.117	14989.89
808.447	14947.18
808.777	14932.26
809.107	14819.5
809.436	14763.23
809.766	14790.35
810.096	14726.62
810.426	14710.12
810.755	14824.92
811.085	14728.88
811.414	14734.3
811.744	14532.95
812.073	14570.69
812.403	14637.58
812.732	14535.44
813.061	14535.89
813.39	14384.03
813.719	14405.95
814.049	14478.26
814.378	14402.33
814.707	14330.02
815.036	14391.94
815.365	14276.46
815.693	14174.09
816.022	14242.11
816.351	14167.99
816.68	14107.43
817.008	14201.89
817.337	14012.74
817.665	14047.99
817.994	14160.98
818.322	14029.24
818.651	14015.45
818.979	13979.97
819.307	14060.87
819.636	13933.42
819.964	13839.18
820.292	13990.82
820.62	13887.32
820.948	13872.63
821.276	13888
821.604	13942.23
821.932	13954.66
822.259	13920.31
822.587	13892.97
822.915	13855.23
823.243	13903.82
823.57	13769.81
823.898	13801.22
824.225	13805.06
824.553	13822.91
824.88	13841.9
825.207	13895.68
825.535	13850.48
825.862	13857.49
826.189	13839.64
826.516	13961.44
826.843	13844.61
827.17	13948.11
827.497	13966.41
827.824	13932.52
828.151	13951.5
828.478	13952.18
828.805	13931.39
829.131	13914.21
829.458	13927.32
829.785	13824.95
830.111	13940.65
830.438	13957.6
830.764	13877.6
831.09	13938.16
831.417	13876.7
831.743	13915.11
832.069	13846.64
832.395	13849.58
832.722	13851.61
833.048	13793.54
833.374	13855.23
833.7	13790.37
834.026	13762.8
834.351	13831.73
834.677	13822.24
835.003	13822.46
835.329	13784.04
835.654	13814.78
835.98	13721.67
836.306	13792.63
836.631	13654.56
836.956	13766.87
837.282	13760.99
837.607	13653.65
837.932	13573.43
838.258	13622.24
838.583	13696.59
838.908	13496.82
839.233	13566.65
839.558	13554.67
839.883	13516.93
840.208	13439.19
840.533	13478.97
840.858	13405.3
841.182	13518.97
841.507	13452.98
841.832	13373.66
842.156	13429.03
842.481	13376.37
842.805	13318.97
843.13	13184.06
843.454	13298.41
843.778	13179.31
844.103	13260.89
844.427	13213.89
844.751	13121.69
845.075	13161.01
845.399	13043.95
845.723	13024.06
846.047	13009.38
846.371	12956.27
846.695	12967.12
847.019	12787.46
847.343	12784.97
847.666	12648.71
847.99	12641.25
848.313	12656.39
848.637	12631.53
848.96	12485.32
849.284	12587.01
849.607	12495.04
849.931	12402.61
850.254	12325.78
850.577	12297.98
850.9	12168.95
851.223	12224.09
851.546	12126.01
851.869	12069.29
852.192	12068.16
852.515	11923.98
852.838	11899.57
853.161	11874.94
853.483	11900.03
853.806	11737.77
854.129	11745
854.451	11737.32
854.774	11732.12
855.096	11648.51
855.419	11634.5
855.741	11683.53
856.063	11566.48
856.385	11469.98
856.708	11413.26
857.03	11397.44
857.352	11390.66
857.674	11396.54
857.996	11313.37
858.318	11302.98
858.64	11361.06
858.961	11265.69
859.283	11162.87
859.605	11195.86
859.926	11195.19
860.248	11151.35
860.57	11121.74
860.891	11193.15
861.212	11093.49
861.534	10964.01
861.855	11035.19
862.176	11001.74
862.498	10975.53
862.819	11020.28
863.14	10923.55
863.461	10862.77
863.782	10895.76
864.103	10822.54
864.424	10812.37
864.745	10881.3
865.065	10777.8
865.386	10754.29
865.707	10771.69
866.027	10777.12
866.348	10756.1
866.668	10790.68
866.989	10680.62
867.309	10572.83
867.63	10683.33
867.95	10646.5
868.27	10584.35
868.59	10627.74
868.91	10590
869.23	10594.75
869.55	10467.07
869.87	10541.87
870.19	10483.57
870.51	10539.84
870.83	10492.83
871.15	10558.82
871.469	10395.21
871.789	10518.82
872.109	10449.67
872.428	10333.74
872.748	10358.15
873.067	10396.11
873.386	10366.06
873.706	10353.4
874.025	10297.13
874.344	10259.62
874.663	10310.24
874.982	10234.31
875.301	10296.68
875.62	10243.12
875.939	10250.8
876.258	10193.86
876.577	10197.7
876.896	10210.8
877.214	10133.74
877.533	10196.12
877.852	10160.64
878.17	10145.27
878.489	10135.55
878.807	10074.31
879.125	10040.87
879.444	10065.5
879.762	10036.8
880.08	10022.34
880.398	9996.57
880.716	9985.73
881.034	9952.05
881.352	9879.06
881.67	9812.62
881.988	9859.4
882.306	9847.65
882.624	9852.85
882.941	9796.35
883.259	9802.23
883.577	9791.83
883.894	9694.66
884.212	9736.02
884.529	9740.76
884.846	9631.61
885.164	9645.85
885.481	9597.26
885.798	9651.5
886.115	9588.67
886.432	9491.5
886.75	9528.56
887.067	9456.25
887.383	9428
887.7	9449.92
888.017	9424.84
888.334	9497.38
888.651	9383.93
888.967	9447.66
889.284	9333.54
889.6	9364.5
889.917	9213.32
890.233	9328.12
890.55	9194.11
890.866	9286.76
891.182	9227.78
891.498	9196.82
891.815	9173.09
892.131	9084.51
892.447	9081.34
892.763	9042.7
893.079	9070.04
893.395	9055.36
893.71	9032.3
894.026	9015.13
894.342	8904.17
894.657	8865.53
894.973	8887.45
895.289	8856.26
895.604	8838.86
895.92	8749.6
896.235	8713.44
896.55	8706.89
896.865	8686.33
897.181	8660.34
897.496	8644.52
897.811	8590.51
898.126	8555.48
898.441	8537.4
898.756	8582.37
899.071	8447.01
899.386	8445.88
899.7	8360.91
900.015	8360.23
900.33	8282.72
900.644	8320.01
900.959	8316.17
901.273	8276.39
901.588	8180.8
901.902	8173.34
902.216	8135.15
902.531	8162.72
902.845	8054.7
903.159	8043.4
903.473	8024.87
903.787	7983.29
904.101	8021.03
904.415	7984.2
904.729	7887.02
905.042	7835.5
905.356	7821.49
905.67	7814.26
905.984	7751.43
906.297	7750.76
906.611	7712.57
906.924	7746.01
907.237	7694.49
907.551	7598.9
907.864	7598.9
908.177	7645.22
908.491	7595.51
908.804	7473.48
909.117	7455.17
909.43	7430.99
909.743	7435.28
910.056	7405.68
910.368	7405.68
910.681	7342.86
910.994	7329.52
911.307	7318
911.619	7216.31
911.932	7212.47
912.244	7160.26
912.557	7131.34
912.869	7074.39
913.181	7122.07
913.494	7079.36
913.806	7011.12
914.118	7007.73
914.43	6992.81
914.742	6983.77
915.054	6883.21
915.366	6864.45
915.678	6867.16
915.99	6854.06
916.302	6724.12
916.613	6760.95
916.925	6829.65
917.236	6670.33
917.548	6673.27
917.859	6677.34
918.171	6663.1
918.482	6659.03
918.794	6606.61
919.105	6595.31
919.416	6474.18
919.727	6514.18
920.038	6522.31
920.349	6442.09
920.66	6429.44
920.971	6447.51
921.282	6395.76
921.593	6370
921.903	6319.83
922.214	6287.97
922.525	6306.95
922.835	6280.06
923.146	6229.44
923.456	6203.45
923.767	6230.12
924.077	6176.79
924.387	6126.62
924.697	6077.81
925.008	6063.8
925.318	6049.11
925.628	6042.33
925.938	6012.72
926.248	5964.81
926.558	5977.7
926.867	5982.67
927.177	5939.96
927.487	5917.58
927.796	5830.36
928.106	5798.72
928.416	5856.12
928.725	5799.17
929.034	5739.06
929.344	5764.82
929.653	5740.64
929.962	5730.02
930.271	5719.85
930.581	5655.44
930.89	5634.65
931.199	5538.16
931.508	5628.55
931.817	5601.43
932.125	5586.75
932.434	5518.05
932.743	5464.04
933.051	5482.34
933.36	5460.42
933.669	5381.55
933.977	5440.99
934.286	5416.58
934.594	5376.36
934.902	5318.28
935.21	5285.96
935.519	5330.71
935.827	5289.58
936.135	5229.02
936.443	5220.65
936.751	5205.51
937.059	5190.82
937.367	5172.75
937.674	5175.23
937.982	5186.53
938.29	5110.83
938.597	5087.78
938.905	5004.61
939.213	5064.27
939.52	5047.78
939.827	4984.5
940.135	4945.86
940.442	4958.06
940.749	4989.7
941.056	4950.6
941.363	4837.39
941.67	4872.64
941.977	4862.02
942.284	4809.14
942.591	4803.94
942.898	4756.71
943.205	4749.25
943.511	4792.42
943.818	4757.84
944.125	4719.65
944.431	4667.22
944.738	4653.89
945.044	4621.57
945.35	4632.65
945.657	4621.35
945.963	4557.85
946.269	4583.83
946.575	4573.89
946.881	4537.96
947.187	4536.83
947.493	4499.32
947.799	4441.47
948.105	4431.3
948.41	4380.22
948.716	4422.71
949.022	4422.03
949.327	4348.59
949.633	4343.16
949.938	4324.86
950.244	4350.62
950.549	4291.41
950.854	4269.72
951.16	4248.7
951.465	4251.87
951.77	4241.02
952.075	4240.79
952.38	4212.54
952.685	4181.81
952.99	4119.44
953.294	4118.08
953.599	4130.74
953.904	4133.45
954.209	4076.5
954.513	4081.25
954.818	4063.62
955.122	4007.13
955.426	4031.53
955.731	3972.78
956.035	4022.27
956.339	3923.29
956.643	3989.27
956.948	3894.59
957.252	3883.74
957.556	3921.48
957.86	3882.38
958.163	3863.85
958.467	3832.67
958.771	3864.31
959.075	3806.68
959.378	3817.98
959.682	3818.2
959.985	3766.45
960.289	3769.62
960.592	3752.9
960.896	3736.17
961.199	3735.95
961.502	3726
961.805	3677.64
962.108	3690.52
962.411	3677.87
962.714	3604.42
963.017	3612.11
963.32	3604.42
963.623	3584.09
963.926	3581.83
964.228	3536.4
964.531	3522.85
964.833	3508.83
965.136	3453.47
965.438	3484.88
965.741	3498.67
966.043	3462.96
966.345	3460.93
966.648	3419.8
966.95	3401.27
967.252	3392.45
967.554	3384.54
967.856	3377.99
968.158	3356.3
968.46	3365.79
968.761	3366.24
969.063	3319.69
969.365	3281.04
969.666	3279.01
969.968	3262.29
970.269	3239.46
970.571	3273.36
970.872	3252.8
971.174	3247.82
971.475	3196.75
971.776	3175.96
972.077	3150.43
972.378	3153.36
972.679	3146.81
972.98	3167.15
973.281	3142.06
973.582	3127.15
973.883	3117.21
974.183	3088.05
974.484	3070.2
974.785	3041.95
975.085	3025.01
975.386	3050.09
975.686	3049.64
975.986	2986.14
976.287	2972.8
976.587	2959.24
976.887	2961.5
977.187	2974.39
977.487	2922.64
977.787	2953.59
978.087	2903.88
978.387	2896.42
978.687	2915.63
978.987	2871.11
979.286	2846.48
979.586	2863.43
979.885	2801.96
980.185	2779.59
980.484	2805.8
980.784	2761.51
981.083	2759.48
981.382	2757.44
981.682	2799.93
981.981	2753.83
982.28	2725.58
982.579	2705.69
982.878	2698.46
983.177	2698.91
983.475	2686.03
983.774	2667.5
984.073	2647.84
984.372	2653.49
984.67	2618.46
984.969	2625.69
985.267	2609.87
985.566	2580.72
985.864	2587.95
986.162	2571.23
986.461	2545.7
986.759	2567.39
987.057	2526.04
987.355	2527.84
987.653	2533.72
987.951	2526.26
988.249	2487.39
988.547	2520.61
988.844	2483.1
989.142	2469.54
989.44	2480.39
989.737	2460.73
990.035	2437.9
990.332	2437
990.63	2450.33
990.927	2386.6
991.224	2362.42
991.521	2378.02
991.819	2389.99
992.116	2357.9
992.413	2379.6
992.71	2333.05
993.006	2336.21
993.303	2342.09
993.6	2301.18
993.897	2289.21
994.193	2294.18
994.49	2285.14
994.787	2281.52
995.083	2235.2
995.379	2240.85
995.676	2233.16
995.972	2191.35
996.268	2235.42
996.565	2199.49
996.861	2183.22
997.157	2185.03
997.453	2156.78
997.749	2164.69
998.044	2112.26
998.34	2119.27
998.636	2118.59
998.932	2126.05
999.227	2100.96
999.523	2077.91
999.818	2050.34
1000.114	2030.68
1000.409	2034.07
1000.704	2016.9
1001	2046.05
1001.295	2006.5
1001.59	2021.64
1001.885	2011.92
1002.18	1977.12
1002.475	1982.55
1002.77	1957.24
1003.065	1973.28
1003.359	1970.8
1003.654	1934.86
1003.949	1897.8
1004.243	1884.47
1004.538	1915.2
1004.832	1909.33
1005.127	1869.56
1005.421	1848.54
1005.715	1878.37
1006.009	1884.92
1006.304	1852.61
1006.598	1842.66
1006.892	1825.71
1007.186	1788.65
1007.48	1767.41
1007.773	1777.35
1008.067	1768.99
1008.361	1743.68
1008.655	1732.61
1008.948	1755.89
1009.242	1721.31
1009.535	1713.4
1009.829	1747.98
1010.122	1740.97
1010.415	1688.77
1010.708	1686.96
1011.001	1682.67
1011.295	1670.92
1011.588	1647.19
1011.881	1656.45
1012.173	1624.36
1012.466	1615.1
1012.759	1610.13
1013.052	1608.32
1013.344	1584.37
1013.637	1567.87
1013.93	1602.22
1014.222	1576.23
1014.514	1556.12
1014.807	1551.6
1015.099	1536
1015.391	1543.24
1015.683	1535.78
1015.976	1506.4
1016.268	1518.6
1016.56	1513.18
1016.851	1486.06
1017.143	1498.49
1017.435	1484.03
1017.727	1471.6
1018.018	1462.79
1018.31	1447.42
1018.602	1426.18
1018.893	1447.87
1019.185	1427.31
1019.476	1429.57
1019.767	1405.84
1020.058	1378.49
1020.35	1369
1020.641	1376.91
1020.932	1386.86
1021.223	1363.81
1021.514	1345.28
1021.804	1328.78
1022.095	1336.69
1022.386	1316.58
1022.677	1319.29
1022.967	1303.69
1023.258	1319.51
1023.548	1301.21
1023.839	1282.68
1024.129	1268.44
1024.419	1256.69
1024.709	1267.09
1025	1257.82
1025.29	1230.02
1025.58	1237.48
1025.87	1217.6
1026.16	1196.58
1026.449	1215.11
1026.739	1207.43
1027.029	1177.6
1027.319	1185.51
1027.608	1164.72
1027.898	1185.28
1028.187	1187.77
1028.477	1178.95
1028.766	1141.21
1029.055	1147.77
1029.344	1169.91
1029.634	1129.46
1029.923	1136.47
1030.212	1100.99
1030.501	1116.13
1030.79	1103.25
1031.078	1104.15
1031.367	1092.85
1031.656	1074.55
1031.945	1052.18
1032.233	1094.43
1032.522	1056.92
1032.81	1033.19
1033.099	1052.18
1033.387	1057.83
1033.675	1030.03
1033.963	1020.54
1034.251	1032.52
1034.54	1030.26
1034.828	1000.65
1035.116	992.06
1035.403	986.64
1035.691	1004.95
1035.979	977.83
1036.267	983.25
1036.554	968.56
1036.842	944.61
1037.129	955
1037.417	959.3
1037.704	930.15
1037.992	943.25
1038.279	910.48
1038.566	915.23
1038.853	915.23
1039.14	915.23
