Data from hue_36_FLMS001491_00079.txt Node
Date: Tue Feb 07 17:30:17 GMT 2017
User: dcchb
Spectrometer: FLMS00149
Trigger mode: 0
Integration Time (sec): 2.000000E-2
Scans to average: 10
Electric dark correction enabled: true
Nonlinearity correction enabled: false
Boxcar width: 0
XAxis mode: Wavelengths
Number of Pixels in Spectrum: 2048
>>>>>Begin Spectral Data<<<<<
341.393	-18.73
341.776	-18.73
342.16	-18.73
342.543	-72.74
342.927	-89.01
343.31	-61.44
343.693	-79.97
344.077	-70.7
344.46	-65.28
344.843	-57.6
345.226	-55.56
345.61	-13.3
345.993	-28.67
346.376	1.16
346.759	36.19
347.142	23.98
347.525	58.56
347.908	57.88
348.291	52.91
348.674	94.26
349.057	107.6
349.44	111.66
349.823	154.6
350.206	167.03
350.588	188.27
350.971	215.84
351.354	240.47
351.737	225.56
352.119	254.48
352.502	256.52
352.884	281.83
353.267	292.68
353.65	297.65
354.032	311.43
354.414	316.4
354.797	305.78
355.179	338.32
355.562	323.86
355.944	332.67
356.326	345.78
356.709	336.74
357.091	353.92
357.473	334.03
357.855	356.63
358.238	346.91
358.62	330.64
359.002	328.38
359.384	328.83
359.766	339.23
360.148	346.91
360.53	335.61
360.912	340.58
361.294	361.37
361.676	334.71
362.057	353.01
362.439	332.9
362.821	323.86
363.203	335.39
363.584	308.95
363.966	321.6
364.348	322.51
364.729	325.67
365.111	314.37
365.493	305.56
365.874	302.85
366.256	310.53
366.637	319.79
367.019	326.12
367.4	324.77
367.781	317.76
368.163	306.91
368.544	317.31
368.925	310.08
369.306	315.5
369.688	317.31
370.069	304.65
370.45	305.33
370.831	310.98
371.212	321.83
371.593	330.42
371.974	307.82
372.355	299.23
372.736	327.03
373.117	314.6
373.498	337.19
373.879	313.92
374.26	320.25
374.641	316.63
375.021	311.66
375.402	331.09
375.783	320.7
376.163	299.91
376.544	308.49
376.925	303.07
377.305	334.03
377.686	338.55
378.066	331.32
378.447	348.95
378.827	336.06
379.208	334.93
379.588	335.39
379.968	322.51
380.349	357.98
380.729	339
381.109	317.08
381.489	334.03
381.87	354.82
382.25	330.87
382.63	350.98
383.01	341.49
383.39	343.97
383.77	356.18
384.15	333.13
384.53	342.62
384.91	352.11
385.29	369.74
385.67	337.87
386.049	364.99
386.429	352.79
386.809	374.26
387.189	351.43
387.568	344.88
387.948	337.19
388.328	355.73
388.707	352.11
389.087	362.5
389.466	369.74
389.846	353.01
390.225	357.08
390.605	358.21
390.984	364.54
391.363	356.4
391.743	362.05
392.122	370.41
392.501	370.87
392.881	371.54
393.26	361.15
393.639	366.57
394.018	362.28
394.397	371.77
394.776	372.22
395.155	401.15
395.534	381.94
395.913	395.27
396.292	372.9
396.671	400.24
397.05	398.21
397.429	391.43
397.808	394.14
398.186	379.23
398.565	396.85
398.944	386.23
399.323	406.57
399.701	397.08
400.08	401.15
400.458	404.09
400.837	393.24
401.215	379.23
401.594	408.38
401.972	379.91
402.351	422.84
402.729	394.37
403.107	417.42
403.486	407.7
403.864	407.48
404.242	427.14
404.62	421.49
404.999	439.56
405.377	423.29
405.755	423.97
406.133	427.36
406.511	410.41
406.889	421.71
407.267	435.95
407.645	441.82
408.023	416.06
408.401	423.07
408.779	435.95
409.156	445.44
409.534	427.36
409.912	454.03
410.29	447.7
410.667	464.87
411.045	442.5
411.422	458.32
411.8	473.91
412.178	428.49
412.555	459
412.933	450.86
413.31	464.2
413.687	482.95
414.065	453.12
414.442	489.51
414.819	489.73
415.197	462.39
415.574	483.18
415.951	496.96
416.328	498.32
416.705	475.27
417.082	506.23
417.46	498.55
417.837	480.69
418.214	499
418.591	500.81
418.967	511.65
419.344	500.58
419.721	495.16
420.098	518.43
420.475	521.14
420.852	522.27
421.228	504.42
421.605	543.29
421.982	535.16
422.358	529.28
422.735	539.68
423.111	544.19
423.488	540.8
423.864	549.62
424.241	542.84
424.617	539
424.994	539.9
425.37	558.43
425.746	550.3
426.123	557.3
426.499	574.02
426.875	594.81
427.251	565.66
427.627	582.84
428.003	581.93
428.379	579.45
428.756	592.78
429.132	596.17
429.507	579.45
429.883	621.03
430.259	637.98
430.635	612.89
431.011	615.61
431.387	629.16
431.763	637.98
432.138	604.31
432.514	659.45
432.89	655.38
433.265	655.15
433.641	643.4
434.016	641.82
434.392	684.08
434.767	646.56
435.143	682.72
435.518	669.16
435.894	677.3
436.269	678.65
436.644	685.43
437.02	694.7
437.395	705.77
437.77	709.16
438.145	735.15
438.52	710.29
438.895	696.51
439.271	709.16
439.646	722.95
440.021	753.68
440.395	734.02
440.77	735.38
441.145	745.55
441.52	764.98
441.895	763.62
442.27	757.52
442.645	771.99
443.019	757.07
443.394	775.83
443.769	794.58
444.143	773.34
444.518	768.82
444.892	790.06
445.267	761.36
445.641	798.65
446.016	803.4
446.39	807.01
446.764	797.3
447.139	786.45
447.513	826
447.887	830.29
448.262	824.64
448.636	848.82
449.01	827.8
449.384	841.14
449.758	847.24
450.132	869.38
450.506	840.46
450.88	854.92
451.254	857.18
451.628	872.1
452.002	856.05
452.376	913.45
452.75	905.09
453.123	886.78
453.497	902.38
453.871	925.65
454.244	939.44
454.618	930.17
454.992	958.2
455.365	979.21
455.739	964.07
456.112	954.13
456.486	971.53
456.859	988.7
457.232	996.39
457.606	998.19
457.979	994.58
458.352	1014.69
458.725	1034.8
459.099	1024.18
459.472	1049.94
459.845	1065.76
460.218	1070.96
460.591	1070.51
460.964	1049.49
461.337	1110.96
461.71	1117.51
462.083	1155.93
462.456	1107.57
462.829	1133.78
463.201	1111.41
463.574	1150.28
463.947	1165.2
464.32	1187.79
464.692	1224.4
465.065	1225.98
465.438	1232.31
465.81	1251.07
466.183	1269.15
466.555	1295.59
466.928	1279.09
467.3	1306.89
467.672	1331.07
468.045	1346.21
468.417	1333.55
468.789	1412.19
469.161	1392.53
469.534	1430.73
469.906	1447.22
470.278	1474.57
470.65	1494
471.022	1507.79
471.394	1557.73
471.766	1574.45
472.138	1565.41
472.51	1642.47
472.882	1625.75
473.253	1671.62
473.625	1679.31
473.997	1728.8
474.369	1769.25
474.74	1772.64
475.112	1820.55
475.484	1861
475.855	1907.55
476.227	1935.57
476.598	1955.23
476.97	2000.2
477.341	2082.01
477.713	2118.39
478.084	2169.69
478.455	2220.31
478.827	2264.38
479.198	2337.14
479.569	2365.16
479.94	2435.67
480.311	2469.79
480.682	2570.13
481.053	2625.72
481.424	2715.89
481.795	2726.06
482.166	2812.16
482.537	2879.05
482.908	2950.23
483.279	3006.05
483.65	3084.24
484.021	3167.18
484.391	3238.59
484.762	3307.29
485.133	3357.23
485.503	3500.5
485.874	3574.17
486.244	3607.17
486.615	3702.98
486.985	3793.37
487.356	3895.75
487.726	3967.16
488.097	4115.17
488.467	4170.09
488.837	4278.11
489.207	4363.53
489.578	4495.5
489.948	4570.76
490.318	4683.07
490.688	4699.57
491.058	4861.37
491.428	4945.89
491.798	5081.02
492.168	5189.95
492.538	5241.25
492.908	5342.03
493.278	5479.88
493.648	5542.26
494.017	5661.57
494.387	5727.79
494.757	5816.37
495.126	5892.3
495.496	6000.1
495.866	6056.14
496.235	6217.72
496.605	6236.7
496.974	6351.5
497.344	6450.71
497.713	6513.3
498.082	6635.56
498.452	6731.15
498.821	6762.56
499.19	6862.22
499.559	6979.05
499.928	7083.68
500.298	7159.61
500.667	7257.01
501.036	7264.24
501.405	7373.62
501.774	7377.01
502.143	7564.12
502.512	7576.55
502.88	7704.01
503.249	7733.84
503.618	7850.44
503.987	7897.45
504.356	8012.47
504.724	8014.51
505.093	8099.93
505.462	8176.76
505.83	8247.95
506.199	8334.5
506.567	8464.66
506.936	8524.78
507.304	8570.42
507.672	8637.32
508.041	8742.17
508.409	8764.54
508.777	8886.57
509.145	8914.37
509.514	8947.36
509.882	9039.56
510.25	9132.67
510.618	9218.32
510.986	9258.77
511.354	9340.57
511.722	9402.27
512.09	9467.8
512.458	9480.68
512.826	9563.17
513.193	9615.14
513.561	9698.53
513.929	9778.98
514.297	9845.65
514.664	9931.07
515.032	10015.81
515.4	10082.02
515.767	10119.54
516.135	10229.36
516.502	10097.62
516.869	10301.9
517.237	10367.67
517.604	10315.92
517.972	10519.3
518.339	10561.56
518.706	10548.23
519.073	10549.81
519.44	10741.44
519.808	10842.68
520.175	10857.82
520.542	10906.41
520.909	10984.15
521.276	10995.45
521.643	11086.29
522.009	11201.77
522.376	11287.42
522.743	11284.93
523.11	11413.06
523.477	11435.21
523.843	11514.75
524.21	11704.35
524.577	11712.04
524.943	11834.52
525.31	11836.55
525.676	12017.79
526.043	12041.29
526.409	12098.24
526.776	12257.33
527.142	12233.15
527.508	12334.17
527.874	12460.04
528.241	12478.12
528.607	12534.39
528.973	12587.27
529.339	12611
529.705	12785.68
530.071	12895.28
530.437	12901.38
530.803	12959.01
531.169	13054.37
531.535	13070.87
531.901	13045.33
532.267	13158.78
532.632	13267.7
532.998	13293.01
533.364	13384.76
533.73	13404.65
534.095	13514.93
534.461	13562.16
534.826	13652.55
535.192	13749.5
535.557	13824.75
535.923	13727.8
536.288	13830.63
536.653	13906.56
537.019	13952.88
537.384	13980.23
537.749	14091.41
538.114	14096.61
538.479	14110.62
538.845	14228.13
539.21	14245.53
539.575	14342.25
539.94	14368.92
540.305	14509.48
540.67	14472.19
541.034	14524.84
541.399	14628.34
541.764	14639.64
542.129	14708.79
542.494	14800.77
542.858	14822.92
543.223	14847.1
543.587	14869.24
543.952	14981.56
544.316	15036.7
544.681	14995.79
545.045	15105.62
545.41	15244.83
545.774	15204.15
546.138	15292.28
546.503	15349
546.867	15307.42
547.231	15446.18
547.595	15480.07
547.959	15575.89
548.324	15586.96
548.688	15666.73
549.052	15679.62
549.416	15764.13
549.779	15851.59
550.143	15754.64
550.507	16002.55
550.871	16011.13
551.235	15959.83
551.599	16162.54
551.962	16164.12
552.326	16240.28
552.689	16264.46
553.053	16233.05
553.417	16259.26
553.78	16546.03
554.143	16450.67
554.507	16511.46
554.87	16505.13
555.234	16666.93
555.597	16762.98
555.96	16655.41
556.323	16797.55
556.686	16882.75
557.05	16911.45
557.413	16976.76
557.776	17065.79
558.139	17147.6
558.502	17197.54
558.865	17228.05
559.228	17334.71
559.59	17385.33
559.953	17386.92
560.316	17515.73
560.679	17577.19
561.041	17664.42
561.404	17794.36
561.767	17884.76
562.129	17777.41
562.492	17952.55
562.854	18035.03
563.217	18101.02
563.579	18069.84
563.941	18153
564.304	18282.94
564.666	18420.79
565.028	18398.41
565.39	18430.96
565.753	18529.26
566.115	18582.82
566.477	18727.9
566.839	18767.9
567.201	18772.42
567.563	18886.99
567.925	19066.87
568.287	18968.34
568.648	19037.49
569.01	19241.56
569.372	19250.82
569.734	19260.31
570.095	19400.65
570.457	19550.7
570.819	19543.7
571.18	19606.29
571.542	19722.22
571.903	19714.31
572.265	19856
572.626	19942.78
572.987	19955.21
573.349	20147.07
573.71	20122.89
574.071	20245.37
574.432	20385.93
574.794	20552.26
575.155	20528.53
575.516	20624.12
575.877	20826.83
576.238	20808.29
576.599	20970.78
576.96	20983.21
577.32	21189.08
577.681	21294.84
578.042	21488.28
578.403	21502.51
578.763	21586.81
579.124	21835.84
579.485	21974.82
579.845	22080.58
580.206	22100.92
580.566	22346.11
580.927	22420.23
581.287	22643.5
581.648	22616.61
582.008	22898.86
582.368	23032.87
582.728	23239.64
583.089	23382.69
583.449	23598.05
583.809	23740.19
584.169	23956.91
584.529	24055.89
584.889	24431.48
585.249	24461.53
585.609	24594.18
585.969	24872.37
586.329	25029.2
586.688	25251.34
587.048	25476.42
587.408	25656.75
587.768	25825.56
588.127	26099
588.487	26178.55
588.846	26602.94
589.206	26603.85
589.565	26970.84
589.925	27261.23
590.284	27339.2
590.643	27565.18
591.003	27916.36
591.362	28211.94
591.721	28377.81
592.08	28549.11
592.44	28800.63
592.799	29037.23
593.158	29214.4
593.517	29497.11
593.876	29619.36
594.235	29894.84
594.593	30098.67
594.952	30424.76
595.311	30665.66
595.67	30806.68
596.029	31188.13
596.387	31337.74
596.746	31531.85
597.104	31652.08
597.463	31796.25
597.822	32166.19
598.18	32301.55
598.538	32520.3
598.897	32869.9
599.255	32658.15
599.613	33441.41
599.972	33262.88
600.33	33682.08
600.688	33610.44
601.046	33901.51
601.404	34261.27
601.762	34386.47
602.12	34660.59
602.478	34883.18
602.836	34998.43
603.194	34986.45
603.552	35352.09
603.91	35343.28
604.268	35653.33
604.625	35658.98
604.983	35880.89
605.341	35945.07
605.698	36226.19
606.056	36355.68
606.413	36494.44
606.771	36698.72
607.128	37010.13
607.485	36954.54
607.843	37150.01
608.2	37465.94
608.557	37577.8
608.914	37621.64
609.272	37916.09
609.629	38152.25
609.986	38284.45
610.343	38286.48
610.7	38652.12
611.057	38630.42
611.414	38783.42
611.771	38904.32
612.127	39110.64
612.484	39176.4
612.841	39362.38
613.198	39312.21
613.554	39429.95
613.911	39848.25
614.267	39840.11
614.624	39825.2
614.98	40091.18
615.337	40254.34
615.693	40249.59
616.05	40295.69
616.406	40534.1
616.762	40394.22
617.118	40715.34
617.475	40751.05
617.831	40838.5
618.187	40961.44
618.543	41014.09
618.899	41241.66
619.255	41244.37
619.611	41348.09
619.967	41539.95
620.323	41620.4
620.678	41618.59
621.034	41504.47
621.39	41674.86
621.746	41594.41
622.101	42223.55
622.457	41730.23
622.812	42031.24
623.168	42225.13
623.523	42194.17
623.879	42369.76
624.234	42070.33
624.589	42231.69
624.945	42260.39
625.3	42478.91
625.655	42520.04
626.01	42447.95
626.365	42532.7
626.72	42539.02
627.075	42491.57
627.43	42661.05
627.785	42440.04
628.14	42576.08
628.495	42720.49
628.85	42741.28
629.205	42644.1
629.559	42860.6
629.914	42703.99
630.269	42771.11
630.623	42709.64
630.978	42472.81
631.332	42799.58
631.687	42871.22
632.041	42828.51
632.396	42844.1
632.75	42759.58
633.104	42791.22
633.459	42559.36
633.813	42715.29
634.167	42702.18
634.521	42772.24
634.875	42732.69
635.229	42903.31
635.583	42610.89
635.937	42702.63
636.291	42623.77
636.645	42673.93
636.999	42553.71
637.352	42747.83
637.706	42502.64
638.06	42577.44
638.413	42540.38
638.767	42462.87
639.121	42565.69
639.474	42247.73
639.828	42269.2
640.181	42515.29
640.534	42413.83
640.888	42383.77
641.241	42372.7
641.594	42422.87
641.947	42509.64
642.301	42326.6
642.654	42321.4
643.007	42378.57
643.36	42251.57
643.713	42261.74
644.066	42408.18
644.419	42087.28
644.771	41890.68
645.124	41478.03
645.477	41587.18
645.83	41293.18
646.182	41243.24
646.535	41113.52
646.888	41114.43
647.24	41062.23
647.593	41240.75
647.945	41067.65
648.298	40899.97
648.65	40836.69
649.002	40877.37
649.355	41031.72
649.707	40993.98
650.059	41114.88
650.411	41539.5
650.763	41716.9
651.115	41786.5
651.467	41751.25
651.819	41893.39
652.171	41727.07
652.523	41645.49
652.875	41716.45
653.227	41588.77
653.578	41752.15
653.93	41608.65
654.282	41531.14
654.633	41372.73
654.985	41463.12
655.337	41492.5
655.688	41593.74
656.039	41716.9
656.391	41371.14
656.742	41396
657.094	41565.26
657.445	41492.27
657.796	41554.42
658.147	41482.55
658.498	41462.67
658.849	41556
659.2	41435.55
659.551	41420.18
659.902	41473.51
660.253	41333.18
660.604	41511.93
660.955	41168.21
661.306	41447.98
661.656	41284.14
662.007	41275.1
662.358	41260.64
662.708	41347.64
663.059	41205.95
663.409	41057.93
663.76	41296.34
664.11	41377.7
664.461	41341.99
664.811	41177.02
665.161	41142.45
665.511	41007.09
665.862	41108.1
666.212	41268.32
666.562	41296.8
666.912	41107.65
667.262	41022.68
667.612	40998.5
667.962	41116.01
668.312	41056.58
668.662	41269.68
669.011	41189
669.361	41091.38
669.711	40964.15
670.06	40981.78
670.41	40989.01
670.76	40956.69
671.109	41127.76
671.459	41064.49
671.808	40986.97
672.157	41125.05
672.507	40800.76
672.856	40912.62
673.205	40926.41
673.554	41032.85
673.904	40820.42
674.253	41020.42
674.602	40888.9
674.951	40418.63
675.3	40162.14
675.649	40866.52
675.998	40793.98
676.346	40844.15
676.695	40993.98
677.044	40576.59
677.393	40683.7
677.741	40822.68
678.09	40643.71
678.438	40579.07
678.787	40532.75
679.135	40700.88
679.484	40374.56
679.832	40560.32
680.181	40387.89
680.529	40410.04
680.877	40398.29
681.225	40263.15
681.573	40543.59
681.922	40231.29
682.27	40258.18
682.618	40074
682.966	40036.04
683.314	40170.95
683.661	39979.77
684.009	39822.71
684.357	39924.85
684.705	39718.31
685.053	39919.43
685.4	39790.62
685.748	39572.1
686.095	39646.67
686.443	39634.92
686.79	39270.18
687.138	39435.15
687.485	39430.86
687.832	39151.32
688.18	39310.86
688.527	39093.01
688.874	39093.24
689.221	38937.08
689.568	38880.59
689.915	38877.65
690.262	38819.8
690.609	38788.16
690.956	38575.29
691.303	38504.55
691.65	38507.04
691.997	38274.5
692.344	38213.03
692.69	38199.7
693.037	38182.08
693.383	37879.94
693.73	38067.05
694.077	37625.48
694.423	37821.41
694.769	37675.87
695.116	37553.17
695.462	37587.29
695.808	37412.83
696.155	37471.36
696.501	37331.7
696.847	37242.44
697.193	37012.39
697.539	37199.5
697.885	36867.53
698.231	36820.08
698.577	36724.49
698.923	36707.09
699.269	36501.22
699.614	36365.4
699.96	36348
700.306	36405.4
700.651	36160.21
700.997	35984.17
701.342	35975.35
701.688	35997.5
702.033	35857.39
702.379	35755.25
702.724	35750.05
703.069	35798.86
703.415	35354.13
703.76	35315.26
704.105	35405.42
704.45	35434.58
704.795	35110.29
705.14	35023.06
705.485	35065.09
705.83	34918.21
706.175	34975.83
706.52	34762.05
706.865	34586.46
707.209	34633.02
707.554	34571.55
707.899	34709.17
708.243	34393.7
708.588	34337.66
708.932	34207.26
709.277	34204.78
709.621	34177.43
709.966	33959.81
710.31	33941.96
710.654	33716.88
710.998	33814.96
711.342	33826.03
711.687	33800.95
712.031	33501.52
712.375	33423.56
712.719	33446.83
713.063	33447.96
713.407	33565.25
713.75	33283.45
714.094	33327.29
714.438	33145.37
714.782	33235.54
715.125	33033.06
715.469	33140.63
715.812	32892.95
716.156	32793.52
716.499	32685.04
716.843	32854.31
717.186	32593.3
717.53	32755.1
717.873	32724.82
718.216	32646.4
718.559	32500.19
718.902	32343.36
719.246	32396.92
719.589	32298.61
719.932	32228.11
720.275	32187.88
720.617	32050.94
720.96	32008.9
721.303	32135.45
721.646	32111.27
721.989	31927.78
722.331	31933.2
722.674	31866.76
723.016	31863.82
723.359	31728.46
723.701	31859.08
724.044	31583.83
724.386	31460.22
724.729	31493.44
725.071	31521.46
725.413	31579.54
725.755	31379.32
726.097	31281.92
726.439	31285.08
726.782	31189.72
727.124	31358.3
727.465	31158.98
727.807	31165.99
728.149	30948.82
728.491	30929.84
728.833	31020.68
729.175	30809.84
729.516	30766.9
729.858	30694.14
730.199	30790.63
730.541	30624.08
730.882	30542.95
731.224	30713.34
731.565	30530.07
731.906	30413.92
732.248	30463.41
732.589	30427.25
732.93	30300.7
733.271	30323.52
733.612	30388.83
733.953	30332.11
734.294	30196.97
734.635	30128.05
734.976	30297.99
735.317	30019.35
735.658	30042.63
735.999	30086.02
736.339	29915.4
736.68	29961.05
737.021	29901.39
737.361	29836.31
737.702	29966.47
738.042	29808.51
738.383	29707.5
738.723	29813.93
739.063	29628.63
739.404	29712.02
739.744	29616.42
740.084	29446.26
740.424	29501.85
740.764	29464.79
741.104	29498.01
741.444	29356.77
741.784	29128.75
742.124	29246.72
742.464	29209.43
742.804	29235.87
743.143	29184.8
743.483	29166.72
743.823	28902.32
744.162	28987.51
744.502	29007.85
744.841	28968.31
745.181	28948.87
745.52	28890.34
745.86	28863.9
746.199	28745.71
746.538	28776.67
746.877	28823.23
747.216	28712.04
747.556	28775.99
747.895	28747.29
748.234	28461.88
748.573	28454.2
748.911	28462.56
749.25	28437.02
749.589	28309.79
749.928	28326.06
750.267	28324.71
750.605	28387.98
750.944	28128.78
751.283	28024.15
751.621	28080.42
751.96	28005.39
752.298	28009.69
752.636	28014.88
752.975	27821.67
753.313	27727.66
753.651	27841.78
753.989	27693.99
754.327	27659.87
754.666	27504.16
755.004	27616.7
755.342	27696.93
755.679	27590.49
756.017	27365.18
756.355	27458.74
756.693	27207.9
757.031	27287.67
757.368	27141.01
757.706	27124.96
758.044	27057.4
758.381	27028.7
758.719	26911.41
759.056	26930.62
759.394	26732.43
759.731	26639.78
760.068	26619.89
760.405	26460.12
760.743	26485.66
761.08	26521.82
761.417	26348.04
761.754	26328.38
762.091	26259.22
762.428	26102.84
762.765	25866.47
763.102	26140.36
763.438	25924.54
763.775	25721.84
764.112	25758.22
764.449	25802.51
764.785	25684.78
765.122	25619.92
765.458	25431.9
765.795	25404.78
766.131	25478.91
766.467	25305.8
766.804	25113.27
767.14	25009.54
767.476	24940.62
767.812	24894.97
768.148	24862.65
768.485	24749.21
768.821	24663.79
769.157	24589.21
769.492	24479.38
769.828	24440.29
770.164	24254.31
770.5	24256.57
770.836	24115.78
771.171	24037.81
771.507	23958.49
771.842	23800.98
772.178	23857.03
772.513	23717.37
772.849	23678.05
773.184	23622.23
773.519	23619.75
773.855	23421.79
774.19	23325.06
774.525	23328
774.86	23342.69
775.195	23166.88
775.53	23081.46
775.865	23052.3
776.2	22861.12
776.535	22683.27
776.87	22685.08
777.205	22592.65
777.539	22446.9
777.874	22558.53
778.209	22302.27
778.543	22383.62
778.878	22217.98
779.212	22278.54
779.547	22096.17
779.881	21969.85
780.215	21872
780.55	21987.92
780.884	21721.49
781.218	21646.92
781.552	21766.46
781.886	21593.36
782.22	21528.05
782.554	21459.8
782.888	21247.61
783.222	21173.03
783.556	21076.76
783.889	21058.46
784.223	20899.14
784.557	20869.08
784.89	20969.87
785.224	20724
785.557	20635.19
785.891	20704.57
786.224	20552.03
786.558	20526.72
786.891	20243.11
787.224	20397.68
787.557	20231.13
787.891	20249.67
788.224	20133.06
788.557	20165.37
788.89	20027.07
789.223	20022.33
789.556	19876.12
789.888	19794.99
790.221	19773.97
790.554	19644.94
790.887	19562.68
791.219	19476.8
791.552	19471.61
791.884	19354.32
792.217	19335.57
792.549	19245.85
792.882	19074.1
793.214	19091.5
793.546	19046.53
793.879	18928.34
794.211	18813.09
794.543	18907.78
794.875	18834.79
795.207	18833.21
795.539	18654.23
795.871	18640.67
796.203	18441.8
796.535	18445.64
796.867	18366.1
797.198	18342.82
797.53	18254.24
797.862	18225.31
798.193	18130.62
798.525	18035.94
798.856	18096.5
799.188	17888.82
799.519	17980.8
799.85	17699.22
800.182	17843.63
800.513	17834.14
800.844	17662.84
801.175	17739
801.506	17631.66
801.837	17516.86
802.168	17509.62
802.499	17383.3
802.83	17361.83
803.161	17401.83
803.491	17388.95
803.822	17343.98
804.153	17324.09
804.483	17012.01
804.814	16979.69
805.145	17057.88
805.475	16966.14
805.805	17007.04
806.136	16910.32
806.466	16907.15
806.796	16939.7
807.126	16726.82
807.457	16692.92
807.787	16697.67
808.117	16584.68
808.447	16581.97
808.777	16529.76
809.107	16483.21
809.436	16406.6
809.766	16493.38
810.096	16430.78
810.426	16347.4
810.755	16369.54
811.085	16231.69
811.414	16273.05
811.744	16012.26
812.073	16078.7
812.403	16006.84
812.732	15924.81
813.061	15877.8
813.39	15818.14
813.719	15783.34
814.049	15937.69
814.378	15882.1
814.707	15733.4
815.036	15738.6
815.365	15576.34
815.693	15513.97
816.022	15505.38
816.351	15506.29
816.68	15432.39
817.008	15436.23
817.337	15339.29
817.665	15238.95
817.994	15308.55
818.322	15248.21
818.651	15220.19
818.979	15101.78
819.307	15159.63
819.636	15078.95
819.964	15065.17
820.292	15056.58
820.62	15079.18
820.948	15032.4
821.276	15153.75
821.604	15027.2
821.932	15064.72
822.259	15074.66
822.587	15021.78
822.915	14988.33
823.243	15006.64
823.57	15009.8
823.898	14952.18
824.225	14872.41
824.553	14856.81
824.88	14969.13
825.207	14926.87
825.535	14996.92
825.862	15047.99
826.189	14909.24
826.516	15003.02
826.843	15090.93
827.17	15016.58
827.497	14986.75
827.824	14987.43
828.151	15026.75
828.478	14947.88
828.805	14985.85
829.131	14865.4
829.458	14936.13
829.785	14829.47
830.111	14890.03
830.438	14997.37
830.764	14888.45
831.09	14923.93
831.417	14874.21
831.743	14867.66
832.069	14897.94
832.395	14844.61
832.722	14893.2
833.048	14752.41
833.374	14782.46
833.7	14693.2
834.026	14742.69
834.351	14761
834.677	14787.89
835.003	14713.77
835.329	14811.62
835.654	14667.67
835.98	14603.26
836.306	14643.26
836.631	14592.64
836.956	14652.75
837.282	14578.4
837.607	14607.33
837.932	14564.39
838.258	14573.66
838.583	14517.84
838.908	14460.66
839.233	14503.38
839.558	14481.23
839.883	14422.93
840.208	14305.64
840.533	14375.02
840.858	14299.54
841.182	14332.53
841.507	14353.32
841.832	14202.37
842.156	14204.85
842.481	14205.3
842.805	14222.93
843.13	14105.65
843.454	14121.46
843.778	14070.17
844.103	13984.07
844.427	14013.45
844.751	13949.72
845.075	13996.72
845.399	13933
845.723	13850.06
846.047	13801.47
846.371	13772.55
846.695	13747.92
847.019	13586.79
847.343	13581.82
847.666	13476.74
847.99	13501.14
848.313	13404.65
848.637	13364.65
848.96	13322.62
849.284	13304.76
849.607	13152.9
849.931	13122.62
850.254	13075.62
850.577	12931.89
850.9	12862.97
851.223	12852.57
851.546	12895.51
851.869	12762.4
852.192	12795.62
852.515	12584.56
852.838	12680.6
853.161	12651.9
853.483	12595.4
853.806	12510.43
854.129	12486.03
854.451	12451.23
854.774	12397.44
855.096	12392.7
855.419	12273.6
855.741	12227.96
856.063	12254.17
856.385	12247.84
856.708	12220.05
857.03	12132.36
857.352	12102.76
857.674	12038.58
857.996	11972.37
858.318	11948.41
858.64	11999.03
858.961	11844.01
859.283	11911.13
859.605	11802.66
859.926	11870.9
860.248	11764.69
860.57	11720.4
860.891	11723.79
861.212	11727.63
861.534	11697.35
861.855	11580.74
862.176	11646.5
862.498	11569.44
862.819	11610.57
863.14	11558.82
863.461	11534.19
863.782	11528.54
864.103	11445.38
864.424	11485.83
864.745	11433.63
865.065	11411.71
865.386	11388.43
865.707	11354.08
866.027	11332.61
866.348	11355.89
866.668	11348.2
866.989	11325.15
867.309	11236.34
867.63	11276.12
867.95	11273.18
868.27	11253.52
868.59	11177.14
868.91	11245.16
869.23	11142.11
869.55	11051.94
869.87	11141.88
870.19	11127.87
870.51	11126.06
870.83	11136.23
871.15	11019.85
871.469	11064.6
871.789	11013.52
872.109	11056.69
872.428	10958.61
872.748	10992.28
873.067	10979.17
873.386	10908.22
873.706	10868.44
874.025	10843.36
874.344	10853.3
874.663	10845.62
874.982	10837.71
875.301	10812.85
875.62	10796.13
875.939	10732.4
876.258	10715.45
876.577	10665.96
876.896	10642.23
877.214	10628.22
877.533	10686.3
877.852	10616.02
878.17	10622.57
878.489	10618.51
878.807	10670.71
879.125	10573.08
879.444	10556.81
879.762	10529.92
880.08	10579.41
880.398	10494.89
880.716	10508.68
881.034	10521.56
881.352	10489.92
881.67	10431.17
881.988	10410.83
882.306	10332.19
882.624	10327.21
882.941	10349.59
883.259	10278.4
883.577	10223.49
883.894	10228.69
884.212	10259.65
884.529	10249.7
884.846	10136.26
885.164	10136.03
885.481	10112.76
885.798	10113.21
886.115	10084.51
886.432	10133.32
886.75	10013.55
887.067	10100.55
887.383	10013.32
887.7	10011.06
888.017	9936.94
888.334	9946.43
888.651	9956.15
888.967	9859.66
889.284	9847
889.6	9808.58
889.917	9788.47
890.233	9762.48
890.55	9714.8
890.866	9734.69
891.182	9685.42
891.498	9664.41
891.815	9608.59
892.131	9630.28
892.447	9603.39
892.763	9522.94
893.079	9489.04
893.395	9511.42
893.71	9488.37
894.026	9398.88
894.342	9384.41
894.657	9305.77
894.973	9296.96
895.289	9303.29
895.604	9348.26
895.92	9217.41
896.235	9224.64
896.55	9157.98
896.865	9190.97
897.181	9110.3
897.496	9091.09
897.811	9062.84
898.126	9021.03
898.441	9048.6
898.756	8978.78
899.071	8866.69
899.386	8907.82
899.7	8809.97
900.015	8876.41
900.33	8776.52
900.644	8759.35
900.959	8775.16
901.273	8699.46
901.588	8700.82
901.902	8709.18
902.216	8663.53
902.531	8620.37
902.845	8527.26
903.159	8543.53
903.473	8520.93
903.787	8409.98
904.101	8423.31
904.415	8421.5
904.729	8353.93
905.042	8324.56
905.356	8296.76
905.67	8271.45
905.984	8269.42
906.297	8293.37
906.611	8223.31
906.924	8181.73
907.237	8105.8
907.551	8085.24
907.864	8095.18
908.177	8061.51
908.491	8019.93
908.804	7960.04
909.117	7960.72
909.43	7963.21
909.743	7928.63
910.056	7840.95
910.368	7804.12
910.681	7769.99
910.994	7762.99
911.307	7729.09
911.619	7649.09
911.932	7680.05
912.244	7621.97
912.557	7641.18
912.869	7559.6
913.181	7590.56
913.494	7555.76
913.806	7428.08
914.118	7487.29
914.43	7376.78
914.742	7389.44
915.054	7388.76
915.366	7350.12
915.678	7273.96
915.99	7227.86
916.302	7219.05
916.613	7195.09
916.925	7140.18
917.236	7173.17
917.548	7097.24
917.859	7036
918.171	7027.19
918.482	6994.87
918.794	7034.19
919.105	7009.56
919.416	6876.91
919.727	6919.39
920.038	6920.75
920.349	6886.17
920.66	6839.62
920.971	6752.62
921.282	6724.82
921.593	6725.5
921.903	6662.9
922.214	6678.27
922.525	6656.8
922.835	6560.76
923.146	6534.09
923.456	6514.43
923.767	6508.33
924.077	6537.94
924.387	6476.47
924.697	6423.59
925.008	6422.01
925.318	6425.85
925.628	6433.31
925.938	6345.17
926.248	6296.81
926.558	6316.25
926.867	6247.32
927.177	6215.68
927.487	6175.91
927.796	6180.66
928.106	6115.12
928.416	6142.01
928.725	6062.02
929.034	6104.27
929.344	6042.81
929.653	6035.58
929.962	6064.5
930.271	5986.76
930.581	5933.43
930.89	5918.74
931.199	5865.18
931.508	5901.12
931.817	5863.6
932.125	5812.3
932.434	5805.75
932.743	5748.13
933.051	5726.66
933.36	5746.77
933.669	5652.08
933.977	5632.65
934.286	5659.77
934.594	5572.99
934.902	5561.69
935.21	5563.72
935.519	5576.6
935.827	5515.36
936.135	5514.69
936.443	5441.47
936.751	5438.08
937.059	5449.38
937.367	5415.93
937.674	5425.2
937.982	5330.06
938.29	5333.45
938.597	5315.59
938.905	5282.6
939.213	5264.97
939.52	5237.63
939.827	5274.24
940.135	5218.2
940.442	5186.11
940.749	5193.56
941.056	5193.79
941.363	5084.19
941.67	5092.32
941.977	5112.89
942.284	5056.62
942.591	5041.48
942.898	4995.38
943.205	5027.69
943.511	4945.89
943.818	4982.27
944.125	4893.23
944.431	4905.44
944.738	4869.96
945.044	4876.51
945.35	4844.87
945.657	4766.91
945.963	4792.44
946.269	4771.2
946.575	4804.65
946.881	4769.39
947.187	4747.47
947.493	4690.75
947.799	4691.43
948.105	4669.51
948.41	4648.49
948.716	4674.26
949.022	4587.03
949.327	4575.95
949.633	4525.56
949.938	4546.35
950.244	4514.03
950.549	4500.7
950.854	4445.34
951.16	4480.14
951.465	4432.68
951.77	4453.24
952.075	4422.51
952.38	4384.55
952.685	4359.24
952.99	4316.3
953.294	4305.68
953.599	4348.39
953.904	4253.25
954.209	4203.76
954.513	4256.87
954.818	4310.2
955.122	4227.94
955.426	4222.74
955.731	4162.4
956.035	4138.45
956.339	4121.05
956.643	4170.31
956.948	4109.75
957.252	4088.51
957.556	4066.59
957.86	4046.48
958.163	4039.47
958.467	4027.72
958.771	4001.5
959.075	4022.75
959.378	3990.88
959.682	3952.01
959.985	3967.16
960.289	3934.39
960.592	3930.55
960.896	3895.75
961.199	3903.43
961.502	3831.79
961.805	3819.81
962.108	3760.61
962.411	3818.68
962.714	3748.63
963.017	3756.31
963.32	3781.85
963.623	3766.48
963.926	3734.62
964.228	3698.24
964.531	3687.61
964.833	3679.25
965.136	3686.26
965.438	3622.76
965.741	3621.18
966.043	3608.29
966.345	3545.92
966.648	3592.7
966.95	3591.8
967.252	3530.1
967.554	3495.98
967.856	3502.08
968.158	3495.3
968.46	3461.18
968.761	3457.56
969.063	3435.42
969.365	3454.17
969.666	3433.84
969.968	3392.26
970.269	3372.82
970.571	3369.43
970.872	3373.95
971.174	3328.53
971.475	3375.98
971.776	3337.57
972.077	3313.16
972.378	3240.85
972.679	3255.76
972.98	3260.96
973.281	3230.23
973.582	3223.67
973.883	3216.21
974.183	3227.51
974.484	3162.2
974.785	3179.61
975.085	3172.37
975.386	3173.96
975.686	3131.02
975.986	3113.39
976.287	3079.5
976.587	3092.6
976.887	3082.89
977.187	3063.22
977.487	3040.17
977.787	3023.23
978.087	3010.34
978.387	3038.37
978.687	3030.91
978.987	3004.24
979.286	2967.18
979.586	2971.93
979.885	2891.03
980.185	2926.5
980.484	2911.14
980.784	2910.69
981.083	2892.61
981.382	2867.75
981.682	2847.86
981.981	2832.04
982.28	2797.47
982.579	2820.97
982.878	2831.14
983.177	2788.2
983.475	2793.4
983.774	2798.6
984.073	2770.58
984.372	2752.05
984.67	2711.82
984.969	2735.32
985.267	2731.26
985.566	2687.19
985.864	2712.95
986.162	2691.71
986.461	2627.08
986.759	2668.88
987.057	2623.01
987.355	2601.77
987.653	2620.07
987.951	2620.07
988.249	2606.51
988.547	2589.34
988.844	2593.18
989.142	2568.32
989.44	2532.39
989.737	2526.74
990.035	2524.26
990.332	2511.15
990.63	2494.88
990.927	2481.54
991.224	2472.28
991.521	2436.57
991.819	2440.19
992.116	2466.63
992.413	2439.96
992.71	2410.13
993.006	2406.29
993.303	2390.25
993.6	2387.76
993.897	2419.85
994.193	2383.69
994.49	2350.93
994.787	2347.31
995.083	2329.01
995.379	2317.03
995.676	2318.39
995.972	2331.27
996.268	2310.02
996.565	2262.34
996.861	2289.69
997.157	2244.71
997.453	2256.92
997.749	2256.24
998.044	2221.89
998.34	2215.79
998.636	2205.39
998.932	2202.23
999.227	2182.34
999.523	2162.91
999.818	2156.36
1000.114	2140.31
1000.409	2132.4
1000.704	2101.44
1001	2103.7
1001.295	2063.02
1001.59	2082.23
1001.885	2084.95
1002.18	2053.31
1002.475	2046.98
1002.77	2066.19
1003.065	2018.51
1003.359	2009.92
1003.654	2015.12
1003.949	2034.78
1004.243	2016.7
1004.538	1987.09
1004.832	1988.68
1005.127	1960.88
1005.421	1958.62
1005.715	1924.5
1006.009	1930.82
1006.304	1925.18
1006.598	1903.71
1006.892	1920.66
1007.186	1890.37
1007.48	1854.89
1007.773	1859.64
1008.067	1864.61
1008.361	1839.75
1008.655	1843.82
1008.948	1834.56
1009.242	1822.58
1009.535	1810.15
1009.829	1815.57
1010.122	1797.95
1010.415	1768.57
1010.708	1746.42
1011.001	1775.35
1011.295	1733.32
1011.588	1737.16
1011.881	1741
1012.173	1707.55
1012.466	1722.69
1012.759	1707.1
1013.052	1684.05
1013.344	1662.13
1013.637	1662.36
1013.93	1659.19
1014.222	1630.72
1014.514	1625.3
1014.807	1634.11
1015.099	1627.56
1015.391	1626.43
1015.683	1609.93
1015.976	1598.4
1016.268	1561.12
1016.56	1570.38
1016.851	1529.03
1017.143	1533.1
1017.435	1521.8
1017.727	1539.42
1018.018	1508.92
1018.31	1522.25
1018.602	1522.25
1018.893	1483.83
1019.185	1471.63
1019.476	1482.48
1019.767	1453.1
1020.058	1452.65
1020.35	1461.68
1020.641	1449.71
1020.932	1425.53
1021.223	1391.86
1021.514	1416.94
1021.804	1403.61
1022.095	1403.16
1022.386	1392.31
1022.677	1339.88
1022.967	1340.78
1023.258	1345.76
1023.548	1355.92
1023.839	1324.06
1024.129	1351.41
1024.419	1328.13
1024.709	1309.37
1025	1293.1
1025.29	1277.96
1025.58	1275.93
1025.87	1288.58
1026.16	1266.44
1026.449	1249.71
1026.739	1242.48
1027.029	1236.83
1027.319	1245.65
1027.608	1225.53
1027.898	1272.54
1028.187	1229.15
1028.477	1200.9
1028.766	1201.13
1029.055	1176.95
1029.344	1183.27
1029.634	1208.13
1029.923	1158.19
1030.212	1140.34
1030.501	1168.13
1030.79	1145.99
1031.078	1138.76
1031.367	1125.87
1031.656	1141.24
1031.945	1096.04
1032.233	1111.41
1032.522	1080
1032.81	1086.55
1033.099	1089.27
1033.387	1081.81
1033.675	1068.93
1033.963	1076.38
1034.251	1091.52
1034.54	1050.17
1034.828	1044.29
1035.116	1019.66
1035.403	1027.57
1035.691	1022.83
1035.979	1017.18
1036.267	1025.31
1036.554	1019.21
1036.842	1032.09
1037.129	986.67
1037.417	986.44
1037.704	985.99
1037.992	981.92
1038.279	980.57
1038.566	960
1038.853	960
1039.14	960
