Data from hue_150_FLMS001491_00079.txt Node
Date: Tue Feb 07 16:54:31 GMT 2017
User: dcchb
Spectrometer: FLMS00149
Trigger mode: 0
Integration Time (sec): 2.000000E-2
Scans to average: 10
Electric dark correction enabled: true
Nonlinearity correction enabled: false
Boxcar width: 0
XAxis mode: Wavelengths
Number of Pixels in Spectrum: 2048
>>>>>Begin Spectral Data<<<<<
341.393	-3.57
341.776	-3.57
342.16	-3.57
342.543	-68.43
342.927	-77.02
343.31	-58.94
343.693	-59.84
344.077	-81.76
344.46	-40.63
344.843	-39.73
345.226	-48.09
345.61	-41.99
345.993	-21.88
346.376	-18.71
346.759	-4.48
347.142	32.58
347.525	31
347.908	74.62
348.291	80.49
348.674	80.27
349.057	117.1
349.44	141.96
349.823	133.6
350.206	193.26
350.588	191
350.971	226.93
351.354	199.59
351.737	235.06
352.119	256.08
352.502	259.47
352.884	249.53
353.267	279.36
353.65	286.14
354.032	281.39
354.414	294.72
354.797	312.12
355.179	326.14
355.562	326.36
355.944	303.09
356.326	334.72
356.709	333.82
357.091	326.14
357.473	355.51
357.855	332.91
358.238	338.34
358.62	349.86
359.002	335.85
359.384	333.59
359.766	349.19
360.148	339.92
360.53	345.8
360.912	345.34
361.294	327.94
361.676	336.76
362.057	333.82
362.439	336.76
362.821	321.16
363.203	321.84
363.584	322.07
363.966	330.66
364.348	325.23
364.729	305.35
365.111	302.86
365.493	322.97
365.874	323.88
366.256	322.07
366.637	336.98
367.019	327.27
367.4	300.6
367.781	306.02
368.163	325.91
368.544	316.19
368.925	309.41
369.306	321.39
369.688	307.83
370.069	313.03
370.45	316.42
370.831	325.01
371.212	301.5
371.593	316.42
371.974	305.12
372.355	320.26
372.736	322.29
373.117	321.62
373.498	320.49
373.879	286.36
374.26	336.08
374.641	321.39
375.021	329.75
375.402	329.07
375.783	329.53
376.163	330.43
376.544	336.98
376.925	313.25
377.305	310.99
377.686	318.45
378.066	311.45
378.447	326.59
378.827	321.62
379.208	332.46
379.588	323.2
379.968	321.16
380.349	336.98
380.729	324.1
381.109	348.73
381.489	342.18
381.87	338.11
382.25	323.2
382.63	325.68
383.01	342.41
383.39	349.64
383.77	343.99
384.15	332.91
384.53	337.66
384.91	345.8
385.29	348.73
385.67	330.66
386.049	350.09
386.429	336.98
386.809	344.44
387.189	346.47
387.568	336.3
387.948	353.03
388.328	350.99
388.707	361.39
389.087	374.5
389.466	363.65
389.846	354.84
390.225	357.32
390.605	349.41
390.984	359.81
391.363	365.23
391.743	376.98
392.122	376.98
392.501	382.18
392.881	389.64
393.26	376.3
393.639	387.15
394.018	377.89
394.397	377.89
394.776	396.19
395.155	367.49
395.534	398
395.913	375.17
396.292	389.41
396.671	379.02
397.05	387.83
397.429	396.42
397.808	396.64
398.186	387.83
398.565	401.16
398.944	405.46
399.323	384.44
399.701	400.94
400.08	404.78
400.458	399.35
400.837	400.94
401.215	404.78
401.594	394.61
401.972	388.05
402.351	423.31
402.729	405.46
403.107	412.46
403.486	410.2
403.864	427.6
404.242	434.83
404.62	414.04
404.999	424.66
405.377	425.57
405.755	440.71
406.133	436.42
406.511	443.65
406.889	442.06
407.267	443.42
407.645	442.97
408.023	445.68
408.401	432.12
408.779	456.75
409.156	427.83
409.534	446.81
409.912	434.38
410.29	444.78
410.667	448.17
411.045	469.41
411.422	468.5
411.8	478.9
412.178	465.34
412.555	485.91
412.933	460.14
413.31	485
413.687	476.41
414.065	499.69
414.442	504.66
414.819	489.3
415.197	492.91
415.574	505.79
415.951	519.35
416.328	514.15
416.705	502.85
417.082	519.35
417.46	520.25
417.837	518.9
418.214	499.46
418.591	529.75
418.967	513.25
419.344	514.38
419.721	535.62
420.098	543.08
420.475	546.69
420.852	538.33
421.228	556.86
421.605	560.03
421.982	562.97
422.358	546.92
422.735	584.89
423.111	564.1
423.488	562.97
423.864	553.25
424.241	593.02
424.617	586.02
424.994	574.04
425.37	581.5
425.746	590.76
426.123	597.09
426.499	600.93
426.875	614.49
427.251	616.07
427.627	623.08
428.003	626.69
428.379	608.61
428.756	631.89
429.132	628.5
429.507	655.39
429.883	626.92
430.259	642.74
430.635	666.92
431.011	658.33
431.387	693.36
431.763	696.97
432.138	656.97
432.514	684.54
432.89	708.05
433.265	714.37
433.641	702.4
434.016	720.48
434.392	715.28
434.767	725.67
435.143	718.22
435.518	726.12
435.894	723.87
436.269	734.26
436.644	746.24
437.02	735.84
437.395	756.41
437.77	763.41
438.145	781.26
438.52	802.28
438.895	785.11
439.271	775.62
439.646	814.71
440.021	801.38
440.395	797.54
440.77	805.44
441.145	807.25
441.52	846.8
441.895	837.08
442.27	837.08
442.645	838.21
443.019	847.03
443.394	844.54
443.769	860.36
444.143	859
444.518	880.92
444.892	869.17
445.267	900.36
445.641	861.26
446.016	907.36
446.39	894.48
446.764	935.61
447.139	931.32
447.513	909.85
447.887	923.41
448.262	926.35
448.636	935.61
449.01	949.17
449.384	945.33
449.758	960.24
450.132	959.34
450.506	958.44
450.88	989.62
451.254	990.98
451.628	964.08
452.002	979.68
452.376	998.89
452.75	998.43
453.123	1040.02
453.497	1044.08
453.871	1021.94
454.244	1066.68
454.618	1074.14
454.992	1102.39
455.365	1076.4
455.739	1087.25
456.112	1137.41
456.486	1148.71
456.859	1160.46
457.232	1162.27
457.606	1165.89
457.979	1190.07
458.352	1182.38
458.725	1236.85
459.099	1235.94
459.472	1269.39
459.845	1246.11
460.218	1269.39
460.591	1251.53
460.964	1259.44
461.337	1285.88
461.71	1335.37
462.083	1360.68
462.456	1347.13
462.829	1358.65
463.201	1389.61
463.574	1385.77
463.947	1389.61
464.32	1444.52
464.692	1457.41
465.065	1444.3
465.438	1475.48
465.81	1491.75
466.183	1553
466.555	1604.07
466.928	1577.18
467.3	1605.88
467.672	1635.25
468.045	1655.14
468.417	1669.83
468.789	1671.41
469.161	1723.84
469.534	1750.05
469.906	1796.15
470.278	1814.91
470.65	1854.46
471.022	1896.94
471.394	1920.22
471.766	1948.92
472.138	1988.69
472.51	2036.6
472.882	2103.94
473.253	2139.42
473.625	2175.35
473.997	2221.68
474.369	2235.92
474.74	2294.22
475.112	2334.22
475.484	2413.76
475.855	2456.7
476.227	2507.1
476.598	2578.96
476.97	2627.09
477.341	2693.53
477.713	2759.29
478.084	2813.3
478.455	2865.96
478.827	2934.88
479.198	3032.96
479.569	3095.33
479.94	3183.01
480.311	3283.8
480.682	3376.68
481.053	3444.7
481.424	3571.93
481.795	3625.48
482.166	3750
482.537	3869.77
482.908	3920.17
483.279	3954.97
483.65	4141.85
484.021	4269.31
484.391	4326.26
484.762	4405.8
485.133	4545.23
485.503	4633.59
485.874	4791.1
486.244	4889.18
486.615	5034.49
486.985	5157.42
487.356	5282.84
487.726	5397.41
488.097	5512.89
488.467	5640.35
488.837	5792.43
489.207	5948.13
489.578	6070.39
489.948	6175.25
490.318	6313.55
490.688	6360.78
491.058	6596.25
491.428	6675.12
491.798	6844.38
492.168	7023.13
492.538	7067.43
492.908	7206.86
493.278	7374.76
493.648	7451.82
494.017	7611.59
494.387	7757.8
494.757	7867.18
495.126	8033.73
495.496	8054.29
495.866	8239.15
496.235	8372.25
496.605	8482.76
496.974	8610.66
497.344	8761.62
497.713	8792.58
498.082	8966.81
498.452	9049.3
498.821	9098.11
499.19	9193.92
499.559	9361.38
499.928	9454.48
500.298	9611.99
500.667	9689.51
501.036	9768.6
501.405	9870.74
501.774	9893.57
502.143	10040
502.512	10093.79
502.88	10222.37
503.249	10263.05
503.618	10349.83
503.987	10458.3
504.356	10455.59
504.724	10557.28
505.093	10665.75
505.462	10693.09
505.83	10781.23
506.199	10898.51
506.567	11078.62
506.936	11069.81
507.304	11239.97
507.672	11263.02
508.041	11243.14
508.409	11402
508.777	11450.36
509.145	11514.54
509.514	11476.8
509.882	11584.37
510.25	11648.1
510.618	11690.58
510.986	11851.03
511.354	11875.89
511.722	11999.27
512.09	12023.91
512.458	12011.7
512.826	12099.84
513.193	12173.06
513.561	12257.8
513.929	12241.98
514.297	12358.36
514.664	12410.34
515.032	12341.86
515.4	12578.24
515.767	12497.57
516.135	12514.52
516.502	12515.42
516.869	12739.14
517.237	12605.36
517.604	12622.54
517.972	12797.45
518.339	12764.9
518.706	12846.03
519.073	12799.03
519.44	12822.53
519.808	13018.23
520.175	12935.75
520.542	12997.67
520.909	13098.91
521.276	13063.88
521.643	13178.45
522.009	13151.79
522.376	13198.57
522.743	13300.03
523.11	13314.27
523.477	13390.88
523.843	13406.02
524.21	13516.3
524.577	13479.69
524.943	13527.82
525.31	13580.93
525.676	13632.9
526.043	13570.53
526.409	13707.93
526.776	13719.91
527.142	13722.17
527.508	13642.17
527.874	13749.51
528.241	13872.67
528.607	13797.65
528.973	13845.55
529.339	13765.56
529.705	13848.04
530.071	13919
530.437	13829.51
530.803	13981.37
531.169	13873.58
531.535	13830.19
531.901	13910.19
532.267	13898.66
532.632	13922.39
532.998	13890.3
533.364	13962.39
533.73	13890.98
534.095	13917.42
534.461	13820.47
534.826	13918.32
535.192	13892.11
535.557	13933.24
535.923	13827.02
536.288	13798.78
536.653	13906.34
537.019	13813.46
537.384	13736.86
537.749	13753.35
538.114	13808.49
538.479	13584.32
538.845	13703.41
539.21	13579.8
539.575	13636.75
539.94	13667.93
540.305	13647.14
540.67	13528.95
541.034	13586.35
541.399	13538.9
541.764	13444.66
542.129	13439.46
542.494	13469.29
542.858	13323.99
543.223	13394.72
543.587	13421.61
543.952	13232.91
544.316	13286.92
544.681	13272.91
545.045	13311.1
545.41	13224.33
545.774	13173.93
546.138	13174.16
546.503	13188.85
546.867	13055.97
547.231	13150.66
547.595	12996.08
547.959	13065.46
548.324	12955.41
548.688	12920.83
549.052	12981.85
549.416	12889.19
549.779	12881.51
550.143	12863.66
550.507	12882.19
550.871	12849.65
551.235	12735.75
551.599	12795.64
551.962	12782.08
552.326	12732.81
552.689	12751.12
553.053	12627.73
553.417	12585.47
553.78	12723.1
554.143	12587.06
554.507	12606.72
554.87	12517
555.234	12677.9
555.597	12535.31
555.96	12525.14
556.323	12577.56
556.686	12455.76
557.05	12493.95
557.413	12500.05
557.776	12471.35
558.139	12575.08
558.502	12533.5
558.865	12481.07
559.228	12522.88
559.59	12492.37
559.953	12420.05
560.316	12554.74
560.679	12530.33
561.041	12531.69
561.404	12554.97
561.767	12522.42
562.129	12523.78
562.492	12582.54
562.854	12578.92
563.217	12507.06
563.579	12563.1
563.941	12582.54
564.304	12596.1
564.666	12567.17
565.028	12627.73
565.39	12545.25
565.753	12537.11
566.115	12633.38
566.477	12629.99
566.839	12669.99
567.201	12701.18
567.563	12662.08
567.925	12727.17
568.287	12680.84
568.648	12701.86
569.01	12805.81
569.372	12773.49
569.734	12722.87
570.095	12806.03
570.457	12755.19
570.819	12723.55
571.18	12751.12
571.542	12834.73
571.903	12768.29
572.265	12810.78
572.626	12854.17
572.987	12815.75
573.349	12854.39
573.71	12858.46
574.071	12886.03
574.432	12891
574.794	12936.43
575.155	12887.61
575.516	12874.05
575.877	13003.99
576.238	12910.21
576.599	12994.73
576.96	12951.79
577.32	12916.99
577.681	12946.14
578.042	12910.89
578.403	12881.51
578.763	12982.3
579.124	12946.14
579.485	12934.62
579.845	12929.19
580.206	13023.2
580.566	12947.72
580.927	12977.55
581.287	13028.85
581.648	12939.36
582.008	13034.28
582.368	12954.96
582.728	13055.97
583.089	13014.39
583.449	12890.55
583.809	12988.18
584.169	13022.3
584.529	12933.71
584.889	12973.71
585.249	12861.4
585.609	12830.89
585.969	12854.39
586.329	12893.26
586.688	12893.94
587.048	12943.2
587.408	12786.15
587.768	12834.51
588.127	12860.72
588.487	12746.6
588.846	12886.26
589.206	12804.68
589.565	12755.41
589.925	12829.08
590.284	12743.21
590.643	12841.06
591.003	12824.34
591.362	12814.62
591.721	12794.96
592.08	12764.45
592.44	12916.76
592.799	12792.25
593.158	12780.5
593.517	12746.37
593.876	12689.65
594.235	12702.53
594.593	12744.57
594.952	12737.79
595.311	12719.03
595.67	12704.79
596.029	12808.29
596.387	12756.77
596.746	12808.75
597.104	12764.68
597.463	12743.66
597.822	12801.06
598.18	12659.82
598.538	12648.3
598.897	12777.56
599.255	12628.18
599.613	12827.5
599.972	12766.71
600.33	12634.96
600.688	12641.74
601.046	12724.68
601.404	12755.19
601.762	12717.67
602.12	12747.73
602.478	12777.33
602.836	12716.54
603.194	12663.66
603.552	12779.59
603.91	12549.54
604.268	12680.39
604.625	12705.47
604.983	12665.47
605.341	12620.95
605.698	12686.94
606.056	12700.05
606.413	12667.51
606.771	12666.15
607.128	12753.38
607.485	12619.82
607.843	12678.81
608.2	12738.01
608.557	12786.82
608.914	12610.11
609.272	12756.54
609.629	12762.87
609.986	12855.52
610.343	12751.57
610.7	12879.25
611.057	12872.25
611.414	12819.37
611.771	12813.26
612.127	12792.25
612.484	12897.56
612.841	12929.87
613.198	12871.57
613.554	12870.44
613.911	12924
614.267	12916.09
614.624	12903.88
614.98	12913.38
615.337	13008.06
615.693	13019.59
616.05	12964.45
616.406	13061.39
616.762	12964
617.118	12981.17
617.475	12986.59
617.831	12949.98
618.187	13044.45
618.543	13072.69
618.899	13076.08
619.255	13098.68
619.611	13034.05
619.967	13169.19
620.323	13133.93
620.678	13031.34
621.034	13043.77
621.39	13011.9
621.746	13015.07
622.101	13182.97
622.457	13092.35
622.812	13049.64
623.168	13083.09
623.523	13107.27
623.879	13090.55
624.234	13023.65
624.589	13096.87
624.945	13047.16
625.3	13082.18
625.655	13081.96
626.01	13104.1
626.365	13128.74
626.72	13068.4
627.075	13086.48
627.43	13015.75
627.785	13048.06
628.14	13001.96
628.495	13106.82
628.85	13066.37
629.205	12943.2
629.559	13034.95
629.914	13067.5
630.269	12978.91
630.623	13006.25
630.978	12936.43
631.332	13015.07
631.687	12994.05
632.041	12959.7
632.396	12907.5
632.75	12953.15
633.104	12956.09
633.459	12827.5
633.813	12861.4
634.167	12878.12
634.521	12869.53
634.875	12901.62
635.229	12822.98
635.583	12731.23
635.937	12702.76
636.291	12725.58
636.645	12764.9
636.999	12693.27
637.352	12713.61
637.706	12660.5
638.06	12666.15
638.413	12636.55
638.767	12718.13
639.121	12760.16
639.474	12531.01
639.828	12579.6
640.181	12654.85
640.534	12671.35
640.888	12592.03
641.241	12467.29
641.594	12540.5
641.947	12578.69
642.301	12498.02
642.654	12507.51
643.007	12535.08
643.36	12477.68
643.713	12521.97
644.066	12573.72
644.419	12481.52
644.771	12396.78
645.124	12289.89
645.477	12273.84
645.83	12203.34
646.182	12144.36
646.535	12142.1
646.888	12088.99
647.24	11969.45
647.593	12124.47
647.945	12107.07
648.298	12019.61
648.65	11983.91
649.002	12047.86
649.355	12098.71
649.707	12109.55
650.059	12168.08
650.411	12310.91
650.763	12170.57
651.115	12309.1
651.467	12338.48
651.819	12389.32
652.171	12363.56
652.523	12287.4
652.875	12347.51
653.227	12262.77
653.578	12347.51
653.93	12370.11
654.282	12314.29
654.633	12263.45
654.985	12292.37
655.337	12293.28
655.688	12305.93
656.039	12401.3
656.391	12239.49
656.742	12295.54
657.094	12276.1
657.445	12375.08
657.796	12304.13
658.147	12259.61
658.498	12281.98
658.849	12294.63
659.2	12295.54
659.551	12340.28
659.902	12306.16
660.253	12375.99
660.604	12308.42
660.955	12294.63
661.306	12374.63
661.656	12393.61
662.007	12397.68
662.358	12409.89
662.708	12410.34
663.059	12395.2
663.409	12315.88
663.76	12398.13
664.11	12404.91
664.461	12475.42
664.811	12449.66
665.161	12402.65
665.511	12281.08
665.862	12351.81
666.212	12422.09
666.562	12302.32
666.912	12439.49
667.262	12350.23
667.612	12358.14
667.962	12369.66
668.312	12330.57
668.662	12342.32
669.011	12334.41
669.361	12319.27
669.711	12349.32
670.06	12265.26
670.41	12286.5
670.76	12274.07
671.109	12365.14
671.459	12321.75
671.808	12343.67
672.157	12310.45
672.507	12233.62
672.856	12208.76
673.205	12257.57
673.554	12338.25
673.904	12244.01
674.253	12266.16
674.602	12248.53
674.951	12112.04
675.3	12081.53
675.649	12124.02
675.998	12110.46
676.346	12197.91
676.695	12141.87
677.044	12043.79
677.393	12166.05
677.741	12093.96
678.09	12072.49
678.438	12077.46
678.787	12088.54
679.135	12112.04
679.484	12011.25
679.832	12154.53
680.181	11927.19
680.529	12005.6
680.877	11970.58
681.225	11977.58
681.573	11980.52
681.922	11877.02
682.27	11884.48
682.618	11856.68
682.966	11818.49
683.314	11800.41
683.661	11794.53
684.009	11698.72
684.357	11788.66
684.705	11714.99
685.053	11680.19
685.4	11640.19
685.748	11662.11
686.095	11642.9
686.443	11514.09
686.79	11564.03
687.138	11588.89
687.485	11538.95
687.832	11504.6
688.18	11562.68
688.527	11421.44
688.874	11474.54
689.221	11495.79
689.568	11408.78
689.915	11368.11
690.262	11367.65
690.609	11211.5
690.956	11229.8
691.303	11185.74
691.65	11189.13
691.997	11166.98
692.344	11066.19
692.69	11081.56
693.037	11101.67
693.383	10988.91
693.73	10993.65
694.077	10945.97
694.423	10939.19
694.769	10828.23
695.116	10827.1
695.462	10834.11
695.808	10830.72
696.155	10783.26
696.501	10746.88
696.847	10729.03
697.193	10619.65
697.539	10613.55
697.885	10590.05
698.231	10511.4
698.577	10553.66
698.923	10485.19
699.269	10424.63
699.614	10365.65
699.96	10298.08
700.306	10243.61
700.651	10272.77
700.997	10186.22
701.342	10198.19
701.688	10108.25
702.033	10094.01
702.379	10084.07
702.724	10072.32
703.069	9980.8
703.415	9983.96
703.76	9981.47
704.105	9925.43
704.45	9915.49
704.795	9868.03
705.14	9863.51
705.485	9823.51
705.83	9749.39
706.175	9785.1
706.52	9716.62
706.865	9708.49
707.209	9665.1
707.554	9692.67
707.899	9592.11
708.243	9554.59
708.588	9565.89
708.932	9522.96
709.277	9487.93
709.621	9499.68
709.966	9469.17
710.31	9467.82
710.654	9366.58
710.998	9309.63
711.342	9374.49
711.687	9302.4
712.031	9327.71
712.375	9194.15
712.719	9290.42
713.063	9279.8
713.407	9268.5
713.75	9227.37
714.094	9147.37
714.438	9192.57
714.782	9119.35
715.125	9100.59
715.469	9105.34
715.812	9104.89
716.156	9075.96
716.499	9087.49
716.843	9117.54
717.186	9044.78
717.53	9103.76
717.873	9057.43
718.216	8997.77
718.559	9010.65
718.902	8930.88
719.246	8961.84
719.589	8893.14
719.932	8850.21
720.275	8828.28
720.617	8884.55
720.96	8883.42
721.303	8880.71
721.646	8981.28
721.989	8811.34
722.331	8844.33
722.674	8817.89
723.016	8786.93
723.359	8768.4
723.701	8844.1
724.044	8806.14
724.386	8759.36
724.729	8756.65
725.071	8692.47
725.413	8797.33
725.755	8785.12
726.097	8717.78
726.439	8704.67
726.782	8677.78
727.124	8734.95
727.465	8694.95
727.807	8713.94
728.149	8659.48
728.491	8671.9
728.833	8698.8
729.175	8569.53
729.516	8621.28
729.858	8655.18
730.199	8711.68
730.541	8625.58
730.882	8520.72
731.224	8638.23
731.565	8615.86
731.906	8544.68
732.248	8588.29
732.589	8541.74
732.93	8590.78
733.271	8580.83
733.612	8642.3
733.953	8663.09
734.294	8613.6
734.635	8512.13
734.976	8574.73
735.317	8596.2
735.658	8619.7
735.999	8577.67
736.339	8547.16
736.68	8609.31
737.021	8574.96
737.361	8582.87
737.702	8646.59
738.042	8606.37
738.383	8569.76
738.723	8610.89
739.063	8554.85
739.404	8690.21
739.744	8582.87
740.084	8644.56
740.424	8615.18
740.764	8616.76
741.104	8692.24
741.444	8636.43
741.784	8661.06
742.124	8689.76
742.464	8717.1
742.804	8686.82
743.143	8785.12
743.483	8751
743.823	8774.05
744.162	8794.61
744.502	8776.53
744.841	8864.67
745.181	8826.93
745.52	8847.27
745.86	8977.21
746.199	8986.25
746.538	9017.88
746.877	9076.87
747.216	9134.04
747.556	9047.04
747.895	9172.91
748.234	9208.61
748.573	9254.94
748.911	9259.69
749.25	9395.73
749.589	9393.24
749.928	9423.52
750.267	9508.72
750.605	9584.65
750.944	9647.92
751.283	9744.19
751.621	9749.62
751.96	9855.6
752.298	9909.39
752.636	10022.83
752.975	10078.87
753.313	10184.41
753.651	10322.48
753.989	10434.12
754.327	10528.58
754.666	10615.13
755.004	10708.01
755.342	10837.27
755.679	10949.13
756.017	11001.56
756.355	11219.41
756.693	11229.35
757.031	11481.55
757.368	11510.7
757.706	11656.91
758.044	11853.74
758.381	12056.67
758.719	12077.69
759.056	12227.74
759.394	12424.57
759.731	12537.57
760.068	12729.65
760.405	12828.86
760.743	12848.52
761.08	13065.24
761.417	13192.24
761.754	13410.31
762.091	13614.6
762.428	13708.83
762.765	13814.59
763.102	14125.09
763.438	14133.91
763.775	14274.92
764.112	14473.11
764.449	14703.16
764.785	14808.69
765.122	14804.85
765.458	15025.18
765.795	15178.17
766.131	15378.85
766.467	15414.78
766.804	15554.66
767.14	15597.37
767.476	15816.12
767.812	16000.07
768.148	16088.88
768.485	16123.46
768.821	16202.78
769.157	16462.66
769.492	16545.14
769.828	16651.58
770.164	16707.4
770.5	16821.29
770.836	16962.31
771.171	16861.97
771.507	17023.1
771.842	17158.91
772.178	17247.27
772.513	17348.06
772.849	17328.4
773.184	17464.89
773.519	17494.05
773.855	17567.26
774.19	17649.97
774.525	17775.39
774.86	17845.22
775.195	17878.89
775.53	17975.61
775.865	17908.05
776.2	17889.74
776.535	17821.72
776.87	17997.08
777.205	17979.91
777.539	17979.68
777.874	18063.07
778.209	17985.11
778.543	18158.43
778.878	18002.28
779.212	18098.78
779.547	18083.63
779.881	18216.74
780.215	18121.83
780.55	18250.86
780.884	18169.28
781.218	18114.82
781.552	18281.14
781.886	18274.36
782.22	18219.45
782.554	18125.22
782.888	18101.04
783.222	18124.99
783.556	18062.62
783.889	18095.84
784.223	17988.5
784.557	18025.78
784.89	18249.51
785.224	18030.98
785.557	18003.64
785.891	17984.2
786.224	17957.54
786.558	17952.56
786.891	17929.97
787.224	17834.6
787.557	17847.03
787.891	17861.04
788.224	17800.03
788.557	17854.94
788.89	17811.33
789.223	17829.18
789.556	17680.93
789.888	17707.37
790.221	17658.34
790.554	17556.42
790.887	17665.57
791.219	17614.04
791.552	17480.03
791.884	17534.95
792.217	17477.32
792.549	17472.8
792.882	17353.48
793.214	17318.23
793.546	17453.59
793.879	17330.89
794.211	17159.14
794.543	17292.47
794.875	17145.35
795.207	17285.92
795.539	17225.35
795.871	17193.26
796.203	16987.39
796.535	16955.53
796.867	17068.29
797.198	16965.7
797.53	17040.27
797.862	16852.48
798.193	16848.41
798.525	16755.53
798.856	16809.32
799.188	16665.14
799.519	16605.26
799.85	16561.19
800.182	16596.22
800.513	16609.55
800.844	16466.5
801.175	16510.57
801.506	16506.95
801.837	16355.77
802.168	16371.59
802.499	16364.81
802.83	16250.91
803.161	16284.13
803.491	16237.36
803.822	16258.37
804.153	16245.94
804.483	16092.95
804.814	16005.05
805.145	16041.65
805.475	15996.01
805.805	15966.4
806.136	15963.46
806.466	15936.8
806.796	15886.63
807.126	15753.53
807.457	15754.2
807.787	15860.87
808.117	15707.65
808.447	15638.95
808.777	15665.39
809.107	15567.77
809.436	15494.78
809.766	15533.65
810.096	15449.35
810.426	15379.98
810.755	15422.24
811.085	15370.94
811.414	15379.52
811.744	15308.57
812.073	15320.32
812.403	15167.33
812.732	15215.46
813.061	15187.44
813.39	15076.03
813.719	15095.92
814.049	15148.57
814.378	15078.52
814.707	15054.34
815.036	15001
815.365	14967.78
815.693	14768.69
816.022	14906.77
816.351	14828.13
816.68	14810.27
817.008	14777.51
817.337	14614.57
817.665	14699.99
817.994	14615.7
818.322	14719.66
818.651	14600.11
818.979	14537.06
819.307	14682.37
819.636	14578.64
819.964	14586.55
820.292	14566.21
820.62	14631.75
820.948	14455.26
821.276	14554.46
821.604	14561.92
821.932	14456.39
822.259	14551.98
822.587	14425.2
822.915	14425.65
823.243	14528.02
823.57	14533.67
823.898	14490.28
824.225	14504.29
824.553	14480.11
824.88	14477.18
825.207	14503.84
825.535	14522.6
825.862	14531.41
826.189	14548.59
826.516	14527.57
826.843	14683.05
827.17	14525.76
827.497	14591.52
827.824	14514.01
828.151	14641.47
828.478	14546.33
828.805	14608.02
829.131	14517.63
829.458	14453.45
829.785	14502.26
830.111	14558.98
830.438	14571.18
830.764	14568.02
831.09	14517.4
831.417	14411.41
831.743	14524.41
832.069	14444.18
832.395	14448.7
832.722	14488.47
833.048	14374.58
833.374	14480.34
833.7	14326.67
834.026	14355.82
834.351	14415.93
834.677	14362.6
835.003	14347.46
835.329	14349.72
835.654	14389.04
835.98	14276.05
836.306	14273.79
836.631	14265.88
836.956	14272.44
837.282	14275.37
837.607	14221.59
837.932	14243.28
838.258	14221.36
838.583	14194.47
838.908	14187.69
839.233	14156.28
839.558	14196.28
839.883	14058.43
840.208	14057.3
840.533	13975.49
840.858	14031.09
841.182	13979.79
841.507	13995.61
841.832	13889.85
842.156	13949.51
842.481	13829.28
842.805	13953.12
843.13	13798.78
843.454	13828.15
843.778	13809.4
844.103	13742.73
844.427	13704.99
844.751	13731.43
845.075	13647.14
845.399	13689.63
845.723	13571.44
846.047	13690.76
846.371	13416.41
846.695	13424.1
847.019	13347.26
847.343	13374.38
847.666	13185.68
847.99	13210.54
848.313	13143.2
848.637	13058.23
848.96	12994.05
849.284	12995.18
849.607	12936.43
849.931	12900.27
850.254	12823.21
850.577	12743.21
850.9	12630.44
851.223	12629.09
851.546	12508.19
851.869	12519.04
852.192	12551.12
852.515	12457.79
852.838	12420.28
853.161	12376.67
853.483	12376.21
853.806	12289.21
854.129	12278.36
854.451	12233.62
854.774	12233.39
855.096	12175.09
855.419	12104.58
855.741	12071.82
856.063	12061.42
856.385	11954.98
856.708	11945.04
857.03	11933.29
857.352	11915.66
857.674	11874.98
857.996	11799.73
858.318	11710.02
858.64	11767.64
858.961	11672.05
859.283	11635.89
859.605	11593.86
859.926	11613.75
860.248	11518.16
860.57	11542.79
860.891	11473.41
861.212	11505.73
861.534	11387.77
861.855	11431.15
862.176	11394.09
862.498	11379.18
862.819	11431.15
863.14	11344.38
863.461	11234.32
863.782	11312.74
864.103	11287.43
864.424	11236.13
864.745	11272.29
865.065	11210.14
865.386	11155.23
865.707	11176.25
866.027	11129.24
866.348	11113.65
866.668	11058.28
866.989	11128.56
867.309	11006.76
867.63	11048.11
867.95	11028.45
868.27	10998.62
868.59	10952.75
868.91	10969.25
869.23	11049.47
869.55	10852.86
869.87	10920.21
870.19	10941.9
870.51	10937.61
870.83	10909.81
871.15	10874.56
871.469	10872.75
871.789	10823.26
872.109	10861
872.428	10816.71
872.748	10863.49
873.067	10753.43
873.386	10819.42
873.706	10660.78
874.025	10684.96
874.344	10685.86
874.663	10679.99
874.982	10604.51
875.301	10601.12
875.62	10576.71
875.939	10620.55
876.258	10585.53
876.577	10547.79
876.896	10543.95
877.214	10489.48
877.533	10523.61
877.852	10517.05
878.17	10478.64
878.489	10528.58
878.807	10471.63
879.125	10444.74
879.444	10423.95
879.762	10395.02
880.08	10418.98
880.398	10378.3
880.716	10394.8
881.034	10357.28
881.352	10358.19
881.67	10237.06
881.988	10275.7
882.306	10248.36
882.624	10193.22
882.941	10092.88
883.259	10171.07
883.577	10115.71
883.894	10122.71
884.212	10098.76
884.529	10048.59
884.846	10082.49
885.164	10051.98
885.481	9951.19
885.798	9975.37
886.115	9955.26
886.432	9926.56
886.75	9862.83
887.067	9909.61
887.383	9876.17
887.7	9913.91
888.017	9834.36
888.334	9798.2
888.651	9732.44
888.967	9754.36
889.284	9714.36
889.6	9663.29
889.917	9632.78
890.233	9650.64
890.55	9545.1
890.866	9647.02
891.182	9572.45
891.498	9541.94
891.815	9483.41
892.131	9467.36
892.447	9454.71
892.763	9430.53
893.079	9375.39
893.395	9376.07
893.71	9324.32
894.026	9251.1
894.342	9256.75
894.657	9201.83
894.973	9198.44
895.289	9182.17
895.604	9221.49
895.92	9154.38
896.235	9089.97
896.55	9049.52
896.865	8982.63
897.181	8936.53
897.496	9060.14
897.811	8996.87
898.126	8924.33
898.441	8974.5
898.756	8839.36
899.071	8763.65
899.386	8827.61
899.7	8722.75
900.015	8712.58
900.33	8657.22
900.644	8641.4
900.959	8618.8
901.273	8563.66
901.588	8588.97
901.902	8521.85
902.216	8449.31
902.531	8409.76
902.845	8397.56
903.159	8403.66
903.473	8337
903.787	8297.9
904.101	8275.08
904.415	8268.3
904.729	8226.72
905.042	8161.86
905.356	8135.42
905.67	8140.39
905.984	8119.15
906.297	8083.67
906.611	8022.66
906.924	8050.23
907.237	7978.36
907.551	7951.7
907.864	7938.36
908.177	7906.95
908.491	7925.94
908.804	7793.74
909.117	7765.94
909.43	7762.1
909.743	7728.88
910.056	7713.51
910.368	7610.46
910.681	7614.76
910.994	7594.87
911.307	7515.1
911.619	7517.58
911.932	7503.12
912.244	7447.3
912.557	7414.31
912.869	7436.68
913.181	7396.01
913.494	7383.35
913.806	7352.62
914.118	7312.62
914.43	7283.69
914.742	7276.69
915.054	7166.18
915.366	7181.1
915.678	7117.82
915.99	7101.1
916.302	7060.2
916.613	6984.27
916.925	7065.85
917.236	7004.6
917.548	6944.94
917.859	6930.93
918.171	6931.61
918.482	6948.33
918.794	6876.47
919.105	6878.28
919.416	6803.93
919.727	6787.43
920.038	6772.29
920.349	6685.97
920.66	6622.92
920.971	6719.41
921.282	6643.94
921.593	6643.71
921.903	6587.67
922.214	6497.72
922.525	6544.05
922.835	6510.83
923.146	6458.18
923.456	6479.87
923.767	6421.79
924.077	6371.17
924.387	6354.45
924.697	6321.23
925.008	6275.58
925.318	6327.56
925.628	6266.54
925.938	6251.86
926.248	6218.64
926.558	6179.54
926.867	6210.05
927.177	6121.69
927.487	6133.89
927.796	6043.5
928.106	6059.77
928.416	6002.37
928.725	6027.91
929.034	5958.76
929.344	5947
929.653	5916.05
929.962	5861.58
930.271	5893.45
930.581	5856.39
930.89	5765.77
931.199	5825.43
931.508	5805.09
931.817	5774.35
932.125	5823.17
932.434	5686.9
932.743	5664.98
933.051	5639.44
933.36	5675.83
933.669	5631.53
933.977	5602.15
934.286	5580.23
934.594	5578.2
934.902	5517.41
935.21	5511.99
935.519	5509.05
935.827	5458.43
936.135	5467.02
936.443	5383.4
936.751	5413.01
937.059	5406
937.367	5350.64
937.674	5339.34
937.982	5349.96
938.29	5303.86
938.597	5305.44
938.905	5229.51
939.213	5207.14
939.52	5181.15
939.827	5176.4
940.135	5128.04
940.442	5148.61
940.749	5085.11
941.056	5085.56
941.363	5068.61
941.67	5019.12
941.977	5053.69
942.284	4989.52
942.591	4986.13
942.898	4945.9
943.205	4967.82
943.511	4912.91
943.818	4902.74
944.125	4884.89
944.431	4830.88
944.738	4889.18
945.044	4803.08
945.35	4762.18
945.657	4770.54
945.963	4752.69
946.269	4706.59
946.575	4669.75
946.881	4669.07
947.187	4708.85
947.493	4613.03
947.799	4651.9
948.105	4615.74
948.41	4568.28
948.716	4575.29
949.022	4533.48
949.327	4554.27
949.633	4471.79
949.938	4503.65
950.244	4464.78
950.549	4441.06
950.854	4402.19
951.16	4425.69
951.465	4439.02
951.77	4369.87
952.075	4357.67
952.38	4366.48
952.685	4342.98
952.99	4317.44
953.294	4307.5
953.599	4294.39
953.904	4196.32
954.209	4228.18
954.513	4231.12
954.818	4198.58
955.122	4171.01
955.426	4176.2
955.731	4145.7
956.035	4127.62
956.339	4069.77
956.643	4091.46
956.948	4068.41
957.252	4054.85
957.556	4069.54
957.86	4017.56
958.163	3997.68
958.467	3994.97
958.771	3947.51
959.075	3973.27
959.378	3966.94
959.682	3908.41
959.985	3888.3
960.289	3891.47
960.592	3847.85
960.896	3848.08
961.199	3874.06
961.502	3834.29
961.805	3848.53
962.108	3786.16
962.411	3776.89
962.714	3754.75
963.017	3780.28
963.32	3749.77
963.623	3724.46
963.926	3738.02
964.228	3673.62
964.531	3687.18
964.833	3648.76
965.136	3605.15
965.438	3559.04
965.741	3583
966.043	3580.29
966.345	3569.67
966.648	3562.66
966.95	3535.54
967.252	3493.51
967.554	3531.93
967.856	3527.63
968.158	3490.8
968.46	3438.82
968.761	3430.46
969.063	3426.62
969.365	3411.48
969.666	3376.45
969.968	3368.77
970.269	3372.38
970.571	3347.3
970.872	3321.99
971.174	3324.25
971.475	3311.59
971.776	3284.48
972.077	3264.14
972.378	3242.44
972.679	3280.63
972.98	3248.77
973.281	3244.93
973.582	3236.34
973.883	3214.42
974.183	3171.26
974.484	3147.08
974.785	3178.04
975.085	3156.8
975.386	3130.58
975.686	3060.98
975.986	3086.51
976.287	3114.08
976.587	3032.51
976.887	3056.69
977.187	3052.62
977.487	3051.26
977.787	3009.23
978.087	2999.06
978.387	3009
978.687	2963.35
978.987	2986.86
979.286	2988.89
979.586	2949.8
979.885	2927.87
980.185	2940.3
980.484	2896.92
980.784	2872.06
981.083	2875.9
981.382	2883.13
981.682	2866.18
981.981	2841.55
982.28	2830.02
982.579	2813.53
982.878	2781.89
983.177	2828.22
983.475	2827.76
983.774	2753.64
984.073	2729.91
984.372	2733.3
984.67	2719.52
984.969	2700.99
985.267	2691.5
985.566	2705.28
985.864	2682.91
986.162	2669.12
986.461	2649.01
986.759	2688.33
987.057	2634.78
987.355	2607.43
987.653	2624.61
987.951	2606.98
988.249	2590.03
988.547	2568.34
988.844	2555.46
989.142	2583.93
989.44	2540.77
989.737	2521.78
990.035	2503.03
990.332	2499.86
990.63	2489.92
990.927	2472.07
991.224	2487.66
991.521	2477.49
991.819	2418.96
992.116	2455.12
992.413	2424.61
992.71	2373.77
993.006	2425.29
993.303	2379.87
993.6	2359.98
993.897	2373.54
994.193	2352.3
994.49	2360.21
994.787	2323.15
995.083	2330.83
995.379	2323.82
995.676	2289.7
995.972	2313.88
996.268	2251.73
996.565	2280.43
996.861	2274.78
997.157	2230.94
997.453	2246.76
997.749	2224.39
998.044	2218.29
998.34	2207.44
998.636	2203.6
998.932	2151.62
999.227	2154.34
999.523	2112.76
999.818	2147.1
1000.114	2149.59
1000.409	2136.94
1000.704	2100.55
1001	2065.07
1001.295	2079.99
1001.59	2119.76
1001.885	2060.55
1002.18	2050.84
1002.475	2056.03
1002.77	2054.23
1003.065	2017.16
1003.359	1995.02
1003.654	1981.69
1003.949	1985.53
1004.243	1973.32
1004.538	1969.03
1004.832	1966.77
1005.127	1945.08
1005.421	1927.68
1005.715	1911.86
1006.009	1932.42
1006.304	1917.51
1006.598	1873.89
1006.892	1891.07
1007.186	1881.8
1007.48	1851.97
1007.773	1826.21
1008.067	1835.93
1008.361	1833.44
1008.655	1795.25
1008.948	1790.96
1009.242	1799.09
1009.535	1797.06
1009.829	1770.17
1010.122	1798.41
1010.415	1774.68
1010.708	1759.77
1011.001	1745.76
1011.295	1740.56
1011.588	1741.92
1011.881	1672.31
1012.173	1703.95
1012.466	1695.59
1012.759	1690.39
1013.052	1682.48
1013.344	1662.82
1013.637	1651.75
1013.93	1650.17
1014.222	1621.24
1014.514	1599.55
1014.807	1605.2
1015.099	1607.23
1015.391	1602.26
1015.683	1580.79
1015.976	1560.45
1016.268	1560
1016.56	1530.85
1016.851	1562.49
1017.143	1533.79
1017.435	1551.19
1017.727	1536.27
1018.018	1515.03
1018.31	1514.58
1018.602	1473.22
1018.893	1477.97
1019.185	1455.6
1019.476	1451.3
1019.767	1444.07
1020.058	1427.35
1020.35	1436.39
1020.641	1419.44
1020.932	1401.14
1021.223	1406.56
1021.514	1407.24
1021.804	1395.03
1022.095	1384.19
1022.386	1372.21
1022.677	1383.51
1022.967	1342.83
1023.258	1340.12
1023.548	1342.61
1023.839	1341.25
1024.129	1310.97
1024.419	1305.32
1024.709	1300.57
1025	1266.9
1025.29	1272.1
1025.58	1263.29
1025.87	1288.14
1026.16	1261.7
1026.449	1280.01
1026.739	1244.53
1027.029	1240.69
1027.319	1209.73
1027.608	1200.69
1027.898	1208.82
1028.187	1204.08
1028.477	1210.86
1028.766	1215.38
1029.055	1156.17
1029.344	1188.26
1029.634	1151.88
1029.923	1160.24
1030.212	1148.03
1030.501	1143.06
1030.79	1137.64
1031.078	1116.17
1031.367	1131.76
1031.656	1106
1031.945	1129.5
1032.233	1101.71
1032.522	1096.74
1032.81	1087.7
1033.099	1064.42
1033.387	1074.36
1033.675	1080.69
1033.963	1051.54
1034.251	1056.29
1034.54	1049.05
1034.828	1047.25
1035.116	1040.47
1035.403	1047.47
1035.691	1009.06
1035.979	1015.16
1036.267	986.01
1036.554	991.88
1036.842	980.81
1037.129	972.45
1037.417	968.6
1037.704	973.35
1037.992	979.68
1038.279	955.5
1038.566	953.69
1038.853	953.69
1039.14	953.69
