Data from hue_40_FLMS001491_2.txt Node
Date: Mon Feb 06 15:07:21 GMT 2017
User: dcchb
Spectrometer: FLMS00149
Trigger mode: 0
Integration Time (sec): 2.000000E-2
Scans to average: 10
Electric dark correction enabled: true
Nonlinearity correction enabled: false
Boxcar width: 0
XAxis mode: Wavelengths
Number of Pixels in Spectrum: 2048
>>>>>Begin Spectral Data<<<<<
341.393	12.57
341.776	12.57
342.16	12.57
342.543	-55.22
342.927	-59.29
343.31	-67.2
343.693	-64.94
344.077	-84.83
344.46	-76.47
344.843	-45.73
345.226	-36.92
345.61	-29.46
345.993	-16.13
346.376	2.18
346.759	20.03
347.142	43.53
347.525	41.95
347.908	65.68
348.291	70.2
348.674	81.95
349.057	96.18
349.44	132.12
349.823	155.39
350.206	150.87
350.588	193.13
350.971	232.23
351.354	233.58
351.737	239.68
352.119	267.25
352.502	275.84
352.884	264.54
353.267	303.86
353.65	311.77
354.032	318.1
354.414	302.51
354.797	326.01
355.179	339.57
355.562	328.95
355.944	339.34
356.326	363.75
356.709	346.57
357.091	341.83
357.473	357.65
357.855	362.84
358.238	350.87
358.62	339.34
359.002	356.06
359.384	353.35
359.766	350.64
360.148	341.6
360.53	349.96
360.912	356.29
361.294	340.7
361.676	355.61
362.057	358.55
362.439	347.7
362.821	335.73
363.203	346.35
363.584	327.36
363.966	329.62
364.348	332.34
364.729	353.58
365.111	330.75
365.493	318.78
365.874	321.94
366.256	341.15
366.637	318.55
367.019	326.01
367.4	343.86
367.781	326.91
368.163	312.68
368.544	341.6
368.925	337.31
369.306	330.08
369.688	325.78
370.069	332.79
370.45	329.4
370.831	333.69
371.212	330.3
371.593	333.92
371.974	338.44
372.355	340.47
372.736	345.67
373.117	331.21
373.498	318.32
373.879	343.41
374.26	319
374.641	341.15
375.021	312.45
375.402	315.39
375.783	330.3
376.163	331.88
376.544	310.64
376.925	332.11
377.305	355.16
377.686	350.87
378.066	362.39
378.447	337.53
378.827	342.28
379.208	358.55
379.588	343.18
379.968	316.74
380.349	347.25
380.729	342.28
381.109	342.96
381.489	328.95
381.87	335.73
382.25	352.45
382.63	352.45
383.01	378.44
383.39	359.45
383.77	337.53
384.15	375.5
384.53	343.41
384.91	359.91
385.29	375.05
385.67	381.6
386.049	353.8
386.429	354.26
386.809	384.54
387.189	344.31
387.568	370.75
387.948	373.46
388.328	368.49
388.707	399
389.087	382.28
389.466	377.31
389.846	372.56
390.225	380.7
390.605	374.59
390.984	376.4
391.363	382.05
391.743	383.41
392.122	382.28
392.501	387.02
392.881	388.38
393.26	393.35
393.639	391.32
394.018	386.12
394.397	401.94
394.776	403.52
395.155	391.09
395.534	390.41
395.913	373.92
396.292	416.85
396.671	390.64
397.05	414.59
397.429	398.77
397.808	398.32
398.186	401.94
398.565	399.68
398.944	377.31
399.323	404.65
399.701	399
400.08	418.21
400.458	406.23
400.837	403.52
401.215	405.78
401.594	404.65
401.972	399.23
402.351	395.84
402.729	408.04
403.107	435.61
403.486	429.73
403.864	407.81
404.242	419.57
404.62	425.21
404.999	441.71
405.377	417.53
405.755	415.72
406.133	434.71
406.511	436.06
406.889	426.57
407.267	438.1
407.645	458.66
408.023	441.26
408.401	448.94
408.779	464.31
409.156	444.65
409.534	450.3
409.912	449.85
410.29	456.63
410.667	463.18
411.045	467.47
411.422	472.45
411.8	463.63
412.178	471.99
412.555	461.6
412.933	466.8
413.31	467.7
413.687	499.56
414.065	494.82
414.442	504.08
414.819	501.6
415.197	495.27
415.574	511.31
415.951	498.89
416.328	512.67
416.705	498.43
417.082	485.1
417.46	484.65
417.837	531.43
418.214	514.25
418.591	541.6
418.967	507.7
419.344	530.52
419.721	543.18
420.098	525.55
420.475	534.14
420.852	537.3
421.228	532.33
421.605	551.99
421.982	553.57
422.358	558.09
422.735	546.57
423.111	552.9
423.488	543.18
423.864	547.25
424.241	546.79
424.617	572.33
424.994	582.27
425.37	578.21
425.746	569.39
426.123	605.55
426.499	589.5
426.875	574.36
427.251	608.49
427.627	592.89
428.003	618.88
428.379	614.81
428.756	609.62
429.132	612.78
429.507	633.12
429.883	605.78
430.259	658.88
430.635	640.8
431.011	645.77
431.387	663.17
431.763	652.55
432.138	650.52
432.514	665.89
432.89	647.36
433.265	671.31
433.641	689.39
434.016	693
434.392	697.98
434.767	702.72
435.143	697.75
435.518	721.93
435.894	704.76
436.269	698.88
436.644	704.98
437.02	735.72
437.395	729.16
437.77	735.49
438.145	729.16
438.52	753.34
438.895	738.88
439.271	726
439.646	763.51
440.021	755.15
440.395	792.89
440.77	746.11
441.145	799.67
441.52	770.06
441.895	798.99
442.27	784.53
442.645	802.61
443.019	820.46
443.394	804.64
443.769	822.49
444.143	807.35
444.518	822.27
444.892	811.87
445.267	799.22
445.641	834.7
446.016	817.29
446.39	848.93
446.764	838.99
447.139	839.44
447.513	866.33
447.887	881.93
448.262	859.1
448.636	842.83
449.01	877.86
449.384	890.97
449.758	890.06
450.132	898.87
450.506	886.9
450.88	889.84
451.254	896.84
451.628	924.86
452.002	931.42
452.376	940.46
452.75	937.29
453.123	957.86
453.497	949.49
453.871	973.67
454.244	983.84
454.618	968.03
454.992	1012.09
455.365	1004.63
455.739	1034.69
456.112	1018.19
456.486	1032.88
456.859	1032.66
457.232	1052.54
457.606	1056.38
457.979	1036.05
458.352	1084.86
458.725	1101.36
459.099	1111.52
459.472	1113.33
459.845	1129.38
460.218	1110.39
460.591	1125.54
460.964	1164.86
461.337	1160.79
461.71	1188.58
462.083	1218.19
462.456	1223.16
462.829	1228.36
463.201	1231.97
463.574	1230.62
463.947	1259.32
464.32	1285.98
464.692	1261.13
465.065	1319.88
465.438	1310.62
465.81	1327.34
466.183	1358.3
466.555	1392.2
466.928	1404.4
467.3	1414.12
467.672	1430.39
468.045	1466.54
468.417	1450.95
468.789	1467
469.161	1495.24
469.534	1537.73
469.906	1547.22
470.278	1585.41
470.65	1613.43
471.022	1625.64
471.394	1620.89
471.766	1687.33
472.138	1736.14
472.51	1757.38
472.882	1763.71
473.253	1815.46
473.625	1859.08
473.997	1876.25
474.369	1896.81
474.74	1919.64
475.112	1975.23
475.484	2021.33
475.855	2071.95
476.227	2065.62
476.598	2151.95
476.97	2154.43
477.341	2242.34
477.713	2311.72
478.084	2316.92
478.455	2408.67
478.827	2429
479.198	2502.67
479.569	2536.57
479.94	2612.95
480.311	2675.78
480.682	2784.93
481.053	2809.33
481.424	2894.98
481.795	2949.89
482.166	2999.16
482.537	3084.13
482.908	3180.85
483.279	3244.58
483.65	3331.58
484.021	3402.31
484.391	3485.47
484.762	3549.65
485.133	3611.8
485.503	3719.14
485.874	3784.45
486.244	3866.25
486.615	3995.74
486.985	4119.35
487.356	4194.61
487.726	4230.31
488.097	4341.5
488.467	4434.6
488.837	4552.34
489.207	4653.13
489.578	4762.73
489.948	4870.75
490.318	4950.29
490.688	5049.5
491.058	5153.23
491.428	5254.92
491.798	5339.66
492.168	5499.43
492.538	5570.39
492.908	5685.42
493.278	5787.11
493.648	5884.96
494.017	5934.9
494.387	6073.43
494.757	6195.91
495.126	6250.6
495.496	6362.91
495.866	6472.06
496.235	6603.81
496.605	6675.9
496.974	6727.65
497.344	6898.94
497.713	6949.79
498.082	6981.65
498.452	7105.94
498.821	7223.91
499.19	7291.02
499.559	7428.87
499.928	7446.95
500.298	7589.77
500.667	7619.6
501.036	7692.82
501.405	7772.14
501.774	7862.76
502.143	8026.82
502.512	8036.09
502.88	8109.98
503.249	8241.28
503.618	8335.29
503.987	8345.01
504.356	8488.51
504.724	8559.46
505.093	8584.32
505.462	8694.38
505.83	8760.81
506.199	8830.42
506.567	9010.3
506.936	8994.71
507.304	9166.45
507.672	9181.37
508.041	9337.75
508.409	9366.9
508.777	9445.54
509.145	9483.96
509.514	9566.9
509.882	9639.44
510.25	9743.39
510.618	9790.84
510.986	9784.06
511.354	9953.78
511.722	10040.33
512.09	10176.82
512.458	10142.93
512.826	10233.77
513.193	10291.4
513.561	10381.79
513.929	10511.5
514.297	10599.64
514.664	10660.43
515.032	10672.85
515.4	10804.38
515.767	10809.35
516.135	10897.26
516.502	10843.7
516.869	11061.09
517.237	11092.73
517.604	11052.05
517.972	11228.09
518.339	11278.71
518.706	11269.9
519.073	11386.28
519.44	11505.83
519.808	11610.91
520.175	11624.47
520.542	11746.27
520.909	11875.31
521.276	11794.18
521.643	11936.1
522.009	12017.45
522.376	12043.89
522.743	12170.67
523.11	12307.39
523.477	12362.08
523.843	12515.52
524.21	12621.73
524.577	12640.49
524.943	12710.09
525.31	12809.3
525.676	12945.56
526.043	12980.14
526.409	13032.57
526.776	13255.61
527.142	13209.96
527.508	13312.79
527.874	13409.96
528.241	13472.1
528.607	13491.09
528.973	13605.43
529.339	13642.27
529.705	13877.52
530.071	13778.76
530.437	14025.99
530.803	14026.21
531.169	14086.1
531.535	14149.15
531.901	14140.11
532.267	14287.22
532.632	14266.21
532.998	14331.06
533.364	14429.37
533.73	14609.7
534.095	14629.81
534.461	14655.8
534.826	14718.17
535.192	14854.89
535.557	14923.82
535.923	14882.91
536.288	14962.23
536.653	15130.14
537.019	15116.13
537.384	15139.18
537.749	15213.53
538.114	15240.42
538.479	15331.94
538.845	15373.52
539.21	15374.43
539.575	15415.33
539.94	15463.46
540.305	15659.62
540.67	15703.46
541.034	15745.72
541.399	15741.65
541.764	15818.71
542.129	15908.65
542.494	15915.88
542.858	16079.04
543.223	16029.32
543.587	16103.9
543.952	16160.62
544.316	16285.81
544.681	16288.53
545.045	16323.55
545.41	16515.41
545.774	16469.31
546.138	16582.08
546.503	16527.62
546.867	16638.12
547.231	16747.72
547.595	16793.82
547.959	16840.6
548.324	16869.98
548.688	16884.67
549.052	17007.15
549.416	17111.56
549.779	17018.22
550.143	17074.49
550.507	17186.13
550.871	17217.09
551.235	17271.33
551.599	17355.84
551.962	17500.25
552.326	17555.39
552.689	17587.02
553.053	17533.69
553.417	17572.33
553.78	17899.56
554.143	17719.22
554.507	17881.48
554.87	17983.85
555.234	18051.19
555.597	17939.78
555.96	18132.32
556.323	18170.06
556.686	18204.18
557.05	18351.75
557.413	18339.55
557.776	18325.08
558.139	18460.45
558.502	18542.25
558.865	18488.92
559.228	18703.38
559.59	18768.46
559.953	18801.45
560.316	18968.68
560.679	18946.54
561.041	19175
561.404	19250.26
561.767	19344.27
562.129	19245.74
562.492	19467.43
562.854	19423.81
563.217	19403.92
563.579	19560.08
563.941	19690.47
564.304	19754.88
564.666	19835.78
565.028	19862.22
565.39	19881.43
565.753	20030.8
566.115	20171.81
566.477	20147.86
566.839	20212.94
567.201	20358.02
567.563	20287.52
567.925	20454.74
568.287	20529.54
568.648	20595.53
569.01	20596.21
569.372	20720.27
569.734	20760.05
570.095	20869.65
570.457	21020.15
570.819	21128.85
571.18	21091.79
571.542	21325.91
571.903	21302.86
572.265	21362.74
572.626	21510.76
572.987	21603.87
573.349	21565.45
573.71	21794.82
574.071	21839.79
574.432	21922.73
574.794	22197.3
575.155	22095.15
575.516	22213.57
575.877	22362.27
576.238	22425.31
576.599	22488.59
576.96	22554.8
577.32	22629.38
577.681	22814.23
578.042	23054.22
578.403	23021.46
578.763	23117.05
579.124	23162.47
579.485	23486.53
579.845	23598.39
580.206	23613.08
580.566	23813.98
580.927	23951.83
581.287	24107.08
581.648	24236.79
582.008	24410.12
582.368	24502.1
582.728	24675.65
583.089	24767.63
583.449	24882.2
583.809	25056.88
584.169	25191.8
584.529	25469.75
584.889	25686.02
585.249	25789.29
585.609	25834.94
585.969	26172.79
586.329	26194.71
586.688	26549.27
587.048	26701.81
587.408	26796.95
587.768	26851.19
588.127	27070.84
588.487	27217.96
588.846	27657.04
589.206	27580.66
589.565	27797.83
589.925	28162.34
590.284	28311.49
590.643	28442.11
591.003	28714.19
591.362	28893.17
591.721	29031.69
592.08	29204.8
592.44	29378.13
592.799	29511.91
593.158	29814.72
593.517	29962.97
593.876	30285.22
594.235	30310.53
594.593	30567.93
594.952	30792.55
595.311	30758.65
595.67	30963.62
596.029	31315.02
596.387	31584.4
596.746	31664.17
597.104	31759.98
597.463	31794.79
597.822	32265.73
598.18	32258.05
598.538	32460.3
598.897	32661.2
599.255	32686.06
599.613	33128.31
599.972	33118.82
600.33	33455.76
600.688	33352.48
601.046	33566.26
601.404	33916.76
601.762	33908.18
602.12	34266.58
602.478	34279.92
602.836	34494.6
603.194	34537.99
603.552	34646.01
603.91	34709.51
604.268	35007.81
604.625	34988.83
604.983	35324.86
605.341	35226.33
605.698	35496.38
606.056	35629.71
606.413	35731.63
606.771	35842.59
607.128	36017.5
607.485	35901.8
607.843	36232.41
608.2	36483.48
608.557	36636.69
608.914	36630.36
609.272	36893.41
609.629	36981.32
609.986	37301.31
610.343	37078.94
610.7	37525.03
611.057	37561.19
611.414	37480.96
611.771	37647.51
612.127	37913.27
612.484	37883.89
612.841	38062.87
613.198	37983.78
613.554	38117.78
613.911	38478.23
614.267	38526.36
614.624	38249.31
614.98	38728.84
615.337	38852.9
615.693	38734.04
616.05	38758.67
616.406	39113.46
616.762	38974.03
617.118	39150.52
617.475	39045.89
617.831	39225.32
618.187	39374.02
618.543	39484.98
618.899	39706.44
619.255	39773.56
619.611	39756.16
619.967	39990.28
620.323	40000.45
620.678	39826.21
621.034	39944.63
621.39	39991.86
621.746	39936.04
622.101	40507.55
622.457	40058.52
622.812	40268.46
623.168	40425.29
623.523	40371.96
623.879	40409.7
624.234	40404.5
624.589	40592.75
624.945	40674.1
625.3	40624.61
625.655	40545.74
626.01	40760.2
626.365	40908.9
626.72	40650.37
627.075	40859.86
627.43	40896.92
627.785	40762.23
628.14	40755.91
628.495	41015.79
628.85	40882
629.205	40756.81
629.559	40999.97
629.914	40994.77
630.269	40875.45
630.623	40787.32
630.978	40765.85
631.332	41044.03
631.687	41173.3
632.041	40847.65
632.396	40999.29
632.75	40999.06
633.104	40797.03
633.459	40778.96
633.813	40875
634.167	40742.8
634.521	40788.67
634.875	40898.95
635.229	40813.08
635.583	40779.63
635.937	40730.14
636.291	40670.94
636.645	40732.4
636.999	40653.76
637.352	40780.31
637.706	40539.19
638.06	40839.29
638.413	40669.81
638.767	40587.1
639.121	40742.8
639.474	40327.44
639.828	40375.35
640.181	40375.8
640.534	40423.94
640.888	40354.11
641.241	40316.37
641.594	40299.19
641.947	40392.98
642.301	40486.31
642.654	40428.23
643.007	40508.45
643.36	40329.25
643.713	40149.59
644.066	40342.13
644.419	40208.8
644.771	39898.08
645.124	39522.49
645.477	39551.64
645.83	39371.31
646.182	39277.3
646.535	39078.66
646.888	39247.92
647.24	38985.78
647.593	39192.78
647.945	39119.79
648.298	38959.57
648.65	38858.55
649.002	38817.2
649.355	38975.16
649.707	38900.14
650.059	39000.47
650.411	39510.06
650.763	39477.97
651.115	40003.16
651.467	39736.05
651.819	39722.26
652.171	39608.14
652.523	39596.84
652.875	39639.78
653.227	39505.32
653.578	39684.97
653.93	39647.01
654.282	39452.21
654.633	39515.26
654.985	39445.21
655.337	39403.85
655.688	39474.81
656.039	39590.74
656.391	39269.62
656.742	39364.53
657.094	39380.35
657.445	39363.4
657.796	39300.35
658.147	39277.75
658.498	39207.7
658.849	39306.68
659.2	39214.7
659.551	39168.38
659.902	39300.58
660.253	39263.06
660.604	39217.64
660.955	39079.34
661.306	39198.43
661.656	39174.93
662.007	39233.91
662.358	39297.64
662.708	39357.3
663.059	39193.01
663.409	38913.92
663.76	39251.76
664.11	39318.66
664.461	39281.59
664.811	39294.48
665.161	39144.42
665.511	39123.41
665.862	39119.34
666.212	39252.44
666.562	39320.46
666.912	39025.1
667.262	39084.54
667.612	39047.7
667.962	39197.53
668.312	39009.96
668.662	39224.42
669.011	39067.36
669.361	39019.68
669.711	38974.71
670.06	38908.95
670.41	39010.19
670.76	38837.09
671.109	38965.22
671.459	38934.26
671.808	38873.02
672.157	38906.24
672.507	38673.93
672.856	38761.16
673.205	38748.27
673.554	38917.54
673.904	38628.5
674.253	39030.75
674.602	38716.41
674.951	38124.79
675.3	38113.04
675.649	38823.08
675.998	38692.23
676.346	38591.89
676.695	38758.22
677.044	38494.04
677.393	38763.42
677.741	38525.23
678.09	38510.99
678.438	38322.75
678.787	38461.05
679.135	38533.59
679.484	38173.15
679.832	38354.84
680.181	38111.91
680.529	38268.97
680.877	38009.54
681.225	38137.22
681.573	38394.16
681.922	38078.46
682.27	37883.66
682.618	37976.09
682.966	37942.65
683.314	37904
683.661	37727.06
684.009	37747.85
684.357	37569.77
684.705	37674.63
685.053	37663.33
685.4	37479.38
685.748	37376.33
686.095	37397.35
686.443	37142.89
686.79	37124.36
687.138	37276.68
687.485	37338.14
687.832	37124.81
688.18	37131.59
688.527	36890.7
688.874	36888.44
689.221	36854.09
689.568	36745.84
689.915	36718.05
690.262	36778.61
690.609	36498.62
690.956	36514.66
691.303	36332.97
691.65	36224.95
691.997	36246.87
692.344	35985.86
692.69	36028.8
693.037	36058.18
693.383	35673.1
693.73	36017.27
694.077	35783.16
694.423	35570.28
694.769	35524.86
695.116	35510.85
695.462	35432.66
695.808	35282.6
696.155	35395.59
696.501	35082.38
696.847	35171.42
697.193	34779.34
697.539	34946.34
697.885	34692.79
698.231	34668.38
698.577	34719.45
698.923	34636.74
699.269	34421.84
699.614	34387.49
699.96	34140.94
700.306	34229.07
700.651	34057.1
700.997	33920.38
701.342	34039.47
701.688	33890.78
702.033	33790.89
702.379	33789.99
702.724	33593.83
703.069	33672.48
703.415	33290.34
703.76	33374.86
704.105	33358.59
704.45	33210.34
704.795	33000.4
705.14	32920.18
705.485	32928.77
705.83	32890.12
706.175	32956.79
706.52	32704.59
706.865	32633.86
707.209	32605.39
707.554	32369.69
707.899	32619.4
708.243	32544.14
708.588	32334.88
708.932	32199.07
709.277	32189.8
709.621	32225.28
709.966	31966.98
710.31	31963.37
710.654	31704.84
710.998	31845.18
711.342	31754.33
711.687	31801.79
712.031	31507.79
712.375	31561.8
712.719	31529.03
713.063	31609.48
713.407	31601.34
713.75	31427.79
714.094	31445.87
714.438	31303.95
714.782	31279.77
715.125	31121.81
715.469	31143.05
715.812	31037.52
716.156	30691.99
716.499	30813.12
716.843	30886.79
717.186	30662.84
717.53	30880.23
717.873	30717.75
718.216	30608.6
718.559	30569.73
718.902	30394.37
719.246	30447.7
719.589	30247.48
719.932	30094.49
720.275	30134.49
720.617	30036.19
720.96	30079.8
721.303	29922.29
721.646	30076.41
721.989	29847.27
722.331	29951.44
722.674	29885.23
723.016	29947.6
723.359	29814.27
723.701	29796.65
724.044	29685.01
724.386	29505.81
724.729	29621.51
725.071	29613.83
725.413	29529.53
725.755	29451.34
726.097	29343.78
726.439	29283.89
726.782	29243.89
727.124	29321.63
727.465	29210.67
727.807	29088.42
728.149	29148.75
728.491	29108.53
728.833	29146.49
729.175	29004.8
729.516	29021.75
729.858	28841.87
730.199	28964.13
730.541	28743.57
730.882	28818.82
731.224	28878.7
731.565	28623.34
731.906	28649.78
732.248	28605.94
732.589	28482.56
732.93	28580.63
733.271	28506.06
733.612	28511.03
733.953	28459.51
734.294	28250.92
734.635	28327.76
734.976	28334.99
735.317	28118.5
735.658	28276.46
735.999	28150.59
736.339	28089.8
736.68	28145.39
737.021	28016.35
737.361	27836.02
737.702	27962.12
738.042	27918.05
738.383	27842.8
738.723	27990.59
739.063	27751.5
739.404	27845.51
739.744	27676.7
740.084	27723.25
740.424	27636.7
740.764	27616.82
741.104	27701.33
741.444	27422.92
741.784	27424.05
742.124	27448.46
742.464	27488.23
742.804	27355.13
743.143	27323.72
743.483	27287.79
743.823	27054.8
744.162	27091.18
744.502	27184.74
744.841	27099.54
745.181	27203.04
745.52	27067.9
745.86	27151.74
746.199	26950.17
746.538	27047.57
746.877	26984.06
747.216	27035.36
747.556	26812.09
747.895	26947.46
748.234	26680.57
748.573	26631.76
748.911	26686.22
749.25	26711.3
749.589	26595.15
749.928	26521.03
750.267	26490.74
750.605	26436.73
750.944	26425.21
751.283	26372.33
751.621	26371.43
751.96	26231.99
752.298	26185.89
752.636	26204.2
752.975	25939.8
753.313	25876.07
753.651	25997.2
753.989	25996.07
754.327	25824.32
754.666	25714.27
755.004	25769.18
755.342	25820.71
755.679	25620.48
756.017	25563.99
756.355	25605.57
756.693	25516.98
757.031	25515.63
757.368	25372.58
757.706	25277.44
758.044	25151.12
758.381	25158.58
758.719	25070.89
759.056	25268.63
759.394	25179.59
759.731	24897.11
760.068	24885.14
760.405	24773.28
760.743	24775.08
761.08	24674.07
761.417	24662.09
761.754	24545.94
762.091	24600.4
762.428	24458.03
762.765	24364.92
763.102	24314.98
763.438	24214.87
763.775	24132.16
764.112	24153.86
764.449	24144.82
764.785	23953.86
765.122	23818.95
765.458	23795.22
765.795	23766.3
766.131	23600.2
766.467	23583.93
766.804	23500.99
767.14	23334.22
767.476	23281.34
767.812	23272.98
768.148	23338.06
768.485	23102.58
768.821	23081.34
769.157	23066.43
769.492	22816.49
769.828	22984.85
770.164	22752.54
770.5	22645.42
770.836	22611.3
771.171	22437.29
771.507	22480
771.842	22350.97
772.178	22421.25
772.513	22290.85
772.849	22276.17
773.184	22106.45
773.519	21993.01
773.855	21962.95
774.19	21763.41
774.525	21846.35
774.86	21777.2
775.195	21691.77
775.53	21571.1
775.865	21432.35
776.2	21409.52
776.535	21216.08
776.87	21232.8
777.205	21138.12
777.539	21010.21
777.874	21133.14
778.209	20808.18
778.543	20874.62
778.878	20705.81
779.212	20609.09
779.547	20564.57
779.881	20682.08
780.215	20492.71
780.55	20549.66
780.884	20339.72
781.218	20223.56
781.552	20227.63
781.886	20146.96
782.22	20053.63
782.554	19978.82
782.888	19750.81
783.222	19701.54
783.556	19611.83
783.889	19683.24
784.223	19545.84
784.557	19386.3
784.89	19503.81
785.224	19451.83
785.557	19358.05
785.891	19247.32
786.224	19266.08
786.558	19070.83
786.891	19024.05
787.224	18862.47
787.557	18885.52
787.891	18850.49
788.224	18828.57
788.557	18767.56
788.89	18674.9
789.223	18624.28
789.556	18570.73
789.888	18449.37
790.221	18352.2
790.554	18237.63
790.887	18220.45
791.219	18176.39
791.552	18208.48
791.884	18037.41
792.217	18059.1
792.549	17962.83
792.882	17874.47
793.214	17768.26
793.546	17790.63
793.879	17684.2
794.211	17594.03
794.543	17679
794.875	17617.08
795.207	17650.52
795.539	17418.21
795.871	17457.54
796.203	17268.39
796.535	17268.61
796.867	17238.56
797.198	17147.04
797.53	17221.16
797.862	16879.92
798.193	16975.51
798.525	16919.24
798.856	16944.78
799.188	16662.53
799.519	16641.51
799.85	16640.16
800.182	16577.33
800.513	16690.78
800.844	16495.3
801.175	16458.24
801.506	16553.83
801.837	16450.56
802.168	16300.73
802.499	16278.81
802.83	16193.84
803.161	16130.11
803.491	16089.21
803.822	16173.95
804.153	16011.47
804.483	15908.88
804.814	15923.56
805.145	15838.37
805.475	15856.9
805.805	15764.02
806.136	15785.49
806.466	15744.36
806.796	15684.25
807.126	15576
807.457	15587.53
807.787	15495.1
808.117	15508.43
808.447	15377.82
808.777	15477.47
809.107	15350.02
809.436	15370.58
809.766	15287.87
810.096	15304.37
810.426	15305.95
810.755	15154.55
811.085	15076.13
811.414	15095.34
811.744	15042.23
812.073	14981.22
812.403	14936.92
812.732	14912.97
813.061	14888.11
813.39	14818.96
813.719	14740.32
814.049	14832.75
814.378	14691.73
814.707	14689.25
815.036	14667.33
815.365	14619.87
815.693	14386.88
816.022	14408.12
816.351	14422.36
816.68	14428.46
817.008	14473.88
817.337	14301.46
817.665	14268.92
817.994	14282.48
818.322	14365.64
818.651	14185.3
818.979	14182.82
819.307	14197.96
819.636	14168.81
819.964	14032.54
820.292	14107.11
820.62	14014.46
820.948	14019.43
821.276	14053.11
821.604	14005.65
821.932	14047.91
822.259	14074.57
822.587	14020.79
822.915	13967.91
823.243	14045.42
823.57	13876.16
823.898	13980.56
824.225	13813.56
824.553	13905.76
824.88	13973.33
825.207	14035.03
825.535	13905.99
825.862	13910.51
826.189	13892.66
826.516	13962.49
826.843	14016.95
827.17	14044.07
827.497	13935.82
827.824	13906.67
828.151	13927.68
828.478	13981.69
828.805	13914.8
829.131	13943.96
829.458	13911.64
829.785	13790.06
830.111	13927.23
830.438	13848.82
830.764	13959.32
831.09	13937.18
831.417	13780.8
831.743	13924.29
832.069	13883.39
832.395	13824.64
832.722	13840.68
833.048	13772.66
833.374	13839.55
833.7	13735.6
834.026	13700.12
834.351	13801.59
834.677	13784.41
835.003	13750.97
835.329	13699.67
835.654	13731.76
835.98	13642.49
836.306	13697.18
836.631	13613.57
836.956	13641.14
837.282	13619.9
837.607	13546.68
837.932	13519.33
838.258	13563.4
838.583	13583.51
838.908	13404.99
839.233	13489.73
839.558	13438.66
839.883	13444.99
840.208	13376.74
840.533	13375.83
840.858	13290.64
841.182	13295.16
841.507	13336.06
841.832	13320.69
842.156	13265.78
842.481	13225.1
842.805	13159.12
843.13	13149.85
843.454	13106.69
843.778	13071.89
844.103	13135.39
844.427	13029.63
844.751	13012.91
845.075	13033.92
845.399	12974.49
845.723	12812.01
846.047	12857.88
846.371	12675.29
846.695	12732.46
847.019	12679.58
847.343	12589.87
847.666	12474.16
847.99	12486.59
848.313	12479.81
848.637	12418.57
848.96	12394.39
849.284	12339.03
849.607	12288.18
849.931	12202.76
850.254	12084.34
850.577	12068.3
850.9	11991.92
851.223	11932.71
851.546	11941.97
851.869	11859.72
852.192	11939.71
852.515	11821.07
852.838	11763
853.161	11725.48
853.483	11762.77
853.806	11657.91
854.129	11640.06
854.451	11629.44
854.774	11567.75
855.096	11521.42
855.419	11418.6
855.741	11457.69
856.063	11385.83
856.385	11378.37
856.708	11297.02
857.03	11297.25
857.352	11294.76
857.674	11227.42
857.996	11254.53
858.318	11156.91
858.64	11126.63
858.961	11063.35
859.283	11125.27
859.605	11040.75
859.926	11100.64
860.248	10950.59
860.57	10875.56
860.891	10938.16
861.212	10870.59
861.534	10891.83
861.855	10869.91
862.176	10861.32
862.498	10799.86
862.819	10831.49
863.14	10704.27
863.461	10730.03
863.782	10641.67
864.103	10651.39
864.424	10648.22
864.745	10704.27
865.065	10571.61
865.386	10541.11
865.707	10581.33
866.027	10574.1
866.348	10565.97
866.668	10541.56
866.989	10473.99
867.309	10346.99
867.63	10448.23
867.95	10408.91
868.27	10410.49
868.59	10405.52
868.91	10412.75
869.23	10383.15
869.55	10388.12
869.87	10326.88
870.19	10324.39
870.51	10373.65
870.83	10356.25
871.15	10201.23
871.469	10313.32
871.789	10307.21
872.109	10274.67
872.428	10201.68
872.748	10160.1
873.067	10170.72
873.386	10176.37
873.706	10159.2
874.025	10040.56
874.344	10067.22
874.663	10103.38
874.982	10090.5
875.301	10056.37
875.62	10057.73
875.939	10024.28
876.258	10069.03
876.577	10043.72
876.896	9955.36
877.214	9915.13
877.533	9964.85
877.852	9931.41
878.17	9902.25
878.489	9958.75
878.807	9862.03
879.125	9922.59
879.444	9785.87
879.762	9834.91
880.08	9792.65
880.398	9777.29
880.716	9767.34
881.034	9765.99
881.352	9730.51
881.67	9760.34
881.988	9681.24
882.306	9620.91
882.624	9671.07
882.941	9603.5
883.259	9625.42
883.577	9601.47
883.894	9508.14
884.212	9575.93
884.529	9582.26
884.846	9562.15
885.164	9439.89
885.481	9424.07
885.798	9455.26
886.115	9382.72
886.432	9378.43
886.75	9338.43
887.067	9373.91
887.383	9333
887.7	9342.72
888.017	9233.12
888.334	9203.97
888.651	9248.26
888.967	9199
889.284	9190.86
889.6	9093.24
889.917	8983.18
890.233	9088.94
890.55	9085.78
890.866	9017.08
891.182	9058.89
891.498	8981.15
891.815	8979.79
892.131	8966.46
892.447	8924.43
892.763	8878.55
893.079	8876.74
893.395	8803.3
893.71	8810.31
894.026	8797.2
894.342	8721.72
894.657	8719.91
894.973	8712.68
895.289	8695.96
895.604	8722.85
895.92	8638.56
896.235	8564.66
896.55	8598.11
896.865	8598.79
897.181	8531.44
897.496	8527.37
897.811	8520.82
898.126	8388.17
898.441	8404.89
898.756	8401.28
899.071	8325.35
899.386	8330.77
899.7	8271.79
900.015	8254.84
900.33	8180.49
900.644	8181.85
900.959	8109.98
901.273	8142.3
901.588	8110.44
901.902	8053.94
902.216	7966.71
902.531	7980.04
902.845	8032.25
903.159	7929.42
903.473	7947.73
903.787	7940.95
904.101	7833.16
904.415	7882.42
904.729	7847.62
905.042	7780.05
905.356	7723.55
905.67	7700.28
905.984	7708.19
906.297	7697.79
906.611	7654.18
906.924	7641.75
907.237	7630.22
907.551	7571.24
907.864	7571.92
908.177	7502.32
908.491	7502.09
908.804	7466.39
909.117	7446.27
909.43	7353.62
909.743	7333.51
910.056	7350.91
910.368	7264.13
910.681	7206.05
910.994	7267.97
911.307	7180.07
911.619	7189.1
911.932	7185.04
912.244	7092.84
912.557	7052.39
912.869	7085.83
913.181	7040.18
913.494	7058.71
913.806	6942.56
914.118	6985.72
914.43	6898.04
914.742	6918.38
915.054	6872.95
915.366	6823.69
915.678	6796.35
915.99	6707.99
916.302	6727.65
916.613	6736.91
916.925	6698.04
917.236	6673.19
917.548	6602.68
917.859	6596.58
918.171	6599.52
918.482	6526.98
918.794	6476.36
919.105	6498.73
919.416	6434.77
919.727	6498.05
920.038	6433.87
920.349	6396.58
920.66	6355.45
920.971	6292.86
921.282	6331.73
921.593	6236.81
921.903	6249.92
922.214	6220.99
922.525	6179.19
922.835	6114.1
923.146	6146.87
923.456	6181.67
923.767	6054.45
924.077	6081.34
924.387	6049.93
924.697	5984.16
925.008	6013.32
925.318	5991.4
925.628	6006.99
925.938	5897.16
926.248	5878.63
926.558	5856.48
926.867	5794.79
927.177	5770.84
927.487	5808.8
927.796	5748.92
928.106	5728.35
928.416	5692.65
928.725	5719.09
929.034	5720.44
929.344	5661.46
929.653	5675.02
929.962	5607.45
930.271	5599.99
930.581	5594.8
930.89	5516.61
931.199	5528.58
931.508	5495.59
931.817	5461.24
932.125	5427.34
932.434	5416.95
932.743	5330.85
933.051	5369.49
933.36	5360.23
933.669	5322.94
933.977	5328.81
934.286	5327.91
934.594	5290.85
934.902	5249.95
935.21	5230.96
935.519	5170.85
935.827	5172.43
936.135	5189.38
936.443	5101.48
936.751	5113.91
937.059	5117.97
937.367	5058.54
937.674	5070.06
937.982	5015.38
938.29	5016.05
938.597	5026.45
938.905	4924.98
939.213	4961.14
939.52	4920.69
939.827	4934.47
940.135	4932.89
940.442	4859.67
940.749	4828.26
941.056	4882.27
941.363	4779.9
941.67	4789.62
941.977	4734.93
942.284	4730.86
942.591	4673.46
942.898	4667.36
943.205	4698.77
943.511	4644.09
943.818	4614.03
944.125	4595.5
944.431	4622.62
944.738	4575.16
945.044	4531.32
945.35	4514.37
945.657	4490.19
945.963	4498.1
946.269	4467.14
946.575	4469.85
946.881	4389.63
947.187	4389.4
947.493	4414.71
947.799	4384.43
948.105	4376.98
948.41	4339.01
948.716	4317.99
949.022	4292.01
949.327	4267.83
949.633	4259.46
949.938	4240.71
950.244	4238.45
950.549	4186.92
950.854	4173.14
951.16	4191.22
951.465	4141.73
951.77	4160.71
952.075	4101.73
952.38	4118.68
952.685	4105.34
952.99	4017.21
953.294	4059.92
953.599	3992.13
953.904	4017.89
954.209	3991.67
954.513	3985.57
954.818	3945.35
955.122	3954.84
955.426	3924.78
955.731	3918.91
956.035	3881.62
956.339	3863.09
956.643	3854.96
956.948	3797.78
957.252	3826.93
957.556	3795.75
957.86	3826.03
958.163	3808.63
958.467	3793.94
958.771	3790.55
959.075	3748.97
959.378	3708.52
959.682	3719.59
959.985	3692.02
960.289	3671.46
960.592	3650.67
960.896	3642.31
961.199	3653.38
961.502	3627.16
961.805	3599.14
962.108	3569.31
962.411	3554.4
962.714	3543.32
963.017	3534.06
963.32	3548.97
963.623	3524.57
963.926	3509.43
964.228	3457
964.531	3421.07
964.833	3436.89
965.136	3451.58
965.438	3402.99
965.741	3400.05
966.043	3393.27
966.345	3380.17
966.648	3349.43
966.95	3355.76
967.252	3315.76
967.554	3301.07
967.856	3334.06
968.158	3259.94
968.46	3235.76
968.761	3221.53
969.063	3273.05
969.365	3233.05
969.666	3184.46
969.968	3191.24
970.269	3176.55
970.571	3162.09
970.872	3188.76
971.174	3138.82
971.475	3183.33
971.776	3136.56
972.077	3071.47
972.378	3118.25
972.679	3087.29
972.98	3065.37
973.281	3030.8
973.582	3046.16
973.883	3021.53
974.183	3043.45
974.484	2988.76
974.785	2975.88
975.085	2954.64
975.386	2974.75
975.686	2930.91
975.986	2913.28
976.287	2918.71
976.587	2856.34
976.887	2896.56
977.187	2851.14
977.487	2889.1
977.787	2855.21
978.087	2822.89
978.387	2832.16
978.687	2794.87
978.987	2790.8
979.286	2781.76
979.586	2795.55
979.885	2752.61
980.185	2742.89
980.484	2740.18
980.784	2705.83
981.083	2729.79
981.382	2694.99
981.682	2723.23
981.981	2649.34
982.28	2692.05
982.579	2603.46
982.878	2660.18
983.177	2624.03
983.475	2609.11
983.774	2596.23
984.073	2560.98
984.372	2616.12
984.67	2542.45
984.969	2569.34
985.267	2584.48
985.566	2558.94
985.864	2527.53
986.162	2545.61
986.461	2488.21
986.759	2512.84
987.057	2479.17
987.355	2462.9
987.653	2452.28
987.951	2477.14
988.249	2444.37
988.547	2448.21
988.844	2414.99
989.142	2415.22
989.44	2398.5
989.737	2386.07
990.035	2358.95
990.332	2355.79
990.63	2376.58
990.927	2365.28
991.224	2356.46
991.521	2322.79
991.819	2315.79
992.116	2331.83
992.413	2271.27
992.71	2295.9
993.006	2270.36
993.303	2284.37
993.6	2266.07
993.897	2237.6
994.193	2247.09
994.49	2227.43
994.787	2207.31
995.083	2192.4
995.379	2182.23
995.676	2198.05
995.972	2178.39
996.268	2172.51
996.565	2124.38
996.861	2168.67
997.157	2142.68
997.453	2094.32
997.749	2107.2
998.044	2105.17
998.34	2078.73
998.636	2052.52
998.932	2081.67
999.227	2064.95
999.523	2050.03
999.818	2044.16
1000.114	2013.87
1000.409	2019.98
1000.704	2019.07
1001	2013.2
1001.295	1978.62
1001.59	1968.23
1001.885	1966.87
1002.18	1954.89
1002.475	1923.48
1002.77	1942.69
1003.065	1921.22
1003.359	1917.83
1003.654	1937.94
1003.949	1934.55
1004.243	1927.1
1004.538	1847.1
1004.832	1902.46
1005.127	1864.72
1005.421	1846.19
1005.715	1826.53
1006.009	1839.64
1006.304	1816.36
1006.598	1789.7
1006.892	1798.96
1007.186	1789.92
1007.48	1774.56
1007.773	1764.16
1008.067	1748.8
1008.361	1725.75
1008.655	1727.1
1008.948	1711.51
1009.242	1742.47
1009.535	1694.56
1009.829	1713.99
1010.122	1674.67
1010.415	1692.3
1010.708	1663.37
1011.001	1651.85
1011.295	1645.52
1011.588	1622.02
1011.881	1625.18
1012.173	1623.38
1012.466	1614.11
1012.759	1622.92
1013.052	1611.4
1013.344	1591.74
1013.637	1566.65
1013.93	1555.35
1014.222	1562.81
1014.514	1548.35
1014.807	1553.32
1015.099	1551.51
1015.391	1538.18
1015.683	1496.83
1015.976	1517.62
1016.268	1503.38
1016.56	1485.53
1016.851	1479.2
1017.143	1471.06
1017.435	1469.03
1017.727	1444.17
1018.018	1435.13
1018.31	1429.48
1018.602	1454.79
1018.893	1417.96
1019.185	1401.91
1019.476	1408.47
1019.767	1424.74
1020.058	1392.2
1020.35	1367.56
1020.641	1346.32
1020.932	1334.8
1021.223	1347
1021.514	1366.21
1021.804	1312.65
1022.095	1292.54
1022.386	1321.46
1022.677	1290.73
1022.967	1291.63
1023.258	1288.92
1023.548	1280.11
1023.839	1269.71
1024.129	1257.51
1024.419	1266.1
1024.709	1255.25
1025	1243.05
1025.29	1238.3
1025.58	1232.88
1025.87	1237.62
1026.16	1231.52
1026.449	1227.68
1026.739	1215.48
1027.029	1178.87
1027.319	1161.01
1027.608	1183.84
1027.898	1169.15
1028.187	1134.35
1028.477	1138.19
1028.766	1131.64
1029.055	1141.35
1029.344	1143.39
1029.634	1143.84
1029.923	1092.99
1030.212	1119.66
1030.501	1106.1
1030.79	1114.01
1031.078	1089.6
1031.367	1083.28
1031.656	1096.61
1031.945	1074.46
1032.233	1087.8
1032.522	1072.43
1032.81	1041.02
1033.099	1031.3
1033.387	1015.71
1033.675	1029.27
1033.963	1019.1
1034.251	1017.52
1034.54	993.79
1034.828	1009.61
1035.116	990.62
1035.403	970.51
1035.691	984.97
1035.979	999.66
1036.267	1000.11
1036.554	1007.12
1036.842	968.25
1037.129	948.36
1037.417	938.87
1037.704	935.26
1037.992	934.35
1038.279	949.27
1038.566	922.83
1038.853	922.83
1039.14	922.83
