Data from hue_50_FLMS001491_20.txt Node
Date: Mon Feb 06 15:09:41 GMT 2017
User: dcchb
Spectrometer: FLMS00149
Trigger mode: 0
Integration Time (sec): 2.000000E-2
Scans to average: 10
Electric dark correction enabled: true
Nonlinearity correction enabled: false
Boxcar width: 0
XAxis mode: Wavelengths
Number of Pixels in Spectrum: 2048
>>>>>Begin Spectral Data<<<<<
341.393	-2.13
341.776	-2.13
342.16	-2.13
342.543	-48.69
342.927	-54.79
343.31	-70.38
343.693	-73.09
344.077	-56.37
344.46	-60.89
344.843	-46.65
345.226	-39.87
345.61	-23.6
345.993	-20.66
346.376	-16.6
346.759	9.62
347.142	21.6
347.525	49.39
347.908	44.65
348.291	75.15
348.674	102.72
349.057	104.98
349.44	118.54
349.823	138.43
350.206	160.8
350.588	198.54
350.971	248.03
351.354	234.92
351.737	243.51
352.119	244.87
352.502	244.64
352.884	290.51
353.267	269.05
353.65	319.21
354.032	315.6
354.414	327.35
354.797	310.63
355.179	331.87
355.562	319.67
355.944	330.74
356.326	344.52
356.709	331.42
357.091	348.82
357.473	351.76
357.855	357.41
358.238	336.62
358.62	347.24
359.002	344.75
359.384	324.64
359.766	338.42
360.148	334.13
360.53	348.37
360.912	343.62
361.294	358.76
361.676	338.2
362.057	316.28
362.439	337.29
362.821	333
363.203	355.6
363.584	320.8
363.966	333.9
364.348	336.84
364.729	316.73
365.111	317.18
365.493	319.89
365.874	358.76
366.256	325.99
366.637	323.96
367.019	319.89
367.4	319.89
367.781	321.93
368.163	322.83
368.544	330.51
368.925	330.97
369.306	314.24
369.688	330.06
370.069	339.55
370.45	337.29
370.831	325.09
371.212	335.49
371.593	302.72
371.974	318.76
372.355	330.74
372.736	315.6
373.117	320.34
373.498	322.15
373.879	314.7
374.26	311.76
374.641	316.95
375.021	315.37
375.402	353.34
375.783	335.49
376.163	352.66
376.544	339.55
376.925	349.5
377.305	342.04
377.686	328.93
378.066	324.86
378.447	343.85
378.827	351.08
379.208	326.22
379.588	328.93
379.968	339.55
380.349	343.85
380.729	335.03
381.109	349.5
381.489	337.29
381.87	346.11
382.25	333.45
382.63	349.27
383.01	329.61
383.39	334.13
383.77	348.82
384.15	326.67
384.53	353.11
384.91	354.02
385.29	335.26
385.67	357.63
386.049	357.18
386.429	354.92
386.809	345.65
387.189	328.93
387.568	344.3
387.948	349.27
388.328	341.81
388.707	363.73
389.087	343.62
389.466	356.95
389.846	371.19
390.225	377.52
390.605	375.26
390.984	368.03
391.363	374.81
391.743	354.92
392.122	361.02
392.501	353.56
392.881	358.76
393.26	358.08
393.639	377.29
394.018	378.2
394.397	384.98
394.776	378.42
395.155	362.15
395.534	353.11
395.913	363.96
396.292	370.51
396.671	368.03
397.05	365.99
397.429	377.97
397.808	386.11
398.186	371.19
398.565	394.92
398.944	381.59
399.323	377.74
399.701	385.88
400.08	366.45
400.458	376.61
400.837	406.67
401.215	359.89
401.594	402.83
401.972	383.39
402.351	389.5
402.729	387.01
403.107	384.75
403.486	397.4
403.864	401.92
404.242	409.38
404.62	388.37
404.999	401.7
405.377	402.38
405.755	398.31
406.133	405.31
406.511	413.22
406.889	413.22
407.267	426.56
407.645	422.26
408.023	408.93
408.401	420.91
408.779	417.29
409.156	428.82
409.534	442.15
409.912	442.38
410.29	424.07
410.667	441.7
411.045	435.14
411.422	432.88
411.8	437.18
412.178	426.1
412.555	462.94
412.933	458.65
413.31	438.08
413.687	472.43
414.065	474.92
414.442	454.13
414.819	448.7
415.197	433.34
415.574	455.03
415.951	471.75
416.328	472.88
416.705	454.35
417.082	480.79
417.46	462.71
417.837	485.76
418.214	466.56
418.591	475.14
418.967	474.92
419.344	489.38
419.721	477.4
420.098	477.63
420.475	487.57
420.852	505.88
421.228	488.25
421.605	486.44
421.982	493.45
422.358	490.28
422.735	489.15
423.111	502.26
423.488	509.72
423.864	536.84
424.241	533.67
424.617	510.85
424.994	537.06
425.37	529.6
425.746	517.63
426.123	539.32
426.499	537.97
426.875	524.41
427.251	543.62
427.627	519.44
428.003	542.26
428.379	566.21
428.756	540
429.132	568.02
429.507	557.85
429.883	551.53
430.259	556.04
430.635	572.77
431.011	576.61
431.387	573.22
431.763	573.45
432.138	581.81
432.514	587.68
432.89	592.65
433.265	595.82
433.641	590.62
434.016	588.81
434.392	615.93
434.767	626.55
435.143	600.11
435.518	624.29
435.894	617.74
436.269	612.54
436.644	615.03
437.02	635.14
437.395	659.77
437.77	659.54
438.145	650.51
438.52	663.61
438.895	667
439.271	637.85
439.646	647.57
440.021	672.65
440.395	699.77
440.77	660.22
441.145	656.83
441.52	668.36
441.895	692.09
442.27	675.36
442.645	684.4
443.019	709.26
443.394	689.15
443.769	712.42
444.143	683.5
444.518	706.55
444.892	694.35
445.267	689.83
445.641	737.28
446.016	731.86
446.39	724.4
446.764	751.29
447.139	720.56
447.513	753.78
447.887	733.22
448.262	747.23
448.636	764.17
449.01	714.46
449.384	753.33
449.758	742.71
450.132	769.37
450.506	781.8
450.88	780.67
451.254	756.94
451.628	754.46
452.002	756.94
452.376	785.87
452.75	782.03
453.123	827.9
453.497	812.08
453.871	819.77
454.244	823.38
454.618	812.31
454.992	831.97
455.365	839.65
455.739	847.34
456.112	865.87
456.486	861.35
456.859	891.18
457.232	907.22
457.606	896.83
457.979	891.86
458.352	921.23
458.725	921.01
459.099	915.13
459.472	948.35
459.845	960.1
460.218	961.91
460.591	961.23
460.964	962.59
461.337	955.36
461.71	995.58
462.083	1000.33
462.456	996.03
462.829	989.48
463.201	1020.44
463.574	1041.23
463.947	1060.44
464.32	1056.14
464.692	1061.57
465.065	1092.75
465.438	1094.79
465.81	1116.93
466.183	1128.69
466.555	1148.8
466.928	1172.53
467.3	1159.87
467.672	1180.89
468.045	1226.31
468.417	1210.49
468.789	1236.7
469.161	1266.53
469.534	1273.77
469.906	1292.52
470.278	1326.65
470.65	1311.51
471.022	1371.84
471.394	1403.48
471.766	1432.63
472.138	1437.6
472.51	1462.46
472.882	1530.71
473.253	1516.92
473.625	1561.67
473.997	1571.16
474.369	1622.68
474.74	1654.77
475.112	1678.95
475.484	1743.58
475.855	1741.32
476.227	1809.57
476.598	1861.55
476.97	1884.37
477.341	1958.27
477.713	2022.9
478.084	2020.86
478.455	2104.7
478.827	2148.32
479.198	2247.3
479.569	2292.72
479.94	2366.39
480.311	2381.53
480.682	2476.9
481.053	2561.19
481.424	2642.77
481.795	2685.25
482.166	2774.74
482.537	2832.37
482.908	2912.37
483.279	3002.08
483.65	3078.92
484.021	3209.08
484.391	3256.31
484.762	3326.37
485.133	3421.51
485.503	3529.3
485.874	3665.79
486.244	3725.45
486.615	3826.24
486.985	3979.68
487.356	4047.7
487.726	4166.12
488.097	4271.2
488.467	4421.93
488.837	4550.97
489.207	4662.83
489.578	4740.12
489.948	4863.5
490.318	5008.36
490.688	5099.65
491.058	5226.2
491.428	5364.73
491.798	5445.86
492.168	5635.23
492.538	5737.38
492.908	5835.45
493.278	5985.73
493.648	6119.97
494.017	6253.75
494.387	6407.19
494.757	6498.71
495.126	6669.33
495.496	6671.36
495.866	6878.82
496.235	7007.17
496.605	7091.24
496.974	7246.04
497.344	7339.14
497.713	7460.5
498.082	7588.63
498.452	7721.51
498.821	7820.49
499.19	7913.14
499.559	8081.27
499.928	8208.95
500.298	8297.99
500.667	8430.19
501.036	8542.05
501.405	8687.36
501.774	8726.68
502.143	8836.5
502.512	8964.86
502.88	9082.6
503.249	9274.01
503.618	9260.9
503.987	9408.92
504.356	9563.72
504.724	9647.56
505.093	9720.55
505.462	9859.3
505.83	9984.72
506.199	10078.73
506.567	10244.6
506.936	10285.51
507.304	10425.84
507.672	10518.49
508.041	10647.98
508.409	10693.63
508.777	10824.48
509.145	10915.32
509.514	11132.94
509.882	11173.84
510.25	11275.76
510.618	11307.63
510.986	11373.84
511.354	11523.67
511.722	11650.22
512.09	11786.26
512.458	11791.23
512.826	11965.01
513.193	12031.9
513.561	12066.02
513.929	12198
514.297	12380.82
514.664	12498.33
515.032	12468.05
515.4	12648.61
515.767	12814.93
516.135	12775.61
516.502	12828.72
516.869	13020.58
517.237	13081.82
517.604	13164.3
517.972	13361.81
518.339	13364.3
518.706	13391.41
519.073	13589.83
519.44	13641.35
519.808	13784.4
520.175	13775.13
520.542	13974.22
520.909	14049.48
521.276	14103.26
521.643	14292.86
522.009	14426.41
522.376	14587.09
522.743	14627.99
523.11	14705.28
523.477	14822.79
523.843	14997.25
524.21	15079.05
524.577	15289.22
524.943	15266.39
525.31	15415.77
525.676	15603.33
526.043	15638.81
526.409	15727.4
526.776	15926.49
527.142	15893.95
527.508	15992.25
527.874	16180.49
528.241	16292.35
528.607	16397.89
528.973	16585.45
529.339	16467.26
529.705	16728.95
530.071	16836.97
530.437	16889.17
530.803	16979.12
531.169	17064.31
531.535	17043.75
531.901	17168.72
532.267	17189.96
532.632	17347.69
532.998	17528.25
533.364	17594.92
533.73	17538.87
534.095	17721.02
534.461	17812.09
534.826	17822.71
535.192	18015.47
535.557	18072.19
535.923	18066.77
536.288	18116.26
536.653	18327.33
537.019	18277.39
537.384	18387.67
537.749	18546.98
538.114	18528
538.479	18540.2
538.845	18617.04
539.21	18645.29
539.575	18823.81
539.94	18807.32
540.305	18974.77
540.67	18999.85
541.034	19030.59
541.399	19173.18
541.764	19227.87
542.129	19259.28
542.494	19280.98
542.858	19512.16
543.223	19412.95
543.587	19584.24
543.952	19539.27
544.316	19589.89
544.681	19635.32
545.045	19771.58
545.41	19942.65
545.774	19959.6
546.138	19984.69
546.503	19968.87
546.867	20008.87
547.231	20195.3
547.595	20251.8
547.959	20265.13
548.324	20306.71
548.688	20356.2
549.052	20540.83
549.416	20529.08
549.779	20472.36
550.143	20496.09
550.507	20766.13
550.871	20898.33
551.235	20804.33
551.599	21009.97
551.962	20955.73
552.326	21048.16
552.689	21255.39
553.053	21185.78
553.417	21178.78
553.78	21487.02
554.143	21427.81
554.507	21586.68
554.87	21606.11
555.234	21899.44
555.597	21720.91
555.96	21840.68
556.323	22018.98
556.686	21868.25
557.05	22157.06
557.413	22134.46
557.776	22183.27
558.139	22321.12
558.502	22371.52
558.865	22395.92
559.228	22617.16
559.59	22670.27
559.953	22661.9
560.316	22958.62
560.679	22959.75
561.041	23002.69
561.404	23172.63
561.767	23347.76
562.129	23218.05
562.492	23422.34
562.854	23419.62
563.217	23527.64
563.579	23661.2
563.941	23800.86
564.304	23938.48
564.666	23998.82
565.028	24026.39
565.39	24067.29
565.753	24298.92
566.115	24359.94
566.477	24417.56
566.839	24519.71
567.201	24644.22
567.563	24753.6
567.925	24931.9
568.287	24922.86
568.648	24935.52
569.01	25159.47
569.372	25274.49
569.734	25180.03
570.095	25495.95
570.457	25593.13
570.819	25715.84
571.18	25584.77
571.542	25758.55
571.903	25872.89
572.265	25993.34
572.626	26053.45
572.987	25994.25
573.349	26081.48
573.71	26169.16
574.071	26433.1
574.432	26459.32
574.794	26591.52
575.155	26638.75
575.516	26447.34
575.877	26908.12
576.238	26875.35
576.599	27015.46
576.96	27028.57
577.32	27104.27
577.681	27182.92
578.042	27335
578.403	27412.06
578.763	27593.53
579.124	27547.43
579.485	27677.82
579.845	27743.58
580.206	27824.71
580.566	27892.73
580.927	28086.17
581.287	28183.57
581.648	28049.79
582.008	28363
582.368	28358.93
582.728	28586.04
583.089	28553.27
583.449	28634.85
583.809	28739.71
584.169	28966.15
584.529	28822.19
584.889	29188.51
585.249	29226.48
585.609	29085.01
585.969	29322.52
586.329	29470.76
586.688	29455.62
587.048	29460.82
587.408	29633.92
587.768	29601.83
588.127	29692
588.487	29724.09
588.846	30107.58
589.206	29859.45
589.565	29932.45
589.925	30423.73
590.284	30367.92
590.643	30491.98
591.003	30585.76
591.362	30675.93
591.721	30785.53
592.08	30761.8
592.44	30957.96
592.799	31083.38
593.158	31020.1
593.517	31004.96
593.876	31275.24
594.235	31316.82
594.593	31415.12
594.952	31560.65
595.311	31619.86
595.67	31741.67
596.029	32004.26
596.387	32002.9
596.746	32171.26
597.104	31964.48
597.463	32288.32
597.822	32444.47
598.18	32395.89
598.538	32249.45
598.897	32589.55
599.255	32374.42
599.613	32910.9
599.972	32754.52
600.33	32877.23
600.688	32817.57
601.046	33012.14
601.404	33114.51
601.762	33228.18
602.12	33378.68
602.478	33388.63
602.836	33474.95
603.194	33376.88
603.552	33615.51
603.91	33451.9
604.268	33638.11
604.625	33795.85
604.983	33862.97
605.341	33675.63
605.698	33936.41
606.056	33992.91
606.413	33994.49
606.771	34171.66
607.128	34362.16
607.485	34268.15
607.843	34318.09
608.2	34589.95
608.557	34728.71
608.914	34575.72
609.272	34954.01
609.629	34853
609.986	34977.06
610.343	34994.91
610.7	35219.31
611.057	35206.21
611.414	35054.8
611.771	35227.45
612.127	35325.53
612.484	35391.51
612.841	35610.49
613.198	35434.45
613.554	35530.72
613.911	35663.82
614.267	35850.48
614.624	35855.46
614.98	35849.81
615.337	36007.77
615.693	36003.02
616.05	35930.26
616.406	36153.53
616.762	36095.68
617.118	36227.42
617.475	36195.56
617.831	36323.01
618.187	36459.28
618.543	36529.34
618.899	36742.89
619.255	36670.8
619.611	36553.06
619.967	36725.72
620.323	36888.87
620.678	36814.07
621.034	36748.77
621.39	36697.69
621.746	36822.89
622.101	37227.62
622.457	36982.21
622.812	37073.5
623.168	37084.12
623.523	37133.61
623.879	37312.37
624.234	36959.61
624.589	37235.53
624.945	37230.33
625.3	37278.02
625.655	37304.23
626.01	37275.76
626.365	37496.09
626.72	37370.67
627.075	37359.37
627.43	37272.82
627.785	37234.18
628.14	37484.79
628.495	37384.45
628.85	37483.66
629.205	37206.15
629.559	37657.44
629.914	37398.92
630.269	37507.84
630.623	37342.87
630.978	37297.23
631.332	37353.04
631.687	37575.18
632.041	37417.9
632.396	37499.25
632.75	37223.56
633.104	37304.91
633.459	37233.72
633.813	37260.16
634.167	37326.15
634.521	37279.37
634.875	37348.07
635.229	37407.73
635.583	37007.29
635.937	37111.92
636.291	36981.08
636.645	37205.25
636.999	37115.08
637.352	37205.7
637.706	37060.4
638.06	37001.64
638.413	37052.49
638.767	37045.25
639.121	37108.76
639.474	36813.4
639.828	37009.55
640.181	36893.62
640.534	36994.63
640.888	36814.3
641.241	36692.5
641.594	36827.41
641.947	36823.34
642.301	36771.82
642.654	36800.97
643.007	36851.14
643.36	36890.23
643.713	36739.5
644.066	36810.68
644.419	36649.33
644.771	36443.69
645.124	36097.94
645.477	35988.33
645.83	35697.49
646.182	35798.28
646.535	35603.71
646.888	35788.79
647.24	35427.67
647.593	35643.26
647.945	35669.92
648.298	35322.36
648.65	35370.72
649.002	35421.79
649.355	35598.06
649.707	35379.31
650.059	35568.91
650.411	35938.17
650.763	36103.58
651.115	36168.89
651.467	36186.52
651.819	36121.66
652.171	36143.58
652.523	36080.53
652.875	36115.11
653.227	35973.87
653.578	36205.95
653.93	36050.48
654.282	36058.61
654.633	35982.23
654.985	36121.44
655.337	35914.21
655.688	35914.44
656.039	36136.35
656.391	35736.36
656.742	35928.9
657.094	35966.41
657.445	35866.98
657.796	35973.42
658.147	35820.2
658.498	35849.58
658.849	35929.13
659.2	35778.17
659.551	35642.81
659.902	35823.14
660.253	35795.34
660.604	35816.13
660.955	35638.96
661.306	35842.8
661.656	35753.99
662.007	35698.17
662.358	35730.04
662.708	35735.91
663.059	35740.66
663.409	35506.76
663.76	35856.13
664.11	35688.68
664.461	35757.15
664.811	35638.74
665.161	35762.58
665.511	35557.61
665.862	35637.61
666.212	35711.28
666.562	35772.07
666.912	35700.66
667.262	35554.45
667.612	35615.46
667.962	35720.09
668.312	35535.01
668.662	35653.88
669.011	35655.01
669.361	35545.41
669.711	35471.51
670.06	35431.06
670.41	35373.89
670.76	35452.53
671.109	35466.99
671.459	35447.56
671.808	35459.31
672.157	35477.39
672.507	35141.12
672.856	35239.43
673.205	35444.62
673.554	35439.65
673.904	35319.42
674.253	35461.79
674.602	35387.22
674.951	34805.31
675.3	34697.07
675.649	35310.16
675.998	35094.57
676.346	35264.06
676.695	35311.06
677.044	35004.63
677.393	35142.71
677.741	35184.74
678.09	34994.91
678.438	34946.33
678.787	35098.87
679.135	35154.68
679.484	34872.2
679.832	34972.54
680.181	34784.07
680.529	34957.85
680.877	34756.73
681.225	34705.66
681.573	34808.48
681.922	34610.06
682.27	34649.39
682.618	34719.21
682.966	34609.61
683.314	34716.05
683.661	34511.54
684.009	34417.75
684.357	34342.05
684.705	34109.29
685.053	34254.14
685.4	34189.06
685.748	34066.12
686.095	33954.49
686.443	33944.77
686.79	33875.39
687.138	33989.52
687.485	33886.69
687.832	33692.57
688.18	33751.56
688.527	33598.79
688.874	33581.17
689.221	33587.94
689.568	33508.4
689.915	33361.06
690.262	33420.27
690.609	33256.43
690.956	33182.08
691.303	33181.18
691.65	32923.1
691.997	32995.87
692.344	32868.19
692.69	32766.05
693.037	32915.87
693.383	32655.54
693.73	32705.48
694.077	32632.94
694.423	32670.68
694.769	32386.62
695.116	32445.38
695.462	32359.05
695.808	32164.25
696.155	32404.92
696.501	31997.03
696.847	31905.5
697.193	31729.69
697.539	31843.58
697.885	31696.69
698.231	31619.18
698.577	31609.01
698.923	31575.57
699.269	31401.79
699.614	31205.41
699.96	31325.41
700.306	31195.24
700.651	31063.49
700.997	31041.12
701.342	30897.62
701.688	30924.29
702.033	30765.42
702.379	30710.28
702.724	30654.46
703.069	30766.32
703.415	30368.37
703.76	30372.66
704.105	30322.27
704.45	30292.66
704.795	30214.25
705.14	30044.08
705.485	30070.52
705.83	30021.03
706.175	29938.1
706.52	29885.22
706.865	29743.3
707.209	29803.86
707.554	29635.51
707.899	29708.5
708.243	29430.99
708.588	29529.07
708.932	29337.21
709.277	29339.69
709.621	29285.46
709.966	29113.03
710.31	29240.26
710.654	28884.57
710.998	28948.52
711.342	29009.53
711.687	28850.44
712.031	28811.57
712.375	28608.19
712.719	28729.32
713.063	28564.8
713.407	28707.62
713.75	28593.73
714.094	28490.45
714.438	28400.28
714.782	28381.08
715.125	28272.38
715.469	28256.33
715.812	28162.32
716.156	28017.02
716.499	28070.35
716.843	28092.27
717.186	27975.21
717.53	28064.7
717.873	28027.19
718.216	27854.08
718.559	27730.25
718.902	27677.59
719.246	27636.91
719.589	27557.14
719.932	27486.64
720.275	27478.5
720.617	27549.46
720.96	27487.99
721.303	27445.06
721.646	27420.88
721.989	27285.96
722.331	27368
722.674	27192.18
723.016	27229.69
723.359	27240.31
723.701	27162.12
724.044	26982.02
724.386	26904.96
724.729	27067.89
725.071	26844.62
725.413	26964.62
725.755	26853.88
726.097	26702.02
726.439	26746.09
726.782	26736.15
727.124	26814.11
727.465	26564.85
727.807	26619.99
728.149	26521.69
728.491	26514.46
728.833	26558.3
729.175	26365.54
729.516	26298.42
729.858	26313.11
730.199	26272.2
730.541	26310.85
730.882	26208.7
731.224	26248.02
731.565	26150.63
731.906	25973
732.248	26135.94
732.589	25995.6
732.93	25934.13
733.271	25886.45
733.612	25967.35
733.953	25895.94
734.294	25794.25
734.635	25866.34
734.976	25736.17
735.317	25644.88
735.658	25688.72
735.999	25687.59
736.339	25603.97
736.68	25655.95
737.021	25530.08
737.361	25541.15
737.702	25506.8
738.042	25625.22
738.383	25540.02
738.723	25411.44
739.063	25420.48
739.404	25474.71
739.744	25384.54
740.084	25074.95
740.424	25185.23
740.764	25154.04
741.104	25258.22
741.444	25064.78
741.784	25025.68
742.124	25003.76
742.464	24935.06
742.804	25031.33
743.143	24936.19
743.483	24900.72
743.823	24858.68
744.162	24757.44
744.502	24797.67
744.841	24757.22
745.181	24834.95
745.52	24695.97
745.86	24728.52
746.199	24531.23
746.538	24659.59
746.877	24620.5
747.216	24609.65
747.556	24498.47
747.895	24581.18
748.234	24453.5
748.573	24387.73
748.911	24372.37
749.25	24307.51
749.589	24175.99
749.928	24213.05
750.267	24239.04
750.605	24164.92
750.944	24039.95
751.283	24016.44
751.621	24088.53
751.96	23939.16
752.298	23899.61
752.636	23887.41
752.975	23719.96
753.313	23691.26
753.651	23813.06
753.989	23630.69
754.327	23588.43
754.666	23499.17
755.004	23562.9
755.342	23552.28
755.679	23420.08
756.017	23345.73
756.355	23368.33
756.693	23286.07
757.031	23310.25
757.368	23206.3
757.706	23067.09
758.044	23134.89
758.381	23085.4
758.719	23014.66
759.056	22963.82
759.394	22891.95
759.731	22740.32
760.068	22792.07
760.405	22712.07
760.743	22617.16
761.08	22651.28
761.417	22394.11
761.754	22517.95
762.091	22398.18
762.428	22248.81
762.765	22196.38
763.102	22127.23
763.438	22113.9
763.775	21965.43
764.112	22041.58
764.449	22080.45
764.785	21840.46
765.122	21803.4
765.458	21765.2
765.795	21740.57
766.131	21713.68
766.467	21615.83
766.804	21478.66
767.14	21350.75
767.476	21375.16
767.812	21192.11
768.148	21402.05
768.485	21116.41
768.821	20982.63
769.157	21083.87
769.492	20899.24
769.828	20953.7
770.164	20687.94
770.5	20645.46
770.836	20714.61
771.171	20514.16
771.507	20471
771.842	20382.64
772.178	20316.88
772.513	20326.6
772.849	20417.67
773.184	20145.81
773.519	20178.13
773.855	20012.26
774.19	19974.29
774.525	19923.9
774.86	19924.57
775.195	19836.67
775.53	19727.97
775.865	19626.28
776.2	19452.27
776.535	19334.99
776.87	19313.07
777.205	19346.74
777.539	19239.17
777.874	19276
778.209	19099.96
778.543	19023.36
778.878	18930.02
779.212	18960.53
779.547	18857.03
779.881	18943.36
780.215	18778.39
780.55	18713.31
780.884	18596.7
781.218	18601.9
781.552	18631.05
781.886	18414.56
782.22	18322.13
782.554	18300.21
782.888	18100.44
783.222	18140.89
783.556	17968.47
783.889	17935.02
784.223	17884.63
784.557	17813.44
784.89	17801.01
785.224	17719.21
785.557	17669.04
785.891	17580.23
786.224	17582.94
786.558	17478.99
786.891	17328.26
787.224	17261.59
787.557	17214.36
787.891	17199
788.224	17163.74
788.557	17154.93
788.89	17033.13
789.223	17024.99
789.556	16897.08
789.888	16881.27
790.221	16855.5
790.554	16629.07
790.887	16645.34
791.219	16616.41
791.552	16554.04
791.884	16504.78
792.217	16473.82
792.549	16362.41
792.882	16238.34
793.214	16236.54
793.546	16172.36
793.879	16170.1
794.211	16053.49
794.543	16044.68
794.875	15968.97
795.207	16085.35
795.539	16048.97
795.871	16009.65
796.203	15788.86
796.535	15747.74
796.867	15706.38
797.198	15634.74
797.53	15603.11
797.862	15524.01
798.193	15574.18
798.525	15368.08
798.856	15472.04
799.188	15341.42
799.519	15207.86
799.85	15207.18
800.182	15171.71
800.513	15259.61
800.844	15043.8
801.175	15023.69
801.506	14992.05
801.837	14915.89
802.168	14968.1
802.499	14841.32
802.83	14860.3
803.161	14818.49
803.491	14835.67
803.822	14769.46
804.153	14627.31
804.483	14620.08
804.814	14574.89
805.145	14444.49
805.475	14540.99
805.805	14452.85
806.136	14426.64
806.466	14488.11
806.796	14340.09
807.126	14231.39
807.457	14214.89
807.787	14243.37
808.117	14189.58
808.447	14080.66
808.777	14030.72
809.107	14007.67
809.436	14027.55
809.766	13985.3
810.096	13956.14
810.426	13853.55
810.755	13903.94
811.085	13775.81
811.414	13830.05
811.744	13655.59
812.073	13677.51
812.403	13734.46
812.732	13612.2
813.061	13544.86
813.39	13452.88
813.719	13560.22
814.049	13582.14
814.378	13475.25
814.707	13396.84
815.036	13468.02
815.365	13381.92
815.693	13243.85
816.022	13264.41
816.351	13217.86
816.68	13024.42
817.008	13193.45
817.337	13015.15
817.665	13002.95
817.994	13028.26
818.322	13035.04
818.651	13001.14
818.979	12924.99
819.307	12999.56
819.636	12946.23
819.964	12873.23
820.292	12845.89
820.62	12831.2
820.948	12821.71
821.276	12830.07
821.604	12797.53
821.932	12804.31
822.259	12774.93
822.587	12799.79
822.915	12755.05
823.243	12809.28
823.57	12804.08
823.898	12823.74
824.225	12754.37
824.553	12764.54
824.88	12784.88
825.207	12706.69
825.535	12689.28
825.862	12722.28
826.189	12682.28
826.516	12731.54
826.843	12788.49
827.17	12744.65
827.497	12770.19
827.824	12769.96
828.151	12805.89
828.478	12699.68
828.805	12769.06
829.131	12728.83
829.458	12730.87
829.785	12620.13
830.111	12616.52
830.438	12744.42
830.764	12648.38
831.09	12618.33
831.417	12625.78
831.743	12681.83
832.069	12688.83
832.395	12576.97
832.722	12684.99
833.048	12676.4
833.374	12633.24
833.7	12540.81
834.026	12617.2
834.351	12574.03
834.677	12566.58
835.003	12516.18
835.329	12575.62
835.654	12550.08
835.98	12475.96
836.306	12474.83
836.631	12480.48
836.956	12547.14
837.282	12487.03
837.607	12401.38
837.932	12327.49
838.258	12342.18
838.583	12343.31
838.908	12323.19
839.233	12292.46
839.558	12330.42
839.883	12195.29
840.208	12256.53
840.533	12204.1
840.858	12160.03
841.182	12245.91
841.507	12189.86
841.832	12150.54
842.156	12076.65
842.481	12086.59
842.805	12066.7
843.13	12023.99
843.454	12005.91
843.778	12028.96
844.103	11954.16
844.427	11865.35
844.751	11916.42
845.075	11824.67
845.399	11758.46
845.723	11779.7
846.047	11724.11
846.371	11652.02
846.695	11653.61
847.019	11535.42
847.343	11598.92
847.666	11470.56
847.99	11479.37
848.313	11491.35
848.637	11378.36
848.96	11361.41
849.284	11402.31
849.607	11226.05
849.931	11165.03
850.254	11146.95
850.577	11129.33
850.9	11034.87
851.223	10970.23
851.546	10910.8
851.869	10946.96
852.192	10897.02
852.515	10816.11
852.838	10781.76
853.161	10773.63
853.483	10690.47
853.806	10663.12
854.129	10610.92
854.451	10553.52
854.774	10535.67
855.096	10478.27
855.419	10479.63
855.741	10435.33
856.063	10418.16
856.385	10363.92
856.708	10331.38
857.03	10346.97
857.352	10357.59
857.674	10302.91
857.996	10237.37
858.318	10177.26
858.64	10211.38
858.961	10158.5
859.283	10109.01
859.605	10003.93
859.926	10096.13
860.248	10055.23
860.57	10026.3
860.891	10054.1
861.212	9992.86
861.534	9928.23
861.855	9930.49
862.176	9927.1
862.498	9956.02
862.819	9916.48
863.14	9785.41
863.461	9798.06
863.782	9775.01
864.103	9866.99
864.424	9794.9
864.745	9781.34
865.065	9790.15
865.386	9693.21
865.707	9689.82
866.027	9708.8
866.348	9658.4
866.668	9600.1
866.989	9600.55
867.309	9566.2
867.63	9569.59
867.95	9521.91
868.27	9529.14
868.59	9549.03
868.91	9492.76
869.23	9467
869.55	9412.76
869.87	9564.4
870.19	9447.11
870.51	9463.83
870.83	9442.36
871.15	9413.66
871.469	9348.81
871.789	9350.16
872.109	9364.17
872.428	9311.75
872.748	9353.1
873.067	9312.2
873.386	9361.91
873.706	9360.78
874.025	9225.65
874.344	9255.25
874.663	9229.71
874.982	9201.92
875.301	9175.25
875.62	9201.69
875.939	9204.4
876.258	9152.43
876.577	9134.35
876.896	9119.89
877.214	9103.84
877.533	9119.66
877.852	9150.39
878.17	9123.73
878.489	9029.04
878.807	9040.12
879.125	9002.83
879.444	9090.74
879.762	8982.04
880.08	8984.07
880.398	8977.74
880.716	8911.31
881.034	8955.37
881.352	9021.13
881.67	8817.3
881.988	8897.52
882.306	8859.33
882.624	8828.6
882.941	8800.8
883.259	8745.66
883.577	8690.29
883.894	8714.25
884.212	8655.27
884.529	8695.49
884.846	8617.75
885.164	8649.62
885.481	8659.33
885.798	8608.49
886.115	8633.57
886.432	8575.27
886.75	8521.48
887.067	8556.29
887.383	8479.23
887.7	8562.16
888.017	8502.95
888.334	8470.19
888.651	8428.61
888.967	8420.02
889.284	8428.15
889.6	8320.13
889.917	8329.63
890.233	8322.62
890.55	8285.78
890.866	8276.52
891.182	8286.24
891.498	8263.41
891.815	8182.96
892.131	8173.47
892.447	8215.73
892.763	8088.5
893.079	8111.1
893.395	8069.29
893.71	8106.13
894.026	8057.09
894.342	8065
894.657	7943.65
894.973	7955.4
895.289	7974.38
895.604	7930.31
895.92	7821.84
896.235	7912.91
896.55	7847.38
896.865	7850.09
897.181	7766.25
897.496	7845.12
897.811	7747.72
898.126	7749.08
898.441	7666.82
898.756	7613.71
899.071	7602.19
899.386	7639.25
899.7	7552.24
900.015	7524.22
900.33	7414.4
900.644	7467.73
900.959	7510.44
901.273	7484.68
901.588	7424.56
901.902	7337.56
902.216	7336.88
902.531	7350.44
902.845	7316.09
903.159	7314.51
903.473	7260.95
903.787	7226.15
904.101	7208.53
904.415	7150.9
904.729	7107.74
905.042	7132.37
905.356	7082.88
905.67	7054.4
905.984	7063.67
906.297	7041.52
906.611	7018.93
906.924	6965.37
907.237	6948.64
907.551	6917.69
907.864	6914.3
908.177	6921.98
908.491	6882.66
908.804	6811.25
909.117	6795.65
909.43	6767.18
909.743	6727.18
910.056	6689.67
910.368	6707.97
910.681	6681.76
910.994	6606.06
911.307	6606.06
911.619	6594.53
911.932	6597.02
912.244	6542.78
912.557	6520.41
912.869	6481.54
913.181	6418.94
913.494	6466.85
913.806	6421.65
914.118	6385.95
914.43	6348.66
914.742	6314.31
915.054	6277.25
915.366	6203.35
915.678	6199.96
915.99	6239.06
916.302	6221.88
916.613	6164.71
916.925	6172.62
917.236	6119.97
917.548	6089.91
917.859	6062.57
918.171	6020.76
918.482	5961.78
918.794	5988.9
919.105	5974.89
919.416	5906.19
919.727	5943.47
920.038	5843.82
920.349	5826.41
920.66	5814.66
920.971	5825.74
921.282	5822.35
921.593	5761.33
921.903	5719.75
922.214	5729.24
922.525	5659.87
922.835	5659.64
923.146	5619.64
923.456	5617.38
923.767	5587.55
924.077	5609.02
924.387	5570.15
924.697	5499.19
925.008	5516.82
925.318	5482.47
925.628	5447.89
925.938	5489.25
926.248	5469.59
926.558	5398.4
926.867	5342.59
927.177	5318.86
927.487	5319.08
927.796	5297.84
928.106	5270.72
928.416	5262.59
928.725	5266.43
929.034	5157.28
929.344	5205.87
929.653	5144.17
929.962	5131.29
930.271	5119.31
930.581	5122.7
930.89	5088.35
931.199	5057.17
931.508	5027.34
931.817	5026.66
932.125	5014.46
932.434	5034.12
932.743	4962.93
933.051	4926.55
933.36	4905.76
933.669	4871.41
933.977	4839.32
934.286	4831.64
934.594	4824.63
934.902	4829.83
935.21	4740.57
935.519	4782.83
935.827	4724.3
936.135	4717.74
936.443	4714.13
936.751	4692.43
937.059	4679.78
937.367	4640.91
937.674	4623.06
937.982	4614.7
938.29	4585.09
938.597	4594.81
938.905	4590.29
939.213	4522.27
939.52	4504.64
939.827	4510.74
940.135	4474.81
940.442	4470.97
940.749	4444.53
941.056	4437.3
941.363	4366.11
941.67	4391.2
941.977	4376.51
942.284	4317.75
942.591	4356.62
942.898	4298.77
943.205	4305.78
943.511	4296.51
943.818	4241.6
944.125	4218.55
944.431	4224.2
944.738	4206.8
945.044	4174.03
945.35	4186.23
945.657	4162.05
945.963	4116.86
946.269	4103.97
946.575	4079.79
946.881	4100.58
947.187	4070.98
947.493	4037.08
947.799	4056.74
948.105	4033.69
948.41	4009.74
948.716	3999.12
949.022	3948.72
949.327	3934.49
949.633	3918.89
949.938	3920.93
950.244	3900.36
950.549	3887.48
950.854	3813.13
951.16	3847.03
951.465	3805.9
951.77	3816.52
952.075	3773.36
952.38	3788.73
952.685	3780.82
952.99	3766.58
953.294	3735.85
953.599	3720.48
953.904	3688.39
954.209	3664.66
954.513	3696.08
954.818	3646.13
955.122	3613.14
955.426	3597.32
955.731	3584.89
956.035	3585.57
956.339	3519.13
956.643	3598.22
956.948	3564.33
957.252	3553.93
957.556	3519.58
957.86	3479.13
958.163	3505.57
958.467	3439.13
958.771	3436.65
959.075	3471
959.378	3419.02
959.682	3378.8
959.985	3381.06
960.289	3395.74
960.592	3374.73
960.896	3331.56
961.199	3330.44
961.502	3346.03
961.805	3316.42
962.108	3307.61
962.411	3277.33
962.714	3225.58
963.017	3253.15
963.32	3245.24
963.623	3202.53
963.926	3223.77
964.228	3201.17
964.531	3148.97
964.833	3164.11
965.136	3136.09
965.438	3130.67
965.741	3119.59
966.043	3123.21
966.345	3081.4
966.648	3083.21
966.95	3089.31
967.252	3063.78
967.554	3021.06
967.856	3040.5
968.158	2996.66
968.46	2980.39
968.761	2997.11
969.063	3015.87
969.365	2992.82
969.666	2951.91
969.968	2942.65
970.269	2934.51
970.571	2928.64
970.872	2911.24
971.174	2859.71
971.475	2887.96
971.776	2851.35
972.077	2824.01
972.378	2861.97
972.679	2841.63
972.98	2833.72
973.281	2777.91
973.582	2781.3
973.883	2809.77
974.183	2800.96
974.484	2768.64
974.785	2720.51
975.085	2748.76
975.386	2767.29
975.686	2687.06
975.986	2725.03
976.287	2706.27
976.587	2671.92
976.887	2677.34
977.187	2645.93
977.487	2675.76
977.787	2637.8
978.087	2619.49
978.387	2616.1
978.687	2600.06
978.987	2574.97
979.286	2586.73
979.586	2588.53
979.885	2589.21
980.185	2534.3
980.484	2572.49
980.784	2506.95
981.083	2521.42
981.382	2491.81
981.682	2513.51
981.981	2478.93
982.28	2462.21
982.579	2461.08
982.878	2422.89
983.177	2436.67
983.475	2424.47
983.774	2451.14
984.073	2396
984.372	2414.53
984.67	2395.09
984.969	2387.18
985.267	2388.31
985.566	2361.19
985.864	2344.7
986.162	2338.14
986.461	2321.87
986.759	2280.07
987.057	2275.77
987.355	2283.23
987.653	2278.03
987.951	2290.24
988.249	2242.33
988.547	2263.8
988.844	2225.61
989.142	2261.54
989.44	2233.06
989.737	2253.18
990.035	2197.81
990.332	2205.72
990.63	2198.26
990.927	2172.5
991.224	2159.39
991.521	2133.86
991.819	2172.5
992.116	2147.19
992.413	2105.16
992.71	2125.04
993.006	2126.85
993.303	2097.93
993.6	2095.21
993.897	2048.89
994.193	2095.89
994.49	2052.73
994.787	2021.77
995.083	2040.75
995.379	2022.45
995.676	2025.38
995.972	2008.44
996.268	2003.46
996.565	2000.3
996.861	1992.84
997.157	1993.3
997.453	1990.81
997.749	1969.79
998.044	1951.71
998.34	1923.01
998.636	1921.21
998.932	1918.72
999.227	1904.03
999.523	1875.11
999.818	1875.11
1000.114	1876.46
1000.409	1873.98
1000.704	1855.45
1001	1844.82
1001.295	1827.2
1001.59	1852.96
1001.885	1792.4
1002.18	1810.93
1002.475	1799.85
1002.77	1803.7
1003.065	1765.5
1003.359	1754.21
1003.654	1770.02
1003.949	1715.11
1004.243	1758.5
1004.538	1744.04
1004.832	1734.54
1005.127	1706.75
1005.421	1687.54
1005.715	1698.39
1006.009	1720.99
1006.304	1699.07
1006.598	1666.75
1006.892	1670.59
1007.186	1653.42
1007.48	1648.67
1007.773	1620.42
1008.067	1616.81
1008.361	1591.27
1008.655	1606.19
1008.948	1600.99
1009.242	1593.53
1009.535	1586.07
1009.829	1579.07
1010.122	1545.4
1010.415	1549.46
1010.708	1553.53
1011.001	1521.44
1011.295	1545.62
1011.588	1477.15
1011.881	1515.34
1012.173	1493.2
1012.466	1513.31
1012.759	1483.48
1013.052	1480.99
1013.344	1509.24
1013.637	1466.53
1013.93	1451.61
1014.222	1438.06
1014.514	1428.56
1014.807	1415.46
1015.099	1434.67
1015.391	1406.87
1015.683	1433.08
1015.976	1431.05
1016.268	1399.41
1016.56	1391.73
1016.851	1363.03
1017.143	1365.06
1017.435	1371.62
1017.727	1360.54
1018.018	1390.6
1018.31	1353.76
1018.602	1337.72
1018.893	1321.45
1019.185	1330.26
1019.476	1311.96
1019.767	1306.08
1020.058	1297.27
1020.35	1290.71
1020.641	1274.67
1020.932	1262.24
1021.223	1277.16
1021.514	1238.96
1021.804	1237.38
1022.095	1226.54
1022.386	1235.12
1022.677	1250.72
1022.967	1221.79
1023.258	1220.89
1023.548	1202.58
1023.839	1185.18
1024.129	1190.15
1024.419	1195.12
1024.709	1162.13
1025	1156.25
1025.29	1134.79
1025.58	1142.02
1025.87	1155.12
1026.16	1135.69
1026.449	1130.72
1026.739	1140.21
1027.029	1100.21
1027.319	1104.73
1027.608	1105.86
1027.898	1132.98
1028.187	1098.63
1028.477	1074.22
1028.766	1088.01
1029.055	1080.32
1029.344	1039.65
1029.634	1053.66
1029.923	1063.15
1030.212	1042.59
1030.501	1049.37
1030.79	1041.91
1031.078	1013.21
1031.367	1011.85
1031.656	1013.89
1031.945	1015.69
1032.233	1015.69
1032.522	990.16
1032.81	994.23
1033.099	979.31
1033.387	964.17
1033.675	967.33
1033.963	949.03
1034.251	957.84
1034.54	947.9
1034.828	930.5
1035.116	939.76
1035.403	940.67
1035.691	933.89
1035.979	923.27
1036.267	904.74
1036.554	894.57
1036.842	911.74
1037.129	903.83
1037.417	907
1037.704	868.13
1037.992	873.1
1038.279	888.69
1038.566	867.45
1038.853	867.45
1039.14	867.45
