Data from hue_240_FLMS001491_00075.txt Node
Date: Tue Feb 07 16:35:56 GMT 2017
User: dcchb
Spectrometer: FLMS00149
Trigger mode: 0
Integration Time (sec): 2.000000E-2
Scans to average: 10
Electric dark correction enabled: true
Nonlinearity correction enabled: false
Boxcar width: 0
XAxis mode: Wavelengths
Number of Pixels in Spectrum: 2048
>>>>>Begin Spectral Data<<<<<
341.393	-16.28
341.776	-16.28
342.16	-16.28
342.543	-69.16
342.927	-49.73
343.31	-93.8
343.693	-63.74
344.077	-53.35
344.46	-67.36
344.843	-45.66
345.226	-51.31
345.61	-25.1
345.993	-11.77
346.376	-7.92
346.759	-0.47
347.142	39.98
347.525	44.5
347.908	41.57
348.291	89.93
348.674	91.73
349.057	112.75
349.44	126.08
349.823	132.19
350.206	136.93
350.588	164.5
350.971	209.02
351.354	210.15
351.737	222.35
352.119	261.45
352.502	247.89
352.884	260.32
353.267	265.52
353.65	272.52
354.032	290.15
354.414	282.69
354.797	307.1
355.179	307.77
355.562	302.35
355.944	322.01
356.326	317.94
356.709	323.14
357.091	311.39
357.473	315.46
357.855	328.79
358.238	324.95
358.62	329.47
359.002	353.2
359.384	334.67
359.766	337.83
360.148	309.81
360.53	316.59
360.912	315.01
361.294	316.14
361.676	335.12
362.057	310.94
362.439	312.07
362.821	316.59
363.203	310.49
363.584	310.26
363.966	313.2
364.348	315.68
364.729	314.55
365.111	312.97
365.493	306.87
365.874	310.49
366.256	297.38
366.637	314.33
367.019	301.22
367.4	336.02
367.781	296.93
368.163	306.87
368.544	324.27
368.925	292.63
369.306	317.72
369.688	318.4
370.069	287.21
370.45	304.38
370.831	313.88
371.212	311.62
371.593	300.77
371.974	332.41
372.355	312.29
372.736	281.11
373.117	326.76
373.498	300.54
373.879	315.46
374.26	292.63
374.641	289.7
375.021	319.98
375.402	308.23
375.783	306.87
376.163	311.84
376.544	307.77
376.925	331.95
377.305	321.33
377.686	293.99
378.066	309.81
378.447	308
378.827	314.1
379.208	299.86
379.588	312.07
379.968	302.12
380.349	318.85
380.729	335.34
381.109	298.28
381.489	320.88
381.87	345.06
382.25	303.48
382.63	334.89
383.01	322.46
383.39	322.01
383.77	320.88
384.15	334.21
384.53	320.2
384.91	333.76
385.29	333.99
385.67	354.55
386.049	349.81
386.429	343.25
386.809	346.19
387.189	354.33
387.568	328.34
387.948	345.97
388.328	338.96
388.707	342.8
389.087	360.2
389.466	352.07
389.846	352.07
390.225	343.93
390.605	343.48
390.984	352.29
391.363	367.66
391.743	356.36
392.122	373.08
392.501	365.85
392.881	369.47
393.26	352.07
393.639	377.83
394.018	374.89
394.397	373.76
394.776	393.2
395.155	380.09
395.534	363.14
395.913	377.15
396.292	381.44
396.671	378.96
397.05	368.11
397.429	387.77
397.808	391.16
398.186	393.65
398.565	414.21
398.944	376.7
399.323	385.06
399.701	396.36
400.08	393.2
400.458	383.48
400.837	407.43
401.215	387.09
401.594	388.22
401.972	420.77
402.351	400.2
402.729	400.2
403.107	410.14
403.486	421.22
403.864	428.45
404.242	427.55
404.62	430.48
404.999	427.32
405.377	452.63
405.755	429.58
406.133	435.45
406.511	441.56
406.889	454.21
407.267	459.86
407.645	440.43
408.023	469.13
408.401	460.09
408.779	464.15
409.156	449.69
409.534	476.36
409.912	495.34
410.29	499.41
410.667	500.09
411.045	486.75
411.422	532.85
411.8	511.16
412.178	512.51
412.555	522.01
412.933	533.76
413.31	544.6
413.687	559.97
414.065	567.43
414.442	569.69
414.819	550.48
415.197	550.48
415.574	580.08
415.951	578.95
416.328	576.92
416.705	601.1
417.082	599.74
417.46	580.08
417.837	602.23
418.214	611.72
418.591	626.64
418.967	599.74
419.344	632.06
419.721	637.03
420.098	625.51
420.475	672.28
420.852	646.07
421.228	655.11
421.605	677.71
421.982	697.59
422.358	687.88
422.735	705.96
423.111	689.46
423.488	738.05
423.864	734.66
424.241	730.14
424.617	750.25
424.994	744.37
425.37	757.71
425.746	765.39
426.123	775.56
426.499	767.88
426.875	793.41
427.251	832.96
427.627	834.09
428.003	837.25
428.379	824.14
428.756	812.39
429.132	833.18
429.507	858.27
429.883	850.36
430.259	872.05
430.635	866.4
431.011	888.1
431.387	879.74
431.763	937.59
432.138	936.01
432.514	951.6
432.89	961.09
433.265	970.81
433.641	972.84
434.016	989.34
434.392	1017.13
434.767	1029.11
435.143	1035.21
435.518	1023.01
435.894	1053.97
436.269	1074.08
436.644	1086.96
437.02	1086.28
437.395	1126.06
437.77	1127.64
438.145	1155.89
438.52	1172.61
438.895	1201.99
439.271	1162.89
439.646	1193.85
440.021	1222.1
440.395	1233.17
440.77	1221.87
441.145	1277.01
441.52	1258.48
441.895	1262.55
442.27	1291.25
442.645	1304.36
443.019	1332.38
443.394	1328.76
443.769	1338.03
444.143	1350.23
444.518	1361.53
444.892	1377.58
445.267	1349.55
445.641	1370.57
446.016	1404.02
446.39	1416.22
446.764	1419.38
447.139	1417.35
447.513	1434.07
447.887	1490.34
448.262	1453.96
448.636	1459.38
449.01	1480.85
449.384	1468.42
449.758	1495.77
450.132	1500.74
450.506	1511.36
450.88	1515.43
451.254	1537.57
451.628	1567.18
452.002	1561.98
452.376	1598.14
452.75	1601.3
453.123	1613.95
453.497	1604.01
453.871	1643.56
454.244	1674.07
454.618	1707.96
454.992	1683.78
455.365	1684.46
455.739	1724.23
456.112	1745.7
456.486	1733.5
456.859	1762.43
457.232	1784.57
457.606	1829.32
457.979	1823.21
458.352	1852.82
458.725	1907.96
459.099	1860.28
459.472	1929.43
459.845	1935.75
460.218	1946.83
460.591	1982.98
460.964	1980.05
461.337	2010.1
461.71	2024.11
462.083	2083.55
462.456	2078.8
462.829	2068.86
463.201	2118.57
463.574	2153.38
463.947	2159.7
464.32	2206.26
464.692	2201.51
465.065	2226.82
465.438	2249.64
465.81	2290.32
466.183	2292.81
466.555	2359.02
466.928	2371.67
467.3	2368.51
467.672	2394.5
468.045	2423.88
468.417	2432.92
468.789	2451.45
469.161	2476.08
469.534	2487.83
469.906	2563.76
470.278	2584.1
470.65	2607.6
471.022	2662.74
471.394	2684.21
471.766	2721.95
472.138	2717.43
472.51	2835.39
472.882	2828.39
473.253	2831.1
473.625	2854.37
473.997	2921.49
474.369	2957.87
474.74	2949.29
475.112	3075.39
475.484	3113.58
475.855	3149.73
476.227	3134.37
476.598	3220.24
476.97	3220.92
477.341	3311.09
477.713	3355.83
478.084	3376.62
478.455	3474.92
478.827	3484.87
479.198	3542.27
479.569	3561.93
479.94	3644.86
480.311	3673.34
480.682	3771.19
481.053	3856.61
481.424	3863.39
481.795	3888.47
482.166	3944.97
482.537	4019.77
482.908	4089.6
483.279	4059.54
483.65	4165.3
484.021	4278.29
484.391	4266.99
484.762	4318.29
485.133	4388.12
485.503	4437.16
485.874	4463.82
486.244	4481.22
486.615	4603.25
486.985	4596.93
487.356	4635.8
487.726	4725.74
488.097	4793.76
488.467	4805.06
488.837	4912.63
489.207	4967.09
489.578	5013.64
489.948	5018.61
490.318	5154.2
490.688	5110.13
491.058	5161.66
491.428	5246.4
491.798	5296.34
492.168	5363.91
492.538	5423.35
492.908	5415.44
493.278	5502.89
493.648	5522.1
494.017	5578.82
494.387	5626.28
494.757	5660.85
495.126	5727.74
495.496	5730.68
495.866	5750.12
496.235	5807.74
496.605	5814.97
496.974	5901.3
497.344	5932.49
497.713	5913.5
498.082	5955.99
498.452	6091.8
498.821	6023.78
499.19	6032.82
499.559	6077.34
499.928	6150.56
500.298	6152.14
500.667	6151.24
501.036	6161.18
501.405	6259.26
501.774	6247.96
502.143	6270.1
502.512	6308.29
502.88	6385.58
503.249	6365.47
503.618	6407.73
503.987	6422.87
504.356	6467.84
504.724	6468.97
505.093	6468.52
505.462	6480.49
505.83	6457.9
506.199	6592.58
506.567	6681.39
506.936	6638.68
507.304	6689.75
507.672	6706.48
508.041	6674.61
508.409	6759.36
508.777	6772.69
509.145	6830.09
509.514	6788.28
509.882	6846.13
510.25	6875.06
510.618	6940.82
510.986	6899.24
511.354	6901.73
511.722	6929.75
512.09	6940.37
512.458	6960.71
512.826	7033.02
513.193	7000.25
513.561	7058.11
513.929	7139.23
514.297	7117.99
514.664	7076.41
515.032	7192.79
515.4	7223.98
515.767	7192.57
516.135	7211.55
516.502	7219.46
516.869	7250.87
517.237	7336.06
517.604	7226.69
517.972	7242.73
518.339	7357.98
518.706	7339.91
519.073	7333.13
519.44	7367.25
519.808	7364.76
520.175	7412.45
520.542	7476.4
520.909	7428.04
521.276	7468.26
521.643	7423.07
522.009	7531.31
522.376	7504.87
522.743	7575.38
523.11	7601.14
523.477	7631.42
523.843	7642.04
524.21	7710.07
524.577	7696.73
524.943	7702.61
525.31	7747.13
525.676	7788.93
526.043	7778.09
526.409	7787.8
526.776	7852.43
527.142	7902.38
527.508	7860.57
527.874	7957.97
528.241	7948.7
528.607	7969.95
528.973	8005.43
529.339	7956.84
529.705	8001.81
530.071	7971.75
530.437	8048.36
530.803	8061.02
531.169	8087.46
531.535	7991.87
531.901	8058.08
532.267	8047.46
532.632	8094.69
532.998	8071.86
533.364	8087.68
533.73	8057.4
534.095	8122.94
534.461	8108.47
534.826	8129.94
535.192	8126.1
535.557	8214.23
535.923	8157.51
536.288	8130.39
536.653	8256.27
537.019	8136.5
537.384	8152.31
537.749	8185.99
538.114	8076.16
538.479	8175.14
538.845	8148.25
539.21	8123.39
539.575	8141.01
539.94	8064.41
540.305	8152.99
540.67	8153.9
541.034	8120
541.399	8131.07
541.764	8087
542.129	8116.61
542.494	8116.61
542.858	8070.73
543.223	8046.55
543.587	8134.24
543.952	8107.12
544.316	8115.03
544.681	8051.07
545.045	8115.48
545.41	8129.94
545.774	8133.56
546.138	8094.69
546.503	8102.82
546.867	8115.93
547.231	8151.64
547.595	8163.84
547.959	8136.27
548.324	8061.24
548.688	8062.15
549.052	8114.35
549.416	8088.36
549.779	8086.78
550.143	8083.39
550.507	8090.39
550.871	8041.13
551.235	8048.81
551.599	8092.2
551.962	8148.92
552.326	8048.59
552.689	8127.91
553.053	8042.26
553.417	8090.39
553.78	8112.77
554.143	8035.25
554.507	8103.05
554.87	8174.01
555.234	8163.16
555.597	8085.87
555.96	8097.63
556.323	8135.59
556.686	8084.07
557.05	8117.29
557.413	8172.65
557.776	8118.19
558.139	8174.23
558.502	8116.83
558.865	8212.43
559.228	8202.26
559.59	8192.54
559.953	8184.63
560.316	8248.81
560.679	8221.01
561.041	8316.38
561.404	8245.19
561.767	8328.35
562.129	8266.44
562.492	8352.53
562.854	8283.16
563.217	8368.81
563.579	8315.93
563.941	8406.32
564.304	8396.38
564.666	8439.76
565.028	8436.37
565.39	8438.86
565.753	8469.82
566.115	8472.76
566.477	8494.23
566.839	8525.41
567.201	8559.53
567.563	8554.34
567.925	8553.43
568.287	8613.77
568.648	8623.26
569.01	8657.84
569.372	8712.75
569.734	8613.09
570.095	8731.06
570.457	8683.15
570.819	8735.35
571.18	8725.18
571.542	8813.09
571.903	8773.09
572.265	8730.83
572.626	8851.5
572.987	8832.75
573.349	8845.18
573.71	8925.85
574.071	8911.39
574.432	8943.48
574.794	8922.92
575.155	9053.53
575.516	8921.11
575.877	9051.27
576.238	8959.07
576.599	9048.34
576.96	9093.76
577.32	9093.76
577.681	9131.5
578.042	9101.44
578.403	9128.33
578.763	9126.07
579.124	9196.81
579.485	9208.78
579.845	9211.95
580.206	9208.33
580.566	9181.89
580.927	9250.59
581.287	9333.75
581.648	9273.87
582.008	9331.49
582.368	9234.55
582.728	9324.03
583.089	9274.32
583.449	9342.57
583.809	9327.88
584.169	9327.88
584.529	9369.68
584.889	9425.5
585.249	9418.72
585.609	9372.62
585.969	9449.45
586.329	9416.24
586.688	9393.86
587.048	9478.83
587.408	9402.9
587.768	9485.61
588.127	9403.58
588.487	9502.56
588.846	9552.73
589.206	9495.78
589.565	9444.71
589.925	9544.82
590.284	9465.95
590.643	9612.61
591.003	9492.17
591.362	9539.4
591.721	9602.9
592.08	9516.57
592.44	9603.12
592.799	9593.63
593.158	9526.74
593.517	9570.36
593.876	9544.37
594.235	9663.01
594.593	9552.5
594.952	9649.22
595.311	9586.17
595.67	9625.72
596.029	9706.4
596.387	9661.65
596.746	9710.01
597.104	9693.06
597.463	9622.11
597.822	9752.95
598.18	9580.98
598.538	9662.1
598.897	9712.27
599.255	9660.75
599.613	9800.41
599.972	9740.97
600.33	9721.54
600.688	9716.34
601.046	9705.95
601.404	9775.1
601.762	9752.27
602.12	9748.88
602.478	9760.63
602.836	9790.69
603.194	9736.9
603.552	9810.58
603.91	9703.69
604.268	9773.06
604.625	9753.4
604.983	9813.51
605.341	9757.92
605.698	9804.25
606.056	9784.36
606.413	9799.05
606.771	9800.18
607.128	9911.59
607.485	9811.03
607.843	9849.22
608.2	9845.15
608.557	9881.53
608.914	9848.77
609.272	9934.64
609.629	9972.15
609.986	9930.35
610.343	9871.14
610.7	9994.07
611.057	9884.02
611.414	9964.92
611.771	9981.64
612.127	9974.19
612.484	9972.15
612.841	9985.94
613.198	9951.81
613.554	9925.15
613.911	10029.1
614.267	10046.95
614.624	10039.72
614.98	9997.46
615.337	10046.73
615.693	10119.49
616.05	10060.96
616.406	10127.4
616.762	10063.68
617.118	10063.68
617.475	10044.47
617.831	10104.13
618.187	10160.17
618.543	10151.13
618.899	10199.49
619.255	10121.3
619.611	10118.14
619.967	10150.68
620.323	10192.03
620.678	10075.2
621.034	10108.65
621.39	10158.14
621.746	10137.57
622.101	10232.03
622.457	10142.54
622.812	10189.32
623.168	10179.61
623.523	10219.38
623.879	10253.28
624.234	10111.81
624.589	10206.27
624.945	10161.75
625.3	10200.85
625.655	10136.22
626.01	10170.11
626.365	10180.74
626.72	10090.34
627.075	10094.41
627.43	10108.42
627.785	10159.94
628.14	10157.01
628.495	10184.8
628.85	10153.17
629.205	10065.03
629.559	10107.52
629.914	10052.38
630.269	10058.48
630.623	10081.08
630.978	10015.32
631.332	10084.92
631.687	10085.6
632.041	10052.38
632.396	10073.62
632.75	10033.62
633.104	9997.24
633.459	9974.19
633.813	10020.97
634.167	10053.51
634.521	9998.37
634.875	10008.31
635.229	10041.08
635.583	9914.53
635.937	9878.6
636.291	9925.83
636.645	9959.72
636.999	9839.28
637.352	9860.29
637.706	9816.9
638.06	9904.81
638.413	9854.64
638.767	9831.37
639.121	9797.69
639.474	9807.41
639.828	9816.9
640.181	9836.34
640.534	9796.56
640.888	9764.02
641.241	9752.72
641.594	9706.17
641.947	9748.88
642.301	9702.78
642.654	9767.64
643.007	9756.57
643.36	9692.84
643.713	9673.18
644.066	9654.65
644.419	9640.18
644.771	9584.59
645.124	9541.66
645.477	9537.59
645.83	9453.07
646.182	9474.99
646.535	9420.98
646.888	9404.71
647.24	9337.14
647.593	9383.92
647.945	9335.79
648.298	9317.48
648.65	9362.68
649.002	9308.44
649.355	9361.32
649.707	9348.44
650.059	9376.01
650.411	9548.89
650.763	9491.49
651.115	9592.73
651.467	9525.84
651.819	9541.88
652.171	9582.56
652.523	9502.79
652.875	9524.93
653.227	9544.82
653.578	9505.5
653.93	9533.75
654.282	9483.35
654.633	9431.83
654.985	9486.52
655.337	9460.75
655.688	9469.57
656.039	9537.36
656.391	9461.21
656.742	9463.24
657.094	9446.74
657.445	9537.36
657.796	9450.58
658.147	9421.89
658.498	9418.04
658.849	9486.29
659.2	9508.21
659.551	9465.95
659.902	9515.22
660.253	9475.22
660.604	9525.16
660.955	9444.26
661.306	9592.73
661.656	9517.93
662.007	9510.92
662.358	9441.77
662.708	9431.6
663.059	9455.33
663.409	9465.95
663.76	9455.56
664.11	9373.07
664.461	9514.09
664.811	9512.05
665.161	9446.97
665.511	9531.26
665.862	9471.15
666.212	9479.28
666.562	9571.49
666.912	9459.85
667.262	9454.43
667.612	9491.94
667.962	9496.91
668.312	9471.6
668.662	9521.32
669.011	9460.3
669.361	9504.59
669.711	9418.04
670.06	9416.91
670.41	9469.79
670.76	9373.07
671.109	9432.51
671.459	9478.38
671.808	9431.83
672.157	9436.57
672.507	9344.6
672.856	9303.7
673.205	9308.44
673.554	9371.49
673.904	9301.89
674.253	9410.13
674.602	9351.83
674.951	9257.82
675.3	9226.64
675.649	9359.51
675.998	9388.44
676.346	9334.2
676.695	9338.72
677.044	9235.68
677.393	9273.87
677.741	9312.06
678.09	9252.4
678.438	9232.29
678.787	9216.01
679.135	9232.06
679.484	9157.49
679.832	9253.75
680.181	9208.11
680.529	9150.03
680.877	9174.89
681.225	9149.58
681.573	9170.59
681.922	9177.82
682.27	9127.88
682.618	9097.15
682.966	9078.84
683.314	9030.48
683.661	9007.43
684.009	8991.16
684.357	8934.21
684.705	9003.82
685.053	8977.38
685.4	8963.59
685.748	8868.68
686.095	8898.51
686.443	8838.62
686.79	8926.53
687.138	8851.28
687.485	8915.01
687.832	8842.92
688.18	8792.98
688.527	8763.15
688.874	8752.3
689.221	8745.07
689.568	8720.21
689.915	8634.11
690.262	8740.1
690.609	8682.47
690.956	8623.94
691.303	8561.12
691.65	8577.16
691.997	8569.03
692.344	8522.02
692.69	8497.84
693.037	8526.54
693.383	8395.92
693.73	8432.76
694.077	8388.01
694.423	8375.58
694.769	8367.22
695.116	8358.86
695.462	8336.72
695.808	8279.77
696.155	8282.03
696.501	8261.92
696.847	8197.96
697.193	8172.2
697.539	8209.94
697.885	8124.29
698.231	8122.71
698.577	8068.47
698.923	8087.68
699.269	8016.27
699.614	7963.17
699.96	7923.85
700.306	7917.52
700.651	7930.4
700.997	7859.44
701.342	7877.52
701.688	7822.15
702.033	7811.08
702.379	7872.55
702.724	7782.83
703.069	7783.96
703.415	7691.08
703.76	7636.17
704.105	7715.94
704.45	7699.9
704.795	7580.13
705.14	7524.53
705.485	7573.8
705.83	7473.69
706.175	7546.68
706.52	7464.87
706.865	7508.49
707.209	7460.35
707.554	7377.87
707.899	7491.77
708.243	7426.23
708.588	7384.65
708.932	7357.53
709.277	7377.42
709.621	7353.24
709.966	7349.62
710.31	7322.51
710.654	7267.82
710.998	7244.99
711.342	7231.43
711.687	7220.14
712.031	7206.58
712.375	7151.66
712.719	7163.64
713.063	7225.33
713.407	7195.28
713.75	7143.07
714.094	7109.18
714.438	7091.55
714.782	7143.07
715.125	7026.69
715.469	7106.01
715.812	7051.1
716.156	7045.45
716.499	7061.27
716.843	7045
717.186	6976.98
717.53	7012.23
717.873	7051.55
718.216	6990.31
718.559	6972.91
718.902	6939.92
719.246	6870.31
719.589	6881.84
719.932	6868.51
720.275	6924.78
720.617	6840.03
720.96	6894.27
721.303	6872.12
721.646	6866.47
721.989	6861.27
722.331	6875.96
722.674	6839.13
723.016	6805.46
723.359	6844.55
723.701	6827.38
724.044	6741.73
724.386	6765.46
724.729	6826.93
725.071	6799.81
725.413	6789.41
725.755	6758.23
726.097	6716.42
726.439	6686.14
726.782	6751.9
727.124	6718.45
727.465	6691.11
727.807	6713.93
728.149	6683.65
728.491	6702.41
728.833	6731.56
729.175	6655.18
729.516	6683.43
729.858	6625.35
730.199	6652.01
730.541	6677.78
730.882	6685.46
731.224	6722.75
731.565	6640.94
731.906	6644.1
732.248	6693.82
732.589	6648.4
732.93	6603.88
733.271	6561.85
733.612	6634.39
733.953	6632.13
734.294	6625.12
734.635	6598.23
734.976	6584.45
735.317	6602.98
735.658	6597.1
735.999	6649.98
736.339	6579.47
736.68	6606.14
737.021	6612.47
737.361	6593.94
737.702	6596.65
738.042	6577.89
738.383	6621.05
738.723	6654.73
739.063	6637.1
739.404	6643.43
739.744	6627.38
740.084	6643.88
740.424	6719.13
740.764	6697.44
741.104	6663.09
741.444	6620.83
741.784	6664.44
742.124	6658.57
742.464	6638.91
742.804	6673.48
743.143	6632.58
743.483	6726.81
743.823	6723.2
744.162	6668.51
744.502	6741.28
744.841	6764.33
745.181	6801.84
745.52	6790.77
745.86	6770.2
746.199	6860.37
746.538	6807.72
746.877	6873.03
747.216	6960.71
747.556	6929.75
747.895	6960.25
748.234	6916.19
748.573	6988.73
748.911	6991.44
749.25	7077.54
749.589	7070.76
749.928	7154.37
750.267	7166.58
750.605	7220.59
750.944	7263.98
751.283	7242.96
751.621	7314.6
751.96	7335.61
752.298	7435.04
752.636	7434.59
752.975	7447.93
753.313	7503.74
753.651	7651.76
753.989	7615.15
754.327	7728.14
754.666	7789.39
755.004	7860.34
755.342	7969.72
755.679	7986.22
756.017	8058.98
756.355	8185.76
756.693	8191.18
757.031	8313.89
757.368	8374.91
757.706	8432.98
758.044	8565.18
758.381	8685.86
758.719	8714.56
759.056	8815.35
759.394	8970.15
759.731	8941.45
760.068	9131.05
760.405	9179.41
760.743	9276.35
761.08	9435.67
761.417	9427.31
761.754	9564.93
762.091	9621.43
762.428	9658.94
762.765	9818.03
763.102	9962.66
763.438	9926.96
763.775	10041.53
764.112	10145.71
764.449	10294.63
764.785	10348.19
765.122	10417.57
765.458	10478.13
765.795	10555.41
766.131	10692.36
766.467	10691.68
766.804	10744.34
767.14	10844.67
767.476	10912.24
767.812	10980.71
768.148	11091.9
768.485	11095.97
768.821	11199.24
769.157	11244.44
769.492	11277.66
769.828	11305.45
770.164	11367.6
770.5	11478.78
770.836	11523.07
771.171	11490.31
771.507	11529.4
771.842	11557.65
772.178	11610.08
772.513	11692.33
772.849	11652.79
773.184	11770.98
773.519	11784.76
773.855	11816.62
774.19	11780.69
774.525	11862.95
774.86	11915.38
775.195	11952.89
775.53	11941.59
775.865	11948.6
776.2	11907.92
776.535	11911.09
776.87	11941.14
777.205	11928.94
777.539	11935.94
777.874	11994.47
778.209	11992.89
778.543	11947.24
778.878	12000.8
779.212	12054.36
779.547	11929.39
779.881	12075.6
780.215	11985.66
780.55	12058.2
780.884	12034.92
781.218	12001.93
781.552	11981.14
781.886	11967.35
782.22	11935.49
782.554	11890.52
782.888	11899.11
783.222	11859.56
783.556	11859.56
783.889	11857.75
784.223	11854.14
784.557	11826.12
784.89	11844.42
785.224	11830.86
785.557	11738.43
785.891	11797.87
786.224	11747.25
786.558	11750.41
786.891	11677.87
787.224	11660.7
787.557	11689.85
787.891	11664.09
788.224	11693.01
788.557	11733.69
788.89	11691.88
789.223	11614.14
789.556	11580.92
789.888	11615.95
790.221	11537.54
790.554	11415.05
790.887	11509.74
791.219	11474.03
791.552	11392
791.884	11339.57
792.217	11344.32
792.549	11389.52
792.882	11244.21
793.214	11245.57
793.546	11320.59
793.879	11208.28
794.211	11190.2
794.543	11170.77
794.875	11193.14
795.207	11238.56
795.539	11152.24
795.871	11191.33
796.203	11113.37
796.535	11044.67
796.867	11001.05
797.198	10910.21
797.53	10986.82
797.862	10925.57
798.193	10898
798.525	10848.51
798.856	10926.48
799.188	10789.31
799.519	10789.98
799.85	10711.57
800.182	10751.57
800.513	10722.87
800.844	10666.37
801.175	10691.23
801.506	10701.17
801.837	10608.97
802.168	10666.82
802.499	10571.69
802.83	10545.47
803.161	10507.51
803.491	10489.88
803.822	10592.02
804.153	10511.12
804.483	10363.1
804.814	10384.12
805.145	10404.01
805.475	10368.3
805.805	10305.48
806.136	10294.63
806.466	10273.61
806.796	10282.2
807.126	10227.51
807.457	10137.57
807.787	10182.77
808.117	10173.05
808.447	10120.85
808.777	10135.09
809.107	10053.28
809.436	10077.69
809.766	10009.21
810.096	9968.09
810.426	9932.38
810.755	9961.53
811.085	10003.56
811.414	9971.93
811.744	9919.27
812.073	9848.09
812.403	9829.11
812.732	9876.34
813.061	9845.83
813.39	9775.77
813.719	9769.22
814.049	9780.97
814.378	9801.76
814.707	9730.13
815.036	9739.16
815.365	9713.63
815.693	9655.55
816.022	9679.28
816.351	9653.74
816.68	9608.77
817.008	9658.94
817.337	9529.23
817.665	9530.13
817.994	9499.4
818.322	9513.41
818.651	9463.24
818.979	9458.72
819.307	9512.73
819.636	9488.78
819.964	9443.13
820.292	9399.29
820.62	9445.39
820.948	9319.29
821.276	9470.47
821.604	9400.42
821.932	9475.89
822.259	9375.11
822.587	9373.52
822.915	9352.73
823.243	9404.03
823.57	9352.06
823.898	9388.67
824.225	9341.44
824.553	9387.31
824.88	9385.28
825.207	9391.6
825.535	9365.84
825.862	9395.67
826.189	9339.18
826.516	9460.53
826.843	9459.62
827.17	9392.28
827.497	9417.82
827.824	9413.75
828.151	9419.63
828.478	9400.87
828.805	9463.24
829.131	9357.03
829.458	9309.35
829.785	9431.15
830.111	9312.74
830.438	9418.27
830.764	9393.19
831.09	9366.07
831.417	9290.59
831.743	9322.9
832.069	9354.32
832.395	9350.47
832.722	9332.17
833.048	9289.46
833.374	9296.69
833.7	9330.36
834.026	9286.52
834.351	9290.59
834.677	9301.89
835.003	9319.97
835.329	9330.36
835.654	9275.22
835.98	9190.25
836.306	9263.47
836.631	9274.77
836.956	9295.33
837.282	9273.64
837.607	9165.62
837.932	9212.62
838.258	9238.84
838.583	9174.89
838.908	9119.29
839.233	9178.28
839.558	9143.25
839.883	9105.74
840.208	9076.81
840.533	9171.5
840.858	9104.15
841.182	9095.34
841.507	9117.94
841.832	9020.54
842.156	8963.59
842.481	8998.39
842.805	8975.34
843.13	8950.48
843.454	8912.97
843.778	8898.51
844.103	8897.83
844.427	8830.04
844.751	8842.24
845.075	8804.5
845.399	8766.08
845.723	8740.1
846.047	8723.37
846.371	8757.5
846.695	8732.19
847.019	8651.28
847.343	8639.31
847.666	8527.22
847.99	8569.7
848.313	8547.33
848.637	8473.44
848.96	8484.51
849.284	8493.32
849.607	8410.61
849.931	8414.91
850.254	8313.21
850.577	8313.21
850.9	8225.08
851.223	8190.5
851.546	8206.32
851.869	8119.55
852.192	8135.82
852.515	8091.98
852.838	8051.07
853.161	8038.19
853.483	8038.87
853.806	8010.17
854.129	8051.75
854.451	7960.91
854.774	7878.2
855.096	7833
855.419	7937.4
855.741	7847.24
856.063	7741.7
856.385	7816.28
856.708	7698.09
857.03	7712.55
857.352	7786.45
857.674	7693.79
857.996	7704.42
858.318	7617.41
858.64	7587.58
858.961	7604.76
859.283	7639.33
859.605	7507.81
859.926	7554.59
860.248	7530.41
860.57	7482.28
860.891	7489.96
861.212	7438.66
861.534	7437.08
861.855	7379.9
862.176	7439.11
862.498	7402.96
862.819	7442.5
863.14	7394.82
863.461	7342.84
863.782	7339.23
864.103	7372
864.424	7314.82
864.745	7405.44
865.065	7334.26
865.386	7306.69
865.707	7278.66
866.027	7275.73
866.348	7261.72
866.668	7291.09
866.989	7210.42
867.309	7164.32
867.63	7215.62
867.95	7206.35
868.27	7148.95
868.59	7189.18
868.91	7198.44
869.23	7097.43
869.55	7126.13
869.87	7142.85
870.19	7143.07
870.51	7179.68
870.83	7146.01
871.15	7061.5
871.469	7132.68
871.789	7091.78
872.109	7067.37
872.428	7027.37
872.748	7074.15
873.067	7080.93
873.386	7070.99
873.706	7073.7
874.025	7025.79
874.344	6990.99
874.663	6997.09
874.982	6988.95
875.301	6951.44
875.62	6933.59
875.939	6914.15
876.258	6946.92
876.577	6896.08
876.896	6908.05
877.214	6891.78
877.533	6907.37
877.852	6890.88
878.17	6856.75
878.489	6815.4
878.807	6882.74
879.125	6822.18
879.444	6787.38
879.762	6863.76
880.08	6848.39
880.398	6843.2
880.716	6800.49
881.034	6762.07
881.352	6781.05
881.67	6739.24
881.988	6753.71
882.306	6695.4
882.624	6701.73
882.941	6695.86
883.259	6654.95
883.577	6657.66
883.894	6619.92
884.212	6604.33
884.529	6579.93
884.846	6553.71
885.164	6521.4
885.481	6550.32
885.798	6581.28
886.115	6495.18
886.432	6492.24
886.75	6469.65
887.067	6498.12
887.383	6411.12
887.7	6489.53
888.017	6477.78
888.334	6413.38
888.651	6417.44
888.967	6424.68
889.284	6413.38
889.6	6333.15
889.917	6329.54
890.233	6279.59
890.55	6271.91
890.866	6282.08
891.182	6260.39
891.498	6270.33
891.815	6215.87
892.131	6193.27
892.447	6191.01
892.763	6172.7
893.079	6166.83
893.395	6154.85
893.71	6092.26
894.026	6107.85
894.342	6096.1
894.657	6047.06
894.973	6020.39
895.289	6017.23
895.604	6047.74
895.92	5983.56
896.235	5999.6
896.55	5973.61
896.865	5931.58
897.181	5952.6
897.496	5917.57
897.811	5897.46
898.126	5851.58
898.441	5830.34
898.756	5791.47
899.071	5783.34
899.386	5739.95
899.7	5770.68
900.015	5751.7
900.33	5728.42
900.644	5719.84
900.959	5732.72
901.273	5646.62
901.588	5670.12
901.902	5622.89
902.216	5602.1
902.531	5621.53
902.845	5585.83
903.159	5556.22
903.473	5567.52
903.787	5507.86
904.101	5501.99
904.415	5453.63
904.729	5463.8
905.042	5441.65
905.356	5402.1
905.67	5398.26
905.984	5390.35
906.297	5299.51
906.611	5338.38
906.924	5333.86
907.237	5318.72
907.551	5292.5
907.864	5243.92
908.177	5239.85
908.491	5238.04
908.804	5167.08
909.117	5156.91
909.43	5144.26
909.743	5127.76
910.056	5151.94
910.368	5075.11
910.681	5090.93
910.994	5102.45
911.307	5016.13
911.619	5021.77
911.932	5008.22
912.244	4943.36
912.557	4988.1
912.869	4944.94
913.181	4894.55
913.494	4927.31
913.806	4876.92
914.118	4871.72
914.43	4789.46
914.742	4791.5
915.054	4756.02
915.366	4808
915.678	4783.81
915.99	4793.53
916.302	4696.36
916.613	4700.2
916.925	4713.31
917.236	4714.66
917.548	4661.56
917.859	4588.34
918.171	4627.66
918.482	4634.67
918.794	4579.75
919.105	4584.5
919.416	4511.05
919.727	4525.29
920.038	4499.98
920.349	4474.9
920.66	4509.7
920.971	4455.01
921.282	4473.77
921.593	4466.08
921.903	4381.57
922.214	4408.68
922.525	4359.42
922.835	4330.04
923.146	4347.22
923.456	4324.17
923.767	4298.63
924.077	4310.38
924.387	4318.52
924.697	4261.57
925.008	4224.96
925.318	4233.09
925.628	4223.83
925.938	4214.56
926.248	4169.37
926.558	4174.79
926.867	4134.34
927.177	4150.16
927.487	4102.93
927.796	4028.35
928.106	4091.18
928.416	4078.97
928.725	4060.44
929.034	4034
929.344	4000.56
929.653	4014.57
929.962	3943.61
930.271	3949.49
930.581	3972.31
930.89	3923.95
931.199	3903.61
931.508	3917.4
931.817	3900.67
932.125	3885.31
932.434	3904.52
932.743	3868.58
933.051	3806.67
933.36	3819.55
933.669	3810.06
933.977	3780.68
934.286	3798.08
934.594	3759.44
934.902	3740.9
935.21	3732.09
935.519	3691.41
935.827	3700.68
936.135	3697.97
936.443	3624.3
936.751	3629.49
937.059	3631.3
937.367	3626.11
937.674	3635.6
937.982	3613.45
938.29	3594.47
938.597	3570.51
938.905	3524.41
939.213	3535.71
939.52	3487.13
939.827	3541.81
940.135	3452.32
940.442	3482.83
940.749	3460.69
941.056	3458.88
941.363	3385.89
941.67	3409.39
941.977	3397.18
942.284	3364.87
942.591	3360.58
942.898	3346.34
943.205	3328.71
943.511	3318.32
943.818	3330.07
944.125	3275.61
944.431	3324.64
944.738	3274.48
945.044	3276.96
945.35	3252.56
945.657	3216.4
945.963	3228.15
946.269	3199.45
946.575	3209.39
946.881	3163.29
947.187	3162.84
947.493	3159.22
947.799	3152.9
948.105	3146.12
948.41	3148.83
948.716	3113.12
949.022	3114.48
949.327	3063.18
949.633	3071.54
949.938	3066.35
950.244	3048.04
950.549	3048.72
950.854	3010.53
951.16	3000.81
951.465	2998.55
951.77	3038.78
952.075	3009.17
952.38	2982.05
952.685	2933.92
952.99	2949.51
953.294	2935.95
953.599	2923.75
953.904	2882.4
954.209	2878.33
954.513	2843.98
954.818	2873.81
955.122	2861.15
955.426	2864.32
955.731	2795.17
956.035	2788.16
956.339	2746.81
956.643	2770.08
956.948	2751.55
957.252	2777.31
957.556	2764.21
957.86	2751.55
958.163	2768.05
958.467	2739.35
958.771	2693.7
959.075	2668.39
959.378	2674.04
959.682	2673.59
959.985	2696.64
960.289	2652.57
960.592	2624.1
960.896	2629.97
961.199	2601.5
961.502	2619.8
961.805	2596.3
962.108	2607.15
962.411	2598.11
962.714	2574.38
963.017	2591.78
963.32	2585.68
963.623	2537.55
963.926	2557.21
964.228	2492.35
964.531	2509.52
964.833	2500.71
965.136	2494.61
965.438	2468.85
965.741	2459.58
966.043	2487.15
966.345	2426.59
966.648	2426.14
966.95	2422.97
967.252	2419.36
967.554	2421.17
967.856	2415.97
968.158	2366.93
968.46	2360.15
968.761	2388.17
969.063	2354.95
969.365	2339.36
969.666	2351.79
969.968	2330.32
970.269	2306.37
970.571	2311.34
970.872	2311.79
971.174	2304.33
971.475	2282.19
971.776	2263.2
972.077	2285.8
972.378	2289.42
972.679	2248.06
972.98	2253.03
973.281	2230.66
973.582	2227.95
973.883	2242.86
974.183	2175.07
974.484	2199.7
974.785	2199.48
975.085	2173.26
975.386	2182.98
975.686	2176.65
975.986	2179.59
976.287	2181.62
976.587	2142.3
976.887	2138.01
977.187	2116.54
977.487	2096.88
977.787	2121.51
978.087	2094.85
978.387	2084
978.687	2087.39
978.987	2042.64
979.286	2053.72
979.586	2032.47
979.885	2038.12
980.185	2030.67
980.484	1998.58
980.784	2006.03
981.083	2036.09
981.382	1979.37
981.682	2013.27
981.981	2011.01
982.28	1975.53
982.579	1939.14
982.878	2001.06
983.177	1973.04
983.475	1934.62
983.774	1907.51
984.073	1952.93
984.372	1929.43
984.67	1910.67
984.969	1875.19
985.267	1895.98
985.566	1886.04
985.864	1888.98
986.162	1864.8
986.461	1861.41
986.759	1841.97
987.057	1852.82
987.355	1842.42
987.653	1836.1
987.951	1832.71
988.249	1829.77
988.547	1798.36
988.844	1803.78
989.142	1808.07
989.44	1801.29
989.737	1786.15
990.035	1798.13
990.332	1768.3
990.63	1796.1
990.927	1741.86
991.224	1747.51
991.521	1733.95
991.819	1714.52
992.116	1734.63
992.413	1701.64
992.71	1728.53
993.006	1701.64
993.303	1687.85
993.6	1690.34
993.897	1679.26
994.193	1671.58
994.49	1639.72
994.787	1641.3
995.083	1651.47
995.379	1631.81
995.676	1655.31
995.972	1620.73
996.268	1608.76
996.565	1596.1
996.861	1595.65
997.157	1602.88
997.453	1594.52
997.749	1564.46
998.044	1594.97
998.34	1547.06
998.636	1553.39
998.932	1511.81
999.227	1535.99
999.523	1556.78
999.818	1497.8
1000.114	1527.18
1000.409	1508.65
1000.704	1512.04
1001	1487.18
1001.295	1504.35
1001.59	1494.64
1001.885	1472.49
1002.18	1463.22
1002.475	1467.29
1002.77	1423.45
1003.065	1454.64
1003.359	1420.51
1003.654	1428.87
1003.949	1404.24
1004.243	1423
1004.538	1426.39
1004.832	1418.48
1005.127	1394.75
1005.421	1390.46
1005.715	1377.58
1006.009	1392.94
1006.304	1357.01
1006.598	1366.28
1006.892	1348.2
1007.186	1334.19
1007.48	1338.26
1007.773	1315.66
1008.067	1320.18
1008.361	1307.52
1008.655	1286.96
1008.948	1302.1
1009.242	1310.69
1009.535	1289.22
1009.829	1307.52
1010.122	1265.26
1010.415	1266.39
1010.708	1250.12
1011.001	1235.66
1011.295	1227.52
1011.588	1251.48
1011.881	1207.64
1012.173	1194.98
1012.466	1240.86
1012.759	1219.61
1013.052	1241.31
1013.344	1203.34
1013.637	1195.43
1013.93	1183.46
1014.222	1170.35
1014.514	1194.76
1014.807	1178.49
1015.099	1180.52
1015.391	1169.45
1015.683	1168.99
1015.976	1150.01
1016.268	1115.21
1016.56	1133.06
1016.851	1124.48
1017.143	1153.63
1017.435	1100.07
1017.727	1084.03
1018.018	1099.84
1018.31	1088.09
1018.602	1114.31
1018.893	1089.22
1019.185	1080.64
1019.476	1088.32
1019.767	1065.04
1020.058	1071.6
1020.35	1059.62
1020.641	1055.1
1020.932	1059.85
1021.223	1037.92
1021.514	1020.07
1021.804	1009
1022.095	1048.77
1022.386	1017.81
1022.677	1009.45
1022.967	999.73
1023.258	1006.51
1023.548	992.73
1023.839	999.96
1024.129	984.37
1024.419	981.43
1024.709	964.03
1025	956.12
1025.29	924.71
1025.58	950.47
1025.87	945.95
1026.16	942.33
1026.449	938.94
1026.739	910.7
1027.029	938.94
1027.319	915.89
1027.608	905.5
1027.898	914.31
1028.187	917.48
1028.477	890.13
1028.766	877.93
1029.055	891.04
1029.344	878.61
1029.634	881.09
1029.923	870.25
1030.212	874.99
1030.501	863.01
1030.79	867.53
1031.078	858.72
1031.367	848.78
1031.656	855.1
1031.945	842.22
1032.233	832.05
1032.522	853.07
1032.81	838.38
1033.099	792.06
1033.387	816.69
1033.675	814.2
1033.963	798.16
1034.251	813.98
1034.54	785.95
1034.828	788.44
1035.116	797.25
1035.403	757.48
1035.691	793.64
1035.979	767.2
1036.267	775.78
1036.554	769.91
1036.842	752.28
1037.129	758.61
1037.417	748.67
1037.704	754.77
1037.992	760.64
1038.279	738.95
1038.566	742.79
1038.853	742.79
1039.14	742.79
