Data from hue_00_FLMS001491_38.txt Node
Date: Mon Feb 06 15:29:38 GMT 2017
User: dcchb
Spectrometer: FLMS00149
Trigger mode: 0
Integration Time (sec): 2.000000E-2
Scans to average: 10
Electric dark correction enabled: true
Nonlinearity correction enabled: false
Boxcar width: 0
XAxis mode: Wavelengths
Number of Pixels in Spectrum: 2048
>>>>>Begin Spectral Data<<<<<
341.393	-23.36
341.776	-23.36
342.16	-23.36
342.543	-90.03
342.927	-69.46
343.31	-59.97
343.693	-82.57
344.077	-67.43
344.46	-70.82
344.843	-36.24
345.226	-48.9
345.61	-47.09
345.993	-15.23
346.376	16.64
346.759	6.02
347.142	24.32
347.525	37.88
347.908	63.42
348.291	74.94
348.674	96.64
349.057	108.39
349.44	116.3
349.823	133.47
350.206	140.48
350.588	194.03
350.971	206.46
351.354	202.17
351.737	216.63
352.119	250.76
352.502	257.99
352.884	263.64
353.267	270.19
353.65	284.88
354.032	295.5
354.414	303.64
354.797	297.08
355.179	308.61
355.562	318.55
355.944	323.3
356.326	322.39
356.709	322.39
357.091	319.68
357.473	349.74
357.855	340.25
358.238	352.9
358.62	325.56
359.002	332.34
359.384	356.06
359.766	338.89
360.148	325.1
360.53	331.43
360.912	346.57
361.294	312
361.676	308.83
362.057	332.56
362.439	310.87
362.821	338.21
363.203	342.73
363.584	311.55
363.966	319.68
364.348	321.04
364.729	324.43
365.111	317.65
365.493	303.41
365.874	337.99
366.256	327.14
366.637	318.55
367.019	296.86
367.4	350.64
367.781	310.64
368.163	292.79
368.544	307.93
368.925	301.38
369.306	280.81
369.688	288.5
370.069	278.1
370.45	327.82
370.831	324.43
371.212	331.88
371.593	295.95
371.974	310.87
372.355	305.22
372.736	335.95
373.117	294.6
373.498	324.43
373.879	297.53
374.26	324.2
374.641	312
375.021	295.95
375.402	314.71
375.783	326.01
376.163	317.2
376.544	316.07
376.925	323.97
377.305	308.16
377.686	342.96
378.066	349.06
378.447	308.16
378.827	308.83
379.208	325.78
379.588	323.3
379.968	337.99
380.349	321.04
380.729	312.9
381.109	330.75
381.489	317.87
381.87	319.45
382.25	342.28
382.63	337.53
383.01	346.12
383.39	361.04
383.77	327.36
384.15	326.91
384.53	322.84
384.91	317.87
385.29	333.92
385.67	344.99
386.049	346.57
386.429	353.8
386.809	341.38
387.189	327.14
387.568	331.21
387.948	327.59
388.328	357.42
388.707	352
389.087	346.35
389.466	340.92
389.846	358.1
390.225	335.27
390.605	373.24
390.984	384.09
391.363	355.39
391.743	354.26
392.122	338.89
392.501	366.91
392.881	381.83
393.26	366.23
393.639	355.16
394.018	361.26
394.397	348.83
394.776	367.59
395.155	341.38
395.534	358.55
395.913	361.26
396.292	372.33
396.671	380.24
397.05	372.56
397.429	393.13
397.808	354.26
398.186	369.62
398.565	356.52
398.944	366.01
399.323	395.39
399.701	369.62
400.08	373.92
400.458	374.37
400.837	376.4
401.215	371.2
401.594	384.09
401.972	391.09
402.351	377.31
402.729	396.74
403.107	405.78
403.486	392.9
403.864	382.73
404.242	393.35
404.62	399.9
404.999	404.65
405.377	397.87
405.755	400.13
406.133	395.84
406.511	420.24
406.889	413.24
407.267	415.05
407.645	429.96
408.023	421.83
408.401	412.56
408.779	434.71
409.156	423.63
409.534	444.88
409.912	430.19
410.29	440.58
410.667	410.75
411.045	427.25
411.422	442.84
411.8	445.55
412.178	442.16
412.555	449.62
412.933	447.36
413.31	431.54
413.687	453.46
414.065	436.06
414.442	469.06
414.819	482.16
415.197	486.91
415.574	474.03
415.951	471.77
416.328	483.74
416.705	474.48
417.082	466.34
417.46	469.73
417.837	496.63
418.214	476.06
418.591	471.77
418.967	492.11
419.344	478.09
419.721	503.18
420.098	489.17
420.475	534.82
420.852	514.48
421.228	507.7
421.605	513.8
421.982	522.39
422.358	513.57
422.735	521.71
423.111	518.77
423.488	514.7
423.864	528.04
424.241	548.83
424.617	545.21
424.994	539.79
425.37	550.64
425.746	533.91
426.123	549.73
426.499	543.63
426.875	548.6
427.251	571.43
427.627	578.88
428.003	576.17
428.379	584.31
428.756	574.82
429.132	584.53
429.507	587.7
429.883	587.47
430.259	610.97
430.635	574.59
431.011	589.73
431.387	603.97
431.763	622.72
432.138	609.84
432.514	635.83
432.89	629.05
433.265	641.03
433.641	664.98
434.016	647.81
434.392	660.46
434.767	644.42
435.143	651.65
435.518	636.06
435.894	658.65
436.269	663.63
436.644	674.25
437.02	686.68
437.395	697.3
437.77	707.24
438.145	680.8
438.52	727.58
438.895	702.5
439.271	684.42
439.646	722.61
440.021	737.07
440.395	705.43
440.77	712.66
441.145	722.83
441.52	735.94
441.895	747.92
442.27	749.27
442.645	767.13
443.019	753.34
443.394	762.38
443.769	754.02
444.143	757.41
444.518	780.01
444.892	768.71
445.267	767.58
445.641	773.68
446.016	779.78
446.39	796.96
446.764	800.57
447.139	797.63
447.513	793.79
447.887	775.26
448.262	816.16
448.636	796.28
449.01	793.34
449.384	827.01
449.758	809.84
450.132	820.91
450.506	806.67
450.88	827.69
451.254	832.21
451.628	828.14
452.002	843.51
452.376	860.68
452.75	878.76
453.123	876.28
453.497	875.82
453.871	855.26
454.244	890.29
454.618	868.82
454.992	911.53
455.365	895.71
455.739	904.98
456.112	937.52
456.486	910.4
456.859	936.84
457.232	944.3
457.606	946.56
457.979	962.38
458.352	983.17
458.725	972.32
459.099	970.74
459.472	980.45
459.845	989.72
460.218	1019.32
460.591	1025.65
460.964	1014.35
461.337	1049.83
461.71	1090.51
462.083	1068.14
462.456	1078.53
462.829	1078.76
463.201	1097.29
463.574	1107
463.947	1107.46
464.32	1096.84
464.692	1119.89
465.065	1106.78
465.438	1136.83
465.81	1168.02
466.183	1189.49
466.555	1185.19
466.928	1192.88
467.3	1195.36
467.672	1216.38
468.045	1254.57
468.417	1241.46
468.789	1269.71
469.161	1289.82
469.534	1307
469.906	1308.81
470.278	1321.69
470.65	1376.15
471.022	1383.61
471.394	1368.01
471.766	1396.71
472.138	1385.64
472.51	1436.94
472.882	1475.58
473.253	1500.89
473.625	1512.64
473.997	1521.23
474.369	1544.96
474.74	1581.12
475.112	1579.31
475.484	1594.68
475.855	1621.79
476.227	1659.08
476.598	1706.76
476.97	1708.12
477.341	1756.93
477.713	1756.93
478.084	1768
478.455	1845.74
478.827	1866.76
479.198	1910.37
479.569	1946.53
479.94	1957.38
480.311	1984.5
480.682	2017.94
481.053	2070.82
481.424	2110.37
481.795	2142.23
482.166	2145.62
482.537	2199.18
482.908	2214.55
483.279	2250.7
483.65	2325.5
484.021	2369.8
484.391	2412.96
484.762	2429
485.133	2466.07
485.503	2459.06
485.874	2516.69
486.244	2557.14
486.615	2647.08
486.985	2638.26
487.356	2674.42
487.726	2734.08
488.097	2803.01
488.467	2821.31
488.837	2828.54
489.207	2895.43
489.578	2932.27
489.948	2968.65
490.318	2999.16
490.688	3021.3
491.058	3072.15
491.428	3144.69
491.798	3135.65
492.168	3215.2
492.538	3232.15
492.908	3299.49
493.278	3291.81
493.648	3344.69
494.017	3365.02
494.387	3412.71
494.757	3426.49
495.126	3515.98
495.496	3508.07
495.866	3536.55
496.235	3565.47
496.605	3578.8
496.974	3616.32
497.344	3655.86
497.713	3674.85
498.082	3716.65
498.452	3753.49
498.821	3774.51
499.19	3762.3
499.559	3825.13
499.928	3845.92
500.298	3862.86
500.667	3909.42
501.036	3826.26
501.405	3911.68
501.774	3907.84
502.143	3968.4
502.512	4007.04
502.88	4017.21
503.249	4019.92
503.618	4034.39
503.987	4088.4
504.356	4076.19
504.724	4107.38
505.093	4116.42
505.462	4146.47
505.83	4191.44
506.199	4167.26
506.567	4251.78
506.936	4237.09
507.304	4302.4
507.672	4289.07
508.041	4325.9
508.409	4332
508.777	4318.45
509.145	4413.36
509.514	4348.95
509.882	4421.95
510.25	4404.32
510.618	4433.47
510.986	4471.89
511.354	4476.86
511.722	4527.25
512.09	4501.04
512.458	4532.23
512.826	4574.71
513.193	4597.99
513.561	4567.03
513.929	4604.77
514.297	4658.32
514.664	4731.77
515.032	4648.15
515.4	4677.98
515.767	4657.42
516.135	4688.15
516.502	4639.79
516.869	4769.73
517.237	4788.04
517.604	4733.8
517.972	4781.94
518.339	4792.33
518.706	4755.72
519.073	4830.07
519.44	4828.71
519.808	4867.58
520.175	4829.62
520.542	4895.15
520.909	4949.16
521.276	4942.61
521.643	4977.64
522.009	5017.64
522.376	5054.7
522.743	5058.77
523.11	5075.26
523.477	5110.74
523.843	5112.1
524.21	5123.85
524.577	5111.65
524.943	5198.87
525.31	5179.67
525.676	5288.14
526.043	5278.19
526.409	5338.08
526.776	5324.07
527.142	5291.98
527.508	5363.39
527.874	5421.69
528.241	5424.18
528.607	5445.42
528.973	5492.2
529.339	5452.65
529.705	5507.57
530.071	5538.75
530.437	5565.64
530.803	5606.55
531.169	5609.26
531.535	5647.9
531.901	5649.26
532.267	5644.06
532.632	5708.01
532.998	5700.78
533.364	5747.56
533.73	5776.03
534.095	5819.42
534.461	5826.65
534.826	5906.2
535.192	5858.29
535.557	5915.92
535.923	5958.85
536.288	5960.89
536.653	6004.28
537.019	6018.51
537.384	6029.36
537.749	6114.56
538.114	6041.56
538.479	6096.7
538.845	6115.69
539.21	6111.17
539.575	6112.97
539.94	6140.77
540.305	6198.4
540.67	6178.06
541.034	6224.16
541.399	6207.89
541.764	6310.71
542.129	6271.84
542.494	6369.24
542.858	6380.99
543.223	6385.06
543.587	6431.84
543.952	6418.28
544.316	6527.88
544.681	6410.14
545.045	6504.38
545.41	6495.11
545.774	6578.5
546.138	6571.27
546.503	6655.79
546.867	6608.56
547.231	6663.47
547.595	6695.11
547.959	6691.72
548.324	6776.46
548.688	6778.72
549.052	6796.12
549.416	6822.11
549.779	6790.7
550.143	6834.99
550.507	6876.34
550.871	6933.52
551.235	6902.33
551.599	6977.81
551.962	6998.6
552.326	6960.41
552.689	7006.96
553.053	7017.13
553.417	7030.24
553.78	7138.71
554.143	7089.22
554.507	7155.43
554.87	7160.4
555.234	7224.36
555.597	7165.15
555.96	7210.8
556.323	7285.83
556.686	7246.5
557.05	7265.03
557.413	7361.3
557.776	7313.17
558.139	7380.29
558.502	7359.04
558.865	7354.98
559.228	7383.9
559.59	7391.36
559.953	7434.97
560.316	7552.26
560.679	7472.26
561.041	7585.93
561.404	7619.6
561.767	7617.79
562.129	7597.91
562.492	7725.59
562.854	7628.87
563.217	7725.14
563.579	7721.29
563.941	7746.15
564.304	7868.86
564.666	7819.6
565.028	7862.53
565.39	7831.8
565.753	7971.23
566.115	7922.64
566.477	7978.24
566.839	7870.44
567.201	7999.48
567.563	8025.92
567.925	8068.63
568.287	8133.03
568.648	8181.17
569.01	8154.96
569.372	8241.28
569.734	8173.03
570.095	8297.1
570.457	8280.83
570.819	8342.29
571.18	8326.48
571.542	8471.56
571.903	8468.39
572.265	8513.82
572.626	8561.95
572.987	8637.43
573.349	8582.97
573.71	8708.84
574.071	8712.23
574.432	8814.82
574.794	8889.85
575.155	8871.32
575.516	8922.17
575.877	8981.83
576.238	9108.83
576.599	9137.3
576.96	9172.78
577.32	9234.02
577.681	9330.52
578.042	9469.5
578.403	9540.46
578.763	9613.67
579.124	9681.24
579.485	9834.46
579.845	9948.35
580.206	9991.52
580.566	10091.63
580.927	10187.44
581.287	10361.45
581.648	10464.95
582.008	10701.55
582.368	10774.55
582.728	10946.97
583.089	11078.27
583.449	11163.92
583.809	11461.76
584.169	11654.3
584.529	11741.3
584.889	11969.32
585.249	12065.81
585.609	12391.45
585.969	12535.63
586.329	12725.68
586.688	12944.66
587.048	13166.57
587.408	13365.89
587.768	13680.91
588.127	13877.52
588.487	14154.35
588.846	14482.47
589.206	14550.04
589.565	14817.83
589.925	15158.39
590.284	15374.65
590.643	15736.45
591.003	16013.05
591.362	16261.18
591.721	16514.96
592.08	16763.77
592.44	17165.11
592.799	17482.62
593.158	17679.45
593.517	17970.06
593.876	18352.65
594.235	18547
594.593	18925.29
594.952	19238.05
595.311	19511.72
595.67	19838.72
596.029	20261.3
596.387	20479.83
596.746	20858.58
597.104	21046.37
597.463	21394.38
597.822	21795.95
598.18	21928.38
598.538	22392.55
598.897	22760.22
599.255	22905.53
599.613	23553.65
599.972	23725.62
600.33	23978.27
600.688	24218.26
601.046	24631.36
601.404	24968.98
601.762	25179.59
602.12	25532.8
602.478	25788.62
602.836	26135.95
603.194	26202.62
603.552	26633.11
603.91	26752.43
604.268	27209.82
604.625	27362.81
604.983	27722.8
605.341	27905.17
605.698	28255.22
606.056	28676.68
606.413	28802.77
606.771	29016.1
607.128	29332.25
607.485	29475.98
607.843	29755.74
608.2	30120.71
608.557	30406.8
608.914	30537.19
609.272	30819.67
609.629	31192.54
609.986	31360.45
610.343	31569.71
610.7	31936.02
611.057	32056.25
611.414	32300.08
611.771	32375.79
612.127	32791.37
612.484	32923.34
612.841	33083.57
613.198	33259.15
613.554	33476.55
613.911	33888.74
614.267	33850.1
614.624	34073.6
614.98	34378.22
615.337	34580.25
615.693	34573.02
616.05	34714.48
616.406	35086.45
616.762	34957.41
617.118	35183.17
617.475	35425.42
617.831	35650.96
618.187	35729.15
618.543	35860.44
618.899	36247.1
619.255	36232.86
619.611	36375.23
619.967	36554.43
620.323	36689.35
620.678	36700.19
621.034	36838.49
621.39	36930.7
621.746	37040.75
622.101	37492.26
622.457	37267.86
622.812	37481.19
623.168	37750.34
623.523	37591.92
623.879	38035.3
624.234	37859.03
624.589	37999.82
624.945	38111.68
625.3	38182.19
625.655	38261.06
626.01	38405.01
626.365	38438.23
626.72	38431.67
627.075	38436.87
627.43	38616.98
627.785	38572.69
628.14	38750.76
628.495	38961.83
628.85	38852.68
629.205	38796.86
629.559	39030.3
629.914	39002.28
630.269	39077.98
630.623	38913.24
630.978	38881.38
631.332	39138.1
631.687	39319.33
632.041	39123.41
632.396	39172.22
632.75	39261.03
633.104	39259.22
633.459	39130.86
633.813	39285.44
634.167	39320.46
634.521	39276.17
634.875	39351.2
635.229	39233.23
635.583	39111.43
635.937	39271.65
636.291	39290.41
636.645	39268.94
636.999	39007.03
637.352	39369.73
637.706	39093.35
638.06	39342.84
638.413	39225.32
638.767	39217.87
639.121	39395.26
639.474	39217.42
639.828	39172.22
640.181	39184.87
640.534	39352.33
640.888	39277.07
641.241	39053.35
641.594	39194.59
641.947	39251.76
642.301	39027.14
642.654	39087.7
643.007	39193.69
643.36	39090.41
643.713	39167.47
644.066	39240.92
644.419	39004.99
644.771	38836.86
645.124	38434.61
645.477	38432.35
645.83	38272.13
646.182	37952.82
646.535	38093.83
646.888	38107.61
647.24	37895.87
647.593	38039.37
647.945	38010.67
648.298	37918.47
648.65	37745.14
649.002	37749.66
649.355	37878.47
649.707	37852.71
650.059	37948.52
650.411	38363.65
650.763	38418.34
651.115	38785.11
651.467	38711.67
651.819	38818.78
652.171	38708.73
652.523	38807.93
652.875	38748.05
653.227	38554.16
653.578	38822.85
653.93	38680.71
654.282	38521.16
654.633	38470.09
654.985	38533.37
655.337	38582.86
655.688	38525.91
656.039	38621.5
656.391	38400.49
656.742	38401.62
657.094	38386.25
657.445	38598.9
657.796	38538.79
658.147	38260.15
658.498	38390.77
658.849	38480.49
659.2	38341.28
659.551	38238.68
659.902	38531.56
660.253	38438.9
660.604	38454.95
660.955	38360.26
661.306	38523.87
661.656	38398.68
662.007	38313.71
662.358	38315.29
662.708	38315.07
663.059	38260.6
663.409	38082.98
663.76	38424.89
664.11	38274.62
664.461	38331.34
664.811	38393.93
665.161	38296.08
665.511	38196.43
665.862	38374.73
666.212	38333.82
666.562	38477.77
666.912	38323.88
667.262	38327.5
667.612	38178.12
667.962	38311
668.312	38158.46
668.662	38332.24
669.011	38245.92
669.361	38225.8
669.711	38169.08
670.06	38142.64
670.41	38040.72
670.76	38002.08
671.109	38198.01
671.459	38181.28
671.808	38119.36
672.157	38192.36
672.507	37993.49
672.856	37948.3
673.205	38056.32
673.554	38167.5
673.904	37970.89
674.253	38130.89
674.602	38017.45
674.951	37479.83
675.3	37377.69
675.649	37812.25
675.998	37833.27
676.346	37952.59
676.695	37908.75
677.044	37697.23
677.393	37835.08
677.741	37778.36
678.09	37644.12
678.438	37530.23
678.787	37706.95
679.135	37731.58
679.484	37388.31
679.832	37679.83
680.181	37452.94
680.529	37621.52
680.877	37525.93
681.225	37365.49
681.573	37567.52
681.922	37374.98
682.27	37368.65
682.618	37246.39
682.966	37123.01
683.314	37343.79
683.661	37139.96
684.009	36913.07
684.357	36851.38
684.705	36906.74
685.053	36940.19
685.4	36790.81
685.748	36736.58
686.095	36723.47
686.443	36572.74
686.79	36469.46
687.138	36477.83
687.485	36670.36
687.832	36514.21
688.18	36393.76
688.527	36362.35
688.874	36315.8
689.221	36059.98
689.568	36109.47
689.915	35898.86
690.262	36109.25
690.609	35967.78
690.956	35598.3
691.303	35726.89
691.65	35473.33
691.997	35620.22
692.344	35380.45
692.69	35338.87
693.037	35362.83
693.383	34932.78
693.73	35292.09
694.077	35072.89
694.423	35031.08
694.769	35006.9
695.116	34899.11
695.462	34870.64
695.808	34626.12
696.155	34754.71
696.501	34500.93
696.847	34522.85
697.193	34370.54
697.539	34381.84
697.885	34110.88
698.231	34076.31
698.577	34013.26
698.923	33916.54
699.269	33719.48
699.614	33665.92
699.96	33657.79
700.306	33501.41
700.651	33509.99
700.997	33466.61
701.342	33278.59
701.688	33179.16
702.033	33256.89
702.379	33215.09
702.724	33100.06
703.069	33276.1
703.415	32735.78
703.76	32784.14
704.105	32713.41
704.45	32675.67
704.795	32504.6
705.14	32469.57
705.485	32380.98
705.83	32220.76
706.175	32246.3
706.52	32188.22
706.865	32207.43
707.209	32022.12
707.554	31988.23
707.899	32075.46
708.243	31879.53
708.588	31871.39
708.932	31653.55
709.277	31573.1
709.621	31596.15
709.966	31412.87
710.31	31528.35
710.654	31262.82
710.998	31341.46
711.342	31244.52
711.687	31245.42
712.031	31073.22
712.375	31055.82
712.719	31059.89
713.063	30888.37
713.407	31097.63
713.75	30795.72
714.094	30750.29
714.438	30782.83
714.782	30648.83
715.125	30515.72
715.469	30635.27
715.812	30409.51
716.156	30306.01
716.499	30372
716.843	30347.82
717.186	30166.58
717.53	30306.91
717.873	30300.81
718.216	30092.68
718.559	30028.73
718.902	29805.91
719.246	29925.46
719.589	29875.74
719.932	29682.3
720.275	29720.26
720.617	29675.29
720.96	29725.24
721.303	29652.47
721.646	29587.39
721.989	29376.32
722.331	29508.07
722.674	29427.16
723.016	29359.6
723.359	29334.29
723.701	29423.55
724.044	29071.69
724.386	28993.05
724.729	29084.35
725.071	29094.97
725.413	29060.62
725.755	29012.03
726.097	28970
726.439	28777.69
726.782	28745.6
727.124	28842.09
727.465	28696.11
727.807	28619.5
728.149	28691.14
728.491	28513.74
728.833	28662.44
729.175	28593.97
729.516	28506.06
729.858	28522.1
730.199	28556
730.541	28337.93
730.882	28417.7
731.224	28426.06
731.565	28216.8
731.906	28295.44
732.248	28096.8
732.589	28002.34
732.93	27940.88
733.271	28006.64
733.612	28000.53
733.953	28039.63
734.294	27908.33
734.635	27758.06
734.976	27944.94
735.317	27764.83
735.658	27646.87
735.999	27759.19
736.339	27613.88
736.68	27718.73
737.021	27662.69
737.361	27462.7
737.702	27680.77
738.042	27528.91
738.383	27496.82
738.723	27460.89
739.063	27381.12
739.404	27468.57
739.744	27439.19
740.084	27315.81
740.424	27270.61
740.764	27154
741.104	27159.2
741.444	27105.19
741.784	26905.87
742.124	27061.8
742.464	27048.7
742.804	27033.78
743.143	26864.52
743.483	26999.66
743.823	26789.49
744.162	26849.15
744.502	26884.63
744.841	26679.89
745.181	26773.67
745.52	26702.72
745.86	26715.6
746.199	26688.03
746.538	26534.58
746.877	26633.79
747.216	26596.96
747.556	26456.62
747.895	26440.12
748.234	26399
748.573	26371.2
748.911	26342.95
749.25	26199.23
749.589	26185.89
749.928	26225.89
750.267	26207.81
750.605	26205.78
750.944	25968.95
751.283	26020.47
751.621	26067.7
751.96	25890.31
752.298	25882.62
752.636	25848.95
752.975	25756.07
753.313	25663.2
753.651	25736.19
753.989	25579.58
754.327	25550.2
754.666	25424.33
755.004	25493.03
755.342	25616.42
755.679	25448.51
756.017	25286.71
756.355	25296.65
756.693	25230.66
757.031	25298.91
757.368	25126.71
757.706	25148.41
758.044	24999.26
758.381	25086.26
758.719	24966.94
759.056	24899.6
759.394	24813.5
759.731	24710
760.068	24655.76
760.405	24573.05
760.743	24602.66
761.08	24602.21
761.417	24400.63
761.754	24328.99
762.091	24307.75
762.428	24319.73
762.765	24195.44
763.102	24198.6
763.438	24090.13
763.775	23900.76
764.112	23936.69
764.449	23821.44
764.785	23804.26
765.122	23633.42
765.458	23594.1
765.795	23526.08
766.131	23523.82
766.467	23369.24
766.804	23322.69
767.14	23180.77
767.476	23202.02
767.812	23152.53
768.148	23179.87
768.485	23048.35
768.821	22952.53
769.157	22866.21
769.492	22778.53
769.828	22713.22
770.164	22570.17
770.5	22440.91
770.836	22459.21
771.171	22289.72
771.507	22360.46
771.842	22168.82
772.178	22174.25
772.513	22090.86
772.849	22099.45
773.184	21875.05
773.519	21990.75
773.855	21819.45
774.19	21758.67
774.525	21594.15
774.86	21733.81
775.195	21592.12
775.53	21484.32
775.865	21392.57
776.2	21246.81
776.535	21120.94
776.87	21106.03
777.205	20973.83
777.539	20884.11
777.874	20901.74
778.209	20740.84
778.543	20889.76
778.878	20605.7
779.212	20633.5
779.547	20465.82
779.881	20542.65
780.215	20301.3
780.55	20441.64
780.884	20261.53
781.218	20262.43
781.552	20168.42
781.886	19993.06
782.22	19930.69
782.554	19806.85
782.888	19729.34
783.222	19608.67
783.556	19554.88
783.889	19609.12
784.223	19399.86
784.557	19428.33
784.89	19360.99
785.224	19188.79
785.557	19200.31
785.891	19155.12
786.224	19081.67
786.558	19063.82
786.891	18895.01
787.224	18833.77
787.557	18780.66
787.891	18788.12
788.224	18663.15
788.557	18676.26
788.89	18596.49
789.223	18547.9
789.556	18466.55
789.888	18304.74
790.221	18304.97
790.554	18104.75
790.887	18137.29
791.219	18128.48
791.552	18068.82
791.884	18002.38
792.217	17921.03
792.549	17808.03
792.882	17712.9
793.214	17773.91
793.546	17714.03
793.879	17585.67
794.211	17565.1
794.543	17544.31
794.875	17495.95
795.207	17502.73
795.539	17336.41
795.871	17388.16
796.203	17130.99
796.535	17152.68
796.867	17097.09
797.198	17052.57
797.53	17058.45
797.862	16883.09
798.193	16930.54
798.525	16908.4
798.856	16874.95
799.188	16703.66
799.519	16644.22
799.85	16589.99
800.182	16559.03
800.513	16644.45
800.844	16419.14
801.175	16411.24
801.506	16460.73
801.837	16272.93
802.168	16273.39
802.499	16276.78
802.83	16080.62
803.161	16065.93
803.491	16078.14
803.822	16089.89
804.153	15914.75
804.483	15785.26
804.814	15773.96
805.145	15859.39
805.475	15821.65
805.805	15722.21
806.136	15736.68
806.466	15716.79
806.796	15671.82
807.126	15500.98
807.457	15430.7
807.787	15526.29
808.117	15364.71
808.447	15307.31
808.777	15403.8
809.107	15356.8
809.436	15290.59
809.766	15276.12
810.096	15154.77
810.426	15140.08
810.755	15131.27
811.085	15121.33
811.414	15068.45
811.744	14926.3
812.073	14979.18
812.403	14901.22
812.732	14775.57
813.061	14802.69
813.39	14655.8
813.719	14643.82
814.049	14756.14
814.378	14631.39
814.707	14550.27
815.036	14633.88
815.365	14532.87
815.693	14454.9
816.022	14357.73
816.351	14438.41
816.68	14366.77
817.008	14322.25
817.337	14259.2
817.665	14166.55
817.994	14172.2
818.322	14241.12
818.651	14152.31
818.979	14064.18
819.307	14219.2
819.636	14089.71
819.964	13990.96
820.292	14069.15
820.62	14012.88
820.948	14015.82
821.276	13993.9
821.604	13904.41
821.932	14001.58
822.259	13900.11
822.587	13971.75
822.915	13939.66
823.243	13990.73
823.57	13885.43
823.898	13913
824.225	13869.38
824.553	13916.39
824.88	13895.82
825.207	13894.47
825.535	13818.53
825.862	13956.61
826.189	13873.67
826.516	13957.06
826.843	13886.56
827.17	13903.96
827.497	13974.01
827.824	13916.61
828.151	13900.79
828.478	13896.05
828.805	13918.42
829.131	13834.58
829.458	13796.16
829.785	13731.76
830.111	13841.59
830.438	13902.37
830.764	13798.65
831.09	13833
831.417	13769.04
831.743	13781.25
832.069	13748.93
832.395	13746.9
832.722	13873.45
833.048	13741.93
833.374	13791.87
833.7	13652.44
834.026	13774.69
834.351	13794.13
834.677	13620.8
835.003	13591.42
835.329	13673.91
835.654	13745.09
835.98	13605.66
836.306	13634.81
836.631	13547.81
836.956	13634.58
837.282	13534.93
837.607	13513.46
837.932	13513.01
838.258	13488.6
838.583	13425.32
838.908	13334.25
839.233	13451.09
839.558	13419.9
839.883	13382.84
840.208	13260.58
840.533	13323.41
840.858	13247.25
841.182	13313.92
841.507	13236.4
841.832	13225.1
842.156	13234.82
842.481	13181.26
842.805	13158.21
843.13	13162.51
843.454	13100.14
843.778	13041.38
844.103	13052
844.427	12984.21
844.751	13005
845.075	12957.09
845.399	12889.07
845.723	12877.54
846.047	12811.33
846.371	12658.34
846.695	12767.26
847.019	12647.27
847.343	12612.46
847.666	12485.01
847.99	12483.88
848.313	12492.47
848.637	12391.45
848.96	12345.13
849.284	12332.92
849.607	12246.6
849.931	12179.26
850.254	12183.78
850.577	12090.44
850.9	11988.3
851.223	11983.33
851.546	11947.17
851.869	11801.19
852.192	11828.08
852.515	11792.15
852.838	11754.41
853.161	11667.41
853.483	11662.89
853.806	11654.98
854.129	11675.77
854.451	11516.9
854.774	11481.65
855.096	11451.82
855.419	11486.62
855.741	11403.23
856.063	11319.17
856.385	11276.23
856.708	11237.59
857.03	11324.14
857.352	11264.93
857.674	11198.72
857.996	11211.37
858.318	11071.71
858.64	11096.35
858.961	11106.29
859.283	11063.58
859.605	10993.3
859.926	11009.8
860.248	10969.57
860.57	10940.87
860.891	10950.36
861.212	10811.83
861.534	10888.89
861.855	10772.06
862.176	10782.91
862.498	10741.1
862.819	10759.86
863.14	10741.78
863.461	10770.71
863.782	10717.83
864.103	10668.34
864.424	10638.05
864.745	10635.79
865.065	10623.36
865.386	10512.18
865.707	10466.08
866.027	10551.95
866.348	10545.85
866.668	10498.85
866.989	10444.39
867.309	10399.42
867.63	10488.45
867.95	10397.38
868.27	10393.54
868.59	10423.37
868.91	10378.4
869.23	10386.31
869.55	10370.04
869.87	10311.28
870.19	10253.88
870.51	10286.2
870.83	10250.27
871.15	10158.74
871.469	10194
871.789	10204.39
872.109	10276.71
872.428	10126.2
872.748	10129.82
873.067	10136.37
873.386	10139.76
873.706	10132.53
874.025	10048.24
874.344	10079.88
874.663	10050.5
874.982	10034.23
875.301	10117.84
875.62	10023.38
875.939	9985.87
876.258	9987.22
876.577	9969.14
876.896	9912.87
877.214	9940.22
877.533	9952.65
877.852	9867.9
878.17	9876.27
878.489	9890.05
878.807	9873.1
879.125	9802.37
879.444	9852.09
879.762	9776.61
880.08	9813.89
880.398	9821.8
880.716	9811.41
881.034	9744.97
881.352	9705.87
881.67	9677.85
881.988	9709.72
882.306	9663.16
882.624	9724.18
882.941	9600.34
883.259	9545.2
883.577	9539.78
883.894	9477.63
884.212	9465.66
884.529	9498.42
884.846	9476.73
885.164	9534.58
885.481	9423.85
885.798	9447.8
886.115	9362.83
886.432	9360.8
886.75	9294.59
887.067	9319.44
887.383	9270.41
887.7	9254.14
888.017	9250.75
888.334	9143.63
888.651	9255.27
888.967	9153.8
889.284	9076.29
889.6	9110.18
889.917	9087.36
890.233	9034.93
890.55	9029.96
890.866	9034.71
891.182	8989.28
891.498	8949.74
891.815	8921.04
892.131	8881.49
892.447	8916.52
892.763	8845.56
893.079	8861.83
893.395	8806.01
893.71	8728.05
894.026	8762.85
894.342	8689.63
894.657	8714.71
894.973	8726.69
895.289	8649.18
895.604	8639.69
895.92	8612.12
896.235	8561.27
896.55	8577.09
896.865	8540.48
897.181	8469.75
897.496	8473.36
897.811	8425
898.126	8411.22
898.441	8377.1
898.756	8324.22
899.071	8299.81
899.386	8300.26
899.7	8272.92
900.015	8277.66
900.33	8143.43
900.644	8131.45
900.959	8163.09
901.273	8115.41
901.588	8095.52
901.902	8021.17
902.216	8004.22
902.531	8030.21
902.845	7988.86
903.159	7945.92
903.473	7935.53
903.787	7837.45
904.101	7868.18
904.415	7856.88
904.729	7818.01
905.042	7743.89
905.356	7727.4
905.67	7720.16
905.984	7752.48
906.297	7626.16
906.611	7607.85
906.924	7634.29
907.237	7623.44
907.551	7531.24
907.864	7468.19
908.177	7474.75
908.491	7474.97
908.804	7421.42
909.117	7367.63
909.43	7302.32
909.743	7308.65
910.056	7311.59
910.368	7285.6
910.681	7201.76
910.994	7209.44
911.307	7223
911.619	7142.1
911.932	7153.4
912.244	7041.99
912.557	7089.9
912.869	7008.77
913.181	7044.02
913.494	6980.52
913.806	6933.97
914.118	6910.24
914.43	6908.66
914.742	6903.69
915.054	6846.51
915.366	6841.77
915.678	6829.11
915.99	6777.82
916.302	6691.49
916.613	6727.42
916.925	6695.11
917.236	6642.68
917.548	6601.78
917.859	6548.22
918.171	6594.09
918.482	6545.51
918.794	6475.45
919.105	6468.9
919.416	6482.46
919.727	6421.67
920.038	6448.11
920.349	6401.78
920.66	6385.74
920.971	6310.94
921.282	6270.71
921.593	6260.77
921.903	6238.62
922.214	6225.06
922.525	6166.31
922.835	6170.83
923.146	6163.82
923.456	6141.45
923.767	6078.63
924.077	6087.66
924.387	6110.26
924.697	6017.61
925.008	6020.55
925.318	6006.99
925.628	5945.3
925.938	5892.42
926.248	5892.64
926.558	5849.93
926.867	5834.56
927.177	5804.51
927.487	5825.75
927.796	5784.62
928.106	5750.95
928.416	5755.7
928.725	5707.11
929.034	5712.08
929.344	5644.29
929.653	5629.82
929.962	5606.1
930.271	5576.49
930.581	5543.95
930.89	5523.84
931.199	5519.09
931.508	5463.95
931.817	5450.62
932.125	5406.78
932.434	5427.8
932.743	5363.84
933.051	5322.94
933.36	5345.54
933.669	5229.83
933.977	5274.58
934.286	5296.5
934.594	5231.42
934.902	5184.86
935.21	5159.33
935.519	5223.73
935.827	5180.12
936.135	5160.46
936.443	5111.87
936.751	5066.9
937.059	5036.84
937.367	5044.53
937.674	5053.12
937.982	5033.23
938.29	5008.82
938.597	4929.28
938.905	4916.85
939.213	4978.09
939.52	4856.06
939.827	4861.71
940.135	4866
940.442	4826.91
940.749	4821.71
941.056	4809.28
941.363	4738.32
941.67	4745.1
941.977	4698.1
942.284	4690.64
942.591	4670.98
942.898	4658.78
943.205	4684.54
943.511	4623.07
943.818	4624.43
944.125	4595.73
944.431	4585.56
944.738	4545.56
945.044	4525.67
945.35	4506.24
945.657	4449.52
945.963	4499.91
946.269	4480.02
946.575	4464.66
946.881	4437.54
947.187	4374.94
947.493	4369.97
947.799	4371.78
948.105	4369.29
948.41	4299.92
948.716	4293.36
949.022	4288.16
949.327	4310.54
949.633	4269.86
949.938	4196.42
950.244	4260.82
950.549	4222.86
950.854	4179.24
951.16	4177.66
951.465	4171.11
951.77	4105.8
952.075	4115.06
952.38	4066.7
952.685	4094.04
952.99	4045.68
953.294	4068.51
953.599	4055.18
953.904	3979.47
954.209	4000.26
954.513	4006.14
954.818	3961.39
955.122	3948.96
955.426	3908.97
955.731	3892.24
956.035	3890.89
956.339	3834.16
956.643	3862.64
956.948	3839.59
957.252	3837.78
957.556	3849.98
957.86	3813.37
958.163	3821.28
958.467	3806.82
958.771	3792.81
959.075	3738.8
959.378	3714.85
959.682	3713.26
959.985	3702.64
960.289	3676.88
960.592	3636.43
960.896	3608.18
961.199	3607.96
961.502	3583.78
961.805	3557.79
962.108	3562.99
962.411	3554.85
962.714	3508.98
963.017	3482.31
963.32	3504.91
963.623	3441.18
963.926	3469.88
964.228	3434.18
964.531	3458.58
964.833	3404.12
965.136	3405.93
965.438	3425.81
965.741	3365.7
966.043	3320.96
966.345	3365.02
966.648	3326.16
966.95	3309.43
967.252	3341.97
967.554	3310.34
967.856	3288.87
968.158	3235.54
968.46	3235.99
968.761	3273.5
969.063	3229.43
969.365	3229.43
969.666	3211.13
969.968	3191.24
970.269	3168.42
970.571	3147.86
970.872	3109.44
971.174	3124.8
971.475	3127.06
971.776	3108.53
972.077	3101.75
972.378	3059.5
972.679	3071.25
972.98	3023.11
973.281	3043
973.582	3063.79
973.883	2995.77
974.183	3004.81
974.484	3005.49
974.785	2945.37
975.085	2960.29
975.386	2947.86
975.686	2920.97
975.986	2930.01
976.287	2888.65
976.587	2866.28
976.887	2887.75
977.187	2826.28
977.487	2852.04
977.787	2846.85
978.087	2819.05
978.387	2798.26
978.687	2804.59
978.987	2795.32
979.286	2752.84
979.586	2758.94
979.885	2767.75
980.185	2746.96
980.484	2728.43
980.784	2681.43
981.083	2687.98
981.382	2699.51
981.682	2697.25
981.981	2678.71
982.28	2640.98
982.579	2604.37
982.878	2647.76
983.177	2597.14
983.475	2609.56
983.774	2590.36
984.073	2591.94
984.372	2609.11
984.67	2567.76
984.969	2562.79
985.267	2553.97
985.566	2567.53
985.864	2540.87
986.162	2508.55
986.461	2500.87
986.759	2492.73
987.057	2453.18
987.355	2457.48
987.653	2469.45
987.951	2435.78
988.249	2448.44
988.547	2433.3
988.844	2402.56
989.142	2415.67
989.44	2387.65
989.737	2436.69
990.035	2373.19
990.332	2379.74
990.63	2338.84
990.927	2382
991.224	2330.48
991.521	2316.69
991.819	2276.24
992.116	2304.04
992.413	2288.67
992.71	2260.19
993.006	2285.05
993.303	2283.7
993.6	2278.73
993.897	2243.25
994.193	2253.42
994.49	2214.09
994.787	2226.52
995.083	2191.27
995.379	2208.22
995.676	2144.04
995.972	2169.58
996.268	2146.3
996.565	2138.84
996.861	2109.24
997.157	2114.66
997.453	2096.58
997.749	2080.54
998.044	2056.13
998.34	2068.79
998.636	2060.88
998.932	2071.5
999.227	2050.93
999.523	2025.85
999.818	2031.73
1000.114	1982.91
1000.409	2019.75
1000.704	1985.63
1001	1983.82
1001.295	1991.5
1001.59	1961.9
1001.885	1954.44
1002.18	1924.84
1002.475	1938.17
1002.77	1943.14
1003.065	1903.14
1003.359	1898.62
1003.654	1899.3
1003.949	1860.66
1004.243	1859.3
1004.538	1882.35
1004.832	1858.85
1005.127	1845.29
1005.421	1838.28
1005.715	1828.12
1006.009	1801.45
1006.304	1803.03
1006.598	1785.63
1006.892	1782.02
1007.186	1781.79
1007.48	1750.15
1007.773	1740.89
1008.067	1743.15
1008.361	1722.13
1008.655	1716.03
1008.948	1702.47
1009.242	1719.42
1009.535	1697.27
1009.829	1662.24
1010.122	1672.41
1010.415	1660.66
1010.708	1652.98
1011.001	1666.76
1011.295	1614.11
1011.588	1626.31
1011.881	1618.4
1012.173	1592.87
1012.466	1585.18
1012.759	1588.8
1013.052	1572.98
1013.344	1559.87
1013.637	1580.21
1013.93	1537.5
1014.222	1568.91
1014.514	1537.05
1014.807	1532.3
1015.099	1501.12
1015.391	1493.89
1015.683	1498.41
1015.976	1513.55
1016.268	1502.02
1016.56	1474
1016.851	1467.22
1017.143	1474.68
1017.435	1457.5
1017.727	1447.33
1018.018	1431.52
1018.31	1439.2
1018.602	1386.77
1018.893	1404.4
1019.185	1403.72
1019.476	1393.55
1019.767	1387.22
1020.058	1373.21
1020.35	1359.88
1020.641	1328.47
1020.932	1334.12
1021.223	1344.51
1021.514	1322.14
1021.804	1314.68
1022.095	1309.03
1022.386	1289.82
1022.677	1306.77
1022.967	1292.31
1023.258	1282.14
1023.548	1276.72
1023.839	1263.61
1024.129	1243.05
1024.419	1246.89
1024.709	1237.4
1025	1229.04
1025.29	1226.32
1025.58	1238.3
1025.87	1202.37
1026.16	1227.68
1026.449	1203.95
1026.739	1181.35
1027.029	1178.42
1027.319	1160.56
1027.608	1168.92
1027.898	1153.11
1028.187	1137.74
1028.477	1140.68
1028.766	1146.55
1029.055	1113.56
1029.344	1103.39
1029.634	1122.37
1029.923	1122.6
1030.212	1127.12
1030.501	1093.67
1030.79	1088.47
1031.078	1057.29
1031.367	1092.54
1031.656	1045.76
1031.945	1042.83
1032.233	1058.64
1032.522	1056.84
1032.81	1011.19
1033.099	1026.78
1033.387	1015.71
1033.675	994.01
1033.963	1018.19
1034.251	1023.39
1034.54	977.06
1034.828	962.15
1035.116	1022.71
1035.403	979.32
1035.691	939.55
1035.979	967.57
1036.267	967.35
1036.554	930.06
1036.842	934.13
1037.129	957.63
1037.417	947.23
1037.704	911.53
1037.992	943.62
1038.279	903.17
1038.566	918.08
1038.853	918.08
1039.14	918.08
