Data from hue_230_FLMS001491_00036.txt Node
Date: Tue Feb 07 16:37:08 GMT 2017
User: dcchb
Spectrometer: FLMS00149
Trigger mode: 0
Integration Time (sec): 2.000000E-2
Scans to average: 10
Electric dark correction enabled: true
Nonlinearity correction enabled: false
Boxcar width: 0
XAxis mode: Wavelengths
Number of Pixels in Spectrum: 2048
>>>>>Begin Spectral Data<<<<<
341.393	-19.66
341.776	-19.66
342.16	-19.66
342.543	-59.21
342.927	-68.7
343.31	-58.3
343.693	-75.93
344.077	-77.74
344.46	-63.5
344.843	-52.88
345.226	-34.12
345.61	-25.54
345.993	-17.17
346.376	5.65
346.759	10.85
347.142	22.37
347.525	40.45
347.908	54.69
348.291	60.79
348.674	85.65
349.057	124.74
349.44	123.39
349.823	130.62
350.206	159.77
350.588	197.06
350.971	203.61
351.354	229.82
351.737	229.37
352.119	231.41
352.502	243.61
352.884	273.67
353.267	287.45
353.65	293.1
354.032	292.42
354.414	295.59
354.797	291.07
355.179	316.6
355.562	322.03
355.944	314.57
356.326	343.95
356.709	327.68
357.091	341.69
357.473	336.26
357.855	343.27
358.238	336.49
358.62	341.91
359.002	349.82
359.384	329.26
359.766	334.91
360.148	342.36
360.53	331.97
360.912	339.65
361.294	343.95
361.676	341.69
362.057	332.42
362.439	313.89
362.821	327.68
363.203	318.86
363.584	327.9
363.966	333.78
364.348	340.78
364.729	306.66
365.111	324.29
365.493	325.42
365.874	312.76
366.256	315.25
366.637	322.03
367.019	311.63
367.4	311.63
367.781	311.4
368.163	313.44
368.544	324.74
368.925	323.61
369.306	306.66
369.688	321.57
370.069	314.34
370.45	311.86
370.831	278.64
371.212	322.7
371.593	323.16
371.974	308.24
372.355	327
372.736	333.32
373.117	314.12
373.498	310.05
373.879	327.68
374.26	303.04
374.641	316.83
375.021	318.41
375.402	315.25
375.783	303.27
376.163	318.86
376.544	329.48
376.925	310.95
377.305	309.14
377.686	303.72
378.066	323.61
378.447	307.11
378.827	332.87
379.208	333.1
379.588	330.61
379.968	328.58
380.349	333.78
380.729	340.56
381.109	339.2
381.489	327.22
381.87	341.46
382.25	346.88
382.63	336.49
383.01	340.78
383.39	337.39
383.77	320.44
384.15	354.34
384.53	342.59
384.91	327.9
385.29	326.32
385.67	337.39
386.049	351.18
386.429	334
386.809	351.4
387.189	361.8
387.568	353.89
387.948	350.27
388.328	349.14
388.707	352.76
389.087	354.79
389.466	370.84
389.846	372.19
390.225	359.76
390.605	355.7
390.984	359.54
391.363	374.91
391.743	378.3
392.122	359.09
392.501	351.18
392.881	352.76
393.26	351.86
393.639	378.3
394.018	383.49
394.397	373.1
394.776	406.32
395.155	365.19
395.534	384.4
395.913	378.3
396.292	375.81
396.671	380.55
397.05	388.46
397.429	391.85
397.808	409.03
398.186	390.95
398.565	386.88
398.944	391.18
399.323	425.3
399.701	399.31
400.08	397.28
400.458	376.49
400.837	410.16
401.215	429.59
401.594	400.89
401.972	414.45
402.351	404.06
402.729	425.3
403.107	411.29
403.486	411.97
403.864	437.95
404.242	442.47
404.62	452.19
404.999	461.68
405.377	435.92
405.755	459.42
406.133	438.41
406.511	446.32
406.889	467.33
407.267	463.04
407.645	463.26
408.023	479.76
408.401	463.94
408.779	486.77
409.156	505.3
409.534	490.16
409.912	495.35
410.29	494.22
410.667	500.1
411.045	505.3
411.422	530.16
411.8	519.53
412.178	522.47
412.555	530.16
412.933	523.83
413.31	589.59
413.687	553.43
414.065	571.28
414.442	560.66
414.819	597.5
415.197	583.71
415.574	597.27
415.951	601.79
416.328	585.52
416.705	602.47
417.082	616.93
417.46	620.32
417.837	631.85
418.214	627.33
418.591	642.92
418.967	646.31
419.344	621.45
419.721	668.23
420.098	646.76
420.475	676.59
420.852	667.55
421.228	670.49
421.605	716.14
421.982	713.43
422.358	738.06
422.735	746.2
423.111	734.22
423.488	767.66
423.864	785.97
424.241	788
424.617	755.69
424.994	792.52
425.37	806.08
425.746	818.06
426.123	826.19
426.499	817.61
426.875	841.11
427.251	854.67
427.627	849.7
428.003	871.84
428.379	870.03
428.756	905.29
429.132	900.09
429.507	899.64
429.883	937.6
430.259	935.34
430.635	929.92
431.011	960.65
431.387	961.78
431.763	967.88
432.138	981.22
432.514	992.06
432.89	984.15
433.265	1032.06
433.641	1052.18
434.016	1038.16
434.392	1058.73
434.767	1089.46
435.143	1084.27
435.518	1114.1
435.894	1122.68
436.269	1145.73
436.644	1180.53
437.02	1203.13
437.395	1185.28
437.77	1233.19
438.145	1257.59
438.52	1278.61
438.895	1258.72
439.271	1300.3
439.646	1322.23
440.021	1300.3
440.395	1320.42
440.77	1333.3
441.145	1354.99
441.52	1385.95
441.895	1386.18
442.27	1422.11
442.645	1380.75
443.019	1435.22
443.394	1449.91
443.769	1444.71
444.143	1453.75
444.518	1481.99
444.892	1475.67
445.267	1509.11
445.641	1491.26
446.016	1492.16
446.39	1512.5
446.764	1526.97
447.139	1538.72
447.513	1534.65
447.887	1550.92
448.262	1547.08
448.636	1560.86
449.01	1604.7
449.384	1617.58
449.758	1604.03
450.132	1577.81
450.506	1631.82
450.88	1663.01
451.254	1625.04
451.628	1674.76
452.002	1673.85
452.376	1693.97
452.75	1697.58
453.123	1739.39
453.497	1743.01
453.871	1755.21
454.244	1778.26
454.618	1834.3
454.992	1821.87
455.365	1830.91
455.739	1846.28
456.112	1863.91
456.486	1901.64
456.859	1881.08
457.232	1928.99
457.606	1939.84
457.979	1950.01
458.352	1992.94
458.725	2003.34
459.099	2015.54
459.472	2067.06
459.845	2083.11
460.218	2100.28
460.591	2129.89
460.964	2094.18
461.337	2182.99
461.71	2175.54
462.083	2196.33
462.456	2239.94
462.829	2237.23
463.201	2272.71
463.574	2281.75
463.947	2288.53
464.32	2326.27
464.692	2378.47
465.065	2377.79
465.438	2422.99
465.81	2436.32
466.183	2467.51
466.555	2510.89
466.928	2513.61
467.3	2531.91
467.672	2557.67
468.045	2665.47
468.417	2627.5
468.789	2622.76
469.161	2677.67
469.534	2740.72
469.906	2745.69
470.278	2750.21
470.65	2805.35
471.022	2854.84
471.394	2889.87
471.766	2906.36
472.138	2919.47
472.51	2975.51
472.882	3027.27
473.253	3045.57
473.625	3124.89
473.997	3169.18
474.369	3180.26
474.74	3207.83
475.112	3260.03
475.484	3284.21
475.855	3343.41
476.227	3378.89
476.598	3465.45
476.97	3447.59
477.341	3549.74
477.713	3579.34
478.084	3615.27
478.455	3644.88
478.827	3704.76
479.198	3809.84
479.569	3853.91
479.94	3879.45
480.311	3932.55
480.682	4017.3
481.053	4062.04
481.424	4115.15
481.795	4128.03
482.166	4166.67
482.537	4243.05
482.908	4284.41
483.279	4323.5
483.65	4436.49
484.021	4497.06
484.391	4567.56
484.762	4593.33
485.133	4643.27
485.503	4704.96
485.874	4777.73
486.244	4804.39
486.615	4869.25
486.985	4896.82
487.356	5003.03
487.726	5010.26
488.097	5101.11
488.467	5125.06
488.837	5197.83
489.207	5234.21
489.578	5328.22
489.948	5346.75
490.318	5436.02
490.688	5426.3
491.058	5545.16
491.428	5589.01
491.798	5605.73
492.168	5711.26
492.538	5675.33
492.908	5781.54
493.278	5836
493.648	5875.1
494.017	5924.82
494.387	5877.13
494.757	5985.15
495.126	5983.35
495.496	6043
495.866	6085.72
496.235	6107.41
496.605	6168.88
496.974	6222.66
497.344	6272.6
497.713	6266.28
498.082	6294.75
498.452	6353.51
498.821	6347.4
499.19	6388.08
499.559	6491.81
499.928	6421.98
500.298	6514.86
500.667	6550.79
501.036	6493.39
501.405	6624.91
501.774	6607.28
502.143	6597.34
502.512	6663.78
502.88	6711.01
503.249	6696.1
503.618	6745.59
503.987	6808.63
504.356	6775.19
504.724	6800.95
505.093	6815.19
505.462	6826.71
505.83	6833.94
506.199	6913.94
506.567	6925.47
506.936	6927.95
507.304	7040.04
507.672	7066.03
508.041	7031.23
508.409	7069.87
508.777	7122.75
509.145	7099.47
509.514	7119.59
509.882	7210.21
510.25	7172.24
510.618	7191.68
510.986	7213.14
511.354	7231.67
511.722	7290.2
512.09	7331.33
512.458	7311.9
512.826	7348.73
513.193	7353.25
513.561	7334.95
513.929	7368.39
514.297	7432.35
514.664	7461.27
515.032	7496.3
515.4	7479.13
515.767	7503.53
516.135	7524.1
516.502	7447.04
516.869	7550.31
517.237	7595.73
517.604	7481.39
517.972	7613.59
518.339	7628.73
518.706	7603.19
519.073	7608.16
519.44	7567.94
519.808	7635.96
520.175	7618.1
520.542	7754.15
520.909	7709.4
521.276	7703.53
521.643	7777.87
522.009	7838.21
522.376	7801.38
522.743	7819.23
523.11	7862.39
523.477	7858.55
523.843	7909.62
524.21	7912.79
524.577	8021.48
524.943	7922.28
525.31	7957.53
525.676	8004.76
526.043	8020.58
526.409	8049.51
526.776	8119.33
527.142	8063.06
527.508	8039.34
527.874	8058.77
528.241	8143.97
528.607	8106.45
528.973	8158.66
529.339	8083.4
529.705	8209.28
530.071	8175.15
530.437	8184.42
530.803	8239.56
531.169	8216.06
531.535	8185.32
531.901	8200.01
532.267	8132.89
532.632	8160.46
532.998	8169.73
533.364	8231.65
533.73	8204.98
534.095	8315.94
534.461	8265.77
534.826	8221.03
535.192	8249.73
535.557	8319.1
535.923	8226.22
536.288	8280.01
536.653	8250.86
537.019	8224.42
537.384	8251.08
537.749	8176.73
538.114	8197.52
538.479	8211.08
538.845	8188.71
539.21	8139.67
539.575	8182.84
539.94	8120.69
540.305	8167.92
540.67	8104.65
541.034	8092.89
541.399	8133.8
541.764	8125.21
542.129	8161.37
542.494	8069.17
542.858	8145.1
543.223	8131.54
543.587	8155.72
543.952	8078.66
544.316	8095.15
544.681	8069.84
545.045	8031.88
545.41	8009.73
545.774	8038.21
546.138	8041.6
546.503	7995.95
546.867	7963.41
547.231	8012.44
547.595	7971.99
547.959	7994.14
548.324	7933.58
548.688	7965.89
549.052	7967.47
549.416	7923.63
549.779	7923.18
550.143	7839.12
550.507	7895.84
550.871	7942.39
551.235	7884.99
551.599	7911.43
551.962	7870.08
552.326	7943.07
552.689	7866.01
553.053	7876.63
553.417	7845.22
553.78	7901.26
554.143	7844.09
554.507	7888.83
554.87	7844.09
555.234	7891.54
555.597	7809.51
555.96	7906.68
556.323	7854.93
556.686	7818.78
557.05	7854.26
557.413	7842.96
557.776	7882.5
558.139	7866.01
558.502	7862.62
558.865	7872.56
559.228	7882.05
559.59	7860.81
559.953	7873.24
560.316	7967.93
560.679	7946.23
561.041	7956.17
561.404	7975.61
561.767	7933.8
562.129	7918.44
562.492	7993.69
562.854	7942.62
563.217	7953.69
563.579	7975.61
563.941	7924.99
564.304	7954.14
564.666	8068.71
565.028	8052.67
565.39	8013.57
565.753	8045.89
566.115	8098.32
566.477	8122.95
566.839	8109.62
567.201	8178.99
567.563	8141.25
567.925	8209.28
568.287	8101.03
568.648	8194.59
569.01	8202.5
569.372	8278.65
569.734	8234.59
570.095	8269.39
570.457	8288.6
570.819	8277.07
571.18	8294.02
571.542	8274.13
571.903	8312.1
572.265	8290.4
572.626	8377.18
572.987	8372.44
573.349	8403.17
573.71	8404.07
574.071	8428.7
574.432	8487.46
574.794	8431.42
575.155	8440.68
575.516	8514.35
575.877	8517.97
576.238	8434.35
576.599	8576.5
576.96	8575.59
577.32	8612.65
577.681	8604.29
578.042	8592.32
578.403	8539.44
578.763	8695.36
579.124	8641.81
579.485	8691.3
579.845	8639.09
580.206	8728.36
580.566	8754.12
580.927	8808.58
581.287	8738.98
581.648	8734.01
582.008	8793.22
582.368	8763.84
582.728	8836.6
583.089	8787.79
583.449	8816.72
583.809	8829.82
584.169	8920.44
584.529	8813.55
584.889	8889.94
585.249	8884.96
585.609	8894.46
585.969	8919.54
586.329	8878.86
586.688	8951.4
587.048	8958.18
587.408	8962.02
587.768	8967.22
588.127	8996.15
588.487	8915.47
588.846	9027.56
589.206	8953.66
589.565	9025.98
589.925	9075.02
590.284	9054.23
590.643	9076.82
591.003	9063.26
591.362	9134.22
591.721	9065.52
592.08	9088.8
592.44	9118.86
592.799	9089.03
593.158	9087.9
593.517	9164.96
593.876	9193.66
594.235	9129.93
594.593	9188.01
594.952	9166.54
595.311	9056.94
595.67	9082.25
596.029	9190.72
596.387	9208.8
596.746	9255.58
597.104	9194.79
597.463	9210.83
597.822	9217.38
598.18	9290.38
598.538	9206.31
598.897	9289.7
599.255	9221.9
599.613	9404.05
599.972	9287.21
600.33	9327.66
600.688	9295.12
601.046	9331.73
601.404	9369.25
601.762	9312.07
602.12	9288.8
602.478	9333.54
602.836	9357.49
603.194	9297.16
603.552	9325.4
603.91	9350.49
604.268	9360.21
604.625	9391.62
604.983	9361.11
605.341	9286.76
605.698	9331.96
606.056	9420.09
606.413	9404.05
606.771	9454.21
607.128	9451.28
607.485	9368.12
607.843	9430.03
608.2	9450.6
608.557	9475.01
608.914	9417.83
609.272	9446.08
609.629	9488.79
609.986	9527.43
610.343	9466.87
610.7	9503.7
611.057	9497.83
611.414	9540.09
611.771	9502.8
612.127	9566.53
612.484	9523.59
612.841	9595.91
613.198	9576.02
613.554	9507.09
613.911	9613.98
614.267	9601.78
614.624	9579.64
614.98	9620.99
615.337	9606.3
615.693	9600.43
616.05	9670.03
616.406	9649.24
616.762	9627.32
617.118	9590.71
617.475	9612.63
617.831	9586.41
618.187	9709.12
618.543	9627.32
618.899	9766.3
619.255	9583.93
619.611	9677.49
619.967	9758.39
620.323	9697.6
620.678	9694.66
621.034	9780.53
621.39	9637.49
621.746	9692.4
622.101	9821.21
622.457	9732.4
622.812	9707.99
623.168	9729.91
623.523	9787.31
623.879	9709.8
624.234	9667.09
624.589	9771.72
624.945	9759.52
625.3	9740.31
625.655	9724.26
626.01	9756.13
626.365	9746.41
626.72	9744.38
627.075	9705.06
627.43	9677.49
627.785	9682.23
628.14	9707.09
628.495	9711.84
628.85	9634.1
629.205	9576.25
629.559	9729.01
629.914	9608.33
630.269	9695.56
630.623	9702.57
630.978	9656.24
631.332	9646.98
631.687	9650.37
632.041	9594.78
632.396	9580.54
632.75	9560.43
633.104	9588.45
633.459	9535.12
633.813	9569.24
634.167	9628.45
634.521	9502.8
634.875	9548.22
635.229	9511.39
635.583	9511.84
635.937	9540.77
636.291	9484.95
636.645	9501.9
636.999	9391.17
637.352	9497.6
637.706	9480.43
638.06	9479.52
638.413	9413.76
638.767	9417.15
639.121	9467.1
639.474	9360.88
639.828	9402.24
640.181	9448.34
640.534	9389.13
640.888	9340.32
641.241	9276.37
641.594	9326.08
641.947	9394.78
642.301	9323.37
642.654	9350.49
643.007	9297.83
643.36	9276.59
643.713	9322.92
644.066	9340.55
644.419	9263.49
644.771	9252.64
645.124	9121.12
645.477	9158.86
645.83	9075.24
646.182	8991.18
646.535	8928.58
646.888	9029.59
647.24	8967.9
647.593	9014.45
647.945	8941.91
648.298	8963.61
648.65	8971.52
649.002	8922.03
649.355	8951.86
649.707	8912.99
650.059	9040.67
650.411	9143.26
650.763	9118.18
651.115	9209.48
651.467	9131.06
651.819	9069.37
652.171	9217.38
652.523	9079.76
652.875	9099.65
653.227	9032.3
653.578	9152.53
653.93	9181
654.282	9124.05
654.633	9050.61
654.985	9157.95
655.337	9119.76
655.688	9118.86
656.039	9171.06
656.391	9089.03
656.742	9103.94
657.094	9145.07
657.445	9134
657.796	9134.9
658.147	9116.82
658.498	9058.74
658.849	9109.59
659.2	9092.64
659.551	9138.74
659.902	9101.46
660.253	9133.55
660.604	9130.16
660.955	9124.05
661.306	9128.35
661.656	9118.86
662.007	9169.02
662.358	9138.06
662.708	9212.87
663.059	9157.5
663.409	9103.04
663.76	9156.37
664.11	9181.23
664.461	9178.52
664.811	9156.14
665.161	9197.27
665.511	9126.31
665.862	9150.27
666.212	9200.89
666.562	9206.09
666.912	9172.87
667.262	9194.33
667.612	9128.8
667.962	9185.52
668.312	9151.4
668.662	9178.52
669.011	9161.57
669.361	9169.93
669.711	9121.79
670.06	9116.37
670.41	9176.26
670.76	9092.42
671.109	9087.44
671.459	9125.64
671.808	9087.9
672.157	9122.92
672.507	9104.17
672.856	9085.64
673.205	9027.79
673.554	9115.69
673.904	9075.47
674.253	9083.38
674.602	9072.3
674.951	8900.78
675.3	8969.26
675.649	9022.59
675.998	9032.98
676.346	8993.21
676.695	9056.94
677.044	8929.93
677.393	9025.53
677.741	8987.79
678.09	8997.28
678.438	8992.31
678.787	8976.49
679.135	8941.23
679.484	8893.78
679.832	8957.28
680.181	8962.7
680.529	8990.05
680.877	8865.53
681.225	8876.38
681.573	8943.27
681.922	8810.16
682.27	8756.38
682.618	8823.95
682.966	8762.03
683.314	8816.49
683.661	8825.3
684.009	8718.87
684.357	8712.99
684.705	8713.44
685.053	8668.47
685.4	8637.51
685.748	8617.17
686.095	8644.97
686.443	8626.21
686.79	8618.98
687.138	8583.28
687.485	8559.1
687.832	8517.97
688.18	8541.24
688.527	8503.73
688.874	8522.26
689.221	8460.12
689.568	8449.72
689.915	8396.39
690.262	8419.21
690.609	8299.22
690.956	8347.35
691.303	8329.72
691.65	8273.45
691.997	8233.46
692.344	8219.67
692.69	8221.48
693.037	8172.44
693.383	8197.3
693.73	8168.37
694.077	8161.59
694.423	8093.8
694.769	8056.51
695.116	8089.96
695.462	8013.12
695.808	7947.36
696.155	7910.53
696.501	7937.19
696.847	7896.52
697.193	7866.23
697.539	7911.88
697.885	7819.68
698.231	7845.22
698.577	7817.87
698.923	7779.68
699.269	7717.31
699.614	7656.3
699.96	7641.16
700.306	7641.83
700.651	7645.45
700.997	7625.34
701.342	7543.53
701.688	7529.29
702.033	7549.63
702.379	7487.03
702.724	7456.3
703.069	7525.9
703.415	7383.53
703.76	7367.49
704.105	7370.2
704.45	7337.43
704.795	7296.08
705.14	7308.28
705.485	7284.33
705.83	7271.45
706.175	7258.57
706.52	7285.46
706.865	7217.44
707.209	7200.94
707.554	7183.77
707.899	7173.14
708.243	7178.12
708.588	7145.57
708.932	7059.48
709.277	7031.68
709.621	7066.25
709.966	7032.13
710.31	7002.98
710.654	6934.73
710.998	6981.51
711.342	6931.12
711.687	6969.53
712.031	6878.92
712.375	6863.55
712.719	6902.42
713.063	6870.55
713.407	6911.23
713.75	6923.66
714.094	6839.82
714.438	6819.03
714.782	6904.45
715.125	6791.69
715.469	6844.11
715.812	6723.67
716.156	6753.49
716.499	6715.53
716.843	6688.64
717.186	6732.7
717.53	6717.34
717.873	6680.28
718.216	6744.23
718.559	6697.23
718.902	6614.97
719.246	6654.74
719.589	6641.18
719.932	6615.65
720.275	6648.64
720.617	6611.58
720.96	6580.39
721.303	6573.84
721.646	6594.18
721.989	6575.65
722.331	6584.91
722.674	6565.93
723.016	6536.55
723.359	6542.2
723.701	6544.23
724.044	6537
724.386	6508.08
724.729	6547.62
725.071	6520.96
725.413	6507.17
725.755	6485.48
726.097	6503.56
726.439	6417.23
726.782	6482.54
727.124	6502.43
727.465	6433.96
727.807	6487.74
728.149	6437.12
728.491	6442.32
728.833	6470.11
729.175	6455.2
729.516	6405.48
729.858	6449.32
730.199	6461.07
730.541	6388.31
730.882	6414.52
731.224	6485.71
731.565	6355.99
731.906	6419.49
732.248	6452.03
732.589	6380.62
732.93	6372.26
733.271	6374.3
733.612	6390.57
733.953	6387.18
734.294	6403.67
734.635	6353.96
734.976	6382.21
735.317	6388.76
735.658	6392.37
735.999	6385.59
736.339	6343.34
736.68	6403.9
737.021	6369.32
737.361	6386.27
737.702	6450.9
738.042	6440.96
738.383	6421.07
738.723	6445.25
739.063	6388.31
739.404	6437.8
739.744	6445.25
740.084	6467.85
740.424	6434.41
740.764	6454.52
741.104	6432.37
741.444	6441.86
741.784	6453.62
742.124	6489.32
742.464	6504.69
742.804	6523.22
743.143	6508.3
743.483	6455.65
743.823	6513.5
744.162	6515.76
744.502	6604.57
744.841	6566.61
745.181	6667.85
745.52	6633.27
745.86	6680.5
746.199	6684.8
746.538	6716.43
746.877	6811.57
747.216	6820.61
747.556	6817.45
747.895	6922.98
748.234	6859.71
748.573	6881.4
748.911	6946.03
749.25	7008.18
749.589	7002.75
749.928	7054.28
750.267	7161.39
750.605	7226.93
750.944	7229.41
751.283	7301.73
751.621	7347.38
751.96	7389.41
752.298	7406.13
752.636	7548.05
752.975	7563.87
753.313	7656.3
753.651	7786.69
753.989	7781.49
754.327	7866.91
754.666	7929.96
755.004	8014.48
755.342	8176.28
755.679	8235.04
756.017	8308.71
756.355	8399.78
756.693	8484.07
757.031	8630.06
757.368	8710.05
757.706	8759.54
758.044	8824.63
758.381	9074.79
758.719	9100.55
759.056	9262.81
759.394	9336.25
759.731	9376.02
760.068	9576.7
760.405	9638.16
760.743	9679.52
761.08	9865.05
761.417	9982.79
761.754	10066.63
762.091	10169.68
762.428	10253.97
762.765	10349.33
763.102	10495.54
763.438	10593.17
763.775	10708.19
764.112	10809.66
764.449	10952.48
764.785	11043.55
765.122	11128.07
765.458	11257.33
765.795	11329.87
766.131	11395.18
766.467	11506.36
766.804	11575.97
767.14	11644.21
767.476	11808.73
767.812	11847.37
768.148	11922.17
768.485	12067.48
768.821	12156.29
769.157	12221.83
769.492	12338.21
769.828	12387.47
770.164	12370.07
770.5	12470.18
770.836	12505.21
771.171	12531.65
771.507	12675.82
771.842	12616.62
772.178	12792.43
772.513	12720.8
772.849	12785.43
773.184	12888.93
773.519	12892.77
773.855	12982.26
774.19	13000.56
774.525	13030.62
774.86	13182.03
775.195	13068.81
775.53	13174.79
775.865	13148.81
776.2	13109.03
776.535	13102.48
776.87	13146.32
777.205	13178.18
777.539	13137.28
777.874	13280.1
778.209	13228.35
778.543	13189.94
778.878	13216.83
779.212	13233.78
779.547	13131.86
779.881	13288.92
780.215	13248.24
780.55	13260.89
780.884	13240.1
781.218	13168.24
781.552	13331.17
781.886	13226.77
782.22	13252.53
782.554	13214.12
782.888	13136.38
783.222	13163.27
783.556	13121.46
783.889	13155.81
784.223	13095.47
784.557	13072.2
784.89	13123.27
785.224	13046.89
785.557	13030.17
785.891	13076.49
786.224	13037.85
786.558	13176.6
786.891	12936.38
787.224	13035.82
787.557	12928.02
787.891	12914.24
788.224	12931.19
788.557	13015.7
788.89	12973.9
789.223	12923.73
789.556	12885.31
789.888	12808.25
790.221	12800.12
790.554	12751.08
790.887	12820
791.219	12754.47
791.552	12756.73
791.884	12639.22
792.217	12574.13
792.549	12656.62
792.882	12512.67
793.214	12538.65
793.546	12578.2
793.879	12495.49
794.211	12446.23
794.543	12584.3
794.875	12517.64
795.207	12503.63
795.539	12360.58
795.871	12476.51
796.203	12299.79
796.535	12256.63
796.867	12226.8
797.198	12183.86
797.53	12289.17
797.862	12177.31
798.193	12214.82
798.525	12081.49
798.856	12124.2
799.188	11994.71
799.519	11975.73
799.85	11913.13
800.182	11930.08
800.513	11903.19
800.844	11920.36
801.175	11919.23
801.506	11880.59
801.837	11860.71
802.168	11795.4
802.499	11877.65
802.83	11716.3
803.161	11742.52
803.491	11757.43
803.822	11680.6
804.153	11660.03
804.483	11588.62
804.814	11559.92
805.145	11552.46
805.475	11586.81
805.805	11548.4
806.136	11434.5
806.466	11439.25
806.796	11532.35
807.126	11306.82
807.457	11388.63
807.787	11372.13
808.117	11324.9
808.447	11283.32
808.777	11309.99
809.107	11261.62
809.436	11224.11
809.766	11255.07
810.096	11199.93
810.426	11092.14
810.755	11138.24
811.085	11170.78
811.414	11145.24
811.744	11021.41
812.073	10986.83
812.403	11058.69
812.732	10965.14
813.061	10978.02
813.39	10942.54
813.719	10898.92
814.049	10965.81
814.378	10910.67
814.707	10825.03
815.036	10885.82
815.365	10770.79
815.693	10724.24
816.022	10734.86
816.351	10794.74
816.68	10712.49
817.008	10718.59
817.337	10649.89
817.665	10605.82
817.994	10628.2
818.322	10639.95
818.651	10590.68
818.979	10557.24
819.307	10599.04
819.636	10547.29
819.964	10454.64
820.292	10536.45
820.62	10543.45
820.948	10530.12
821.276	10514.53
821.604	10462.32
821.932	10484.92
822.259	10482.44
822.587	10456
822.915	10456.67
823.243	10468.88
823.57	10457.58
823.898	10440.4
824.225	10405.6
824.553	10467.3
824.88	10456.67
825.207	10467.52
825.535	10445.83
825.862	10457.8
826.189	10403.79
826.516	10494.41
826.843	10519.5
827.17	10434.53
827.497	10523.34
827.824	10488.99
828.151	10473.4
828.478	10506.16
828.805	10539.16
829.131	10481.08
829.458	10481.98
829.785	10432.72
830.111	10541.42
830.438	10480.18
830.764	10489.44
831.09	10425.04
831.417	10417.81
831.743	10494.41
832.069	10450.8
832.395	10406.96
832.722	10461.42
833.048	10400.4
833.374	10446.73
833.7	10404.02
834.026	10387.3
834.351	10385.26
834.677	10403.79
835.003	10415.32
835.329	10329.22
835.654	10361.31
835.98	10314.31
836.306	10346.85
836.631	10263.46
836.956	10371.48
837.282	10335.32
837.607	10253.74
837.932	10172.16
838.258	10236.79
838.583	10212.61
838.908	10163.35
839.233	10136.23
839.558	10096.91
839.883	10098.72
840.208	10141.88
840.533	10109.11
840.858	10155.67
841.182	10096.46
841.507	10126.74
841.832	10027.53
842.156	10011.94
842.481	9954.09
842.805	9992.96
843.13	9911.83
843.454	9899.85
843.778	9927.2
844.103	9900.98
844.427	9896.91
844.751	9993.64
845.075	9907.99
845.399	9860.98
845.723	9762.91
846.047	9765.39
846.371	9700.31
846.695	9695.11
847.019	9696.47
847.343	9627.54
847.666	9591.61
847.99	9549.58
848.313	9580.09
848.637	9515.23
848.96	9411.05
849.284	9451.5
849.607	9410.37
849.931	9353.65
850.254	9287.21
850.577	9254.45
850.9	9142.13
851.223	9199.76
851.546	9142.13
851.869	9049.71
852.192	9082.93
852.515	9028.24
852.838	8986.66
853.161	9041.34
853.483	8984.4
853.806	8926.32
854.129	8896.72
854.451	8794.35
854.774	8825.98
855.096	8774.46
855.419	8778.98
855.741	8802.93
856.063	8750.28
856.385	8722.71
856.708	8616.72
857.03	8594.58
857.352	8623.28
857.674	8560.23
857.996	8567.91
858.318	8491.3
858.64	8558.65
858.961	8476.39
859.283	8511.19
859.605	8436.39
859.926	8491.75
860.248	8411.53
860.57	8366.33
860.891	8359.78
861.212	8326.56
861.534	8311.42
861.855	8271.87
862.176	8324.07
862.498	8249.27
862.819	8287.69
863.14	8271.19
863.461	8233.23
863.782	8224.87
864.103	8258.99
864.424	8214.02
864.745	8249.73
865.065	8176.51
865.386	8162.95
865.707	8117.98
866.027	8124.76
866.348	8080.69
866.668	8101.26
866.989	8037.3
867.309	8042.95
867.63	8070.3
867.95	8058.09
868.27	8011.99
868.59	7972.9
868.91	7978.32
869.23	7952.56
869.55	7965.21
869.87	7935.61
870.19	7945.1
870.51	7905.55
870.83	7949.17
871.15	7885.44
871.469	7879.34
871.789	7898.1
872.109	7893.35
872.428	7844.77
872.748	7849.06
873.067	7807.03
873.386	7818.1
873.706	7772
874.025	7749.17
874.344	7716.63
874.663	7819.68
874.982	7772.9
875.301	7799.79
875.62	7785.33
875.939	7730.19
876.258	7688.61
876.577	7688.84
876.896	7657.43
877.214	7633.02
877.533	7699.68
877.852	7640.48
878.17	7635.51
878.489	7651.32
878.807	7615.62
879.125	7609.07
879.444	7651.55
879.762	7540.37
880.08	7588.05
880.398	7572.68
880.716	7553.47
881.034	7516.19
881.352	7529.97
881.67	7502.4
881.988	7562.51
882.306	7520.25
882.624	7503.98
882.941	7419.69
883.259	7447.04
883.577	7390.77
883.894	7417.21
884.212	7372.91
884.529	7359.81
884.846	7390.31
885.164	7339.69
885.481	7299.7
885.798	7287.04
886.115	7285.91
886.432	7211.79
886.75	7285.91
887.067	7234.84
887.383	7238.45
887.7	7250.88
888.017	7231.45
888.334	7212.24
888.651	7158.23
888.967	7142.64
889.284	7092.47
889.6	7092.47
889.917	7061.51
890.233	7018.57
890.55	6994.84
890.866	7034.62
891.182	7028.97
891.498	6953.72
891.815	6934.73
892.131	6959.14
892.447	6927.73
892.763	6858.35
893.079	6793.95
893.395	6841.63
893.71	6790.56
894.026	6799.82
894.342	6826.04
894.657	6706.04
894.973	6743.55
895.289	6732.48
895.604	6718.47
895.92	6657.23
896.235	6599.6
896.55	6616.1
896.865	6559.6
897.181	6555.99
897.496	6605.02
897.811	6560.05
898.126	6491.13
898.441	6455.88
898.756	6459.04
899.071	6442.09
899.386	6451.58
899.7	6370.91
900.015	6356.22
900.33	6311.02
900.644	6336.1
900.959	6323
901.273	6296.56
901.588	6265.15
901.902	6248.2
902.216	6277.8
902.531	6223.34
902.845	6185.6
903.159	6172.04
903.473	6130.69
903.787	6139.5
904.101	6081.87
904.415	6051.14
904.729	6082.55
905.042	6005.49
905.356	6009.33
905.67	6001.42
905.984	6024.93
906.297	5981.54
906.611	5951.48
906.924	5917.13
907.237	5932.05
907.551	5860.64
907.864	5858.6
908.177	5803.69
908.491	5829
908.804	5748.78
909.117	5684.14
909.43	5702.22
909.743	5655.67
910.056	5663.13
910.368	5635.56
910.681	5611.6
910.994	5564.83
911.307	5573.19
911.619	5544.71
911.932	5534.77
912.244	5509.69
912.557	5473.53
912.869	5472.85
913.181	5415.22
913.494	5453.64
913.806	5386.3
914.118	5388.56
914.43	5360.31
914.742	5320.76
915.054	5330.48
915.366	5293.42
915.678	5288
915.99	5273.76
916.302	5276.02
916.613	5211.61
916.925	5263.82
917.236	5201.45
917.548	5184.27
917.859	5173.42
918.171	5117.61
918.482	5087.78
918.794	5114.22
919.105	5074.89
919.416	5013.88
919.727	5005.97
920.038	5015.01
920.349	5006.87
920.66	4985.41
920.971	4986.08
921.282	4978.17
921.593	4934.56
921.903	4840.78
922.214	4885.3
922.525	4870.15
922.835	4847.56
923.146	4797.39
923.456	4775.92
923.767	4751.51
924.077	4759.65
924.387	4747.67
924.697	4754.23
925.008	4725.53
925.318	4680.33
925.628	4689.59
925.938	4631.06
926.248	4617.51
926.558	4616.6
926.867	4600.78
927.177	4563.72
927.487	4508.13
927.796	4507
928.106	4540.22
928.416	4487.79
928.725	4542.03
929.034	4441.24
929.344	4430.84
929.653	4434.69
929.962	4402.37
930.271	4383.39
930.581	4364.86
930.89	4373.9
931.199	4283.96
931.508	4307.23
931.817	4309.27
932.125	4285.54
932.434	4332.99
932.743	4255.26
933.051	4200.12
933.36	4236.5
933.669	4177.97
933.977	4185.65
934.286	4171.19
934.594	4141.13
934.902	4098.42
935.21	4108.37
935.519	4105.88
935.827	4114.24
936.135	4102.94
936.443	4052.1
936.751	3995.83
937.059	4039.67
937.367	4006.45
937.674	3999.89
937.982	3977.75
938.29	3935.04
938.597	3947.92
938.905	3902.5
939.213	3888.26
939.52	3901.14
939.827	3918.09
940.135	3848.26
940.442	3843.06
940.749	3805.1
941.056	3799.9
941.363	3761.03
941.67	3790.18
941.977	3727.81
942.284	3730.98
942.591	3718.32
942.898	3670.41
943.205	3690.3
943.511	3653.24
943.818	3671.77
944.125	3688.04
944.431	3695.72
944.738	3640.58
945.044	3571.43
945.35	3587.7
945.657	3606.01
945.963	3585.22
946.269	3553.58
946.575	3546.8
946.881	3493.92
947.187	3535.05
947.493	3500.92
947.799	3502.73
948.105	3453.69
948.41	3443.07
948.716	3477.2
949.022	3420.25
949.327	3430.42
949.633	3372.57
949.938	3383.41
950.244	3368.95
950.549	3348.16
950.854	3315.17
951.16	3333.7
951.465	3293.02
951.77	3305.22
952.075	3285.79
952.38	3251.67
952.685	3240.37
952.99	3210.99
953.294	3234.27
953.599	3213.47
953.904	3181.84
954.209	3192.91
954.513	3196.07
954.818	3173.7
955.122	3168.73
955.426	3107.04
955.731	3126.25
956.035	3096.87
956.339	3108.84
956.643	3079.92
956.948	3088.28
957.252	3057.55
957.556	3056.64
957.86	3033.14
958.163	3000.15
958.467	2999.24
958.771	3002.41
959.075	3002.63
959.378	2988.17
959.682	2961.5
959.985	2932.13
960.289	2956.08
960.592	2893.26
960.896	2917.66
961.199	2908.62
961.502	2878.12
961.805	2855.74
962.108	2857.33
962.411	2836.08
962.714	2822.98
963.017	2818.91
963.32	2824.11
963.623	2800.83
963.926	2771.23
964.228	2802.86
964.531	2764.67
964.833	2750.21
965.136	2708.18
965.438	2735.3
965.741	2740.94
966.043	2690.78
966.345	2696.65
966.648	2696.43
966.95	2666.14
967.252	2697.78
967.554	2684.68
967.856	2641.74
968.158	2622.08
968.46	2672.02
968.761	2589.54
969.063	2597.45
969.365	2617.56
969.666	2579.82
969.968	2548.41
970.269	2587.05
970.571	2528.52
970.872	2546.37
971.174	2498.47
971.475	2507.73
971.776	2513.15
972.077	2493.95
972.378	2496.43
972.679	2476.55
972.98	2475.64
973.281	2422.76
973.582	2432.25
973.883	2443.1
974.183	2436.55
974.484	2412.59
974.785	2384.8
975.085	2407.62
975.386	2388.86
975.686	2382.99
975.986	2349.54
976.287	2353.16
976.587	2347.73
976.887	2361.75
977.187	2310.67
977.487	2313.84
977.787	2293.27
978.087	2286.04
978.387	2295.76
978.687	2290.11
978.987	2275.19
979.286	2273.84
979.586	2219.38
979.885	2250.79
980.185	2232.26
980.484	2257.12
980.784	2188.64
981.083	2214.86
981.382	2186.16
981.682	2190.68
981.981	2191.35
982.28	2171.69
982.579	2142.54
982.878	2166.27
983.177	2145.03
983.475	2147.29
983.774	2108.42
984.073	2120.17
984.372	2119.04
984.67	2110.45
984.969	2092.15
985.267	2108.87
985.566	2091.7
985.864	2080.62
986.162	2057.57
986.461	2056.9
986.759	2014.86
987.057	2025.03
987.355	2000.63
987.653	2001.08
987.951	1995.43
988.249	2013.28
988.547	1985.94
988.844	1977.35
989.142	1972.15
989.44	1965.82
989.737	1971.93
990.035	1937.35
990.332	1944.81
990.63	1900.52
990.927	1907.52
991.224	1926.05
991.521	1882.89
991.819	1906.62
992.116	1858.71
992.413	1872.27
992.71	1865.49
993.006	1859.39
993.303	1846.51
993.6	1842.66
993.897	1825.26
994.193	1827.52
994.49	1823.45
994.787	1775.77
995.083	1792.72
995.379	1770.8
995.676	1781.2
995.972	1788.2
996.268	1782.55
996.565	1754.08
996.861	1737.58
997.157	1778.94
997.453	1743.68
997.749	1714.98
998.044	1703.46
998.34	1696.23
998.636	1720.63
998.932	1692.84
999.227	1674.98
999.523	1686.96
999.818	1673.63
1000.114	1640.41
1000.409	1622.78
1000.704	1651.48
1001	1634.53
1001.295	1620.52
1001.59	1628.43
1001.885	1627.3
1002.18	1594.99
1002.475	1582.78
1002.77	1590.47
1003.065	1576.91
1003.359	1576.91
1003.654	1551.6
1003.949	1554.76
1004.243	1550.69
1004.538	1551.15
1004.832	1535.78
1005.127	1489.9
1005.421	1517.02
1005.715	1500.98
1006.009	1530.58
1006.304	1489.9
1006.598	1494.88
1006.892	1463.01
1007.186	1444.93
1007.48	1464.82
1007.773	1444.48
1008.067	1458.49
1008.361	1449
1008.655	1414.43
1008.948	1403.8
1009.242	1428.44
1009.535	1400.19
1009.829	1420.98
1010.122	1379.85
1010.415	1384.37
1010.708	1364.48
1011.001	1345.5
1011.295	1347.31
1011.588	1339.85
1011.881	1345.73
1012.173	1320.19
1012.466	1342.34
1012.759	1304.37
1013.052	1323.58
1013.344	1327.2
1013.637	1309.12
1013.93	1293.3
1014.222	1284.94
1014.514	1318.84
1014.807	1284.94
1015.099	1286.52
1015.391	1255.11
1015.683	1263.02
1015.976	1268.44
1016.268	1222.11
1016.56	1215.56
1016.851	1208.56
1017.143	1223.92
1017.435	1222.11
1017.727	1208.1
1018.018	1188.9
1018.31	1202.91
1018.602	1190.03
1018.893	1158.16
1019.185	1195.22
1019.476	1159.97
1019.767	1161.78
1020.058	1180.31
1020.35	1157.03
1020.641	1156.81
1020.932	1119.29
1021.223	1132.85
1021.514	1116.13
1021.804	1105.51
1022.095	1083.59
1022.386	1110.03
1022.677	1096.47
1022.967	1086.07
1023.258	1072.74
1023.548	1085.17
1023.839	1061.44
1024.129	1079.75
1024.419	1069.12
1024.709	1048.79
1025	1013.31
1025.29	1026.41
1025.58	1026.87
1025.87	1027.54
1026.16	1006.98
1026.449	1030.48
1026.739	1013.53
1027.029	1009.24
1027.319	999.75
1027.608	980.99
1027.898	949.13
1028.187	1003.14
1028.477	974.44
1028.766	967.43
1029.055	969.01
1029.344	966.08
1029.634	955.23
1029.923	946.42
1030.212	946.19
1030.501	920.88
1030.79	946.64
1031.078	917.04
1031.367	894.89
1031.656	915
1031.945	917.72
1032.233	899.64
1032.522	890.37
1032.81	886.76
1033.099	877.27
1033.387	878.62
1033.675	876.81
1033.963	874.55
1034.251	871.84
1034.54	846.76
1034.828	860.77
1035.116	882.91
1035.403	847.21
1035.691	829.58
1035.979	836.14
1036.267	816.7
1036.554	827.1
1036.842	824.84
1037.129	816.93
1037.417	822.8
1037.704	798.4
1037.992	809.47
1038.279	812.41
1038.566	797.49
1038.853	797.49
1039.14	797.49
