Data from hue_80_FLMS001491_15.txt Node
Date: Mon Feb 06 15:22:33 GMT 2017
User: dcchb
Spectrometer: FLMS00149
Trigger mode: 0
Integration Time (sec): 2.000000E-2
Scans to average: 10
Electric dark correction enabled: true
Nonlinearity correction enabled: false
Boxcar width: 0
XAxis mode: Wavelengths
Number of Pixels in Spectrum: 2048
>>>>>Begin Spectral Data<<<<<
341.393	0.06
341.776	0.06
342.16	0.06
342.543	-56.44
342.927	-50.56
343.31	-77
343.693	-67.51
344.077	-74.97
344.46	-58.47
344.843	-51.24
345.226	-34.52
345.61	-14.86
345.993	-5.59
346.376	-12.37
346.759	14.29
347.142	23.78
347.525	45.03
347.908	31.92
348.291	81.41
348.674	106.49
349.057	93.61
349.44	141.3
349.823	140.17
350.206	146.72
350.588	198.7
350.971	195.08
351.354	235.3
351.737	253.84
352.119	249.09
352.502	280.5
352.884	270.56
353.267	286.83
353.65	290.67
354.032	300.16
354.414	313.95
354.797	307.62
355.179	321.4
355.562	317.11
355.944	331.57
356.326	340.16
356.709	315.53
357.091	328.41
357.473	332.7
357.855	326.38
358.238	338.58
358.62	345.36
359.002	342.87
359.384	337.22
359.766	332.03
360.148	334.74
360.53	339.48
360.912	317.56
361.294	353.72
361.676	328.18
362.057	317.79
362.439	334.51
362.821	327.05
363.203	329.54
363.584	315.75
363.966	340.16
364.348	337.9
364.729	318.24
365.111	313.72
365.493	318.01
365.874	326.83
366.256	332.48
366.637	329.54
367.019	331.12
367.4	310.1
367.781	306.72
368.163	302.87
368.544	302.2
368.925	328.41
369.306	318.01
369.688	336.09
370.069	324.34
370.45	311.46
370.831	312.82
371.212	308.3
371.593	316.21
371.974	306.94
372.355	312.59
372.736	310.1
373.117	305.59
373.498	318.24
373.879	297.22
374.26	302.65
374.641	305.59
375.021	313.27
375.402	329.09
375.783	313.27
376.163	335.87
376.544	334.96
376.925	316.43
377.305	317.11
377.686	338.58
378.066	327.05
378.447	350.56
378.827	348.52
379.208	315.98
379.588	330.9
379.968	334.51
380.349	339.26
380.729	326.83
381.109	327.28
381.489	337
381.87	332.25
382.25	333.16
382.63	345.36
383.01	350.1
383.39	346.71
383.77	364.79
384.15	332.93
384.53	351.01
384.91	332.93
385.29	352.36
385.67	336.32
386.049	346.04
386.429	359.37
386.809	345.58
387.189	341.52
387.568	336.77
387.948	364.79
388.328	363.66
388.707	364.79
389.087	361.4
389.466	368.63
389.846	356.43
390.225	366.83
390.605	362.76
390.984	380.16
391.363	363.89
391.743	364.11
392.122	354.62
392.501	371.35
392.881	392.81
393.26	369.31
393.639	364.11
394.018	377
394.397	368.18
394.776	352.59
395.155	375.64
395.534	363.66
395.913	382.65
396.292	367.5
396.671	380.84
397.05	384.45
397.429	387.84
397.808	409.76
398.186	375.64
398.565	383.1
398.944	373.15
399.323	365.24
399.701	402.31
400.08	388.52
400.458	381.97
400.837	391.46
401.215	381.97
401.594	395.98
401.972	397.11
402.351	393.49
402.729	410.44
403.107	393.72
403.486	416.09
403.864	409.31
404.242	401.85
404.62	398.46
404.999	413.83
405.377	415.19
405.755	414.73
406.133	402.08
406.511	401.4
406.889	416.77
407.267	426.03
407.645	427.39
408.023	442.08
408.401	431.91
408.779	433.27
409.156	424.23
409.534	438.01
409.912	453.6
410.29	459.71
410.667	418.12
411.045	448.63
411.422	431.68
411.8	441.4
412.178	464.68
412.555	449.54
412.933	439.14
413.31	464.9
413.687	471
414.065	453.15
414.442	478.46
414.819	475.98
415.197	481.85
415.574	465.81
415.951	477.78
416.328	482.08
416.705	458.58
417.082	489.76
417.46	503.55
417.837	492.25
418.214	495.18
418.591	503.55
418.967	459.93
419.344	527.27
419.721	496.99
420.098	514.85
420.475	483.66
420.852	500.38
421.228	491.12
421.605	522.98
421.982	546.03
422.358	530.44
422.735	529.53
423.111	526.37
423.488	523.88
423.864	536.31
424.241	543.09
424.617	545.13
424.994	538.12
425.37	542.87
425.746	549.65
426.123	554.62
426.499	572.92
426.875	577.89
427.251	579.02
427.627	567.5
428.003	582.19
428.379	569.53
428.756	557.78
429.132	582.64
429.507	569.99
429.883	592.36
430.259	583.77
430.635	611.79
431.011	612.47
431.387	597.55
431.763	607.5
432.138	619.02
432.514	643.43
432.89	629.87
433.265	632.13
433.641	648.63
434.016	649.76
434.392	665.8
434.767	642.75
435.143	666.71
435.518	642.07
435.894	650.66
436.269	648.63
436.644	684.11
437.02	654.05
437.395	689.53
437.77	703.09
438.145	692.02
438.52	681.17
438.895	704.67
439.271	710.09
439.646	730.88
440.021	711.9
440.395	718.68
440.77	718.68
441.145	750.32
441.52	752.35
441.895	716.87
442.27	721.17
442.645	749.42
443.019	772.69
443.394	749.42
443.769	760.26
444.143	760.26
444.518	781.28
444.892	758.23
445.267	758.45
445.641	771.56
446.016	805.69
446.39	772.69
446.764	761.62
447.139	775.63
447.513	790.32
447.887	801.62
448.262	819.24
448.636	807.49
449.01	830.09
449.384	825.12
449.758	837.1
450.132	850.88
450.506	847.94
450.88	816.76
451.254	842.07
451.628	855.18
452.002	869.41
452.376	882.75
452.75	858.79
453.123	876.87
453.497	882.52
453.871	900.82
454.244	950.31
454.618	921.61
454.992	914.61
455.365	946.92
455.739	924.1
456.112	940.14
456.486	977.66
456.859	991.89
457.232	990.54
457.606	999.58
457.979	1021.5
458.352	1007.26
458.725	1023.76
459.099	1047.94
459.472	1032.8
459.845	1064.66
460.218	1067.6
460.591	1092.68
460.964	1090.42
461.337	1104.21
461.71	1115.96
462.083	1141.04
462.456	1135.39
462.829	1153.02
463.201	1166.58
463.574	1162.51
463.947	1186.01
464.32	1182.4
464.692	1200.25
465.065	1214.26
465.438	1241.61
465.81	1263.3
466.183	1261.49
466.555	1315.95
466.928	1297.65
467.3	1316.18
467.672	1324.32
468.045	1380.81
468.417	1400.25
468.789	1407.93
469.161	1440.24
469.534	1444.31
469.906	1488.83
470.278	1465.1
470.65	1505.78
471.022	1553.69
471.394	1574.25
471.766	1611.99
472.138	1625.55
472.51	1666.68
472.882	1716.17
473.253	1725.66
473.625	1803.17
473.997	1815.15
474.369	1821.48
474.74	1891.08
475.112	1954.13
475.484	1961.36
475.855	2038.87
476.227	2060.34
476.598	2119.1
476.97	2133.56
477.341	2232.31
477.713	2260.34
478.084	2308.47
478.455	2386.66
478.827	2411.97
479.198	2522.48
479.569	2516.6
479.94	2609.48
480.311	2670.04
480.682	2778.74
481.053	2854.22
481.424	2956.81
481.795	3018.51
482.166	3076.36
482.537	3121.1
482.908	3262.8
483.279	3312.06
483.65	3457.14
484.021	3513.41
484.391	3639.06
484.762	3733.52
485.133	3773.97
485.503	3867.07
485.874	3993.17
486.244	4112.26
486.615	4269.32
486.985	4342.54
487.356	4468.19
487.726	4532.82
488.097	4681.74
488.467	4769.65
488.837	4908.63
489.207	5070.21
489.578	5147.94
489.948	5274.49
490.318	5476.07
490.688	5517.65
491.058	5642.85
491.428	5768.94
491.798	5864.76
492.168	6076.28
492.538	6189.72
492.908	6318.99
493.278	6461.36
493.648	6533.67
494.017	6723.95
494.387	6813.89
494.757	6943.83
495.126	7085.75
495.496	7176.82
495.866	7313.54
496.235	7500.88
496.605	7585.62
496.974	7705.16
497.344	7880.53
497.713	7990.58
498.082	7998.04
498.452	8234.19
498.821	8325.94
499.19	8458.37
499.559	8576.78
499.928	8709.21
500.298	8819.94
500.667	8896.77
501.036	8954.17
501.405	9103.32
501.774	9159.82
502.143	9286.37
502.512	9440.03
502.88	9554.61
503.249	9574.95
503.618	9719.35
503.987	9776.3
504.356	9952.34
504.724	10045.89
505.093	10149.85
505.462	10205.66
505.83	10338.99
506.199	10421.25
506.567	10595.94
506.936	10621.92
507.304	10766.78
507.672	10833.9
508.041	10932.88
508.409	11073.89
508.777	11127.22
509.145	11183.27
509.514	11217.16
509.882	11345.07
510.25	11364.05
510.618	11488.34
510.986	11559.53
511.354	11706.87
511.722	11783.02
512.09	11882.23
512.458	11864.38
512.826	12043.13
513.193	12041.77
513.561	12169.23
513.929	12155.22
514.297	12359.51
514.664	12362.67
515.032	12471.37
515.4	12524.47
515.767	12528.99
516.135	12678.37
516.502	12593.62
516.869	12828.87
517.237	12874.07
517.604	12827.97
517.972	13006.49
518.339	13119.03
518.706	13104.12
519.073	13157.68
519.44	13272.93
519.808	13292.59
520.175	13298.01
520.542	13450.1
520.909	13578.91
521.276	13546.14
521.643	13644.44
522.009	13670.88
522.376	13827.72
522.743	13794.72
523.11	13977.09
523.477	14011.67
523.843	14021.16
524.21	14229.51
524.577	14245.78
524.943	14308.38
525.31	14288.72
525.676	14391.09
526.043	14501.14
526.409	14540.92
526.776	14668.82
527.142	14599.45
527.508	14677.18
527.874	14766.45
528.241	14820.01
528.607	14756.05
528.973	14898.65
529.339	14805.77
529.705	14955.82
530.071	15083.5
530.437	15062.49
530.803	15166.21
531.169	15158.53
531.535	15169.6
531.901	15151.07
532.267	15136.83
532.632	15259.09
532.998	15262.48
533.364	15337.73
533.73	15314.91
534.095	15420.67
534.461	15398.3
534.826	15454.57
535.192	15446.43
535.557	15514.22
535.923	15519.87
536.288	15462.93
536.653	15542.7
537.019	15422.48
537.384	15473.1
537.749	15586.31
538.114	15528.91
538.479	15451.63
538.845	15535.02
539.21	15497.28
539.575	15428.13
539.94	15536.82
540.305	15541.57
540.67	15491.4
541.034	15538.18
541.399	15484.85
541.764	15541.34
542.129	15505.41
542.494	15535.69
542.858	15554.22
543.223	15473.77
543.587	15511.51
543.952	15482.14
544.316	15502.02
544.681	15474.23
545.045	15475.36
545.41	15540.44
545.774	15515.58
546.138	15531.4
546.503	15609.14
546.867	15491.63
547.231	15540.21
547.595	15484.17
547.959	15523.94
548.324	15454.79
548.688	15471.51
549.052	15444.4
549.416	15474.45
549.779	15419.76
550.143	15495.24
550.507	15521.46
550.871	15477.16
551.235	15425.87
551.599	15488.46
551.962	15521.91
552.326	15443.72
552.689	15590.61
553.053	15426.77
553.417	15411.85
553.78	15564.39
554.143	15456.6
554.507	15518.52
554.87	15538.86
555.234	15566.65
555.597	15452.76
555.96	15464.06
556.323	15457.05
556.686	15572.3
557.05	15567.78
557.413	15543.15
557.776	15532.3
558.139	15740.21
558.502	15689.81
558.865	15695.69
559.228	15728.91
559.59	15690.27
559.953	15787.44
560.316	15803.48
560.679	15781.56
561.041	15826.08
561.404	15889.36
561.767	15941.11
562.129	15727.78
562.492	16003.03
562.854	15931.84
563.217	15909.24
563.579	15925.51
563.941	16009.58
564.304	15986.53
564.666	16140.2
565.028	16027.21
565.39	16118.5
565.753	16196.69
566.115	16164.6
566.477	16155.56
566.839	16175.45
567.201	16286.86
567.563	16257.03
567.925	16293.64
568.287	16304.03
568.648	16364.6
569.01	16509
569.372	16513.29
569.734	16335.22
570.095	16554.65
570.457	16533.41
570.819	16594.87
571.18	16589.45
571.542	16659.05
571.903	16671.03
572.265	16648.88
572.626	16719.39
572.987	16777.24
573.349	16753.74
573.71	16756.9
574.071	16744.7
574.432	16879.39
574.794	16953.06
575.155	16830.8
575.516	16899.5
575.877	16869.67
576.238	16985.15
576.599	16989.21
576.96	16969.1
577.32	16847.3
577.681	16925.94
578.042	16995.54
578.403	17040.51
578.763	16976.33
579.124	17107.63
579.485	17090.45
579.845	17136.78
580.206	17064.47
580.566	17098.82
580.927	17052.04
581.287	17010.91
581.648	17060.62
582.008	17051.13
582.368	17076.44
582.728	17024.02
583.089	17092.04
583.449	17082.09
583.809	17101.98
584.169	17097.91
584.529	17037.8
584.889	17101.3
585.249	17027.63
585.609	16901.98
585.969	17063.11
586.329	17038.25
586.688	17108.31
587.048	16977.01
587.408	17020.17
587.768	17006.84
588.127	17028.76
588.487	16998.03
588.846	17057.24
589.206	16972.72
589.565	16956.9
589.925	16995.09
590.284	17006.39
590.643	16948.09
591.003	16923
591.362	17052.72
591.721	17043.68
592.08	16968.88
592.44	16956.67
592.799	17035.09
593.158	16899.5
593.517	17035.99
593.876	17085.71
594.235	16870.12
594.593	16961.42
594.952	16903.11
595.311	16882.1
595.67	16921.65
596.029	16907.63
596.387	16976.56
596.746	17086.61
597.104	16910.57
597.463	16892.95
597.822	16960.06
598.18	16890.01
598.538	16891.36
598.897	16895.88
599.255	16788.32
599.613	17037.35
599.972	16977.69
600.33	17000.29
600.688	16903.34
601.046	16943.34
601.404	17100.17
601.762	16946.73
602.12	17049.78
602.478	17071.02
602.836	17029.89
603.194	16883.23
603.552	16829.22
603.91	16986.95
604.268	16986.5
604.625	16887.97
604.983	17088.42
605.341	16913.74
605.698	17009.1
606.056	17110.12
606.413	16954.64
606.771	17073.28
607.128	17158.7
607.485	16922.78
607.843	17039.38
608.2	17103.56
608.557	17213.16
608.914	17119.38
609.272	17177.23
609.629	17223.78
609.986	17163.45
610.343	17196.44
610.7	17301.52
611.057	17263.33
611.414	17232.82
611.771	17312.37
612.127	17294.97
612.484	17225.59
612.841	17341.07
613.198	17265.82
613.554	17301.07
613.911	17390.11
614.267	17287.29
614.624	17411.8
614.98	17416.1
615.337	17515.08
615.693	17352.14
616.05	17390.56
616.406	17511.91
616.762	17377
617.118	17463.33
617.475	17515.98
617.831	17479.37
618.187	17573.38
618.543	17595.3
618.899	17635.52
619.255	17605.92
619.611	17587.16
619.967	17650.44
620.323	17702.42
620.678	17607.73
621.034	17521.4
621.39	17653.15
621.746	17569.76
622.101	17682.76
622.457	17645.47
622.812	17585.58
623.168	17734.05
623.523	17690.21
623.879	17797.1
624.234	17664
624.589	17772.92
624.945	17604.34
625.3	17640.5
625.655	17696.31
626.01	17734.28
626.365	17703.09
626.72	17751
627.075	17761.62
627.43	17664
627.785	17627.39
628.14	17656.99
628.495	17696.31
628.85	17726.6
629.205	17586.26
629.559	17739.48
629.914	17679.82
630.269	17757.1
630.623	17560.5
630.978	17561.18
631.332	17680.27
631.687	17699.7
632.041	17694.73
632.396	17655.86
632.75	17532.7
633.104	17574.51
633.459	17450.45
633.813	17476.66
634.167	17527.28
634.521	17483.66
634.875	17414.74
635.229	17466.26
635.583	17371.35
635.937	17420.16
636.291	17377.68
636.645	17328.87
636.999	17294.52
637.352	17327.06
637.706	17212.26
638.06	17344.01
638.413	17305.14
638.767	17286.83
639.121	17184.01
639.474	17149.66
639.828	17099.72
640.181	17173.62
640.534	17176.1
640.888	17084.58
641.241	17066.73
641.594	17141.53
641.947	17178.81
642.301	17054.07
642.654	17129.78
643.007	17052.94
643.36	17024.69
643.713	17091.81
644.066	17071.92
644.419	17060.17
644.771	16995.99
645.124	16676.91
645.477	16757.36
645.83	16591.71
646.182	16551.94
646.535	16471.26
646.888	16640.3
647.24	16506.52
647.593	16506.06
647.945	16366.86
648.298	16430.81
648.65	16398.27
649.002	16349.46
649.355	16444.37
649.707	16433.52
650.059	16459.96
650.411	16716.68
650.763	16607.53
651.115	16930.46
651.467	16799.39
651.819	16835.09
652.171	16851.59
652.523	16787.19
652.875	16739.73
653.227	16723.01
653.578	16927.52
653.93	16763.46
654.282	16786.73
654.633	16617.92
654.985	16771.59
655.337	16737.92
655.688	16735.66
656.039	16840.74
656.391	16694.76
656.742	16765.72
657.094	16835.55
657.445	16762.33
657.796	16772.5
658.147	16681.2
658.498	16702.67
658.849	16813.4
659.2	16716.68
659.551	16626.06
659.902	16751.71
660.253	16724.36
660.604	16747.86
660.955	16730.92
661.306	16733.18
661.656	16727.3
662.007	16810.69
662.358	16902.89
662.708	16820.63
663.059	16784.02
663.409	16840.74
663.76	16853.62
664.11	16875.54
664.461	16897.24
664.811	16894.98
665.161	16845.72
665.511	16785.38
665.862	16851.14
666.212	16945.37
666.562	16852.49
666.912	16809.56
667.262	16920.74
667.612	16800.07
667.962	16925.49
668.312	16860.18
668.662	16928.65
669.011	16901.76
669.361	16717.36
669.711	16737.24
670.06	16775.21
670.41	16742.22
670.76	16711.26
671.109	16861.08
671.459	16760.97
671.808	16747.19
672.157	16818.37
672.507	16617.02
672.856	16624.03
673.205	16742.67
673.554	16715.78
673.904	16621.09
674.253	16748.09
674.602	16680.52
674.951	16458.38
675.3	16375.45
675.649	16652.73
675.998	16642.56
676.346	16592.16
676.695	16665.38
677.044	16487.53
677.393	16540.64
677.741	16599.17
678.09	16506.06
678.438	16504.03
678.787	16576.57
679.135	16525.72
679.484	16449.34
679.832	16499.96
680.181	16373.86
680.529	16436.69
680.877	16454.31
681.225	16289.8
681.573	16462.45
681.922	16244.83
682.27	16217.71
682.618	16243.47
682.966	16262.23
683.314	16184.94
683.661	16156.02
684.009	16154.21
684.357	16074.89
684.705	15991.27
685.053	16015.68
685.4	15998.28
685.748	15854.33
686.095	15813.65
686.443	15831.73
686.79	15839.64
687.138	15816.36
687.485	15836.48
687.832	15751.73
688.18	15681.68
688.527	15688.01
688.874	15647.33
689.221	15556.48
689.568	15503.83
689.915	15527.33
690.262	15480.33
690.609	15386.32
690.956	15363.27
691.303	15332.99
691.65	15334.57
691.997	15274.68
692.344	15209.6
692.69	15060
693.037	15159.88
693.383	15090.06
693.73	15085.99
694.077	15026.1
694.423	14975.93
694.769	14824.3
695.116	14857.52
695.462	14846.67
695.808	14797.63
696.155	14802.38
696.501	14611.88
696.847	14630.86
697.193	14541.14
697.539	14556.51
697.885	14446.23
698.231	14381.83
698.577	14449.17
698.923	14386.34
699.269	14264.99
699.614	14187.48
699.96	14197.42
700.306	14159.68
700.651	14124.2
700.997	13971.67
701.342	13956.75
701.688	14081.27
702.033	13909.75
702.379	13845.79
702.724	13805.12
703.069	13815.06
703.415	13683.54
703.76	13685.8
704.105	13670.66
704.45	13518.12
704.795	13536.65
705.14	13453.71
705.485	13441.51
705.83	13401.29
706.175	13423.88
706.52	13381.85
706.865	13306.37
707.209	13282.19
707.554	13214.85
707.899	13301.63
708.243	13135.3
708.588	13235.41
708.932	13045.82
709.277	13132.59
709.621	13080.16
709.966	12995.87
710.31	13039.94
710.654	12864.35
710.998	12880.85
711.342	12888.53
711.687	12815.09
712.031	12733.96
712.375	12709.1
712.719	12821.64
713.063	12691.7
713.407	12757.24
713.75	12639.5
714.094	12615.09
714.438	12620.06
714.782	12595.88
715.125	12510.91
715.469	12558.82
715.812	12500.29
716.156	12441.76
716.499	12514.3
716.843	12411.26
717.186	12364.93
717.53	12463.46
717.873	12435.21
718.216	12365.83
718.559	12293.07
718.902	12176.23
719.246	12287.87
719.589	12257.14
719.932	12181.21
720.275	12222.11
720.617	12209
720.96	12135.33
721.303	12227.31
721.646	12207.19
721.989	12141.21
722.331	12145.73
722.674	12124.03
723.016	12111.38
723.359	12188.66
723.701	12107.99
724.044	11901.66
724.386	11903.25
724.729	11991.38
725.071	11990.7
725.413	11980.53
725.755	11952.06
726.097	11955.22
726.439	11833.19
726.782	11840.2
727.124	11965.39
727.465	11834.1
727.807	11873.19
728.149	11826.64
728.491	11931.95
728.833	11820.76
729.175	11806.98
729.516	11821.44
729.858	11839.75
730.199	11864.83
730.541	11843.13
730.882	11766.75
731.224	11813.53
731.565	11749.58
731.906	11749.35
732.248	11720.2
732.589	11740.99
732.93	11723.82
733.271	11713.87
733.612	11663.93
733.953	11810.59
734.294	11724.04
734.635	11688.79
734.976	11738.73
735.317	11622.58
735.658	11736.02
735.999	11777.83
736.339	11715.23
736.68	11758.39
737.021	11720.88
737.361	11715.23
737.702	11827.32
738.042	11753.65
738.383	11751.61
738.723	11840.2
739.063	11814.21
739.404	11757.04
739.744	11754.78
740.084	11811.95
740.424	11837.49
740.764	11829.12
741.104	11884.49
741.444	11846.3
741.784	11859.18
742.124	11806.98
742.464	11813.76
742.804	11883.59
743.143	11894.43
743.483	11944.15
743.823	11871.16
744.162	11903.47
744.502	11930.82
744.841	11947.54
745.181	12054.43
745.52	12065.73
745.86	12068.44
746.199	12083.35
746.538	12077.25
746.877	12173.52
747.216	12222.79
747.556	12147.76
747.895	12358.38
748.234	12361.77
748.573	12321.09
748.911	12382.56
749.25	12463.01
749.589	12476.11
749.928	12596.11
750.267	12652.61
750.605	12629.78
750.944	12690.8
751.283	12699.84
751.621	12863.67
751.96	12886.5
752.298	12997.91
752.636	13111.35
752.975	13086.27
753.313	13212.82
753.651	13314.73
753.989	13393.6
754.327	13514.28
754.666	13454.17
755.004	13624.33
755.342	13725.57
755.679	13831.11
756.017	13927.83
756.355	14050.31
756.693	14111.1
757.031	14213.24
757.368	14331.88
757.706	14460.69
758.044	14436.97
758.381	14653.68
758.719	14749.5
759.056	14891.87
759.394	14973.45
759.731	14929.38
760.068	15070.62
760.405	15138.87
760.743	15239.43
761.08	15419.99
761.417	15453.89
761.754	15607.56
762.091	15668.8
762.428	15753.77
762.765	15825.18
763.102	16003.93
763.438	16021.33
763.775	16158.73
764.112	16224.71
764.449	16363.02
764.785	16418.83
765.122	16388.33
765.458	16423.35
765.795	16608.66
766.131	16689.11
766.467	16840.29
766.804	16781.54
767.14	16774.08
767.476	17023.34
767.812	17045.71
768.148	17140.17
768.485	17111.7
768.821	17116.22
769.157	17111.02
769.492	17254.29
769.828	17270.11
770.164	17245.25
770.5	17290.9
770.836	17333.16
771.171	17330.9
771.507	17359.15
771.842	17394.18
772.178	17441.86
772.513	17461.52
772.849	17500.61
773.184	17439.37
773.519	17638.01
773.855	17606.37
774.19	17470.33
774.525	17535.19
774.86	17502.65
775.195	17495.19
775.53	17598.92
775.865	17512.36
776.2	17393.27
776.535	17394.85
776.87	17460.39
777.205	17440.5
777.539	17389.66
777.874	17370.67
778.209	17248.87
778.543	17303.1
778.878	17320.51
779.212	17313.27
779.547	17232.15
779.881	17331.58
780.215	17196.44
780.55	17312.14
780.884	17149.89
781.218	17114.41
781.552	17132.71
781.886	17175.65
782.22	17031.02
782.554	17030.34
782.888	17024.47
783.222	16847.07
783.556	16780.18
783.889	16723.23
784.223	16722.1
784.557	16735.44
784.89	16760.75
785.224	16604.82
785.557	16608.21
785.891	16540.64
786.224	16600.52
786.558	16544.71
786.891	16468.55
787.224	16375.67
787.557	16285.73
787.891	16370.93
788.224	16268.78
788.557	16356.24
788.89	16255.22
789.223	16252.96
789.556	16273.53
789.888	16168.22
790.221	16018.17
790.554	15939.75
790.887	16081.44
791.219	15873.09
791.552	15930.49
791.884	15875.12
792.217	15777.95
792.549	15797.61
792.882	15652.07
793.214	15630.15
793.546	15723.94
793.879	15626.76
794.211	15482.59
794.543	15545.86
794.875	15485.98
795.207	15546.09
795.539	15428.35
795.871	15448.46
796.203	15288.02
796.535	15173.67
796.867	15316.04
797.198	15213.22
797.53	15118.76
797.862	15036.5
798.193	15150.17
798.525	15015.48
798.856	15050.96
799.188	14931.64
799.519	14848.48
799.85	14780.46
800.182	14805.09
800.513	14830.63
800.844	14666.11
801.175	14751.53
801.506	14716.05
801.837	14660.24
802.168	14574.14
802.499	14565.1
802.83	14511.09
803.161	14409.85
803.491	14444.65
803.822	14418.66
804.153	14440.13
804.483	14299.79
804.814	14184.99
805.145	14251.43
805.475	14233.35
805.805	14153.36
806.136	14187.03
806.466	14118.56
806.796	14090.08
807.126	14066.13
807.457	13987.26
807.787	13995.17
808.117	13931.67
808.447	13803.54
808.777	13871.78
809.107	13875.17
809.436	13815.29
809.766	13836.75
810.096	13678.11
810.426	13694.61
810.755	13709.98
811.085	13688.74
811.414	13679.47
811.744	13606.48
812.073	13528.51
812.403	13521.51
812.732	13394.28
813.061	13442.64
813.39	13370.55
813.719	13325.13
814.049	13338.69
814.378	13299.59
814.707	13301.4
815.036	13296.66
815.365	13160.84
815.693	13052.82
816.022	13086.94
816.351	13022.31
816.68	13024.12
817.008	13007.62
817.337	12871.81
817.665	12866.38
817.994	12914.52
818.322	12897.8
818.651	12832.71
818.979	12836.1
819.307	12864.8
819.636	12779.83
819.964	12818.7
820.292	12842.43
820.62	12774.18
820.948	12743
821.276	12802.66
821.604	12742.55
821.932	12757.69
822.259	12756.11
822.587	12670.68
822.915	12720.4
823.243	12691.93
823.57	12693.51
823.898	12701.64
824.225	12688.08
824.553	12722.66
824.88	12767.4
825.207	12733.96
825.535	12719.27
825.862	12709.33
826.189	12647.41
826.516	12664.36
826.843	12712.72
827.17	12715.65
827.497	12729.21
827.824	12713.85
828.151	12665.94
828.478	12655.32
828.805	12771.92
829.131	12654.64
829.458	12672.94
829.785	12637.69
830.111	12658.71
830.438	12746.61
830.764	12608.54
831.09	12655.54
831.417	12662.32
831.743	12623
832.069	12647.86
832.395	12639.72
832.722	12582.32
833.048	12608.99
833.374	12626.62
833.7	12608.54
834.026	12590.46
834.351	12545.94
834.677	12566.51
835.003	12627.52
835.329	12512.04
835.654	12532.16
835.98	12471.59
836.306	12546.85
836.631	12453.29
836.956	12449.67
837.282	12465.49
837.607	12356.12
837.932	12374.42
838.258	12379.17
838.583	12284.93
838.908	12277.02
839.233	12314.99
839.558	12329.45
839.883	12233.18
840.208	12197.02
840.533	12180.75
840.858	12229.11
841.182	12185.27
841.507	12197.25
841.832	12086.74
842.156	12070.02
842.481	12062.79
842.805	12080.87
843.13	12048.33
843.454	12016.69
843.778	11933.3
844.103	11964.49
844.427	11899.18
844.751	11907.31
845.075	11881.33
845.399	11839.52
845.723	11738.96
846.047	11775.11
846.371	11797.03
846.695	11718.17
847.019	11637.94
847.343	11609.02
847.666	11448.57
847.99	11444.95
848.313	11453.09
848.637	11418.51
848.96	11381.68
849.284	11336.93
849.607	11259.42
849.931	11166.54
850.254	11137.62
850.577	11120.44
850.9	11005.42
851.223	11023.04
851.546	11007.45
851.869	10891.52
852.192	10955.47
852.515	10793.22
852.838	10838.19
853.161	10772.88
853.483	10734.01
853.806	10691.53
854.129	10707.57
854.451	10605.2
854.774	10580.12
855.096	10513.9
855.419	10508.93
855.741	10484.75
856.063	10480.46
856.385	10383.74
856.708	10376.05
857.03	10374.7
857.352	10334.02
857.674	10292.22
857.996	10225.78
858.318	10175.61
858.64	10198.43
858.961	10161.82
859.283	10148.04
859.605	10058.78
859.926	10165.89
860.248	10097.19
860.57	9977.87
860.891	10002.05
861.212	9960.92
861.534	9935.39
861.855	9993.01
862.176	10020.58
862.498	9948.95
862.819	9890.19
863.14	9920.93
863.461	9836.86
863.782	9805
864.103	9770.42
864.424	9749.18
864.745	9804.09
865.065	9724.55
865.386	9801.83
865.707	9659.46
866.027	9729.07
866.348	9717.09
866.668	9711.67
866.989	9619.92
867.309	9610.65
867.63	9656.98
867.95	9533.82
868.27	9550.99
868.59	9627.6
868.91	9530.88
869.23	9582.86
869.55	9478.9
869.87	9510.77
870.19	9519.35
870.51	9507.83
870.83	9529.75
871.15	9444.55
871.469	9393.03
871.789	9389.41
872.109	9384.67
872.428	9365.23
872.748	9427.83
873.067	9376.76
873.386	9389.19
873.706	9323.65
874.025	9329.98
874.344	9264.45
874.663	9340.6
874.982	9257.67
875.301	9306.7
875.62	9248.85
875.939	9141.51
876.258	9138.35
876.577	9230.77
876.896	9122.53
877.214	9151.91
877.533	9073.94
877.852	9127.27
878.17	9145.13
878.489	9101.96
878.807	9099.03
879.125	9045.24
879.444	9024.9
879.762	9003.44
880.08	8998.24
880.398	8999.82
880.716	8999.59
881.034	8889.77
881.352	8904
881.67	8892.03
881.988	8912.59
882.306	8900.16
882.624	8869.65
882.941	8831.69
883.259	8832.82
883.577	8797.34
883.894	8803.67
884.212	8747.62
884.529	8786.04
884.846	8723.44
885.164	8746.27
885.481	8655.87
885.798	8715.31
886.115	8674.86
886.432	8600.06
886.75	8593.28
887.067	8588.98
887.383	8536.78
887.7	8585.14
888.017	8506.73
888.334	8487.29
888.651	8480.51
888.967	8463.11
889.284	8410.23
889.6	8370.01
889.917	8359.38
890.233	8354.41
890.55	8303.34
890.866	8336.79
891.182	8203.68
891.498	8310.57
891.815	8180.18
892.131	8170.46
892.447	8208.88
892.763	8193.51
893.079	8165.04
893.395	8130.01
893.71	8106.74
894.026	8092.27
894.342	8079.17
894.657	8022.22
894.973	7998.26
895.289	7972.73
895.604	7914.88
895.92	7934.76
896.235	7897.7
896.55	7899.51
896.865	7866.06
897.181	7819.51
897.496	7760.76
897.811	7780.87
898.126	7814.54
898.441	7679.63
898.756	7614.77
899.071	7655.9
899.386	7660.19
899.7	7554.21
900.015	7584.26
900.33	7506.3
900.644	7481.67
900.959	7474.44
901.273	7473.76
901.588	7461.78
901.902	7393.99
902.216	7413.65
902.531	7391.05
902.845	7349.92
903.159	7270.6
903.473	7233.99
903.787	7215.91
904.101	7233.09
904.415	7156.25
904.729	7179.53
905.042	7149.02
905.356	7126.2
905.67	7092.75
905.984	7091.62
906.297	7059.53
906.611	6970.04
906.924	7013.66
907.237	6950.83
907.551	6954.9
907.864	6853.89
908.177	6904.51
908.491	6897.73
908.804	6807.79
909.117	6817.28
909.43	6741.57
909.743	6701.35
910.056	6712.65
910.368	6692.31
910.681	6643.5
910.994	6658.64
911.307	6619.77
911.619	6535.03
911.932	6561.47
912.244	6494.35
912.557	6476.95
912.869	6463.39
913.181	6469.04
913.494	6430.17
913.806	6379.55
914.118	6418.42
914.43	6344.3
914.742	6320.79
915.054	6260.23
915.366	6252.55
915.678	6210.74
915.99	6224.3
916.302	6178.88
916.613	6160.8
916.925	6187.46
917.236	6155.15
917.548	6117.18
917.859	6094.36
918.171	6058.2
918.482	6021.82
918.794	5987.02
919.105	5986.34
919.416	5914.93
919.727	5927.36
920.038	5947.24
920.349	5818.66
920.66	5810.98
920.971	5862.73
921.282	5833.8
921.593	5770.53
921.903	5723.07
922.214	5764.65
922.525	5682.62
922.835	5644.65
923.146	5671.09
923.456	5685.33
923.767	5634.71
924.077	5635.16
924.387	5556.52
924.697	5535.05
925.008	5519.46
925.318	5496.64
925.628	5470.65
925.938	5468.16
926.248	5409.18
926.558	5408.05
926.867	5331.89
927.177	5346.13
927.487	5362.18
927.796	5324.89
928.106	5279.47
928.416	5296.19
928.725	5235.85
929.034	5195.63
929.344	5235.63
929.653	5194.04
929.962	5152.69
930.271	5167.6
930.581	5104.78
930.89	5122.18
931.199	5081.28
931.508	5088.28
931.817	5093.03
932.125	5021.85
932.434	5015.07
932.743	4974.84
933.051	4988.4
933.36	4899.81
933.669	4922.86
933.977	4921.06
934.286	4827.05
934.594	4818.91
934.902	4819.36
935.21	4808.74
935.519	4735.07
935.827	4761.97
936.135	4759.48
936.443	4749.31
936.751	4688.97
937.059	4730.33
937.367	4630.44
937.674	4668.41
937.982	4698.01
938.29	4592.03
938.597	4628.18
938.905	4592.48
939.213	4528.07
939.52	4487.17
939.827	4574.63
940.135	4521.29
940.442	4519.49
940.749	4494.18
941.056	4454.4
941.363	4404.69
941.67	4457.57
941.977	4357
942.284	4334.86
942.591	4327.85
942.898	4291.24
943.205	4337.57
943.511	4274.29
943.818	4271.13
944.125	4292.15
944.431	4263.9
944.738	4234.07
945.044	4182.77
945.35	4170.12
945.657	4168.53
945.963	4141.87
946.269	4145.26
946.575	4123.79
946.881	4070.68
947.187	4105.26
947.493	4039.95
947.799	4051.25
948.105	4025.49
948.41	3993.4
948.716	4025.26
949.022	3987.3
949.327	3948.2
949.633	3963.79
949.938	3928.31
950.244	3906.85
950.549	3874.3
950.854	3883.8
951.16	3878.15
951.465	3848.77
951.77	3819.84
952.075	3773.52
952.38	3759.73
952.685	3795.21
952.99	3793.18
953.294	3713.63
953.599	3724.7
953.904	3758.6
954.209	3658.27
954.513	3668.89
954.818	3691.71
955.122	3656.23
955.426	3674.54
955.731	3664.14
956.035	3613.29
956.339	3603.8
956.643	3588.66
956.948	3547.08
957.252	3504.82
957.556	3475.22
957.86	3496.01
958.163	3501.89
958.467	3509.57
958.771	3485.61
959.075	3466.41
959.378	3427.76
959.682	3436.8
959.985	3418.5
960.289	3432.51
960.592	3352.28
960.896	3379.4
961.199	3371.27
961.502	3366.52
961.805	3334.21
962.108	3347.77
962.411	3307.31
962.714	3285.62
963.017	3277.71
963.32	3260.76
963.623	3215.79
963.926	3234.55
964.228	3246.3
964.531	3170.82
964.833	3214.44
965.136	3113.87
965.438	3148.22
965.741	3163.36
966.043	3125.62
966.345	3155
966.648	3078.62
966.95	3100.54
967.252	3070.94
967.554	3037.26
967.856	3058.51
968.158	3043.14
968.46	3010.37
968.761	3035.68
969.063	2997.72
969.365	2994.78
969.666	2977.38
969.968	2952.07
970.269	2942.35
970.571	2959.07
970.872	2939.41
971.174	2912.07
971.475	2914.78
971.776	2886.53
972.077	2852.18
972.378	2864.39
972.679	2883.82
972.98	2854.9
973.281	2831.62
973.582	2821.23
973.883	2812.41
974.183	2792.3
974.484	2775.8
974.785	2768.35
975.085	2744.39
975.386	2736.26
975.686	2719.53
975.986	2735.35
976.287	2701.68
976.587	2642.92
976.887	2698.06
977.187	2659.42
977.487	2697.16
977.787	2655.13
978.087	2617.61
978.387	2605.86
978.687	2620.1
978.987	2614.23
979.286	2599.54
979.586	2571.97
979.885	2558.18
980.185	2536.04
980.484	2542.14
980.784	2544.4
981.083	2513.89
981.382	2513.89
981.682	2485.64
981.981	2500.78
982.28	2494.68
982.579	2478.41
982.878	2441.57
983.177	2459.65
983.475	2440.22
983.774	2400.45
984.073	2423.72
984.372	2368.58
984.67	2422.59
984.969	2386.21
985.267	2388.24
985.566	2371.07
985.864	2350.96
986.162	2380.56
986.461	2309.83
986.759	2288.81
987.057	2299.43
987.355	2285.19
987.653	2275.02
987.951	2261.24
988.249	2278.64
988.547	2280.45
988.844	2290.17
989.142	2246.1
989.44	2223.05
989.737	2226.89
990.035	2202.94
990.332	2222.14
990.63	2179.89
990.927	2187.57
991.224	2207.68
991.521	2163.39
991.819	2146.89
992.116	2172.88
992.413	2128.59
992.71	2136.72
993.006	2111.64
993.303	2102.6
993.6	2083.62
993.897	2080.91
994.193	2100.79
994.49	2075.03
994.787	2050.17
995.083	2055.37
995.379	2057.18
995.676	2038.19
995.972	2024.18
996.268	2016.95
996.565	2002.72
996.861	1988.03
997.157	1991.19
997.453	1984.41
997.749	1965.88
998.044	1953
998.34	1936.5
998.636	1939.21
998.932	1902.61
999.227	1926.33
999.523	1881.14
999.818	1892.44
1000.114	1865.77
1000.409	1880.46
1000.704	1880.91
1001	1852.44
1001.295	1839.33
1001.59	1860.35
1001.885	1864.87
1002.18	1813.34
1002.475	1799.56
1002.77	1790.97
1003.065	1812.44
1003.359	1773.34
1003.654	1795.49
1003.949	1758.2
1004.243	1755.72
1004.538	1734.7
1004.832	1776.96
1005.127	1717.3
1005.421	1755.94
1005.715	1706.23
1006.009	1718.43
1006.304	1677.75
1006.598	1664.42
1006.892	1681.37
1007.186	1654.25
1007.48	1637.53
1007.773	1667.13
1008.067	1644.31
1008.361	1648.37
1008.655	1612.22
1008.948	1615.83
1009.242	1595.95
1009.535	1610.18
1009.829	1570.41
1010.122	1580.35
1010.415	1585.78
1010.708	1574.48
1011.001	1546.23
1011.295	1542.16
1011.588	1537.42
1011.881	1512.11
1012.173	1498.77
1012.466	1503.29
1012.759	1489.96
1013.052	1488.83
1013.344	1484.09
1013.637	1483.63
1013.93	1440.92
1014.222	1476.63
1014.514	1456.52
1014.807	1437.53
1015.099	1420.58
1015.391	1396.4
1015.683	1410.41
1015.976	1406.12
1016.268	1405.22
1016.56	1420.13
1016.851	1377.42
1017.143	1369.74
1017.435	1370.87
1017.727	1342.39
1018.018	1343.52
1018.31	1368.61
1018.602	1333.13
1018.893	1326.12
1019.185	1340.81
1019.476	1297.88
1019.767	1305.33
1020.058	1295.62
1020.35	1304.65
1020.641	1276.41
1020.932	1281.15
1021.223	1274.6
1021.514	1262.17
1021.804	1244.54
1022.095	1235.05
1022.386	1240.48
1022.677	1214.04
1022.967	1214.94
1023.258	1199.57
1023.548	1190.53
1023.839	1198.44
1024.129	1193.7
1024.419	1174.04
1024.709	1164.09
1025	1171.1
1025.29	1163.87
1025.58	1135.39
1025.87	1136.98
1026.16	1125.22
1026.449	1136.52
1026.739	1141.04
1027.029	1110.76
1027.319	1105.34
1027.608	1099.24
1027.898	1082.51
1028.187	1075.96
1028.477	1074.83
1028.766	1093.59
1029.055	1070.76
1029.344	1056.75
1029.634	1053.14
1029.923	1047.03
1030.212	1061.72
1030.501	1023.98
1030.79	1041.39
1031.078	988.28
1031.367	1005
1031.656	1031.89
1031.945	1017.88
1032.233	978.56
1032.522	1007.49
1032.81	1003.42
1033.099	1008.17
1033.387	980.6
1033.675	947.15
1033.963	957.77
1034.251	948.28
1034.54	949.86
1034.828	952.12
1035.116	941.05
1035.403	918
1035.691	922.29
1035.979	927.04
1036.267	930.2
1036.554	915.06
1036.842	908.96
1037.129	899.47
1037.417	877.77
1037.704	877.55
1037.992	891.11
1038.279	862.41
1038.566	881.84
1038.853	881.84
1039.14	881.84
