Data from hue_36_FLMS001491_00043.txt Node
Date: Tue Feb 07 17:29:51 GMT 2017
User: dcchb
Spectrometer: FLMS00149
Trigger mode: 0
Integration Time (sec): 2.000000E-2
Scans to average: 10
Electric dark correction enabled: true
Nonlinearity correction enabled: false
Boxcar width: 0
XAxis mode: Wavelengths
Number of Pixels in Spectrum: 2048
>>>>>Begin Spectral Data<<<<<
341.393	-29.21
341.776	-29.21
342.16	-29.21
342.543	-55.2
342.927	-67.63
343.31	-68.3
343.693	-69.21
344.077	-57
344.46	-59.49
344.843	-55.2
345.226	-58.81
345.61	-22.2
345.993	-38.47
346.376	-10.45
346.759	20.73
347.142	26.84
347.525	54.41
347.908	58.02
348.291	81.3
348.674	96.89
349.057	100.96
349.44	139.15
349.823	145.02
350.206	146.61
350.588	198.13
350.971	239.71
351.354	244.68
351.737	256.21
352.119	257.56
352.502	257.79
352.884	265.47
353.267	277
353.65	301.86
354.032	300.73
354.414	299.6
354.797	319.48
355.179	313.16
355.562	333.72
355.944	319.26
356.326	348.18
356.709	319.71
357.091	327.62
357.473	345.25
357.855	353.83
358.238	349.54
358.62	338.92
359.002	352.25
359.384	340.95
359.766	337.56
360.148	351.8
360.53	335.53
360.912	331.23
361.294	365.81
361.676	340.73
362.057	337.79
362.439	333.04
362.821	335.3
363.203	312.7
363.584	333.27
363.966	318.81
364.348	331.91
364.729	318.35
365.111	312.7
365.493	307.51
365.874	313.38
366.256	314.29
366.637	319.26
367.019	315.42
367.4	316.09
367.781	316.32
368.163	305.92
368.544	316.77
368.925	326.71
369.306	312.7
369.688	320.84
370.069	308.86
370.45	331.01
370.831	318.35
371.212	306.83
371.593	323.32
371.974	327.84
372.355	321.52
372.736	315.19
373.117	313.61
373.498	313.38
373.879	291.91
374.26	333.49
374.641	308.41
375.021	330.33
375.402	305.25
375.783	304.12
376.163	311.12
376.544	323.55
376.925	346.83
377.305	328.52
377.686	323.55
378.066	324.91
378.447	351.8
378.827	339.6
379.208	333.72
379.588	321.52
379.968	307.73
380.349	332.59
380.729	340.95
381.109	324.91
381.489	310.67
381.87	340.73
382.25	337.79
382.63	347.96
383.01	344.34
383.39	358.8
383.77	348.18
384.15	336.43
384.53	346.83
384.91	364.45
385.29	347.73
385.67	347.28
386.049	365.58
386.429	362.19
386.809	342.76
387.189	349.99
387.568	352.7
387.948	371.01
388.328	341.86
388.707	353.15
389.087	347.5
389.466	363.32
389.846	364
390.225	384.34
390.605	361.74
390.984	365.36
391.363	367.84
391.743	364.91
392.122	373.49
392.501	379.37
392.881	380.72
393.26	356.54
393.639	371.91
394.018	364.23
394.397	378.92
394.776	386.37
395.155	380.5
395.534	366.71
395.913	383.66
396.292	386.6
396.671	390.44
397.05	375.98
397.429	374.17
397.808	379.37
398.186	378.24
398.565	395.19
398.944	370.33
399.323	408.07
399.701	390.67
400.08	384.57
400.458	391.35
400.837	396.54
401.215	386.83
401.594	411.46
401.972	412.81
402.351	401.51
402.729	400.16
403.107	425.24
403.486	394.06
403.864	396.77
404.242	431.12
404.62	406.49
404.999	418.24
405.377	416.66
405.755	408.29
406.133	419.59
406.511	420.72
406.889	434.96
407.267	414.85
407.645	436.99
408.023	437.45
408.401	415.53
408.779	426.6
409.156	436.54
409.534	440.61
409.912	460.72
410.29	474.51
410.667	446.71
411.045	469.54
411.422	464.34
411.8	469.31
412.178	446.26
412.555	454.17
412.933	477.9
413.31	481.96
413.687	460.5
414.065	458.69
414.442	479.03
414.819	496.2
415.197	480.83
415.574	479.25
415.951	496.2
416.328	498.24
416.705	479.25
417.082	494.39
417.46	484
417.837	520.38
418.214	481.96
418.591	513.83
418.967	498.69
419.344	500.04
419.721	511.79
420.098	526.48
420.475	505.01
420.852	526.71
421.228	521.51
421.605	523.77
421.982	558.57
422.358	532.13
422.735	529.42
423.111	508.86
423.488	522.42
423.864	538.01
424.241	555.41
424.617	535.3
424.994	556.77
425.37	565.35
425.746	553.83
426.123	572.13
426.499	557.44
426.875	575.3
427.251	575.75
427.627	573.04
428.003	592.24
428.379	589.08
428.756	599.25
429.132	592.47
429.507	565.35
429.883	615.29
430.259	601.74
430.635	589.08
431.011	599.93
431.387	636.76
431.763	614.84
432.138	633.6
432.514	636.76
432.89	642.41
433.265	652.36
433.641	648.51
434.016	638.12
434.392	648.51
434.767	678.12
435.143	642.86
435.518	655.75
435.894	681.73
436.269	690.32
436.644	707.04
437.02	700.49
437.395	692.13
437.77	692.13
438.145	717.44
438.52	712.02
438.895	709.3
439.271	726.7
439.646	743.2
440.021	738.46
440.395	742.3
440.77	737.55
441.145	728.96
441.52	737.78
441.895	774.16
442.27	745.91
442.645	765.35
443.019	770.32
443.394	775.74
443.769	771.9
444.143	773.71
444.518	777.78
444.892	784.78
445.267	772.58
445.641	792.24
446.016	780.49
446.39	818.23
446.764	770.09
447.139	810.77
447.513	819.58
447.887	805.35
448.262	794.72
448.636	814.16
449.01	835.4
449.384	817.55
449.758	859.58
450.132	836.08
450.506	851.67
450.88	847.38
451.254	880.15
451.628	874.04
452.002	876.53
452.376	898.68
452.75	879.24
453.123	895.97
453.497	883.76
453.871	899.81
454.244	919.02
454.618	919.69
454.992	932.8
455.365	938.22
455.739	955.4
456.112	964.44
456.486	964.21
456.859	994.27
457.232	974.61
457.606	1018.45
457.979	985.45
458.352	1012.12
458.725	1027.04
459.099	1020.93
459.472	1064.1
459.845	1008.5
460.218	1071.33
460.591	1079.24
460.964	1091.21
461.337	1098.22
461.71	1115.39
462.083	1125.11
462.456	1114.49
462.829	1139.57
463.201	1150.2
463.574	1150.87
463.947	1202.17
464.32	1212.12
464.692	1229.06
465.065	1232
465.438	1226.8
465.81	1222.96
466.183	1234.49
466.555	1279.91
466.928	1293.92
467.3	1308.16
467.672	1331.43
468.045	1331.43
468.417	1363.3
468.789	1360.13
469.161	1371.66
469.534	1399.45
469.906	1436.29
470.278	1444.88
470.65	1501.37
471.022	1523.75
471.394	1519.23
471.766	1540.02
472.138	1577.08
472.51	1598.09
472.882	1632.44
473.253	1677.64
473.625	1686.9
473.997	1751.08
474.369	1742.5
474.74	1787.24
475.112	1855.71
475.484	1874.24
475.855	1906.79
476.227	1938.88
476.598	1970.97
476.97	2005.99
477.341	2063.17
477.713	2100.68
478.084	2144.75
478.455	2210.96
478.827	2256.83
479.198	2300.67
479.569	2339.99
479.94	2437.17
480.311	2492.08
480.682	2561.01
481.053	2617.5
481.424	2693.88
481.795	2755.8
482.166	2806.88
482.537	2836.25
482.908	2972.97
483.279	2995.8
483.65	3121.9
484.021	3189.69
484.391	3249.12
484.762	3304.72
485.133	3385.84
485.503	3428.55
485.874	3564.6
486.244	3658.6
486.615	3743.12
486.985	3789
487.356	3904.93
487.726	3981.99
488.097	4155.77
488.467	4170.46
488.837	4305.37
489.207	4408.87
489.578	4524.34
489.948	4588.3
490.318	4678.69
490.688	4732.47
491.058	4846.6
491.428	4958.91
491.798	5043.43
492.168	5192.35
492.538	5283.65
492.908	5370.42
493.278	5457.43
493.648	5504.88
494.017	5661.26
494.387	5766.35
494.757	5840.69
495.126	5925.89
495.496	5980.8
495.866	6081.82
496.235	6170.85
496.605	6305.09
496.974	6351.64
497.344	6450.4
497.713	6549.38
498.082	6620.79
498.452	6711.63
498.821	6816.71
499.19	6843.38
499.559	6983.26
499.928	7044.73
500.298	7137.38
500.667	7229.36
501.036	7253.31
501.405	7364.5
501.774	7433.65
502.143	7540.76
502.512	7563.36
502.88	7671.15
503.249	7713.86
503.618	7804.26
503.987	7869.79
504.356	7907.98
504.724	8063.23
505.093	8118.15
505.462	8076.34
505.83	8210.58
506.199	8302.78
506.567	8444.02
506.936	8395.88
507.304	8610.56
507.672	8631.13
508.041	8690.11
508.409	8716.32
508.777	8862.31
509.145	8922.42
509.514	8964
509.882	9028.86
510.25	9108.86
510.618	9107.05
510.986	9158.35
511.354	9299.59
511.722	9345.69
512.09	9425.46
512.458	9410.09
512.826	9562.63
513.193	9599.92
513.561	9690.76
513.929	9708.61
514.297	9816.41
514.664	9865.22
515.032	9914.71
515.4	10012.34
515.767	9979.79
516.135	10122.62
516.502	10140.24
516.869	10295.04
517.237	10312.44
517.604	10214.36
517.972	10342.04
518.339	10462.72
518.706	10460.91
519.073	10469.05
519.44	10641.92
519.808	10729.6
520.175	10747.23
520.542	10795.37
520.909	10842.14
521.276	10796.5
521.643	10954.68
522.009	11071.29
522.376	11155.36
522.743	11169.37
523.11	11267.44
523.477	11377.95
523.843	11466.99
524.21	11544.5
524.577	11605.51
524.943	11646.42
525.31	11734.78
525.676	11809.35
526.043	11881.66
526.409	11932.06
526.776	12015.22
527.142	12094.54
527.508	12156.69
527.874	12309
528.241	12317.59
528.607	12366.85
528.973	12528.88
529.339	12541.99
529.705	12653.85
530.071	12715.99
530.437	12850.68
530.803	12809.1
531.169	12877.8
531.535	12900.62
531.901	12975.2
532.267	13044.12
532.632	13044.35
532.998	13081.63
533.364	13233.95
533.73	13275.98
534.095	13364.79
534.461	13403.66
534.826	13444.79
535.192	13505.58
535.557	13658.79
535.923	13603.2
536.288	13673.03
536.653	13718.45
537.019	13671.22
537.384	13805
537.749	13799.35
538.114	13859.47
538.479	13930.42
538.845	14043.19
539.21	14050.65
539.575	14145.33
539.94	14183.3
540.305	14423.52
540.67	14257.2
541.034	14370.87
541.399	14398.66
541.764	14390.75
542.129	14446.34
542.494	14595.04
542.858	14657.86
543.223	14591.42
543.587	14731.99
543.952	14814.24
544.316	14858.08
544.681	14920.23
545.045	14948.93
545.41	15031.41
545.774	15018.76
546.138	15047.01
546.503	15200.67
546.867	15148.25
547.231	15298.52
547.595	15287
547.959	15343.72
548.324	15411.06
548.688	15466.43
549.052	15482.02
549.416	15497.84
549.779	15627.78
550.143	15665.97
550.507	15762.92
550.871	15792.07
551.235	15791.62
551.599	15943.03
551.962	15896.93
552.326	16048.34
552.689	16068.9
553.053	16009.01
553.417	16145.28
553.78	16218.27
554.143	16216.01
554.507	16313.86
554.87	16392.51
555.234	16438.16
555.597	16366.07
555.96	16505.5
556.323	16506.18
556.686	16498.49
557.05	16705.49
557.413	16712.72
557.776	16706.4
558.139	16934.19
558.502	16969.67
558.865	16988.2
559.228	17113.62
559.59	17112.49
559.953	17114.52
560.316	17330.56
560.679	17316.32
561.041	17468.86
561.404	17488.07
561.767	17694.17
562.129	17622.53
562.492	17663.66
562.854	17683.77
563.217	17700.5
563.579	17855.52
563.941	17905.91
564.304	17962.18
564.666	18000.37
565.028	18065.23
565.39	18086.25
565.753	18350.65
566.115	18295.06
566.477	18406.01
566.839	18354.49
567.201	18533.69
567.563	18618.21
567.925	18688.94
568.287	18754.25
568.648	18660.24
569.01	18907.92
569.372	18940.24
569.734	18955.38
570.095	19086.9
570.457	19169.83
570.819	19256.84
571.18	19198.31
571.542	19322.6
571.903	19438.75
572.265	19499.54
572.626	19523.72
572.987	19692.76
573.349	19624.51
573.71	19913.54
574.071	19901.57
574.432	20009.13
574.794	20173.65
575.155	20139.53
575.516	20197.6
575.877	20343.82
576.238	20501.55
576.599	20560.76
576.96	20747.19
577.32	20847.08
577.681	20953.52
578.042	21076.9
578.403	21250.46
578.763	21293.85
579.124	21501.98
579.485	21654.97
579.845	21685.93
580.206	21861.74
580.566	21958.24
580.927	22129.98
581.287	22261.28
581.648	22443.87
582.008	22561.61
582.368	22721.61
582.728	22969.96
583.089	23013.8
583.449	23102.61
583.809	23412.44
584.169	23584.41
584.529	23783.05
584.889	24123.38
585.249	24111.17
585.609	24301.68
585.969	24578.96
586.329	24719.52
586.688	24973.75
587.048	25184.59
587.408	25347.07
587.768	25602.21
588.127	25806.72
588.487	25896.21
588.846	26225.92
589.206	26306.14
589.565	26642.18
589.925	26921.72
590.284	27149.74
590.643	27460.01
591.003	27582.27
591.362	27854.58
591.721	27989.72
592.08	28223.16
592.44	28473.09
592.799	28750.83
593.158	28948.11
593.517	29065.17
593.876	29428.32
594.235	29451.82
594.593	29785.38
594.952	30058.81
595.311	30178.81
595.67	30467.17
596.029	30808.4
596.387	31163.42
596.746	31265.11
597.104	31346.46
597.463	31481.83
597.822	31822.16
598.18	32084.75
598.538	32222.6
598.897	32505.98
599.255	32421.46
599.613	33107.77
599.972	33032.3
600.33	33310.48
600.688	33391.16
601.046	33804.7
601.404	33990.46
601.762	34129.67
602.12	34433.61
602.478	34452.14
602.836	34741.63
603.194	34720.16
603.552	34905.01
603.91	34991.79
604.268	35308.62
604.625	35420.71
604.983	35682.85
605.341	35641.27
605.698	36039.9
606.056	36174.13
606.413	36101.59
606.771	36505.65
607.128	36629.94
607.485	36617.96
607.843	36730.5
608.2	37005.98
608.557	37283.03
608.914	37316.48
609.272	37638.95
609.629	37620.65
609.986	37975.67
610.343	37823.81
610.7	38252.5
611.057	38354.64
611.414	38488.42
611.771	38654.97
612.127	38921.41
612.484	38869.43
612.841	39075.98
613.198	39058.35
613.554	39243.66
613.911	39587.6
614.267	39496.08
614.624	39563.87
614.98	39597.77
615.337	39897.88
615.693	39947.14
616.05	39912.57
616.406	40094.48
616.762	40179
617.118	40365.21
617.475	40275.95
617.831	40516.62
618.187	40623.51
618.543	40653.79
618.899	41024.63
619.255	40992.99
619.611	40912.99
619.967	41258.97
620.323	41317.73
620.678	41299.87
621.034	41297.84
621.39	41448.8
621.746	41414
622.101	41733.31
622.457	41458.51
622.812	41702.58
623.168	41839.3
623.523	41954.55
623.879	42037.03
624.234	41798.62
624.589	42057.14
624.945	42033.87
625.3	42079.52
625.655	42113.19
626.01	42207.87
626.365	42301.66
626.72	42210.81
627.075	42237.25
627.43	42305.5
627.785	42270.24
628.14	42484.93
628.495	42344.14
628.85	42417.36
629.205	42295.78
629.559	42485.38
629.914	42323.58
630.269	42485.38
630.623	42308.21
630.978	42271.6
631.332	42584.81
631.687	42533.51
632.041	42476.57
632.396	42573.74
632.75	42459.84
633.104	42649.44
633.459	42327.87
633.813	42402.9
634.167	42279.74
634.521	42473.85
634.875	42380.75
635.229	42473.18
635.583	42288.32
635.937	42328.77
636.291	42473.18
636.645	42389.11
636.999	42234.99
637.352	42344.82
637.706	42132.85
638.06	42367.42
638.413	42091.49
638.767	42182.79
639.121	42179.63
639.474	41957.03
639.828	42018.95
640.181	42150.93
640.534	42112.28
640.888	42072.74
641.241	42041.32
641.594	42053.98
641.947	42117.71
642.301	42133.52
642.654	42036.35
643.007	42164.26
643.36	42117.93
643.713	42081.55
644.066	42180.08
644.419	42027.31
644.771	41740.09
645.124	41310.5
645.477	41287.45
645.83	41062.37
646.182	40840.68
646.535	40749.38
646.888	40769.72
647.24	40604.3
647.593	40848.81
647.945	40815.82
648.298	40593.45
648.65	40480.69
649.002	40419.45
649.355	40575.6
649.707	40625.99
650.059	40674.13
650.411	41159.54
650.763	41168.13
651.115	41513.2
651.467	41479.98
651.819	41503.03
652.171	41386.65
652.523	41398.85
652.875	41211.97
653.227	41238.18
653.578	41382.13
653.93	41365.41
654.282	41242.93
654.633	41042.25
654.985	41289.25
655.337	41230.95
655.688	41324.51
656.039	41483.6
656.391	41013.33
656.742	41128.81
657.094	41087.9
657.445	41358.18
657.796	41215.36
658.147	41149.6
658.498	41083.38
658.849	41239.31
659.2	41004.97
659.551	40969.71
659.902	41188.92
660.253	41136.26
660.604	41098.07
660.955	40955.93
661.306	41180.78
661.656	41070.28
662.007	41162.48
662.358	41075.47
662.708	41052.2
663.059	40901.69
663.409	40791.87
663.76	41142.36
664.11	41135.36
664.461	41020.33
664.811	41032.76
665.161	41043.38
665.511	40885.42
665.862	41003.84
666.212	41078.19
666.562	41021.69
666.912	40915.48
667.262	40856.5
667.612	40788.7
667.962	41003.39
668.312	40853.56
668.662	41024.63
669.011	40990.73
669.361	40751.64
669.711	40880.22
670.06	40730.17
670.41	40722.49
670.76	40582.38
671.109	40842.94
671.459	40732.21
671.808	40595.49
672.157	40778.31
672.507	40578.09
672.856	40630.06
673.205	40600.23
673.554	40658.31
673.904	40541.7
674.253	40761.58
674.602	40735.82
674.951	40070.98
675.3	39935.39
675.649	40608.82
675.998	40539.67
676.346	40592.32
676.695	40697.18
677.044	40353.91
677.393	40440.69
677.741	40555.94
678.09	40376.06
678.438	40333.8
678.787	40312.78
679.135	40347.58
679.484	40043.64
679.832	40279.11
680.181	39954.6
680.529	40111.21
680.877	40043.64
681.225	40122.5
681.573	40149.17
681.922	40030.98
682.27	39864.88
682.618	39808.39
682.966	39815.39
683.314	39876.41
683.661	39621.95
684.009	39605.46
684.357	39439.58
684.705	39441.17
685.053	39403.43
685.4	39367.27
685.748	39158.24
686.095	39291.79
686.443	39202.08
686.79	39050.22
687.138	39150.55
687.485	39075.75
687.832	38943.78
688.18	39068.07
688.527	38737.91
688.874	38952.82
689.221	38769.55
689.568	38636.67
689.915	38660.17
690.262	38557.12
690.609	38363.23
690.956	38420.4
691.303	38271.71
691.65	38099.51
691.997	38102.22
692.344	37977.25
692.69	37829.91
693.037	37711.95
693.383	37565.96
693.73	37636.92
694.077	37497.04
694.423	37450.26
694.769	37326.65
695.116	37265.63
695.462	37244.84
695.808	37008.01
696.155	37155.8
696.501	36961.68
696.847	36984.96
697.193	36668.81
697.539	36862.48
697.885	36683.27
698.231	36448.7
698.577	36552.43
698.923	36468.36
699.269	36261.81
699.614	35984.53
699.96	36076.06
700.306	36158.77
700.651	35874.03
700.997	35797.42
701.342	35742.73
701.688	35696.41
702.033	35730.98
702.379	35639.01
702.724	35662.73
703.069	35507.94
703.415	35004.67
703.76	35234.72
704.105	35165.8
704.45	35025.46
704.795	34926.71
705.14	34966.48
705.485	34744.11
705.83	34665.7
706.175	34638.58
706.52	34540.73
706.865	34467.96
707.209	34411.47
707.554	34228.2
707.899	34288.31
708.243	34160.63
708.588	34091.93
708.932	33908.88
709.277	33794.76
709.621	33986.39
709.966	33785.04
710.31	33719.51
710.654	33457.37
710.998	33563.13
711.342	33673.18
711.687	33474.77
712.031	33289.46
712.375	33121.56
712.719	33294.89
713.063	33090.37
713.407	33245.85
713.75	32953.43
714.094	32994.78
714.438	32842.24
714.782	32943.03
715.125	32763.15
715.469	32869.36
715.812	32625.98
716.156	32498.3
716.499	32506.43
716.843	32654.23
717.186	32352.77
717.53	32355.25
717.873	32422.82
718.216	32346.89
718.559	32265.76
718.902	32080.23
719.246	32131.3
719.589	32014.69
719.932	31875.94
720.275	31798.43
720.617	31846.56
720.96	31747.81
721.303	31894.02
721.646	31792.33
721.989	31577.87
722.331	31717.98
722.674	31492.22
723.016	31557.98
723.359	31381.49
723.701	31534.93
724.044	31233.47
724.386	31189.86
724.729	31328.84
725.071	31256.3
725.413	31291.32
725.755	31196.86
726.097	31028.73
726.439	30967.26
726.782	30928.85
727.124	31019.92
727.465	30965.46
727.807	30860.83
728.149	30730.89
728.491	30736.54
728.833	30698.12
729.175	30564.11
729.516	30552.81
729.858	30496.54
730.199	30553.26
730.541	30489.99
730.882	30412.48
731.224	30421.97
731.565	30195.31
731.906	30323.67
732.248	30286.15
732.589	30106.5
732.93	30005.71
733.271	30115.76
733.612	30067.63
733.953	30157.34
734.294	29974.3
734.635	29847.97
734.976	29935.43
735.317	29714.19
735.658	29751.25
735.999	29707.86
736.339	29829.67
736.68	29849.55
737.021	29650.46
737.361	29394.88
737.702	29661.99
738.042	29596.91
738.383	29487.98
738.723	29546.51
739.063	29379.51
739.404	29457.93
739.744	29326.86
740.084	29257.25
740.424	29315.56
740.764	29280.53
741.104	29253.41
741.444	29125.73
741.784	28992.18
742.124	29087.09
742.464	28953.76
742.804	29103.59
743.143	28969.58
743.483	28989.24
743.823	28811.62
744.162	28877.6
744.502	28841.67
744.841	28628.34
745.181	28904.49
745.52	28653.43
745.86	28804.61
746.199	28623.15
746.538	28665.86
746.877	28694.1
747.216	28654.11
747.556	28544.05
747.895	28471.51
748.234	28390.38
748.573	28278.75
748.911	28322.36
749.25	28216.15
749.589	28258.64
749.928	28139.54
750.267	28223.16
750.605	28172.31
750.944	27995.82
751.283	27977.96
751.621	27971.86
751.96	27820.45
752.298	27803.28
752.636	27908.14
752.975	27708.82
753.313	27615.04
753.651	27678.09
753.989	27474.25
754.327	27500.92
754.666	27360.35
755.004	27415.49
755.342	27482.38
755.679	27333.69
756.017	27324.87
756.355	27241.26
756.693	27260.02
757.031	27275.84
757.368	27050.76
757.706	27111.32
758.044	26945.68
758.381	27032
758.719	26798.56
759.056	26758.34
759.394	26834.04
759.731	26686.93
760.068	26737.32
760.405	26505.01
760.743	26464.56
761.08	26402.87
761.417	26210.78
761.754	26230.44
762.091	26188.63
762.428	26215.75
762.765	25935.08
763.102	26000.16
763.438	25974.18
763.775	25630.68
764.112	25792.26
764.449	25741.41
764.785	25649.66
765.122	25474.08
765.458	25363.57
765.795	25361.31
766.131	25301.43
766.467	25268.66
766.804	25066.86
767.14	24896.01
767.476	25058.49
767.812	24860.76
768.148	24958.38
768.485	24760.42
768.821	24505.97
769.157	24646.08
769.492	24458.06
769.828	24510.49
770.164	24357.5
770.5	24242.92
770.836	24196.14
771.171	24084.96
771.507	24087.9
771.842	23790.05
772.178	23808.13
772.513	23779.21
772.849	23734.01
773.184	23570.4
773.519	23673.45
773.855	23442.49
774.19	23435.49
774.525	23394.58
774.86	23162.72
775.195	23241.82
775.53	23147.36
775.865	22962.28
776.2	22827.37
776.535	22716.18
776.87	22792.56
777.205	22579.69
777.539	22445.23
777.874	22518.22
778.209	22328.62
778.543	22355.51
778.878	22087.05
779.212	22174.95
779.547	22127.95
779.881	22068.97
780.215	21941.51
780.55	22063.54
780.884	21754.85
781.218	21705.14
781.552	21740.61
781.886	21663.55
782.22	21492.71
782.554	21393.05
782.888	21196.67
783.222	21124.13
783.556	21149.67
783.889	20958.94
784.223	20906.29
784.557	20871.71
784.89	20900.86
785.224	20759.62
785.557	20616.12
785.891	20623.81
786.224	20497.48
786.558	20433.3
786.891	20259.07
787.224	20183.37
787.557	20119.87
787.891	20146.53
788.224	20125.52
788.557	20074.9
788.89	19964.84
789.223	20020.66
789.556	19899.08
789.888	19830.38
790.221	19779.76
790.554	19532.31
790.887	19659.31
791.219	19561.01
791.552	19432.2
791.884	19412.31
792.217	19324.86
792.549	19261.58
792.882	19117.41
793.214	19000.57
793.546	19056.62
793.879	18905.89
794.211	18862.27
794.543	18896.17
794.875	18768.94
795.207	18807.58
795.539	18672.45
795.871	18668.15
796.203	18602.84
796.535	18428.39
796.867	18362.4
797.198	18392
797.53	18296.41
797.862	18219.8
798.193	18214.83
798.525	18112.46
798.856	18196.3
799.188	18027.72
799.519	17912.01
799.85	17784.11
800.182	17816.65
800.513	17830.66
800.844	17585.7
801.175	17669.54
801.506	17632.02
801.837	17556.09
802.168	17574.17
802.499	17457.56
802.83	17392.93
803.161	17408.3
803.491	17298.92
803.822	17373.95
804.153	17174.86
804.483	17155.42
804.814	16957.69
805.145	17091.25
805.475	16977.12
805.805	16898.93
806.136	16913.4
806.466	16846.05
806.796	16975.09
807.126	16726.28
807.457	16736.68
807.787	16703.69
808.117	16634.99
808.447	16476.57
808.777	16523.12
809.107	16439.51
809.436	16403.58
809.766	16394.54
810.096	16300.08
810.426	16300.98
810.755	16242.23
811.085	16190.25
811.414	16153.42
811.744	16027.32
812.073	16060.09
812.403	16067.32
812.732	15968.56
813.061	15882.46
813.39	15823.03
813.719	15887.44
814.049	15962.24
814.378	15787.1
814.707	15721.11
815.036	15779.19
815.365	15658.74
815.693	15473.66
816.022	15489.93
816.351	15499.87
816.68	15428.01
817.008	15543.72
817.337	15332.2
817.665	15308.92
817.994	15317.96
818.322	15294.91
818.651	15143.27
818.979	15123.39
819.307	15155.25
819.636	15144.63
819.964	15035.48
820.292	15110.51
820.62	15061.47
820.948	15082.26
821.276	15128.81
821.604	15066.89
821.932	15084.74
822.259	14969.49
822.587	15050.4
822.915	14947.12
823.243	15077.06
823.57	14957.52
823.898	14907.12
824.225	14937.86
824.553	14981.7
824.88	14913.68
825.207	15065.08
825.535	14890.63
825.862	14915.94
826.189	14925.43
826.516	15041.81
826.843	14913.9
827.17	14967.01
827.497	14979.44
827.824	14966.78
828.151	14919.55
828.478	14876.16
828.805	14911.64
829.131	14882.04
829.458	14863.96
829.785	14847.69
830.111	14902.83
830.438	14896.73
830.764	14971.08
831.09	14954.35
831.417	14826.22
831.743	14931.75
832.069	14810.18
832.395	14816.05
832.722	14913.68
833.048	14743.06
833.374	14809.95
833.7	14716.62
834.026	14770.85
834.351	14765.66
834.677	14813.11
835.003	14781.93
835.329	14746.67
835.654	14654.25
835.98	14690.18
836.306	14603.85
836.631	14629.16
836.956	14662.38
837.282	14604.76
837.607	14553.46
837.932	14513.01
838.258	14520.24
838.583	14497.19
838.908	14477.3
839.233	14517.98
839.558	14408.83
839.883	14364.31
840.208	14333.35
840.533	14224.43
840.858	14334.03
841.182	14284.54
841.507	14277.08
841.832	14219.46
842.156	14213.13
842.481	14116.18
842.805	14140.36
843.13	14053.81
843.454	14033.02
843.778	14044.55
844.103	13967.26
844.427	13943.08
844.751	13926.13
845.075	13914.38
845.399	13939.46
845.723	13807.26
846.047	13731.11
846.371	13672.35
846.695	13730.43
847.019	13651.56
847.343	13440.27
847.666	13479.36
847.99	13513.71
848.313	13351.46
848.637	13374.28
848.96	13312.81
849.284	13288.63
849.607	13211.35
849.931	13085.7
850.254	12996.44
850.577	12972.71
850.9	12921.64
851.223	12961.64
851.546	12887.29
851.869	12735.88
852.192	12891.36
852.515	12727.29
852.838	12662.66
853.161	12642.1
853.483	12577.69
853.806	12455.66
854.129	12490.91
854.451	12450.01
854.774	12462.67
855.096	12288.89
855.419	12309.9
855.741	12221.32
856.063	12215.44
856.385	12254.54
856.708	12153.97
857.03	12120.98
857.352	12112.85
857.674	12052.51
857.996	12052.06
858.318	11920.99
858.64	11936.8
858.961	11823.81
859.283	11876.47
859.605	11765.06
859.926	11850.93
860.248	11837.6
860.57	11741.56
860.891	11754.21
861.212	11642.8
861.534	11584.05
861.855	11618.4
862.176	11521.9
862.498	11586.98
862.819	11527.32
863.14	11545.63
863.461	11540.66
863.782	11450.94
864.103	11488.45
864.424	11418.63
864.745	11458.85
865.065	11432.19
865.386	11353.54
865.707	11304.51
866.027	11305.41
866.348	11360.77
866.668	11293.66
866.989	11311.74
867.309	11195.13
867.63	11270.16
867.95	11245.3
868.27	11122.81
868.59	11168.24
868.91	11205.75
869.23	11204.85
869.55	11059.31
869.87	11181.8
870.19	11038.98
870.51	11109.93
870.83	11116.04
871.15	10996.04
871.469	11045.53
871.789	11004.17
872.109	11002.37
872.428	10921.69
872.748	10982.03
873.067	10922.37
873.386	10978.64
873.706	10922.14
874.025	10874.69
874.344	10852.31
874.663	10881.92
874.982	10840.34
875.301	10811.86
875.62	10780.9
875.939	10770.06
876.258	10724.41
876.577	10721.47
876.896	10703.84
877.214	10677.63
877.533	10641.47
877.852	10668.82
878.17	10682.15
878.489	10657.06
878.807	10641.25
879.125	10619.33
879.444	10580.46
879.762	10519.44
880.08	10557.41
880.398	10507.24
880.716	10485.32
881.034	10420.69
881.352	10452.78
881.67	10416.39
881.988	10462.95
882.306	10411.2
882.624	10270.18
882.941	10389.95
883.259	10234.02
883.577	10318.99
883.894	10255.27
884.212	10255.27
884.529	10216.17
884.846	10200.13
885.164	10142.5
885.481	10149.06
885.798	10137.98
886.115	10071.54
886.432	10043.3
886.75	10068.61
887.067	10062.96
887.383	9972.11
887.7	9991.32
888.017	9904.09
888.334	9910.87
888.651	9960.13
888.967	9916.29
889.284	9870.42
889.6	9858.44
889.917	9750.42
890.233	9741.61
890.55	9728.95
890.866	9747.94
891.182	9650.76
891.498	9724.66
891.815	9647.15
892.131	9504.55
892.447	9531.22
892.763	9484.21
893.079	9491.22
893.395	9491.22
893.71	9460.71
894.026	9413.48
894.342	9364.44
894.657	9316.31
894.973	9341.39
895.289	9325.57
895.604	9361.51
895.92	9182.07
896.235	9199.02
896.55	9210.55
896.865	9150.44
897.181	9147.73
897.496	9082.87
897.811	9030.44
898.126	9090.33
898.441	8965.81
898.756	9028.86
899.071	8907.51
899.386	8988.18
899.7	8863.21
900.015	8829.77
900.33	8841.07
900.644	8778.02
900.959	8792.48
901.273	8781.86
901.588	8675.65
901.902	8603.79
902.216	8652.37
902.531	8632.03
902.845	8583.9
903.159	8562.88
903.473	8482.43
903.787	8506.39
904.101	8407.18
904.415	8422.09
904.729	8356.56
905.042	8393.4
905.356	8263.68
905.67	8279.73
905.984	8270.23
906.297	8252.16
906.611	8112.5
906.924	8152.05
907.237	8208.32
907.551	8082.22
907.864	8154.98
908.177	8114.08
908.491	8069.11
908.804	8020.75
909.117	7971.03
909.43	7885.61
909.743	7884.03
910.056	7885.39
910.368	7749.8
910.681	7735.56
910.994	7769.46
911.307	7734.2
911.619	7691.72
911.932	7636.13
912.244	7639.74
912.557	7562.23
912.869	7523.14
913.181	7524.94
913.494	7536.02
913.806	7448.11
914.118	7438.84
914.43	7366.53
914.742	7424.16
915.054	7309.81
915.366	7332.63
915.678	7319.98
915.99	7267.78
916.302	7253.09
916.613	7163.37
916.925	7181.45
917.236	7120.43
917.548	7153.43
917.859	7125.86
918.171	7071.17
918.482	7032.07
918.794	7023.04
919.105	6978.74
919.416	6961.34
919.727	6936.26
920.038	6893.77
920.349	6879.76
920.66	6777.17
920.971	6756.6
921.282	6778.97
921.593	6682.25
921.903	6686.1
922.214	6694
922.525	6646.77
922.835	6567.91
923.146	6542.6
923.456	6589.37
923.767	6571.52
924.077	6518.87
924.387	6531.3
924.697	6445.42
925.008	6424.18
925.318	6377.4
925.628	6381.02
925.938	6331.75
926.248	6296.05
926.558	6294.47
926.867	6253.34
927.177	6232.32
927.487	6188.71
927.796	6131.53
928.106	6152.55
928.416	6135.83
928.725	6107.81
929.034	6105.55
929.344	6049.28
929.653	6051.08
929.962	5969.05
930.271	5943.74
930.581	5934.7
930.89	5921.37
931.199	5927.7
931.508	5897.64
931.817	5843.63
932.125	5811.09
932.434	5844.54
932.743	5764.54
933.051	5701.94
933.36	5708.95
933.669	5669.17
933.977	5652.68
934.286	5653.13
934.594	5671.43
934.902	5558.44
935.21	5610.64
935.519	5545.33
935.827	5531.55
936.135	5477.09
936.443	5463.08
936.751	5428.05
937.059	5429.63
937.367	5364.55
937.674	5394.83
937.982	5391.67
938.29	5352.12
938.597	5395.96
938.905	5282.97
939.213	5266.47
939.52	5246.36
939.827	5219.92
940.135	5204.78
940.442	5199.81
940.749	5150.54
941.056	5131.79
941.363	5086.82
941.67	5063.09
941.977	5087.72
942.284	5023.09
942.591	5021.51
942.898	5022.86
943.205	5005.01
943.511	4973.82
943.818	4956.2
944.125	4919.59
944.431	4911.23
944.738	4913.71
945.044	4878.69
945.35	4875.52
945.657	4832.13
945.963	4788.74
946.269	4773.15
946.575	4788.29
946.881	4751.68
947.187	4723.89
947.493	4691.57
947.799	4667.62
948.105	4649.31
948.41	4655.41
948.716	4647.28
949.022	4605.92
949.327	4590.56
949.633	4526.6
949.938	4534.97
950.244	4582.2
950.549	4478.24
950.854	4489.32
951.16	4441.18
951.465	4447.74
951.77	4438.47
952.075	4432.82
952.38	4374.29
952.685	4385.82
952.99	4365.7
953.294	4294.52
953.599	4272.37
953.904	4272.83
954.209	4252.49
954.513	4257.01
954.818	4256.55
955.122	4233.5
955.426	4201.87
955.731	4180.17
956.035	4157.35
956.339	4158.93
956.643	4122.32
956.948	4099.04
957.252	4084.36
957.556	4069.44
957.86	4043.68
958.163	4084.13
958.467	4004.58
958.771	4028.54
959.075	4015.43
959.378	3960.29
959.682	3960.74
959.985	3912.38
960.289	3923.91
960.592	3884.36
960.896	3853.85
961.199	3844.36
961.502	3836.23
961.805	3826.74
962.108	3828.09
962.411	3791.48
962.714	3722.11
963.017	3763.91
963.32	3768.88
963.623	3747.64
963.926	3731.82
964.228	3703.35
964.531	3717.13
964.833	3689.11
965.136	3679.17
965.438	3651.6
965.741	3623.8
966.043	3556.46
966.345	3607.98
966.648	3591.71
966.95	3591.04
967.252	3538.83
967.554	3582
967.856	3501.32
968.158	3475.78
968.46	3494.09
968.761	3464.71
969.063	3460.19
969.365	3411.15
969.666	3386.52
969.968	3385.62
970.269	3400.76
970.571	3378.84
970.872	3370.25
971.174	3348.78
971.475	3324.38
971.776	3295.9
972.077	3312.85
972.378	3306.75
972.679	3317.14
972.98	3281.44
973.281	3260.42
973.582	3222.23
973.883	3217.49
974.183	3157.15
974.484	3217.26
974.785	3153.53
975.085	3162.12
975.386	3132.52
975.686	3170.71
975.986	3122.8
976.287	3137.49
976.587	3107.66
976.887	3107.21
977.187	3066.98
977.487	3076.47
977.787	3054.78
978.087	3004.38
978.387	3020.2
978.687	3007.1
978.987	3015.91
979.286	2968.9
979.586	2954.22
979.885	2987.66
980.185	2925.06
980.484	2923.93
980.784	2903.14
981.083	2898.85
981.382	2865.63
981.682	2888.91
981.981	2853.43
982.28	2845.97
982.579	2804.39
982.878	2826.54
983.177	2828.12
983.475	2798.29
983.774	2764.16
984.073	2765.52
984.372	2774.11
984.67	2763.49
984.969	2733.2
985.267	2717.39
985.566	2704.73
985.864	2684.84
986.162	2667.9
986.461	2674.45
986.759	2671.06
987.057	2616.82
987.355	2636.71
987.653	2598.29
987.951	2601.01
988.249	2626.54
988.547	2577.73
988.844	2597.16
989.142	2586.54
989.44	2541.57
989.737	2566.88
990.035	2524.85
990.332	2482.59
990.63	2489.14
990.927	2529.37
991.224	2478.75
991.521	2462.48
991.819	2438.52
992.116	2456.38
992.413	2449.6
992.71	2409.6
993.006	2404.4
993.303	2426.32
993.6	2361.92
993.897	2370.28
994.193	2384.51
994.49	2364.63
994.787	2334.12
995.083	2369.37
995.379	2327.79
995.676	2322.82
995.972	2290.96
996.268	2304.97
996.565	2287.12
996.861	2281.69
997.157	2277.85
997.453	2238.08
997.749	2256.83
998.044	2258.87
998.34	2198.76
998.636	2184.07
998.932	2214.35
999.227	2174.35
999.523	2148.59
999.818	2150.62
1000.114	2126.22
1000.409	2135.25
1000.704	2139.32
1001	2115.14
1001.295	2094.35
1001.59	2081.92
1001.885	2107.23
1002.18	2018.87
1002.475	2076.95
1002.77	2057.06
1003.065	2014.35
1003.359	2012.32
1003.654	2022.94
1003.949	1990.17
1004.243	1982.72
1004.538	1957.86
1004.832	1965.09
1005.127	1974.58
1005.421	1939.1
1005.715	1922.6
1006.009	1930.51
1006.304	1913.11
1006.598	1910.63
1006.892	1914.24
1007.186	1891.42
1007.48	1878.09
1007.773	1883.51
1008.067	1849.39
1008.361	1851.87
1008.655	1839.44
1008.948	1844.41
1009.242	1784.76
1009.535	1801.93
1009.829	1795.15
1010.122	1791.31
1010.415	1778.65
1010.708	1745.66
1011.001	1744.08
1011.295	1732.55
1011.588	1731.88
1011.881	1709.96
1012.173	1691.2
1012.466	1695.94
1012.759	1680.13
1013.052	1716.73
1013.344	1670.41
1013.637	1659.56
1013.93	1671.31
1014.222	1640.58
1014.514	1621.14
1014.807	1641.93
1015.099	1609.17
1015.391	1599.9
1015.683	1578.89
1015.976	1632.44
1016.268	1589.05
1016.56	1574.82
1016.851	1549.96
1017.143	1526.01
1017.435	1519.68
1017.727	1550.19
1018.018	1535.04
1018.31	1488.94
1018.602	1493.92
1018.893	1471.32
1019.185	1474.26
1019.476	1454.59
1019.767	1473.13
1020.058	1468.61
1020.35	1442.39
1020.641	1435.39
1020.932	1441.26
1021.223	1420.47
1021.514	1423.41
1021.804	1428.61
1022.095	1399
1022.386	1392.22
1022.677	1366.24
1022.967	1383.41
1023.258	1354.71
1023.548	1356.52
1023.839	1339.12
1024.129	1335.73
1024.419	1342.73
1024.709	1319.68
1025	1312.23
1025.29	1286.69
1025.58	1279.68
1025.87	1259.57
1026.16	1239.23
1026.449	1262.51
1026.739	1261.83
1027.029	1249.85
1027.319	1257.54
1027.608	1238.56
1027.898	1197.43
1028.187	1231.55
1028.477	1221.83
1028.766	1187.26
1029.055	1197.65
1029.344	1202.85
1029.634	1182.74
1029.923	1168.95
1030.212	1152.46
1030.501	1138.9
1030.79	1157.65
1031.078	1131.67
1031.367	1124.43
1031.656	1137.54
1031.945	1117.88
1032.233	1084.89
1032.522	1087.82
1032.81	1090.54
1033.099	1080.14
1033.387	1068.62
1033.675	1067.49
1033.963	1052.35
1034.251	1058.9
1034.54	1046.47
1034.828	1063.42
1035.116	1040.14
1035.403	1039.46
1035.691	1031.33
1035.979	1022.74
1036.267	1020.26
1036.554	996.3
1036.842	993.82
1037.129	978
1037.417	988.84
1037.704	995.62
1037.992	985.91
1038.279	964.66
1038.566	962.86
1038.853	962.86
1039.14	962.86
