Data from hue_280_FLMS001491_00059.txt Node
Date: Tue Feb 07 15:55:28 GMT 2017
User: dcchb
Spectrometer: FLMS00149
Trigger mode: 0
Integration Time (sec): 2.000000E-2
Scans to average: 10
Electric dark correction enabled: true
Nonlinearity correction enabled: false
Boxcar width: 0
XAxis mode: Wavelengths
Number of Pixels in Spectrum: 2048
>>>>>Begin Spectral Data<<<<<
341.393	-19.11
341.776	-19.11
342.16	-19.11
342.543	-54.59
342.927	-57.53
343.31	-77.41
343.693	-75.38
344.077	-58.2
344.46	-65.21
344.843	-48.71
345.226	-47.36
345.61	-30.41
345.993	5.97
346.376	-3.29
346.759	-3.06
347.142	26.76
347.525	48.69
347.908	49.82
348.291	71.28
348.674	96.37
349.057	110.15
349.44	127.78
349.823	141.79
350.206	142.02
350.588	189.92
350.971	187.89
351.354	206.2
351.737	222.01
352.119	231.51
352.502	252.52
352.884	256.82
353.267	250.49
353.65	274.89
354.032	289.81
354.414	289.36
354.797	313.99
355.179	325.29
355.562	302.46
355.944	323.71
356.326	320.99
356.709	328
357.091	344.27
357.473	338.4
357.855	335.46
358.238	340.65
358.62	335.23
359.002	325.29
359.384	349.02
359.766	339.98
360.148	342.69
360.53	329.81
360.912	343.82
361.294	336.36
361.676	329.58
362.057	340.65
362.439	334.1
362.821	313.76
363.203	325.29
363.584	314.89
363.966	313.31
364.348	323.93
364.729	332.07
365.111	313.54
365.493	314.89
365.874	303.59
366.256	303.59
366.637	340.88
367.019	314.21
367.4	318.96
367.781	313.99
368.163	304.5
368.544	316.7
368.925	314.44
369.306	321.22
369.688	318.28
370.069	323.48
370.45	322.8
370.831	311.96
371.212	320.99
371.593	311.96
371.974	318.06
372.355	310.15
372.736	298.85
373.117	302.92
373.498	318.96
373.879	305.63
374.26	301.11
374.641	318.73
375.021	338.4
375.402	328.9
375.783	324.61
376.163	332.52
376.544	335.23
376.925	315.12
377.305	325.06
377.686	342.24
378.066	347.43
378.447	341.78
378.827	356.47
379.208	340.88
379.588	313.08
379.968	333.65
380.349	328.9
380.729	306.98
381.109	336.81
381.489	348.34
381.87	361.9
382.25	340.43
382.63	342.69
383.01	347.89
383.39	325.29
383.77	334.33
384.15	335.01
384.53	350.82
384.91	348.11
385.29	350.82
385.67	351.05
386.049	356.02
386.429	372.29
386.809	366.64
387.189	358.28
387.568	362.35
387.948	358.73
388.328	373.2
388.707	348.34
389.087	377.26
389.466	385.17
389.846	383.37
390.225	351.95
390.605	400.09
390.984	377.72
391.363	377.04
391.743	389.47
392.122	397.6
392.501	380.43
392.881	400.77
393.26	398.51
393.639	391.95
394.018	384.95
394.397	399.41
394.776	410.26
395.155	389.47
395.534	396.47
395.913	409.58
396.292	407.55
396.671	405.06
397.05	396.92
397.429	389.24
397.808	404.83
398.186	423.82
398.565	425.85
398.944	416.36
399.323	410.71
399.701	436.02
400.08	401.67
400.458	416.81
400.837	431.5
401.215	436.7
401.594	434.44
401.972	447.32
402.351	443.93
402.729	450.26
403.107	453.19
403.486	442.12
403.864	444.61
404.242	455.45
404.62	479.18
404.999	485.96
405.377	457.94
405.755	470.82
406.133	479.41
406.511	482.57
406.889	495.45
407.267	507.88
407.645	493.65
408.023	502.91
408.401	496.58
408.779	500.65
409.156	511.27
409.534	530.03
409.912	537.03
410.29	523.02
410.667	527.09
411.045	542.01
411.422	545.62
411.8	546.98
412.178	575.22
412.555	572.74
412.933	577.71
413.31	575.22
413.687	606.86
414.065	582.46
414.442	598.73
414.819	589.24
415.197	635.79
415.574	622.46
415.951	648.44
416.328	641.66
416.705	649.57
417.082	649.8
417.46	658.39
417.837	677.6
418.214	648.9
418.591	700.65
418.967	694.54
419.344	690.25
419.721	725.5
420.098	724.6
420.475	751.94
420.852	754.43
421.228	716.92
421.605	734.09
421.982	758.27
422.358	783.58
422.735	777.93
423.111	782
423.488	814.99
423.864	822.45
424.241	838.49
424.617	833.52
424.994	842.56
425.37	847.53
425.746	864.71
426.123	856.57
426.499	876.46
426.875	869.45
427.251	901.54
427.627	930.02
428.003	928.44
428.379	916.91
428.756	949
429.132	968.66
429.507	925.72
429.883	984.25
430.259	978.83
430.635	995.55
431.011	1007.53
431.387	1024.48
431.763	1052.5
432.138	1050.24
432.514	1054.08
432.89	1069
433.265	1074.19
433.641	1100.18
434.016	1139.96
434.392	1121.43
434.767	1132.72
435.143	1159.16
435.518	1179.05
435.894	1203.46
436.269	1239.16
436.644	1223.57
437.02	1241.65
437.395	1236.22
437.77	1261.31
438.145	1254.76
438.52	1297.92
438.895	1300.63
439.271	1327.3
439.646	1353.74
440.021	1320.29
440.395	1374.3
440.77	1339.95
441.145	1373.4
441.52	1425.6
441.895	1392.6
442.27	1430.12
442.645	1443.45
443.019	1426.05
443.394	1454.3
443.769	1455.2
444.143	1445.26
444.518	1477.12
444.892	1486.84
445.267	1480.51
445.641	1521.19
446.016	1515.77
446.39	1526.84
446.764	1542.88
447.139	1489.33
447.513	1528.87
447.887	1562.32
448.262	1534.3
448.636	1568.87
449.01	1580.85
449.384	1576.33
449.758	1580.4
450.132	1621.98
450.506	1621.98
450.88	1634.18
451.254	1624.46
451.628	1656.33
452.002	1647.06
452.376	1679.38
452.75	1647.74
453.123	1706.27
453.497	1699.04
453.871	1702.88
454.244	1737.45
454.618	1769.32
454.992	1739.71
455.365	1760.73
455.739	1823.1
456.112	1834.63
456.486	1822.65
456.859	1851.58
457.232	1904.68
457.606	1852.71
457.979	1886.83
458.352	1944
458.725	1948.07
459.099	1957.56
459.472	1956.88
459.845	1975.64
460.218	2014.28
460.591	2035.07
460.964	2038.01
461.337	2073.26
461.71	2081.63
462.083	2114.85
462.456	2105.81
462.829	2147.61
463.201	2190.55
463.574	2138.12
463.947	2177.22
464.32	2238.23
464.692	2221.96
465.065	2237.33
465.438	2296.99
465.81	2285.46
466.183	2311.45
466.555	2346.7
466.928	2391
467.3	2368.17
467.672	2391.67
468.045	2447.94
468.417	2438.23
468.789	2446.14
469.161	2474.16
469.534	2511.45
469.906	2606.58
470.278	2570.88
470.65	2588.05
471.022	2619.69
471.394	2690.88
471.766	2674.15
472.138	2720.71
472.51	2769.07
472.882	2803.41
473.253	2818.56
473.625	2833.47
473.997	2883.41
474.369	2894.03
474.74	2918.44
475.112	2952.56
475.484	3016.29
475.855	3077.31
476.227	3087.48
476.598	3141.26
476.97	3159.11
477.341	3220.81
477.713	3247.02
478.084	3254.25
478.455	3348.71
478.827	3367.92
479.198	3464.41
479.569	3417.18
479.94	3492.66
480.311	3523.85
480.682	3610.4
481.053	3665.09
481.424	3690.62
481.795	3716.39
482.166	3778.08
482.537	3837.29
482.908	3892.43
483.279	3903.27
483.65	3965.42
484.021	4079.31
484.391	4055.36
484.762	4027.79
485.133	4112.99
485.503	4146.88
485.874	4205.19
486.244	4220.78
486.615	4299.19
486.985	4340.55
487.356	4436.14
487.726	4428.68
488.097	4503.48
488.467	4497.38
488.837	4570.15
489.207	4623.03
489.578	4678.39
489.948	4733.31
490.318	4806.3
490.688	4770.37
491.058	4908.22
491.428	4877.26
491.798	4960.19
492.168	5024.37
492.538	5038.84
492.908	5036.35
493.278	5150.47
493.648	5122.9
494.017	5170.81
494.387	5221.43
494.757	5273.63
495.126	5298.26
495.496	5325.38
495.866	5343.01
496.235	5379.17
496.605	5413.52
496.974	5442.67
497.344	5567.18
497.713	5507.98
498.082	5493.74
498.452	5586.62
498.821	5543.68
499.19	5646.05
499.559	5657.8
499.928	5680.4
500.298	5682.21
500.667	5729.89
501.036	5698.71
501.405	5820.96
501.774	5739.16
502.143	5813.51
502.512	5811.92
502.88	5926.5
503.249	5912.26
503.618	5979.6
503.987	5968.98
504.356	6009.88
504.724	5990
505.093	6001.07
505.462	6026.16
505.83	6050.56
506.199	6088.98
506.567	6132.82
506.936	6163.55
507.304	6219.14
507.672	6200.39
508.041	6227.96
508.409	6242.65
508.777	6270.89
509.145	6305.7
509.514	6294.62
509.882	6342.3
510.25	6359.25
510.618	6390.89
510.986	6400.16
511.354	6497.78
511.722	6471.79
512.09	6563.54
512.458	6511.11
512.826	6604.67
513.193	6594.28
513.561	6571.68
513.929	6621.85
514.297	6592.69
514.664	6707.72
515.032	6644.9
515.4	6752.46
515.767	6702.07
516.135	6803.31
516.502	6704.56
516.869	6845.57
517.237	6834.27
517.604	6811.67
517.972	6886.7
518.339	6860.71
518.706	6841.95
519.073	6930.99
519.44	6933.93
519.808	6979.8
520.175	6968.73
520.542	7078.56
520.909	7070.65
521.276	7111.32
521.643	7105
522.009	7143.41
522.376	7220.02
522.743	7252.79
523.11	7280.36
523.477	7348.83
523.843	7369.62
524.21	7406.23
524.577	7444.42
524.943	7395.38
525.31	7447.36
525.676	7503.63
526.043	7557.41
526.409	7551.31
526.776	7621.14
527.142	7636.06
527.508	7678.99
527.874	7762.61
528.241	7726.22
528.607	7731.87
528.973	7823.17
529.339	7791.31
529.705	7928.7
530.071	7883.73
530.437	7968.48
530.803	7914.02
531.169	8018.42
531.535	7996.72
531.901	8061.58
532.267	8014.58
532.632	8076.95
532.998	8063.16
533.364	8095.25
533.73	8173.9
534.095	8282.14
534.461	8241.69
534.826	8184.74
535.192	8291.41
535.557	8328.24
535.923	8342.48
536.288	8337.73
536.653	8382.7
537.019	8398.07
537.384	8344.29
537.749	8366.66
538.114	8409.82
538.479	8426.54
538.845	8440.33
539.21	8474.9
539.575	8485.98
539.94	8482.81
540.305	8557.39
540.67	8586.77
541.034	8597.61
541.399	8640.55
541.764	8608.46
542.129	8678.06
542.494	8713.99
542.858	8698.63
543.223	8619.31
543.587	8692.53
543.952	8808.91
544.316	8791.05
544.681	8801.9
545.045	8793.09
545.41	8911.28
545.774	8926.64
546.138	8852.75
546.503	8878.51
546.867	8837.83
547.231	9024.04
547.595	8951.05
547.959	8919.64
548.324	9021.56
548.688	8951.28
549.052	8981.56
549.416	8982.01
549.779	9050.71
550.143	9068.34
550.507	9141.33
550.871	9077.15
551.235	9155.11
551.599	9101.1
551.962	9151.5
552.326	9215.68
552.689	9264.04
553.053	9158.28
553.417	9189.46
553.78	9306.07
554.143	9331.38
554.507	9284.6
554.87	9363.24
555.234	9402.79
555.597	9335.22
555.96	9415.9
556.323	9377.71
556.686	9466.74
557.05	9523.01
557.413	9447.31
557.776	9484.14
558.139	9554.2
558.502	9521.43
558.865	9598.26
559.228	9636.91
559.59	9681.65
559.953	9677.36
560.316	9747.19
560.679	9747.41
561.041	9829.44
561.404	9836.68
561.767	9920.74
562.129	9865.15
562.492	9957.13
562.854	9925.49
563.217	9949.67
563.579	9966.39
563.941	9991.93
564.304	10078.7
564.666	10144.92
565.028	10120.06
565.39	10139.49
565.753	10281.64
566.115	10275.53
566.477	10251.13
566.839	10322.31
567.201	10356.89
567.563	10392.82
567.925	10374.97
568.287	10436.89
568.648	10406.83
569.01	10546.04
569.372	10581.52
569.734	10589.42
570.095	10671.91
570.457	10600.72
570.819	10745.81
571.18	10695.86
571.542	10750.78
571.903	10791.23
572.265	10821.74
572.626	10854.05
572.987	10866.48
573.349	10910.32
573.71	10946.03
574.071	10996.42
574.432	10988.74
574.794	11127.94
575.155	11172.23
575.516	11183.31
575.877	11246.13
576.238	11306.47
576.599	11331.78
576.96	11273.7
577.32	11360.7
577.681	11355.73
578.042	11489.29
578.403	11513.69
578.763	11551.89
579.124	11555.05
579.485	11666.23
579.845	11708.49
580.206	11708.94
580.566	11701.26
580.927	11815.61
581.287	11895.83
581.648	11862.16
582.008	11907.36
582.368	11966.56
582.728	12043.85
583.089	12083.4
583.449	12096.73
583.809	12143.28
584.169	12262.83
584.529	12302.37
584.889	12438.64
585.249	12384.86
585.609	12437.29
585.969	12547.11
586.329	12550.96
586.688	12646.09
587.048	12627.79
587.408	12718.18
587.768	12776.94
588.127	12826.2
588.487	12917.05
588.846	12910.95
589.206	12993.88
589.565	13030.26
589.925	13178.96
590.284	13154.33
590.643	13225.06
591.003	13324.72
591.362	13440.2
591.721	13465.51
592.08	13557.26
592.44	13661.21
592.799	13703.47
593.158	13729.91
593.517	13811.49
593.876	13905.27
594.235	13914.99
594.593	13981.65
594.952	13984.59
595.311	14005.61
595.67	14105.72
596.029	14241.98
596.387	14249.67
596.746	14410.79
597.104	14416.89
597.463	14477.68
597.822	14537.12
598.18	14464.8
598.538	14550.68
598.897	14697.79
599.255	14545.48
599.613	14801.52
599.972	14817.56
600.33	14858.47
600.688	14892.14
601.046	15011.68
601.404	15021.4
601.762	15049.87
602.12	15125.35
602.478	15164.22
602.836	15263.2
603.194	15146.14
603.552	15297.55
603.91	15324.22
604.268	15380.03
604.625	15330.77
604.983	15420.71
605.341	15436.3
605.698	15570.54
606.056	15569.41
606.413	15613.02
606.771	15635.62
607.128	15710.19
607.485	15589.29
607.843	15670.2
608.2	15843.98
608.557	15847.14
608.914	15844.43
609.272	15866.57
609.629	15903.41
609.986	16020.69
610.343	15921.04
610.7	16035.84
611.057	16059.79
611.414	16064.76
611.771	16082.39
612.127	16153.57
612.484	16107.47
612.841	16277.86
613.198	16273.8
613.554	16331.19
613.911	16296.62
614.267	16429.5
614.624	16410.06
614.98	16447.35
615.337	16491.64
615.693	16470.85
616.05	16492.77
616.406	16585.2
616.762	16437.41
617.118	16616.61
617.475	16591.08
617.831	16569.61
618.187	16639.89
618.543	16689.38
618.899	16709.49
619.255	16730.96
619.611	16711.07
619.967	16803.95
620.323	16705.87
620.678	16805.76
621.034	16803.72
621.39	16794.23
621.746	16776.38
622.101	16983.38
622.457	16781.8
622.812	16808.47
623.168	16901.58
623.523	16937.28
623.879	17052.98
624.234	16896.38
624.589	16917.17
624.945	16867.9
625.3	17086.2
625.655	16950.84
626.01	16962.14
626.365	16959.88
626.72	16985.64
627.075	16918.3
627.43	16916.26
627.785	16888.69
628.14	16962.14
628.495	16931.41
628.85	16998.3
629.205	16935.02
629.559	16977.28
629.914	16915.59
630.269	16918.3
630.623	16824.06
630.978	16870.62
631.332	16997.62
631.687	16982.25
632.041	16896.6
632.396	16882.59
632.75	16813.44
633.104	16885.08
633.459	16784.06
633.813	16777.74
634.167	16864.97
634.521	16753.1
634.875	16837.62
635.229	16894.34
635.583	16710.85
635.937	16791.97
636.291	16753.78
636.645	16763.27
636.999	16601.7
637.352	16703.16
637.706	16661.81
638.06	16699.77
638.413	16702.94
638.767	16636.72
639.121	16650.28
639.474	16536.16
639.828	16485.77
640.181	16557.63
640.534	16522.83
640.888	16401.25
641.241	16420.01
641.594	16361.25
641.947	16549.95
642.301	16421.59
642.654	16441.93
643.007	16489.61
643.36	16445.54
643.713	16446.22
644.066	16490.06
644.419	16326.9
644.771	16329.16
645.124	16202.61
645.477	16088.04
645.83	15996.97
646.182	15954.71
646.535	15933.92
646.888	15884.2
647.24	15838.33
647.593	15977.08
647.945	15860.02
648.298	15820.93
648.65	15827.93
649.002	15802.85
649.355	15805.11
649.707	15869.06
650.059	15904.54
650.411	16094.36
650.763	16254.81
651.115	16368.93
651.467	16281.93
651.819	16314.7
652.171	16254.36
652.523	16303.85
652.875	16104.08
653.227	16196.06
653.578	16291.65
653.93	16232.21
654.282	16170.97
654.633	16126.45
654.985	16224.08
655.337	16228.6
655.688	16240.35
656.039	16338.43
656.391	16145.66
656.742	16323.51
657.094	16198.99
657.445	16317.41
657.796	16181.37
658.147	16179.11
658.498	16194.7
658.849	16238.99
659.2	16278.54
659.551	16195.61
659.902	16292.78
660.253	16181.14
660.604	16318.77
660.955	16294.81
661.306	16314.25
661.656	16243.97
662.007	16336.17
662.358	16270.63
662.708	16219.33
663.059	16400.35
663.409	16183.18
663.76	16287.13
664.11	16267.47
664.461	16320.12
664.811	16273.34
665.161	16292.55
665.511	16165.78
665.862	16224.76
666.212	16333.45
666.562	16356.5
666.912	16325.55
667.262	16312.89
667.612	16336.39
667.962	16384.98
668.312	16345.21
668.662	16352.44
669.011	16320.35
669.361	16273.8
669.711	16269.73
670.06	16192.89
670.41	16270.18
670.76	16169.62
671.109	16341.59
671.459	16248.26
671.808	16235.15
672.157	16240.58
672.507	16194.7
672.856	16177.07
673.205	16229.05
673.554	16294.13
673.904	16215.94
674.253	16211.65
674.602	16120.8
674.951	15968.72
675.3	15883.75
675.649	16157.19
675.998	16022.5
676.346	16112.44
676.695	16057.98
677.044	16024.99
677.393	16053.91
677.741	16048.94
678.09	16041.26
678.438	15999.45
678.787	15993.8
679.135	15992.67
679.484	15865.44
679.832	15941.15
680.181	15845.78
680.529	15900.47
680.877	15869.74
681.225	15728.5
681.573	15905.67
681.922	15729.18
682.27	15683.53
682.618	15779.12
682.966	15626.58
683.314	15635.62
683.661	15564.44
684.009	15586.13
684.357	15494.61
684.705	15511.33
685.053	15483.31
685.4	15511.56
685.748	15353.82
686.095	15437.66
686.443	15309.98
686.79	15302.52
687.138	15227.95
687.485	15387.49
687.832	15143.2
688.18	15267.27
688.527	15102.98
688.874	15180.04
689.221	15011.91
689.568	15040.61
689.915	14904.34
690.262	14986.37
690.609	14915.41
690.956	14919.03
691.303	14838.58
691.65	14833.38
691.997	14768.98
692.344	14743.89
692.69	14718.58
693.037	14626.83
693.383	14557.68
693.73	14543.9
694.077	14438.14
694.423	14506.16
694.769	14402.43
695.116	14338.03
695.462	14403.56
695.808	14332.38
696.155	14341.19
696.501	14136.45
696.847	14236.11
697.193	14077.02
697.539	14129.44
697.885	13974.19
698.231	13923.35
698.577	14014.87
698.923	13945.49
699.269	13815.55
699.614	13694.65
699.96	13650.14
700.306	13690.59
700.651	13554.77
700.997	13583.92
701.342	13479.29
701.688	13414.21
702.033	13338.51
702.379	13336.7
702.724	13345.96
703.069	13333.99
703.415	13188
703.76	13141
704.105	13192.52
704.45	13099.87
704.795	13021
705.14	12999.31
705.485	12939.19
705.83	12910.49
706.175	12911.17
706.52	12839.76
706.865	12883.15
707.209	12819.87
707.554	12715.47
707.899	12758.86
708.243	12757.96
708.588	12731.74
708.932	12588.02
709.277	12548.92
709.621	12576.04
709.966	12454.23
710.31	12499.21
710.654	12417.85
710.998	12448.59
711.342	12456.49
711.687	12409.26
712.031	12300.34
712.375	12343.5
712.719	12345.31
713.063	12222.38
713.407	12327.23
713.75	12244.75
714.094	12148.93
714.438	12245.88
714.782	12251.53
715.125	12116.84
715.469	12085.2
715.812	12012.89
716.156	11975.83
716.499	11971.31
716.843	11972.89
717.186	11934.47
717.53	11996.17
717.873	11947.36
718.216	11988.94
718.559	11888.83
718.902	11797.53
719.246	11921.59
719.589	11802.73
719.932	11750.3
720.275	11813.8
720.617	11793.91
720.96	11667.59
721.303	11766.34
721.646	11726.57
721.989	11674.82
722.331	11735.38
722.674	11618.32
723.016	11717.08
723.359	11613.35
723.701	11635.5
724.044	11568.61
724.386	11490.64
724.729	11633.01
725.071	11496.75
725.413	11553.92
725.755	11569.74
726.097	11516.86
726.439	11450.42
726.782	11479.12
727.124	11492.45
727.465	11450.87
727.807	11405.67
728.149	11484.32
728.491	11425.79
728.833	11517.99
729.175	11447.03
729.516	11376.07
729.858	11425.11
730.199	11405.22
730.541	11393.47
730.882	11352.57
731.224	11516.63
731.565	11380.82
731.906	11449.06
732.248	11418.33
732.589	11401.38
732.93	11300.59
733.271	11404.54
733.612	11369.07
733.953	11376.52
734.294	11368.61
734.635	11369.74
734.976	11369.29
735.317	11357.77
735.658	11405.45
735.999	11339.69
736.339	11312.12
736.68	11398.9
737.021	11316.41
737.361	11381.27
737.702	11450.42
738.042	11424.21
738.383	11347.82
738.723	11375.39
739.063	11388.73
739.404	11446.35
739.744	11424.66
740.084	11300.82
740.424	11449.52
740.764	11441.38
741.104	11490.19
741.444	11484.09
741.784	11468.5
742.124	11529.06
742.464	11439.35
742.804	11506.69
743.143	11547.82
743.483	11504.66
743.823	11599.79
744.162	11485.22
744.502	11616.74
744.841	11655.39
745.181	11640.92
745.52	11632.11
745.86	11703.75
746.199	11785.1
746.538	11811.09
746.877	11852.89
747.216	11949.62
747.556	11897.87
747.895	11976.28
748.234	11979.44
748.573	12056.73
748.911	12114.36
749.25	12105.54
749.589	12216.73
749.928	12273.67
750.267	12342.6
750.605	12408.13
750.944	12496.72
751.283	12555.25
751.621	12602.93
751.96	12731.97
752.298	12860.33
752.636	12877.73
752.975	12978.74
753.313	13023.03
753.651	13179.87
753.989	13261.22
754.327	13334.89
754.666	13416.24
755.004	13633.64
755.342	13779.62
755.679	13882.67
756.017	13924.03
756.355	14131.03
756.693	14212.61
757.031	14372.6
757.368	14386.39
757.706	14622.77
758.044	14714.06
758.381	14766.04
758.719	14912.02
759.056	15240.38
759.394	15203.54
759.731	15303.2
760.068	15417.09
760.405	15571.67
760.743	15732.11
761.08	15977.76
761.417	16029.06
761.754	16193.12
762.091	16347.69
762.428	16471.53
762.765	16474.24
763.102	16646.89
763.438	16755.59
763.775	16879.43
764.112	17074.45
764.449	17218.4
764.785	17354.22
765.122	17360.32
765.458	17506.31
765.795	17567.09
766.131	17752.85
766.467	17856.58
766.804	17972.51
767.14	18017.03
767.476	18173.63
767.812	18233.07
768.148	18347.64
768.485	18493.85
768.821	18441.65
769.157	18640.96
769.492	18662.88
769.828	18772.49
770.164	18730.45
770.5	18852.48
770.836	19040.28
771.171	18985.14
771.507	19157.11
771.842	19096.09
772.178	19075.98
772.513	19287.05
772.849	19224
773.184	19280.95
773.519	19358.91
773.855	19407.05
774.19	19358.69
774.525	19475.07
774.86	19504.44
775.195	19459.7
775.53	19534.73
775.865	19480.94
776.2	19386.03
776.535	19507.83
776.87	19503.77
777.205	19504.22
777.539	19419.25
777.874	19628.74
778.209	19543.77
778.543	19501.73
778.878	19513.71
779.212	19569.98
779.547	19617.21
779.881	19572.69
780.215	19606.36
780.55	19651.79
780.884	19531.79
781.218	19460.83
781.552	19581.5
781.886	19519.13
782.22	19443.88
782.554	19515.74
782.888	19384.9
783.222	19302.64
783.556	19286.82
783.889	19268.52
784.223	19179.93
784.557	19213.83
784.89	19343.32
785.224	19232.36
785.557	19055.64
785.891	19137
786.224	19144.23
786.558	19018.81
786.891	18961.18
787.224	18977.45
787.557	18847.74
787.891	18865.37
788.224	18913.27
788.557	18919.38
788.89	18928.19
789.223	18893.61
789.556	18605.94
789.888	18648.87
790.221	18700.62
790.554	18522.78
790.887	18501.53
791.219	18429.22
791.552	18550.8
791.884	18526.84
792.217	18443.23
792.549	18438.94
792.882	18236
793.214	18224.48
793.546	18174.99
793.879	18168.43
794.211	18043.47
794.543	18151.94
794.875	18095.22
795.207	18128.89
795.539	18046.63
795.871	18074.88
796.203	17869.91
796.535	17822.68
796.867	17784.26
797.198	17669.69
797.53	17596.47
797.862	17716.24
798.193	17573.87
798.525	17572.74
798.856	17629.47
799.188	17447.32
799.519	17388.57
799.85	17307.44
800.182	17284.39
800.513	17336.14
800.844	17154.9
801.175	17190.38
801.506	17151.06
801.837	17176.14
802.168	17044.17
802.499	16985.87
802.83	16932.99
803.161	16907.22
803.491	16902.71
803.822	16887.56
804.153	16809.6
804.483	16650.06
804.814	16639.44
805.145	16637.63
805.475	16671.3
805.805	16592.88
806.136	16526.22
806.466	16523.96
806.796	16536.39
807.126	16320.8
807.457	16347.92
807.787	16351.76
808.117	16245.32
808.447	16166
808.777	16202.38
809.107	16198.54
809.436	16138.66
809.766	16172.55
810.096	16128.04
810.426	16048.49
810.755	15996.06
811.085	15999
811.414	15915.61
811.744	15819.8
812.073	15803.07
812.403	15762.62
812.732	15761.94
813.061	15780.93
813.39	15714.71
813.719	15656.18
814.049	15707.71
814.378	15639.24
814.707	15561.5
815.036	15555.17
815.365	15496.64
815.693	15356.76
816.022	15399.24
816.351	15290.77
816.68	15268.62
817.008	15309.98
817.337	15164.45
817.665	15160.15
817.994	15239.25
818.322	15214.84
818.651	15191.11
818.979	15125.12
819.307	15207.16
819.636	15162.86
819.964	15036.54
820.292	15111.57
820.62	15072.24
820.948	15022.98
821.276	14943.89
821.604	14989.54
821.932	15096.43
822.259	15012.36
822.587	15014.62
822.915	14956.99
823.243	15041.51
823.57	14979.82
823.898	15076.76
824.225	14884
824.553	14960.84
824.88	14981.85
825.207	15008.29
825.535	14920.16
825.862	14958.12
826.189	14950.89
826.516	15018.01
826.843	15018.24
827.17	15067.73
827.497	15048.06
827.824	15021.85
828.151	14984.56
828.478	14993.6
828.805	15065.47
829.131	14935.07
829.458	15013.26
829.785	14843.78
830.111	14978.91
830.438	15113.15
830.764	14947.05
831.09	15005.35
831.417	14929.2
831.743	15009.87
832.069	14948.41
832.395	14853.04
832.722	14877.45
833.048	14858.24
833.374	14829.09
833.7	14841.52
834.026	14893.27
834.351	14835.19
834.677	14760.61
835.003	14843.55
835.329	14903.66
835.654	14860.05
835.98	14657.57
836.306	14681.97
836.631	14714.06
836.956	14833.38
837.282	14738.69
837.607	14651.01
837.932	14613.73
838.258	14639.04
838.583	14590.45
838.908	14513.62
839.233	14527.63
839.558	14577.57
839.883	14490.57
840.208	14443.33
840.533	14423.67
840.858	14431.58
841.182	14426.61
841.507	14352.49
841.832	14279.95
842.156	14278.14
842.481	14315.43
842.805	14292.15
843.13	14175.77
843.454	14239.5
843.778	14112.27
844.103	14088.32
844.427	14089.45
844.751	14021.65
845.075	14102.33
845.399	14010.8
845.723	13889
846.047	13946.17
846.371	13832.73
846.695	13743.24
847.019	13743.47
847.343	13693.07
847.666	13589.57
847.99	13550.25
848.313	13460.99
848.637	13443.14
848.96	13453.53
849.284	13363.14
849.607	13310.03
849.931	13263.48
850.254	13209.92
850.577	13106.65
850.9	13021.68
851.223	12989.36
851.546	12961.11
851.869	12889.48
852.192	12963.83
852.515	12900.55
852.838	12766.99
853.161	12762.02
853.483	12719.76
853.806	12682.03
854.129	12666.66
854.451	12513.67
854.774	12487
855.096	12508.47
855.419	12504.4
855.741	12391.19
856.063	12355.93
856.385	12328.14
856.708	12249.49
857.03	12294.24
857.352	12263.73
857.674	12186.45
857.996	12150.74
858.318	12059.44
858.64	11999.78
858.961	11932.21
859.283	11951.65
859.605	11890.86
859.926	11908.03
860.248	11847.7
860.57	11839.34
860.891	11831.65
861.212	11789.17
861.534	11752.11
861.855	11766.34
862.176	11734.48
862.498	11635.73
862.819	11738.1
863.14	11687.7
863.461	11641.37
863.782	11650.19
864.103	11596.86
864.424	11601.38
864.745	11530.42
865.065	11554.37
865.386	11494.03
865.707	11412.68
866.027	11500.14
866.348	11489.74
866.668	11430.31
866.989	11383.53
867.309	11398.67
867.63	11433.92
867.95	11296.53
868.27	11280.03
868.59	11317.32
868.91	11246.58
869.23	11274.83
869.55	11238
869.87	11285
870.19	11244.77
870.51	11246.58
870.83	11250.2
871.15	11116.19
871.469	11167.49
871.789	11151.9
872.109	11175.4
872.428	11089.75
872.748	11188.73
873.067	11100.82
873.386	11141.27
873.706	10955.74
874.025	10958.45
874.344	10964.1
874.663	10986.48
874.982	10934.73
875.301	10967.72
875.62	10908.29
875.939	10891.34
876.258	10861.51
876.577	10862.41
876.896	10859.93
877.214	10824.9
877.533	10834.62
877.852	10779.93
878.17	10816.31
878.489	10762.75
878.807	10767.95
879.125	10719.37
879.444	10739.25
879.762	10678.46
880.08	10657.9
880.398	10585.13
880.716	10664.45
881.034	10595.98
881.352	10666.94
881.67	10524.12
881.988	10560.5
882.306	10477.11
882.624	10465.36
882.941	10456.77
883.259	10370.45
883.577	10397.79
883.894	10340.84
884.212	10345.14
884.529	10355.31
884.846	10322.09
885.164	10368.64
885.481	10280.96
885.798	10249.55
886.115	10173.62
886.432	10202.77
886.75	10133.62
887.067	10134.97
887.383	10144.01
887.7	10111.02
888.017	10081.64
888.334	10102.88
888.651	10071.02
888.967	10044.35
889.284	9948.76
889.6	9918.93
889.917	9833.74
890.233	9876
890.55	9810.69
890.866	9812.04
891.182	9816.34
891.498	9785.15
891.815	9741.09
892.131	9651.82
892.447	9637.59
892.763	9600.07
893.079	9623.12
893.395	9615.67
893.71	9525.95
894.026	9470.36
894.342	9487.76
894.657	9415.9
894.973	9484.6
895.289	9404.6
895.604	9382.23
895.92	9264.71
896.235	9229.23
896.55	9281.89
896.865	9201.66
897.181	9254.54
897.496	9273.75
897.811	9151.95
898.126	9129.8
898.441	9164.83
898.756	9071.05
899.071	9039.86
899.386	9012.97
899.7	8994.21
900.015	8885.51
900.33	8852.07
900.644	8845.97
900.959	8817.04
901.273	8832.86
901.588	8793.77
901.902	8700.21
902.216	8661.57
902.531	8671.28
902.845	8603.49
903.159	8558.97
903.473	8565.75
903.787	8549.7
904.101	8486.66
904.415	8464.96
904.729	8408.01
905.042	8374.12
905.356	8390.84
905.67	8342.93
905.984	8395.36
906.297	8285.08
906.611	8249.37
906.924	8225.65
907.237	8163.95
907.551	8166.21
907.864	8100
908.177	8101.81
908.491	8115.82
908.804	7985.65
909.117	8018.87
909.43	7986.33
909.743	7928.93
910.056	7964.18
910.368	7934.13
910.681	7841.7
910.994	7815.94
911.307	7828.14
911.619	7697.75
911.932	7694.36
912.244	7634.25
912.557	7678.54
912.869	7620.24
913.181	7559.22
913.494	7529.84
913.806	7523.74
914.118	7462.5
914.43	7440.81
914.742	7468.83
915.054	7330.75
915.366	7403.07
915.678	7342.73
915.99	7339.79
916.302	7228.16
916.613	7159.46
916.925	7176.41
917.236	7171.66
917.548	7162.85
917.859	7157.88
918.171	7116.97
918.482	7062.29
918.794	7037.2
919.105	6965.79
919.416	6958.79
919.727	6965.34
920.038	6939.58
920.349	6908.84
920.66	6868.39
920.971	6843.76
921.282	6827.49
921.593	6781.16
921.903	6762.63
922.214	6725.57
922.525	6709.98
922.835	6656.65
923.146	6633.6
923.456	6594.95
923.767	6620.26
924.077	6648.96
924.387	6575.97
924.697	6461.85
925.008	6528.74
925.318	6477.89
925.628	6434.28
925.938	6454.84
926.248	6322.19
926.558	6335.3
926.867	6297.33
927.177	6316.09
927.487	6291.23
927.796	6239.03
928.106	6234.51
928.416	6168.98
928.725	6150.67
929.034	6134.4
929.344	6122.2
929.653	6081.07
929.962	6034.52
930.271	5999.72
930.581	5970.34
930.89	5987.74
931.199	5979.6
931.508	5905.71
931.817	5914.97
932.125	5889.21
932.434	5858.02
932.743	5812.6
933.051	5767.86
933.36	5761.76
933.669	5733.51
933.977	5728.54
934.286	5693.73
934.594	5666.39
934.902	5631.82
935.21	5591.59
935.519	5611.48
935.827	5617.35
936.135	5488.99
936.443	5519.05
936.751	5566.51
937.059	5475.21
937.367	5466.62
937.674	5482.67
937.982	5470.01
938.29	5413.74
938.597	5403.8
938.905	5374.42
939.213	5327.19
939.52	5297.36
939.827	5296
940.135	5306.63
940.442	5255.55
940.749	5247.87
941.056	5221.43
941.363	5184.37
941.67	5138.04
941.977	5100.98
942.284	5089
942.591	5097.82
942.898	5035.9
943.205	5064.15
943.511	5036.12
943.818	5013.53
944.125	4971.72
944.431	4983.24
944.738	4914.09
945.044	4911.16
945.35	4927.65
945.657	4864.83
945.963	4846.3
946.269	4794.78
946.575	4834.55
946.881	4780.31
947.187	4791.61
947.493	4748.22
947.799	4730.6
948.105	4702.57
948.41	4703.25
948.716	4689.02
949.022	4624.61
949.327	4627.77
949.633	4559.08
949.938	4578.96
950.244	4563.37
950.549	4556.14
950.854	4525.4
951.16	4539.64
951.465	4521.56
951.77	4480.89
952.075	4455.12
952.38	4453.32
952.685	4409.7
952.99	4381
953.294	4362.02
953.599	4372.41
953.904	4296.03
954.209	4261.23
954.513	4330.83
954.818	4250.38
955.122	4252.87
955.426	4237.73
955.731	4186.43
956.035	4211.06
956.339	4190.05
956.643	4166.32
956.948	4180.55
957.252	4111.4
957.556	4122.7
957.86	4055.81
958.163	4068.92
958.467	4059.88
958.771	4064.17
959.075	4018.07
959.378	3978.98
959.682	4048.35
959.985	3987.34
960.289	3962.71
960.592	3907.79
960.896	3900.11
961.199	3881.58
961.502	3905.98
961.805	3877.74
962.108	3860.34
962.411	3829.38
962.714	3849.72
963.017	3817.63
963.32	3741.7
963.623	3790.51
963.926	3736.95
964.228	3761.58
964.531	3735.14
964.833	3714.8
965.136	3652.88
965.438	3655.37
965.741	3612.43
966.043	3682.26
966.345	3622.15
966.648	3614.47
966.95	3610.4
967.252	3582.83
967.554	3578.76
967.856	3563.62
968.158	3544.41
968.46	3535.6
968.761	3473.45
969.063	3473.68
969.365	3505.54
969.666	3494.47
969.968	3450.86
970.269	3437.75
970.571	3394.13
970.872	3426
971.174	3400.91
971.475	3364.53
971.776	3354.81
972.077	3318.66
972.378	3295.15
972.679	3322.5
972.98	3326.79
973.281	3308.71
973.582	3263.29
973.883	3268.26
974.183	3255.15
974.484	3244.08
974.785	3205.44
975.085	3222.84
975.386	3210.18
975.686	3165.89
975.986	3168.15
976.287	3138.77
976.587	3150.98
976.887	3120.47
977.187	3111.43
977.487	3087.02
977.787	3050.64
978.087	3049.28
978.387	3047.93
978.687	3036.4
978.987	3028.04
979.286	3000.02
979.586	2997.53
979.885	2936.07
980.185	2955.95
980.484	2967.48
980.784	2907.37
981.083	2925.45
981.382	2924.32
981.682	2898.78
981.981	2903.07
982.28	2891.55
982.579	2822.17
982.878	2866.46
983.177	2835.73
983.475	2816.52
983.774	2796.18
984.073	2797.09
984.372	2745.11
984.67	2775.85
984.969	2772.23
985.267	2779.91
985.566	2721.38
985.864	2688.39
986.162	2691.55
986.461	2671.44
986.759	2667.83
987.057	2625.79
987.355	2645.68
987.653	2661.05
987.951	2648.84
988.249	2636.41
988.547	2610.43
988.844	2597.77
989.142	2594.15
989.44	2567.26
989.737	2571.1
990.035	2547.6
990.332	2539.47
990.63	2491.11
990.927	2506.7
991.224	2508.51
991.521	2471.9
991.819	2492.24
992.116	2468.06
992.413	2435.06
992.71	2435.06
993.006	2430.09
993.303	2442.29
993.6	2374.95
993.897	2395.06
994.193	2372.92
994.49	2376.08
994.787	2367.72
995.083	2349.42
995.379	2359.81
995.676	2313.03
995.972	2307.61
996.268	2292.92
996.565	2301.96
996.861	2302.19
997.157	2256.31
997.453	2242.07
997.749	2226.71
998.044	2254.28
998.34	2222.87
998.636	2216.76
998.932	2224
999.227	2184.67
999.523	2182.19
999.818	2167.73
1000.114	2155.97
1000.409	2143.55
1000.704	2083.89
1001	2147.61
1001.295	2110.55
1001.59	2100.83
1001.885	2102.19
1002.18	2118.91
1002.475	2107.84
1002.77	2030.78
1003.065	2034.62
1003.359	2033.49
1003.654	2023.55
1003.949	1991.23
1004.243	2003.21
1004.538	1960.95
1004.832	1988.52
1005.127	1965.24
1005.421	1958.92
1005.715	1920.27
1006.009	1922.99
1006.304	1933.38
1006.598	1922.99
1006.892	1893.61
1007.186	1874.17
1007.48	1882.31
1007.773	1868.52
1008.067	1855.64
1008.361	1819.94
1008.655	1851.58
1008.948	1830.33
1009.242	1778.58
1009.535	1826.72
1009.829	1780.62
1010.122	1785.81
1010.415	1793.95
1010.708	1743.78
1011.001	1731.35
1011.295	1780.84
1011.588	1745.14
1011.881	1735.87
1012.173	1696.33
1012.466	1694.74
1012.759	1670.79
1013.052	1701.75
1013.344	1682.31
1013.637	1675.08
1013.93	1639.83
1014.222	1631.02
1014.514	1603.22
1014.807	1618.59
1015.099	1610.23
1015.391	1605.93
1015.683	1613.39
1015.976	1617.68
1016.268	1583.79
1016.56	1579.27
1016.851	1557.8
1017.143	1541.98
1017.435	1522.54
1017.727	1552.15
1018.018	1515.09
1018.31	1523.22
1018.602	1518.7
1018.893	1499.04
1019.185	1489.33
1019.476	1489.33
1019.767	1472.38
1020.058	1455.65
1020.35	1448.65
1020.641	1426.73
1020.932	1417.91
1021.223	1383.11
1021.514	1396.22
1021.804	1397.58
1022.095	1369.33
1022.386	1380.63
1022.677	1375.88
1022.967	1369.33
1023.258	1319.61
1023.548	1303.34
1023.839	1353.96
1024.129	1325.49
1024.419	1310.12
1024.709	1312.38
1025	1290.91
1025.29	1278.48
1025.58	1277.81
1025.87	1268.31
1026.16	1241.65
1026.449	1241.87
1026.739	1231.25
1027.029	1230.35
1027.319	1208.88
1027.608	1241.65
1027.898	1199.39
1028.187	1225.83
1028.477	1201.2
1028.766	1197.13
1029.055	1196
1029.344	1175.66
1029.634	1154.42
1029.923	1175.89
1030.212	1176.57
1030.501	1163.01
1030.79	1122.33
1031.078	1145.38
1031.367	1129.79
1031.656	1112.84
1031.945	1125.27
1032.233	1092.05
1032.522	1113.52
1032.81	1122.1
1033.099	1096.12
1033.387	1083.01
1033.675	1065.83
1033.963	1055.44
1034.251	1085.49
1034.54	1045.27
1034.828	1065.16
1035.116	1037.81
1035.403	1008.89
1035.691	1047.98
1035.979	1010.02
1036.267	986.06
1036.554	983.12
1036.842	1004.82
1037.129	1003.24
1037.417	967.31
1037.704	981.99
1037.992	977.25
1038.279	968.89
1038.566	956.68
1038.853	956.68
1039.14	956.68
