Data from hue_310_FLMS001491_47.txt Node
Date: Mon Feb 06 15:49:45 GMT 2017
User: dcchb
Spectrometer: FLMS00149
Trigger mode: 0
Integration Time (sec): 2.000000E-2
Scans to average: 10
Electric dark correction enabled: true
Nonlinearity correction enabled: false
Boxcar width: 0
XAxis mode: Wavelengths
Number of Pixels in Spectrum: 2048
>>>>>Begin Spectral Data<<<<<
341.393	-20.85
341.776	-20.85
342.16	-20.85
342.543	-56.55
342.927	-59.26
343.31	-80.96
343.693	-60.17
344.077	-61.07
344.46	-61.75
344.843	-61.07
345.226	-58.59
345.61	-25.82
345.993	-19.72
346.376	-2.32
346.759	14.41
347.142	36.33
347.525	55.54
347.908	72.71
348.291	59.83
348.674	86.04
349.057	106.61
349.44	140.05
349.823	126.49
350.206	158.36
350.588	180.05
350.971	217.79
351.354	201.97
351.737	224.12
352.119	249.43
352.502	255.3
352.884	268.19
353.267	296.88
353.65	295.75
354.032	290.33
354.414	306.15
354.797	298.01
355.179	324.45
355.562	307.73
355.944	307.73
356.326	334.4
356.709	324.45
357.091	329.2
357.473	333.04
357.855	330.56
358.238	333.72
358.62	318.81
359.002	338.69
359.384	342.53
359.766	326.94
360.148	337.34
360.53	318.13
360.912	344.34
361.294	322.87
361.676	329.88
362.057	317
362.439	314.51
362.821	338.24
363.203	315.87
363.584	326.04
363.966	291.69
364.348	319.26
364.729	317.22
365.111	327.17
365.493	325.58
365.874	316.32
366.256	295.75
366.637	333.49
367.019	309.77
367.4	301.4
367.781	320.61
368.163	307.28
368.544	309.09
368.925	312.25
369.306	307.96
369.688	304.12
370.069	335.3
370.45	315.19
370.831	314.74
371.212	299.37
371.593	309.31
371.974	330.56
372.355	314.51
372.736	317.9
373.117	315.19
373.498	288.52
373.879	312.7
374.26	287.85
374.641	310.22
375.021	312.03
375.402	321.97
375.783	313.83
376.163	317.9
376.544	317.9
376.925	323.55
377.305	310.67
377.686	339.14
378.066	299.6
378.447	326.26
378.827	325.81
379.208	347.28
379.588	329.65
379.968	316.32
380.349	321.74
380.729	326.04
381.109	326.71
381.489	320.84
381.87	337.34
382.25	329.2
382.63	313.38
383.01	325.36
383.39	350.44
383.77	345.02
384.15	344.34
384.53	337.56
384.91	333.95
385.29	371.23
385.67	353.83
386.049	357
386.429	362.42
386.809	363.55
387.189	341.86
387.568	339.6
387.948	342.76
388.328	352.02
388.707	352.7
389.087	343.44
389.466	361.97
389.846	338.01
390.225	349.31
390.605	372.59
390.984	355.87
391.363	364
391.743	370.56
392.122	363.78
392.501	376.43
392.881	369.43
393.26	362.19
393.639	378.46
394.018	378.24
394.397	365.13
394.776	341.4
395.155	378.01
395.534	383.44
395.913	358.58
396.292	399.03
396.671	381.63
397.05	392.25
397.429	382.08
397.808	386.37
398.186	407.84
398.565	388.18
398.944	386.6
399.323	384.79
399.701	382.08
400.08	400.61
400.458	397
400.837	402.42
401.215	411.91
401.594	402.42
401.972	409.2
402.351	402.42
402.729	414.17
403.107	429.76
403.486	417.33
403.864	419.59
404.242	432.47
404.62	416.88
404.999	426.6
405.377	413.72
405.755	419.14
406.133	449.42
406.511	439.93
406.889	456.65
407.267	450.78
407.645	464.11
408.023	476.99
408.401	478.57
408.779	436.99
409.156	473.6
409.534	468.63
409.912	489.87
410.29	500.72
410.667	491.68
411.045	502.53
411.422	506.37
411.8	511.57
412.178	523.77
412.555	523.77
412.933	523.77
413.31	519.93
413.687	530.33
414.065	535.07
414.442	556.09
414.819	567.16
415.197	556.77
415.574	580.72
415.951	564.67
416.328	588.4
416.705	589.08
417.082	585.24
417.46	601.74
417.837	626.37
418.214	624.56
418.591	637.21
418.967	645.35
419.344	637.67
419.721	651.45
420.098	657.55
420.475	654.84
420.852	674.05
421.228	675.18
421.605	688.51
421.982	688.06
422.358	715.86
422.735	713.6
423.111	715.63
423.488	725.35
423.864	733.26
424.241	753.14
424.617	741.62
424.994	742.75
425.37	741.84
425.746	784.78
426.123	792.47
426.499	752.92
426.875	808.74
427.251	814.84
427.627	819.81
428.003	839.47
428.379	826.14
428.756	840.15
429.132	858.68
429.507	870.88
429.883	852.58
430.259	874.95
430.635	900.26
431.011	891.45
431.387	902.97
431.763	909.75
432.138	909.98
432.514	958.56
432.89	965.79
433.265	963.99
433.641	975.74
434.016	970.54
434.392	992.01
434.767	1005.34
435.143	1021.84
435.518	1009.41
435.894	1039.92
436.269	1066.58
436.644	1063.87
437.02	1087.82
437.395	1074.94
437.77	1082.4
438.145	1107.94
438.52	1109.07
438.895	1095.96
439.271	1097.77
439.646	1129.86
440.021	1142.06
440.395	1169.18
440.77	1126.69
441.145	1150.65
441.52	1181.16
441.895	1165.11
442.27	1162.62
442.645	1184.55
443.019	1203.75
443.394	1206.92
443.769	1184.32
444.143	1173.47
444.518	1213.47
444.892	1203.75
445.267	1225.22
445.641	1226.35
446.016	1245.11
446.39	1225
446.764	1237.2
447.139	1253.24
447.513	1239.01
447.887	1248.27
448.262	1257.76
448.636	1258.22
449.01	1274.49
449.384	1275.39
449.758	1256.18
450.132	1298.89
450.506	1264.77
450.88	1293.69
451.254	1306.35
451.628	1307.93
452.002	1313.13
452.376	1341.83
452.75	1323.52
453.123	1323.75
453.497	1363.3
453.871	1326.69
454.244	1408.49
454.618	1360.59
454.992	1406.91
455.365	1383.41
455.739	1402.39
456.112	1435.61
456.486	1407.82
456.859	1447.36
457.232	1443.07
457.606	1408.27
457.979	1452.33
458.352	1507.25
458.725	1475.38
459.099	1516.74
459.472	1492.11
459.845	1528.72
460.218	1510.41
460.591	1512.45
460.964	1549.51
461.337	1548.15
461.71	1559
462.083	1603.07
462.456	1597.87
462.829	1590.86
463.201	1621.37
463.574	1606.45
463.947	1642.61
464.32	1654.36
464.692	1667.7
465.065	1670.63
465.438	1695.04
465.81	1676.28
466.183	1664.53
466.555	1718.32
466.928	1748.82
467.3	1713.57
467.672	1762.84
468.045	1798.31
468.417	1774.81
468.789	1775.72
469.161	1851.19
469.534	1840.12
469.906	1904.53
470.278	1862.27
470.65	1886
471.022	1865.43
471.394	1926.9
471.766	1958.76
472.138	1949.5
472.51	1987.24
472.882	1990.63
473.253	1986.78
473.625	2035.14
473.997	2062.71
474.369	2050.29
474.74	2096.39
475.112	2082.83
475.484	2124.86
475.855	2142.94
476.227	2191.3
476.598	2222.94
476.97	2214.8
477.341	2260.68
477.713	2281.69
478.084	2270.17
478.455	2306.1
478.827	2311.52
479.198	2382.03
479.569	2351.52
479.94	2398.98
480.311	2439.65
480.682	2461.12
481.053	2508.13
481.424	2532.98
481.795	2546.32
482.166	2559.65
482.537	2583.6
482.908	2620.67
483.279	2662.25
483.65	2691.4
484.021	2715.35
484.391	2778.18
484.762	2735.69
485.133	2758.74
485.503	2788.8
485.874	2842.81
486.244	2832.64
486.615	2919.87
486.985	2921
487.356	2971.84
487.726	2997.15
488.097	3012.52
488.467	3026.08
488.837	3086.19
489.207	3094.78
489.578	3141.78
489.948	3157.6
490.318	3185.85
490.688	3163.7
491.058	3170.26
491.428	3231.04
491.798	3248.45
492.168	3333.87
492.538	3314.43
492.908	3315.56
493.278	3401.89
493.648	3359.18
494.017	3367.09
494.387	3422
494.757	3466.97
495.126	3429.46
495.496	3510.36
495.866	3511.26
496.235	3532.73
496.605	3538.83
496.974	3553.75
497.344	3593.52
497.713	3609.34
498.082	3626.51
498.452	3664.71
498.821	3633.52
499.19	3640.98
499.559	3712.39
499.928	3721.65
500.298	3725.5
500.667	3722.56
501.036	3784.93
501.405	3793.97
501.774	3737.25
502.143	3816.34
502.512	3763.23
502.88	3891.14
503.249	3822.22
503.618	3824.25
503.987	3859.28
504.356	3890.24
504.724	3902.21
505.093	3901.76
505.462	3893.85
505.83	3920.74
506.199	3971.36
506.567	3957.58
506.936	3963
507.304	4016.11
507.672	4047.07
508.041	4052.27
508.409	4024.7
508.777	4025.83
509.145	4059.05
509.514	4051.14
509.882	4108.99
510.25	4089.1
510.618	4089.78
510.986	4094.98
511.354	4169.78
511.722	4187.4
512.09	4190.34
512.458	4160.96
512.826	4195.31
513.193	4185.14
513.561	4194.18
513.929	4188.31
514.297	4258.36
514.664	4252.49
515.032	4261.3
515.4	4271.02
515.767	4320.28
516.135	4297.46
516.502	4282.32
516.869	4362.31
517.237	4339.72
517.604	4324.58
517.972	4332.48
518.339	4357.12
518.706	4353.95
519.073	4370.9
519.44	4405.93
519.808	4407.96
520.175	4384.46
520.542	4439.83
520.909	4448.87
521.276	4448.41
521.643	4473.27
522.009	4475.98
522.376	4521.86
522.743	4526.83
523.11	4613.38
523.477	4586.04
523.843	4594.17
524.21	4614.06
524.577	4626.71
524.943	4643.89
525.31	4659.93
525.676	4729.99
526.043	4704.9
526.409	4670.33
526.776	4775.86
527.142	4793.94
527.508	4818.35
527.874	4853.38
528.241	4817.9
528.607	4860.38
528.973	4884.56
529.339	4880.04
529.705	4967.04
530.071	4986.03
530.437	4922.98
530.803	5003.43
531.169	5021.73
531.535	5021.28
531.901	5075.97
532.267	5087.49
532.632	5120.26
532.998	5091.34
533.364	5150.77
533.73	5133.59
534.095	5220.6
534.461	5175.85
534.826	5223.53
535.192	5314.15
535.557	5270.09
535.923	5257.88
536.288	5312.8
536.653	5328.16
537.019	5324.55
537.384	5359.12
537.749	5418.56
538.114	5398.45
538.479	5467.37
538.845	5405.23
539.21	5419.46
539.575	5499.23
539.94	5433.25
540.305	5492
540.67	5528.39
541.034	5574.03
541.399	5573.13
541.764	5624.88
542.129	5644.54
542.494	5633.92
542.858	5718.21
543.223	5682.51
543.587	5756.85
543.952	5797.31
544.316	5767.02
544.681	5779.9
545.045	5759.57
545.41	5807.93
545.774	5849.28
546.138	5839.56
546.503	5887.92
546.867	5860.35
547.231	5943.06
547.595	5998.2
547.959	5971.76
548.324	6000.46
548.688	6028.49
549.052	6042.04
549.416	6029.39
549.779	6114.81
550.143	6060.35
550.507	6170.4
550.871	6128.37
551.235	6144.87
551.599	6164.75
551.962	6170.18
552.326	6225.32
552.689	6196.39
553.053	6260.8
553.417	6244.07
553.78	6329.49
554.143	6325.2
554.507	6341.92
554.87	6351.64
555.234	6401.13
555.597	6365.43
555.96	6414.92
556.323	6399.78
556.686	6459.89
557.05	6484.52
557.413	6439.55
557.776	6441.36
558.139	6493.56
558.502	6531.75
558.865	6568.36
559.228	6541.69
559.59	6569.04
559.953	6664.85
560.316	6733.78
560.679	6622.59
561.041	6682.48
561.404	6695.13
561.767	6775.13
562.129	6771.97
562.492	6791.86
562.854	6732.87
563.217	6759.09
563.579	6817.84
563.941	6837.28
564.304	6830.05
564.666	6906.88
565.028	6868.01
565.39	6937.16
565.753	6914.11
566.115	6979.2
566.477	6977.39
566.839	7020.78
567.201	7076.14
567.563	7069.36
567.925	7026.88
568.287	7124.28
568.648	7079.31
569.01	7121.11
569.372	7228.91
569.734	7242.46
570.095	7234.56
570.457	7296.02
570.819	7295.8
571.18	7343.71
571.542	7356.36
571.903	7386.42
572.265	7471.39
572.626	7506.19
572.987	7517.03
573.349	7554.55
573.71	7603.36
574.071	7683.36
574.432	7748.44
574.794	7816.69
575.155	7806.97
575.516	7859.4
575.877	7957.47
576.238	7985.04
576.599	8049.9
576.96	8079.05
577.32	8216
577.681	8311.59
578.042	8365.37
578.403	8440.63
578.763	8412.38
579.124	8597.91
579.485	8727.17
579.845	8813.95
580.206	8927.84
580.566	8997.9
580.927	9112.47
581.287	9233.6
581.648	9437.44
582.008	9558.56
582.368	9621.39
582.728	9852.34
583.089	9945.67
583.449	10065.89
583.809	10316.28
584.169	10449.84
584.529	10609.61
584.889	10855.25
585.249	10980.45
585.609	11122.81
585.969	11359.42
586.329	11521
586.688	11831.95
587.048	12022.9
587.408	12321.88
587.768	12451.37
588.127	12737.69
588.487	12895.88
588.846	13236.88
589.206	13433.04
589.565	13680.71
589.925	14004.1
590.284	14248.16
590.643	14480.47
591.003	14787.13
591.362	15099.43
591.721	15295.13
592.08	15532.87
592.44	15860.32
592.799	16176.02
593.158	16356.12
593.517	16703.01
593.876	16949.78
594.235	17279.49
594.593	17566.04
594.952	17825.01
595.311	18159.47
595.67	18407.82
596.029	18709.28
596.387	19044.41
596.746	19372.99
597.104	19596.04
597.463	19954
597.822	20304.27
598.18	20387.88
598.538	20626.52
598.897	21155.77
599.255	21240.74
599.613	21806.6
599.972	21926.15
600.33	22205.24
600.688	22441.39
601.046	22851.55
601.404	23129.96
601.762	23399.55
602.12	23640
602.478	23962.48
602.836	24233.66
603.194	24455.35
603.552	24715.45
603.91	24818.5
604.268	25354.76
604.625	25449.44
604.983	25769.21
605.341	25782.09
605.698	26232.25
606.056	26454.39
606.413	26705.68
606.771	27026.58
607.128	27213.69
607.485	27390.41
607.843	27495.94
608.2	27961.69
608.557	28205.08
608.914	28316.71
609.272	28621.11
609.629	28915.34
609.986	29073.76
610.343	29250.7
610.7	29615.21
611.057	29716.68
611.414	29900.17
611.771	30098.14
612.127	30354.85
612.484	30355.76
612.841	30647.5
613.198	30697.22
613.554	30953.25
613.911	31309.4
614.267	31494.03
614.624	31365.67
614.98	31757.3
615.337	32018.08
615.693	32123.17
616.05	32143.28
616.406	32415.14
616.762	32489.94
617.118	32660.78
617.475	32755.47
617.831	33092.86
618.187	33084.27
618.543	33272.51
618.899	33565.39
619.255	33573.3
619.611	33660.75
619.967	33995.43
620.323	34177.58
620.678	33974.42
621.034	34017.35
621.39	34333.5
621.746	34275.88
622.101	34693.72
622.457	34564.23
622.812	34733.49
623.168	34762.65
623.523	34965.35
623.879	35269.07
624.234	34998.12
624.589	35246.25
624.945	35253.71
625.3	35484.21
625.655	35405.57
626.01	35549.74
626.365	35533.92
626.72	35676.07
627.075	35757.2
627.43	35838.1
627.785	35713.58
628.14	35982.27
628.495	36048.71
628.85	35975.27
629.205	36031.99
629.559	36214.13
629.914	36089.62
630.269	36146.56
630.623	36140.24
630.978	36105.89
631.332	36341.81
631.687	36455.03
632.041	36380
632.396	36341.36
632.75	36310.85
633.104	36523.5
633.459	36325.09
633.813	36413.45
634.167	36371.42
634.521	36358.08
634.875	36474.46
635.229	36503.39
635.583	36416.61
635.937	36389.95
636.291	36379.1
636.645	36491.64
636.999	36413.9
637.352	36498.87
637.706	36426.1
638.06	36494.13
638.413	36347.24
638.767	36499.32
639.121	36432.43
639.474	36306.56
639.828	36374.35
640.181	36324.41
640.534	36463.17
640.888	36342.26
641.241	36196.96
641.594	36349.27
641.947	36398.76
642.301	36438.31
642.654	36407.57
643.007	36419.32
643.36	36418.19
643.713	36281.02
644.066	36465.88
644.419	36391.75
644.771	36078.09
645.124	35697.54
645.477	35762.17
645.83	35405.34
646.182	35380.48
646.535	35203.99
646.888	35351.56
647.24	35104.56
647.593	35397.66
647.945	35419.13
648.298	35276.53
648.65	35226.14
649.002	35018.68
649.355	35327.38
649.707	35124.44
650.059	35388.84
650.411	35671.77
650.763	35771.43
651.115	36125.77
651.467	36059.11
651.819	36000.35
652.171	35989.73
652.523	35919
652.875	35887.81
653.227	35820.02
653.578	36103.18
653.93	35972.56
654.282	35857.08
654.633	35770.75
654.985	35922.84
655.337	35822.5
655.688	35761.94
656.039	35904.31
656.391	35560.82
656.742	35640.59
657.094	35827.48
657.445	35803.3
657.796	35690.76
658.147	35637.88
658.498	35766.01
658.849	35746.57
659.2	35734.15
659.551	35551.33
659.902	35797.87
660.253	35756.29
660.604	35881.03
660.955	35539.57
661.306	35857.31
661.656	35541.83
662.007	35711.55
662.358	35541.83
662.708	35529.4
663.059	35602.4
663.409	35436.98
663.76	35671.77
664.11	35658.21
664.461	35582.06
664.811	35668.61
665.161	35695.5
665.511	35469.29
665.862	35559.91
666.212	35624.09
666.562	35706.8
666.912	35550.65
667.262	35561.49
667.612	35617.76
667.962	35672.68
668.312	35411.67
668.662	35672.45
669.011	35721.26
669.361	35470.88
669.711	35521.95
670.06	35474.26
670.41	35368.28
670.76	35362.86
671.109	35582.74
671.459	35484.66
671.808	35359.24
672.157	35489.63
672.507	35250.54
672.856	35266.13
673.205	35333.03
673.554	35324.44
673.904	35282.18
674.253	35433.36
674.602	35273.37
674.951	34839.03
675.3	34599.71
675.649	35263.2
675.998	35270.2
676.346	35186.36
676.695	35299.58
677.044	35059.81
677.393	35220.71
677.741	35293.7
678.09	35123.09
678.438	35091.9
678.787	35330.54
679.135	35154.95
679.484	34933.26
679.832	35175.06
680.181	34714.06
680.529	35133.93
680.877	34817.79
681.225	34751.35
681.573	35036.99
681.922	34696.43
682.27	34652.59
682.618	34751.8
682.966	34541.18
683.314	34627.06
683.661	34615.53
684.009	34389.1
684.357	34296.67
684.705	34210.8
685.053	34244.47
685.4	34250.79
685.748	34058.71
686.095	34168.08
686.443	34049.44
686.79	33936
687.138	34018.48
687.485	34011.25
687.832	33840.18
688.18	33931.25
688.527	33698.72
688.874	33807.19
689.221	33639.51
689.568	33672.96
689.915	33521.1
690.262	33538.04
690.609	33432.96
690.956	33265.74
691.303	33305.51
691.65	33206.53
691.997	33213.08
692.344	32868.46
692.69	32969.02
693.037	32882.47
693.383	32765.41
693.73	32693.32
694.077	32578.3
694.423	32646.54
694.769	32633.21
695.116	32473.44
695.462	32474.12
695.808	32284.74
696.155	32347.34
696.501	32089.95
696.847	31971.76
697.193	31924.08
697.539	32051.98
697.885	31848.37
698.231	31809.28
698.577	31773.57
698.923	31624.2
699.269	31404.77
699.614	31209.74
699.96	31403.41
700.306	31324.09
700.651	31169.52
700.997	31109.18
701.342	31016.98
701.688	31110.99
702.033	30921.16
702.379	30947.38
702.724	30820.38
703.069	30835.06
703.415	30552.81
703.76	30579.93
704.105	30504
704.45	30556.65
704.795	30243.89
705.14	30076.89
705.485	30173.16
705.83	29948.53
706.175	30097.23
706.52	30031.24
706.865	29832.38
707.209	29832.61
707.554	29723.23
707.899	29819.5
708.243	29563.46
708.588	29631.25
708.932	29403.69
709.277	29400.07
709.621	29484.37
709.966	29197.37
710.31	29403.46
710.654	29074.21
710.998	29158.95
711.342	29131.38
711.687	29052.96
712.031	28851.84
712.375	28855.46
712.719	28770.26
713.063	28787.21
713.407	28929.13
713.75	28791.95
714.094	28718.28
714.438	28528.46
714.782	28735.23
715.125	28360.55
715.469	28509.25
715.812	28370.05
716.156	28184.29
716.499	28343.61
716.843	28410.27
717.186	28102.26
717.53	28210.5
717.873	28306.32
718.216	28100.67
718.559	28031.75
718.902	27905.65
719.246	27944.52
719.589	27825.88
719.932	27774.81
720.275	27757.63
720.617	27723.96
720.96	27670.63
721.303	27575.26
721.646	27655.04
721.989	27455.27
722.331	27486.45
722.674	27531.65
723.016	27390.64
723.359	27406.23
723.701	27398.09
724.044	27274.93
724.386	27093.02
724.729	27248.27
725.071	27101.83
725.413	27058.67
725.755	27072.45
726.097	26902.96
726.439	26782.74
726.782	26808.5
727.124	26912.91
727.465	26712.69
727.807	26794.95
728.149	26748.39
728.491	26638.11
728.833	26625.01
729.175	26512.47
729.516	26410.32
729.858	26588.85
730.199	26513.6
730.541	26443.54
730.882	26344.79
731.224	26485.8
731.565	26277.22
731.906	26388.85
732.248	26324
732.589	26196.77
732.93	26137.11
733.271	26037.68
733.612	26121.74
733.953	26096.66
734.294	25998.81
734.635	25895.31
734.976	26072.03
735.317	25862.77
735.658	25950.45
735.999	25757.01
736.339	25835.65
736.68	25818.47
737.021	25728.08
737.361	25637.69
737.702	25710.23
738.042	25630.68
738.383	25455.09
738.723	25643.79
739.063	25435.66
739.404	25570.57
739.744	25449.67
740.084	25336.23
740.424	25357.92
740.764	25335.55
741.104	25440.18
741.444	25200.41
741.784	25192.5
742.124	25230.01
742.464	25315.66
742.804	25105.72
743.143	25037.48
743.483	25167.64
743.823	24925.39
744.162	25027.53
744.502	24925.39
744.841	24924.03
745.181	24986.63
745.52	24874.09
745.86	24951.15
746.199	24842.23
746.538	24750.71
746.877	24771.04
747.216	24689.69
747.556	24689.01
747.895	24725.4
748.234	24612.86
748.573	24498.73
748.911	24509.36
749.25	24430.71
749.589	24415.12
749.928	24425.97
750.267	24388.45
750.605	24345.97
750.944	24153.21
751.283	24124.51
751.621	24227.56
751.96	24066.2
752.298	24123.15
752.636	24023.94
752.975	23912.31
753.313	23762.93
753.651	23904.17
753.989	23860.56
754.327	23728.81
754.666	23705.76
755.004	23606.33
755.342	23678.42
755.679	23654.91
756.017	23475.94
756.355	23608.36
756.693	23381.48
757.031	23381.48
757.368	23201.37
757.706	23354.13
758.044	23181.71
758.381	23294.92
758.719	22981.94
759.056	23077.75
759.394	23044.54
759.731	22868.95
760.068	22776.07
760.405	22746.69
760.743	22694.04
761.08	22600.48
761.417	22646.81
761.754	22586.24
762.091	22646.13
762.428	22485.91
762.765	22343.99
763.102	22255.86
763.438	22138.8
763.775	22119.59
764.112	22104.22
764.449	22115.52
764.785	21969.31
765.122	21969.76
765.458	21828.07
765.795	21682.09
766.131	21786.26
766.467	21683.89
766.804	21550.11
767.14	21440.28
767.476	21459.49
767.812	21373.39
768.148	21403.67
768.485	21178.82
768.821	21117.13
769.157	21120.07
769.492	21098.6
769.828	20990.13
770.164	20775.44
770.5	20849.34
770.836	20751.04
771.171	20672.62
771.507	20711.49
771.842	20521.66
772.178	20474.66
772.513	20517.6
772.849	20311.27
773.184	20372.52
773.519	20253.87
773.855	20067.21
774.19	20031.96
774.525	19966.2
774.86	20044.84
775.195	19873.77
775.53	19862.92
775.865	19684.85
776.2	19593.55
776.535	19481.24
776.87	19396.27
777.205	19480.11
777.539	19419.77
777.874	19399.89
778.209	19264.07
778.543	19187.01
778.878	19090.97
779.212	19012.55
779.547	18968.03
779.881	18991.53
780.215	18875.15
780.55	18880.8
780.884	18673.12
781.218	18676.97
781.552	18606.23
781.886	18477.42
782.22	18498.21
782.554	18306.81
782.888	18242.85
783.222	18182.74
783.556	18077.21
783.889	18085.57
784.223	17874.95
784.557	17919.02
784.89	17859.36
785.224	17786.14
785.557	17707.95
785.891	17721.51
786.224	17595.19
786.558	17611.46
786.891	17410.33
787.224	17389.32
787.557	17350.9
787.891	17216.67
788.224	17237.23
788.557	17222.77
788.89	17147.74
789.223	17173.73
789.556	17034.3
789.888	16924.92
790.221	16891.25
790.554	16798.6
790.887	16854.64
791.219	16672.5
791.552	16710.92
791.884	16597.02
792.217	16525.84
792.549	16532.62
792.882	16417.59
793.214	16258.95
793.546	16303.92
793.879	16219.86
794.211	16110.03
794.543	16170.59
794.875	16106.41
795.207	16132.17
795.539	16133.53
795.871	15989.81
796.203	15814.89
796.535	15704.16
796.867	15726.08
797.198	15694.45
797.53	15722.47
797.862	15567.22
798.193	15644.5
798.525	15523.6
798.856	15616.71
799.188	15426.43
799.519	15376.49
799.85	15220.56
800.182	15237.51
800.513	15200.67
800.844	15104.63
801.175	15255.36
801.506	15146.44
801.837	15080.68
802.168	15021.92
802.499	15001.13
802.83	14902.15
803.161	14874.13
803.491	14843.85
803.822	14849.27
804.153	14707.13
804.483	14665.09
804.814	14550.3
805.145	14539
805.475	14593.68
805.805	14437.08
806.136	14582.38
806.466	14487.92
806.796	14420.58
807.126	14276.86
807.457	14328.61
807.787	14332.67
808.117	14220.36
808.447	14203.64
808.777	14192.11
809.107	14201.15
809.436	14099.69
809.766	14093.36
810.096	14024.89
810.426	13927.26
810.755	14009.97
811.085	13906.02
811.414	13870.09
811.744	13835.29
812.073	13665.8
812.403	13698.11
812.732	13655.63
813.061	13709.19
813.39	13573.82
813.719	13543.54
814.049	13692.92
814.378	13591.45
814.707	13512.13
815.036	13496.76
815.365	13407.05
815.693	13304.23
816.022	13335.64
816.351	13273.94
816.68	13183.78
817.008	13321.4
817.337	13078.02
817.665	13087.73
817.994	13115.3
818.322	13199.14
818.651	13002.77
818.979	13007.74
819.307	13031.69
819.636	13019.49
819.964	12904.24
820.292	13004.8
820.62	12971.35
820.948	12875.09
821.276	12981.75
821.604	12851.13
821.932	12869.44
822.259	12878.7
822.587	12817.69
822.915	12809.55
823.243	12915.99
823.57	12841.41
823.898	12822.88
824.225	12749.66
824.553	12788.53
824.88	12902.43
825.207	12894.97
825.535	12778.82
825.862	12893.16
826.189	12768.87
826.516	12850.45
826.843	12808.19
827.17	12847.97
827.497	12902.88
827.824	12804.8
828.151	12834.63
828.478	12861.98
828.805	12882.32
829.131	12774.07
829.458	12705.15
829.785	12758.03
830.111	12780.85
830.438	12864.92
830.764	12820.62
831.09	12807.06
831.417	12708.31
831.743	12744.92
832.069	12713.73
832.395	12812.94
832.722	12724.35
833.048	12693.62
833.374	12715.09
833.7	12555.77
834.026	12705.15
834.351	12681.64
834.677	12641.87
835.003	12701.3
835.329	12678.71
835.654	12628.54
835.98	12554.87
836.306	12614.3
836.631	12545.6
836.956	12562.78
837.282	12572.27
837.607	12538.6
837.932	12500.63
838.258	12379.28
838.583	12479.39
838.908	12359.17
839.233	12495.66
839.558	12350.13
839.883	12344.25
840.208	12304.48
840.533	12296.34
840.858	12241.88
841.182	12343.35
841.507	12260.86
841.832	12196.01
842.156	12241.2
842.481	12127.76
842.805	12101.09
843.13	12061.55
843.454	12035.56
843.778	12038.72
844.103	12040.98
844.427	11971.15
844.751	11895.9
845.075	11937.03
845.399	11878.05
845.723	11855
846.047	11810.25
846.371	11750.82
846.695	11761.44
847.019	11622.24
847.343	11597.38
847.666	11520.09
847.99	11500.88
848.313	11502.92
848.637	11396.03
848.96	11407.78
849.284	11277.84
849.607	11254.11
849.931	11252.08
850.254	11211.63
850.577	11053.66
850.9	11111.97
851.223	10958.98
851.546	10929.6
851.869	10924.4
852.192	10925.76
852.515	10885.08
852.838	10869.94
853.161	10812.99
853.483	10732.54
853.806	10760.79
854.129	10700.68
854.451	10646.22
854.774	10565.99
855.096	10664.75
855.419	10571.42
855.741	10541.81
856.063	10429.95
856.385	10437.18
856.708	10388.82
857.03	10362.83
857.352	10416.62
857.674	10343.85
857.996	10315.6
858.318	10291.2
858.64	10159.9
858.961	10204.87
859.283	10179.79
859.605	10165.78
859.926	10110.64
860.248	10065.89
860.57	10065.44
860.891	10086.68
861.212	10046.46
861.534	9976.63
861.855	9988.83
862.176	9949.74
862.498	9924.88
862.819	10040.58
863.14	9886.46
863.461	9895.73
863.782	9830.87
864.103	9854.37
864.424	9787.93
864.745	9854.83
865.065	9804.21
865.386	9761.27
865.707	9732.57
866.027	9765.56
866.348	9740.03
866.668	9678.79
866.989	9661.84
867.309	9590.2
867.63	9672.01
867.95	9639.92
868.27	9644.44
868.59	9644.66
868.91	9523.53
869.23	9535.96
869.55	9552.46
869.87	9588.62
870.19	9482.18
870.51	9510.88
870.83	9510.2
871.15	9408.96
871.469	9490.99
871.789	9472.24
872.109	9465.46
872.428	9372.35
872.748	9435.4
873.067	9400.6
873.386	9337.55
873.706	9418.9
874.025	9372.13
874.344	9314.27
874.663	9286.03
874.982	9358.12
875.301	9257.1
875.62	9197.22
875.939	9264.56
876.258	9214.16
876.577	9199.7
876.896	9225.46
877.214	9126.48
877.533	9215.52
877.852	9123.09
878.17	9160.83
878.489	9137.78
878.807	9126.03
879.125	9059.59
879.444	9094.17
879.762	9032.7
880.08	9125.81
880.398	9040.16
880.716	9052.59
881.034	8980.05
881.352	8959.03
881.67	8969.65
881.988	8985.47
882.306	8888.98
882.624	8888.52
882.941	8895.98
883.259	8805.59
883.577	8879.48
883.894	8806.27
884.212	8815.98
884.529	8814.63
884.846	8738.92
885.164	8727.4
885.481	8755.87
885.798	8643.11
886.115	8692.14
886.432	8683.78
886.75	8611.02
887.067	8649.43
887.383	8554.52
887.7	8547.06
888.017	8517.46
888.334	8603.79
888.651	8493.96
888.967	8484.69
889.284	8490.12
889.6	8385.03
889.917	8347.29
890.233	8422.55
890.55	8369.44
890.866	8410.34
891.182	8306.62
891.498	8241.31
891.815	8250.57
892.131	8232.04
892.447	8207.64
892.763	8179.62
893.079	8153.85
893.395	8085.83
893.71	8157.92
894.026	8122.44
894.342	8089.22
894.657	8021.2
894.973	8075.66
895.289	8053.52
895.604	8012.16
895.92	7928.55
896.235	7915.44
896.55	7928.32
896.865	7911.6
897.181	7852.62
897.496	7875.22
897.811	7751.83
898.126	7808.33
898.441	7725.62
898.756	7767.65
899.071	7677.93
899.386	7698.95
899.7	7616.01
900.015	7636.8
900.33	7477.04
900.644	7599.29
900.959	7495.57
901.273	7491.05
901.588	7505.96
901.902	7463.93
902.216	7448.34
902.531	7426.19
902.845	7367.21
903.159	7328.34
903.473	7282.69
903.787	7292.63
904.101	7249.92
904.415	7243.82
904.729	7229.36
905.042	7181.68
905.356	7202.01
905.67	7080.44
905.984	7124.95
906.297	7062.81
906.611	7046.31
906.924	7040.21
907.237	7010.83
907.551	7005.41
907.864	6978.07
908.177	6943.94
908.491	6951.85
908.804	6834.11
909.117	6825.75
909.43	6818.52
909.743	6783.04
910.056	6773.78
910.368	6691.07
910.681	6691.74
910.994	6685.19
911.307	6584.63
911.619	6555.25
911.932	6623.95
912.244	6569.49
912.557	6530.17
912.869	6514.35
913.181	6472.09
913.494	6493.11
913.806	6390.06
914.118	6388.48
914.43	6372.88
914.742	6384.63
915.054	6282.72
915.366	6327.23
915.678	6305.99
915.99	6249.95
916.302	6195.49
916.613	6118.65
916.925	6189.16
917.236	6181.48
917.548	6105.55
917.859	6128.14
918.171	6079.56
918.482	6088.82
918.794	6027.58
919.105	6047.02
919.416	6005.89
919.727	5948.49
920.038	5941.26
920.349	5899.45
920.66	5893.12
920.971	5862.84
921.282	5804.08
921.593	5777.87
921.903	5768.38
922.214	5722.28
922.525	5696.52
922.835	5754.59
923.146	5727.02
923.456	5613.13
923.767	5656.07
924.077	5601.15
924.387	5573.13
924.697	5523.41
925.008	5577.42
925.318	5527.93
925.628	5464.43
925.938	5475.96
926.248	5424.66
926.558	5395.06
926.867	5398.67
927.177	5336.98
927.487	5363.19
927.796	5331.1
928.106	5319.13
928.416	5270.77
928.725	5292.91
929.034	5282.52
929.344	5253.59
929.653	5169.75
929.962	5177.89
930.271	5167.49
930.581	5145.57
930.89	5084.78
931.199	5172.01
931.508	5075.74
931.817	5045.91
932.125	5036.2
932.434	4991.68
932.743	4961.85
933.051	4953.71
933.36	4923.43
933.669	4931.79
933.977	4898.8
934.286	4857.89
934.594	4838.91
934.902	4819.03
935.21	4785.58
935.519	4838.01
935.827	4787.61
936.135	4755.07
936.443	4723.66
936.751	4711.46
937.059	4717.79
937.367	4659.48
937.674	4682.76
937.982	4614.06
938.29	4617.45
938.597	4586.04
938.905	4560.95
939.213	4555.76
939.52	4541.29
939.827	4571.35
940.135	4482.54
940.442	4519.82
940.749	4450.67
941.056	4427.85
941.363	4386.95
941.67	4442.54
941.977	4389.43
942.284	4318.47
942.591	4352.6
942.898	4351.24
943.205	4360.51
943.511	4307.85
943.818	4279.38
944.125	4290
944.431	4224.69
944.738	4253.17
945.044	4207.74
945.35	4166.16
945.657	4195.31
945.963	4133.85
946.269	4121.87
946.575	4104.24
946.881	4070.8
947.187	4109.89
947.493	4068.54
947.799	4048.65
948.105	4053.62
948.41	3968.2
948.716	3999.84
949.022	3972.95
949.327	3946.51
949.633	3911.03
949.938	3921.2
950.244	3913.96
950.549	3875.55
950.854	3871.93
951.16	3823.57
951.465	3803.23
951.77	3849.79
952.075	3790.8
952.38	3839.84
952.685	3816.11
952.99	3709.68
953.294	3731.14
953.599	3750.13
953.904	3732.95
954.209	3660.41
954.513	3724.59
954.818	3652.5
955.122	3619.74
955.426	3636.01
955.731	3621.32
956.035	3597.14
956.339	3587.42
956.643	3619.96
956.948	3558.27
957.252	3553.52
957.556	3531.15
957.86	3485.5
958.163	3520.75
958.467	3488.21
958.771	3464.94
959.075	3473.75
959.378	3459.97
959.682	3421.1
959.985	3383.13
960.289	3400.98
960.592	3424.71
960.896	3383.13
961.199	3336.58
961.502	3329.12
961.805	3306.52
962.108	3261.33
962.411	3308.78
962.714	3295.68
963.017	3252.06
963.32	3251.38
963.623	3260.42
963.926	3232.85
964.228	3186.53
964.531	3250.93
964.833	3194.66
965.136	3182.23
965.438	3137.26
965.741	3121.67
966.043	3133.65
966.345	3132.97
966.648	3122.35
966.95	3129.13
967.252	3043.48
967.554	3057.04
967.856	3064.5
968.158	3044.16
968.46	3073.54
968.761	2994.89
969.063	3041.67
969.365	2990.6
969.666	2966.42
969.968	2955.8
970.269	2963.93
970.571	2990.83
970.872	2960.54
971.174	2911.96
971.475	2881.9
971.776	2877.83
972.077	2879.19
972.378	2909.92
972.679	2848.91
972.98	2832.19
973.281	2829.02
973.582	2831.96
973.883	2786.76
974.183	2766.65
974.484	2763.26
974.785	2757.61
975.085	2772.53
975.386	2744.73
975.686	2725.97
975.986	2723.26
976.287	2723.49
976.587	2693.66
976.887	2669.25
977.187	2671.51
977.487	2689.82
977.787	2650.72
978.087	2612.76
978.387	2648.46
978.687	2614.34
978.987	2595.13
979.286	2605.52
979.586	2612.3
979.885	2537.73
980.185	2569.59
980.484	2530.72
980.784	2534.11
981.083	2528.24
981.382	2516.71
981.682	2504.74
981.981	2501.12
982.28	2469.94
982.579	2496.6
982.878	2453.21
983.177	2434
983.475	2454.34
983.774	2411.18
984.073	2412.31
984.372	2422.03
984.67	2370.05
984.969	2403.72
985.267	2393.78
985.566	2362.37
985.864	2359.2
986.162	2338.64
986.461	2309.04
986.759	2299.77
987.057	2297.51
987.355	2317.17
987.653	2272.2
987.951	2292.31
988.249	2277.85
988.547	2271.52
988.844	2223.84
989.142	2250.28
989.44	2240.79
989.737	2242.37
990.035	2215.7
990.332	2209.6
990.63	2201.47
990.927	2179.1
991.224	2155.82
991.521	2176.16
991.819	2152.88
992.116	2146.78
992.413	2132.09
992.71	2143.62
993.006	2098.87
993.303	2129.38
993.6	2130.96
993.897	2095.26
994.193	2100.23
994.49	2089.61
994.787	2041.92
995.083	2034.01
995.379	2051.64
995.676	2018.42
995.972	2004.41
996.268	2015.26
996.565	1996.95
996.861	1982.72
997.157	1991.53
997.453	1989.95
997.749	1955.6
998.044	1918.54
998.34	1958.31
998.636	1949.72
998.932	1948.14
999.227	1910.63
999.523	1904.53
999.818	1885.09
1000.114	1903.62
1000.409	1895.03
1000.704	1872.21
1001	1851.87
1001.295	1830.4
1001.59	1855.49
1001.885	1856.17
1002.18	1805.09
1002.475	1824.3
1002.77	1784.98
1003.065	1791.31
1003.359	1795.6
1003.654	1766.45
1003.949	1757.86
1004.243	1733.23
1004.538	1764.64
1004.832	1732.78
1005.127	1739.11
1005.421	1726.23
1005.715	1731.2
1006.009	1726.9
1006.304	1660.69
1006.598	1675.15
1006.892	1650.07
1007.186	1652.56
1007.48	1662.5
1007.773	1658.2
1008.067	1653.69
1008.361	1634.93
1008.655	1611.2
1008.948	1604.87
1009.242	1614.14
1009.535	1588.83
1009.829	1547.7
1010.122	1570.52
1010.415	1579.56
1010.708	1580.47
1011.001	1563.29
1011.295	1506.12
1011.588	1514.93
1011.881	1519.45
1012.173	1518.32
1012.466	1528.04
1012.759	1475.16
1013.052	1480.58
1013.344	1501.37
1013.637	1462.05
1013.93	1464.76
1014.222	1453.46
1014.514	1474.03
1014.807	1449.85
1015.099	1439
1015.391	1418.66
1015.683	1403.3
1015.976	1405.33
1016.268	1427.93
1016.56	1403.07
1016.851	1382.28
1017.143	1377.76
1017.435	1352.22
1017.727	1353.81
1018.018	1348.61
1018.31	1348.16
1018.602	1341.38
1018.893	1342.28
1019.185	1312
1019.476	1294.6
1019.767	1312.45
1020.058	1283.53
1020.35	1267.71
1020.641	1281.27
1020.932	1265.22
1021.223	1299.8
1021.514	1266.35
1021.804	1248.95
1022.095	1247.37
1022.386	1243.07
1022.677	1241.72
1022.967	1218.67
1023.258	1204.43
1023.548	1203.53
1023.839	1224.09
1024.129	1190.42
1024.419	1161.72
1024.709	1151.55
1025	1167.14
1025.29	1147.94
1025.58	1146.58
1025.87	1145.45
1026.16	1143.42
1026.449	1119.91
1026.739	1117.43
1027.029	1099.12
1027.319	1122.85
1027.608	1119.91
1027.898	1115.39
1028.187	1094.6
1028.477	1095.51
1028.766	1074.04
1029.055	1040.37
1029.344	1057.32
1029.634	1046.47
1029.923	1027.04
1030.212	1063.42
1030.501	1021.39
1030.79	1034.27
1031.078	1025.23
1031.367	1020.71
1031.656	1018
1031.945	1034.49
1032.233	999.24
1032.522	989.75
1032.81	993.36
1033.099	974.83
1033.387	975.29
1033.675	970.54
1033.963	953.82
1034.251	951.33
1034.54	968.28
1034.828	938.22
1035.116	955.62
1035.403	915.63
1035.691	928.51
1035.979	932.35
1036.267	914.5
1036.554	917.66
1036.842	882.41
1037.129	893.93
1037.417	915.85
1037.704	880.6
1037.992	872.24
1038.279	875.17
1038.566	877.43
1038.853	877.43
1039.14	877.43
