Data from hue_230_FLMS001491_00011.txt Node
Date: Tue Feb 07 16:36:51 GMT 2017
User: dcchb
Spectrometer: FLMS00149
Trigger mode: 0
Integration Time (sec): 2.000000E-2
Scans to average: 10
Electric dark correction enabled: true
Nonlinearity correction enabled: false
Boxcar width: 0
XAxis mode: Wavelengths
Number of Pixels in Spectrum: 2048
>>>>>Begin Spectral Data<<<<<
341.393	7.88
341.776	7.88
342.16	7.88
342.543	-54.26
342.927	-61.95
343.31	-63.53
343.693	-70.31
344.077	-67.82
344.46	-57.43
344.843	-65.56
345.226	-45.68
345.61	-16.98
345.993	6.53
346.376	-9.07
346.759	-1.61
347.142	28.9
347.525	49.91
347.908	38.84
348.291	72.06
348.674	81.55
349.057	120.19
349.44	123.36
349.823	153.64
350.206	163.58
350.588	182.11
350.971	200.42
351.354	204.26
351.737	230.47
352.119	253.75
352.502	264.82
352.884	252.39
353.267	275.9
353.65	286.07
354.032	279.96
354.414	288.55
354.797	301.43
355.179	300.98
355.562	312.96
355.944	335.1
356.326	326.06
356.709	322.45
357.091	316.35
357.473	340.75
357.855	322
358.238	343.69
358.62	346.18
359.002	352.96
359.384	328.32
359.766	328.1
360.148	324.93
360.53	343.01
360.912	340.75
361.294	321.09
361.676	334.43
362.057	318.61
362.439	337.14
362.821	333.07
363.203	321.32
363.584	294.43
363.966	322.68
364.348	325.61
364.729	330.58
365.111	321.77
365.493	316.12
365.874	293.52
366.256	300.53
366.637	298.49
367.019	290.59
367.4	299.85
367.781	322.68
368.163	298.72
368.544	299.17
368.925	297.14
369.306	286.07
369.688	295.78
370.069	302.79
370.45	301.43
370.831	282.22
371.212	307.31
371.593	309.57
371.974	313.86
372.355	305.95
372.736	312.96
373.117	324.93
373.498	311.83
373.879	305.95
374.26	299.62
374.641	301.43
375.021	306.4
375.402	317.93
375.783	300.3
376.163	330.58
376.544	321.32
376.925	313.41
377.305	311.15
377.686	334.88
378.066	326.52
378.447	339.62
378.827	335.78
379.208	305.95
379.588	324.93
379.968	298.72
380.349	330.36
380.729	319.51
381.109	331.49
381.489	325.16
381.87	312.73
382.25	336.91
382.63	317.25
383.01	327.65
383.39	340.75
383.77	364.03
384.15	322
384.53	339.62
384.91	348.66
385.29	333.52
385.67	359.74
386.049	352.96
386.429	342.11
386.809	368.78
387.189	351.6
387.568	331.49
387.948	347.31
388.328	342.11
388.707	340.75
389.087	370.13
389.466	359.06
389.846	358.61
390.225	357.93
390.605	385.5
390.984	339.17
391.363	363.8
391.743	364.93
392.122	351.37
392.501	388.44
392.881	379.85
393.26	381.43
393.639	377.14
394.018	354.99
394.397	375.78
394.776	387.76
395.155	405.38
395.534	368.32
395.913	371.26
396.292	378.94
396.671	395.44
397.05	373.97
397.429	397.93
397.808	391.15
398.186	383.01
398.565	401.77
398.944	406.97
399.323	407.19
399.701	385.05
400.08	400.19
400.458	419.4
400.837	398.38
401.215	407.19
401.594	438.15
401.972	421.2
402.351	418.94
402.729	406.51
403.107	441.77
403.486	443.58
403.864	414.2
404.242	445.38
404.62	440.41
404.999	441.09
405.377	425.27
405.755	446.97
406.133	439.51
406.511	468.21
406.889	453.97
407.267	449.68
407.645	472.95
408.023	470.47
408.401	470.47
408.779	466.4
409.156	490.58
409.534	489.22
409.912	490.58
410.29	498.26
410.667	514.76
411.045	506.17
411.422	530.81
411.8	531.26
412.178	539.62
412.555	535.55
412.933	545.49
413.31	569.67
413.687	554.76
414.065	552.05
414.442	580.52
414.819	574.42
415.197	591.37
415.574	606.28
415.951	597.24
416.328	588.2
416.705	600.63
417.082	605.38
417.46	633.4
417.837	639.73
418.214	621.65
418.591	632.72
418.967	654.19
419.344	665.94
419.721	668.88
420.098	656.9
420.475	679.28
420.852	685.38
421.228	691.25
421.605	712.04
421.982	723.34
422.358	734.64
422.735	737.13
423.111	745.04
423.488	758.82
423.864	776.45
424.241	782.1
424.617	773.74
424.994	807.86
425.37	795.88
425.746	786.84
426.123	834.07
426.499	821.65
426.875	857.58
427.251	857.35
427.627	852.38
428.003	888.54
428.379	893.51
428.756	891.47
429.132	896.9
429.507	907.97
429.883	921.76
430.259	940.06
430.635	972.6
431.011	969.21
431.387	994.3
431.763	990
432.138	996.56
432.514	998.36
432.89	1009.66
433.265	1052.83
433.641	1068.64
434.016	1069.77
434.392	1108.64
434.767	1122.2
435.143	1103.45
435.518	1133.73
435.894	1152.03
436.269	1152.71
436.644	1174.18
437.02	1196.55
437.395	1248.98
437.77	1270.9
438.145	1250.56
438.52	1247.62
438.895	1286.27
439.271	1282.65
439.646	1317.9
440.021	1324.46
440.395	1322.2
440.77	1347.73
441.145	1355.19
441.52	1393.16
441.895	1391.35
442.27	1432.7
442.645	1394.51
443.019	1428.41
443.394	1474.51
443.769	1482.64
444.143	1464.34
444.518	1485.58
444.892	1502.98
445.267	1515.64
445.641	1524.45
446.016	1532.59
446.39	1532.81
446.764	1527.62
447.139	1538.01
447.513	1591.34
447.887	1568.52
448.262	1587.95
448.636	1621.85
449.01	1625.24
449.384	1629.76
449.758	1670.89
450.132	1665.24
450.506	1651.23
450.88	1707.95
451.254	1680.38
451.628	1716.76
452.002	1718.8
452.376	1735.75
452.75	1769.19
453.123	1783.43
453.497	1789.08
453.871	1807.83
454.244	1826.14
454.618	1847.15
454.992	1856.19
455.365	1848.51
455.739	1921.96
456.112	1918.34
456.486	1924.67
456.859	1938.68
457.232	1941.84
457.606	1949.07
457.979	2021.84
458.352	2053.93
458.725	2050.77
459.099	2073.14
459.472	2118.11
459.845	2129.18
460.218	2180.71
460.591	2172.8
460.964	2151.78
461.337	2196.52
461.71	2238.56
462.083	2256.86
462.456	2280.82
462.829	2288.5
463.201	2354.71
463.574	2358.55
463.947	2371.21
464.32	2417.76
464.692	2439
465.065	2405.33
465.438	2471.32
465.81	2532.79
466.183	2559.45
466.555	2578.44
466.928	2557.19
467.3	2591.77
467.672	2609.62
468.045	2678.55
468.417	2713.12
468.789	2713.57
469.161	2760.13
469.534	2788.6
469.906	2805.1
470.278	2854.81
470.65	2886
471.022	2923.51
471.394	2946.11
471.766	2991.53
472.138	3005.09
472.51	3095.26
472.882	3112.21
473.253	3115.6
473.625	3182.49
473.997	3269.26
474.369	3237.4
474.74	3306.1
475.112	3310.17
475.484	3367.79
475.855	3441.69
476.227	3442.37
476.598	3548.58
476.97	3567.79
477.341	3643.49
477.713	3705.64
478.084	3736.6
478.455	3786.31
478.827	3835.13
479.198	3909.93
479.569	3923.94
479.94	4051.16
480.311	4049.36
480.682	4120.09
481.053	4211.84
481.424	4222.91
481.795	4308.56
482.166	4334.55
482.537	4386.52
482.908	4484.6
483.279	4462.91
483.65	4541.55
484.021	4631.71
484.391	4700.64
484.762	4741.09
485.133	4792.61
485.503	4796.68
485.874	4908.09
486.244	4923.01
486.615	5024.47
486.985	5069.44
487.356	5150.34
487.726	5207.74
488.097	5256.33
488.467	5292.71
488.837	5360.28
489.207	5427.85
489.578	5481.86
489.948	5522.99
490.318	5606.38
490.688	5605.25
491.058	5732.93
491.428	5730.89
491.798	5799.59
492.168	5937.67
492.538	5933.83
492.908	5959.82
493.278	6012.47
493.648	6019.02
494.017	6125.23
494.387	6114.39
494.757	6198.23
495.126	6248.85
495.496	6236.64
495.866	6320.48
496.235	6353.93
496.605	6457.2
496.974	6390.99
497.344	6470.08
497.713	6515.73
498.082	6562.51
498.452	6557.09
498.821	6612.68
499.19	6598.44
499.559	6640.93
499.928	6664.66
500.298	6727.03
500.667	6757.76
501.036	6758.89
501.405	6830.75
501.774	6852.9
502.143	6879.79
502.512	6899.45
502.88	6964.99
503.249	6917.53
503.618	7023.29
503.987	6983.52
504.356	6978.09
504.724	7056.51
505.093	7040.24
505.462	7076.85
505.83	7091.99
506.199	7155.26
506.567	7200.01
506.936	7219.89
507.304	7226.22
507.672	7303.51
508.041	7253.57
508.409	7244.75
508.777	7371.3
509.145	7385.31
509.514	7360
509.882	7407.46
510.25	7422.38
510.618	7437.06
510.986	7414.01
511.354	7516.38
511.722	7588.47
512.09	7577.63
512.458	7601.58
512.826	7563.84
513.193	7667.34
513.561	7577.4
513.929	7651.52
514.297	7717.96
514.664	7691.75
515.032	7713.22
515.4	7735.36
515.767	7757.51
516.135	7810.16
516.502	7747.11
516.869	7828.47
517.237	7857.62
517.604	7798.64
517.972	7865.98
518.339	7851.52
518.706	7887.45
519.073	7854.91
519.44	7924.28
519.808	7977.62
520.175	7912.98
520.542	7991.85
520.909	7960.21
521.276	7972.87
521.643	7981
522.009	8021.91
522.376	8092.87
522.743	8090.15
523.11	8158.63
523.477	8169.93
523.843	8233.2
524.21	8182.13
524.577	8281.79
524.943	8264.61
525.31	8248.34
525.676	8328.79
526.043	8276.82
526.409	8372.86
526.776	8396.81
527.142	8374.21
527.508	8379.41
527.874	8427.09
528.241	8425.74
528.607	8390.49
528.973	8492.18
529.339	8384.61
529.705	8427.32
530.071	8460.09
530.437	8465.96
530.803	8503.48
531.169	8459.18
531.535	8508.45
531.901	8460.09
532.267	8425.51
532.632	8535.57
532.998	8484.49
533.364	8517.49
533.73	8503.7
534.095	8555.23
534.461	8512.97
534.826	8486.75
535.192	8566.75
535.557	8545.51
535.923	8468.45
536.288	8561.1
536.653	8512.06
537.019	8441.33
537.384	8523.14
537.749	8512.06
538.114	8486.08
538.479	8433.2
538.845	8472.29
539.21	8437.26
539.575	8465.74
539.94	8428.68
540.305	8425.29
540.67	8458.05
541.034	8408.79
541.399	8431.16
541.764	8432.07
542.129	8382.8
542.494	8372.18
542.858	8413.99
543.223	8365.63
543.587	8444.95
543.952	8316.82
544.316	8327.21
544.681	8292.64
545.045	8318.4
545.41	8397.04
545.774	8322.92
546.138	8282.24
546.503	8330.15
546.867	8223.48
547.231	8355.01
547.595	8241.56
547.959	8299.64
548.324	8229.59
548.688	8222.58
549.052	8216.25
549.416	8253.31
549.779	8197.95
550.143	8210.15
550.507	8259.87
550.871	8188.68
551.235	8175.58
551.599	8202.24
551.962	8163.37
552.326	8119.53
552.689	8160.21
553.053	8141.45
553.417	8183.49
553.78	8189.13
554.143	8159.31
554.507	8157.05
554.87	8193.2
555.234	8174.67
555.597	8136.71
555.96	8137.84
556.323	8137.38
556.686	8175.12
557.05	8142.81
557.413	8142.81
557.776	8110.27
558.139	8160.89
558.502	8110.27
558.865	8155.46
559.228	8192.98
559.59	8230.49
559.953	8159.76
560.316	8251.05
560.679	8237.04
561.041	8267.55
561.404	8248.57
561.767	8289.92
562.129	8202.92
562.492	8272.52
562.854	8295.35
563.217	8229.81
563.579	8303.48
563.941	8301.9
564.304	8329.02
564.666	8304.84
565.028	8330.15
565.39	8332.86
565.753	8413.08
566.115	8375.34
566.477	8388.45
566.839	8410.15
567.201	8481.1
567.563	8466.64
567.925	8510.26
568.287	8524.72
568.648	8516.58
569.01	8525.62
569.372	8598.84
569.734	8562.91
570.095	8565.17
570.457	8623.93
570.819	8638.39
571.18	8636.35
571.542	8661.66
571.903	8662.57
572.265	8700.53
572.626	8644.72
572.987	8734.88
573.349	8751.15
573.71	8763.36
574.071	8854.88
574.432	8769.91
574.794	8873.64
575.155	8872.05
575.516	8775.79
575.877	8866.41
576.238	8890.36
576.599	8931.49
576.96	8913.64
577.32	8932.17
577.681	8950.02
578.042	8972.62
578.403	9020.53
578.763	9016.68
579.124	9043.58
579.485	9069.79
579.845	9088.77
580.206	9060.07
580.566	9087.87
580.927	9101.65
581.287	9104.37
581.648	9134.42
582.008	9230.69
582.368	9105.95
582.728	9175.78
583.089	9202.44
583.449	9191.59
583.809	9168.54
584.169	9222.55
584.529	9191.82
584.889	9295.77
585.249	9261.88
585.609	9253.51
585.969	9332.38
586.329	9259.16
586.688	9309.33
587.048	9293.74
587.408	9288.32
587.768	9263.23
588.127	9258.26
588.487	9299.61
588.846	9371.7
589.206	9260.29
589.565	9298.26
589.925	9377.58
590.284	9352.27
590.643	9357.69
591.003	9446.28
591.362	9489.67
591.721	9396.33
592.08	9417.8
592.44	9447.63
592.799	9463
593.158	9391.36
593.517	9463
593.876	9506.16
594.235	9503
594.593	9514.07
594.952	9476.56
595.311	9474.75
595.67	9472.27
596.029	9584.58
596.387	9578.48
596.746	9637.23
597.104	9600.4
597.463	9479.04
597.822	9607.4
598.18	9547.07
598.538	9514.52
598.897	9588.87
599.255	9578.48
599.613	9637.01
599.972	9591.58
600.33	9610.57
600.688	9608.98
601.046	9673.16
601.404	9628.65
601.762	9688.08
602.12	9679.72
602.478	9627.29
602.836	9689.43
603.194	9623.9
603.552	9674.07
603.91	9614.18
604.268	9700.73
604.625	9611.47
604.983	9708.64
605.341	9664.8
605.698	9667.06
606.056	9746.61
606.413	9729.21
606.771	9743.9
607.128	9795.65
607.485	9712.26
607.843	9757.91
608.2	9793.16
608.557	9823.44
608.914	9722.88
609.272	9848.3
609.629	9808.53
609.986	9882.42
610.343	9879.03
610.7	9879.94
611.057	9869.32
611.414	9852.59
611.771	9852.14
612.127	9868.64
612.484	9868.86
612.841	9927.39
613.198	9919.48
613.554	9808.53
613.911	9896.21
614.267	9955.19
614.624	9844.68
614.98	9966.94
615.337	9970.56
615.693	10009.65
616.05	9965.13
616.406	9966.26
616.762	9964.68
617.118	9985.25
617.475	10017.34
617.831	9987.96
618.187	10047.17
618.543	10016.88
618.899	10046.26
619.255	10060.05
619.611	10064.57
619.967	10109.31
620.323	10106.82
620.678	10024.34
621.034	9976.43
621.39	10046.49
621.746	10047.62
622.101	10089.2
622.457	10034.06
622.812	10036.54
623.168	10128.52
623.523	10098.24
623.879	10142.53
624.234	9995.87
624.589	10063.21
624.945	10050.1
625.3	10042.19
625.655	10042.42
626.01	10106.37
626.365	10015.98
626.72	9991.57
627.075	10065.47
627.43	10029.76
627.785	9956.09
628.14	10075.87
628.495	10039.93
628.85	10016.88
629.205	10012.14
629.559	10107.05
629.914	10061.85
630.269	9991.8
630.623	9979.14
630.978	9953.16
631.332	9887.62
631.687	9979.6
632.041	9927.62
632.396	10000.84
632.75	9876.55
633.104	9954.29
633.459	9904.34
633.813	9923.1
634.167	9865.93
634.521	9815.53
634.875	9883.33
635.229	9867.51
635.583	9782.99
635.937	9774.63
636.291	9809.21
636.645	9831.35
636.999	9751.58
637.352	9776.66
637.706	9773.95
638.06	9777.79
638.413	9809.43
638.767	9724.69
639.121	9748.64
639.474	9676.1
639.828	9721.52
640.181	9777.57
640.534	9715.87
640.888	9659.38
641.241	9618.02
641.594	9621.87
641.947	9694.41
642.301	9655.09
642.654	9648.98
643.007	9645.14
643.36	9605.59
643.713	9652.37
644.066	9634.07
644.419	9623.22
644.771	9544.58
645.124	9482.21
645.477	9441.98
645.83	9379.61
646.182	9345.49
646.535	9291.93
646.888	9297.58
647.24	9232.72
647.593	9267.52
647.945	9260.29
648.298	9195.21
648.65	9256
649.002	9209.22
649.355	9285.6
649.707	9271.37
650.059	9249.9
650.411	9414.87
650.763	9417.58
651.115	9557.01
651.467	9492.83
651.819	9477.91
652.171	9515.65
652.523	9535.77
652.875	9433.4
653.227	9414.87
653.578	9542.77
653.93	9487.41
654.282	9435.2
654.633	9401.08
654.985	9442.21
655.337	9442.44
655.688	9466.16
656.039	9520.63
656.391	9403.79
656.742	9482.21
657.094	9420.74
657.445	9495.77
657.796	9401.76
658.147	9418.48
658.498	9398.82
658.849	9437.24
659.2	9416.45
659.551	9424.13
659.902	9465.71
660.253	9403.11
660.604	9452.6
660.955	9359.73
661.306	9481.53
661.656	9422.77
662.007	9439.27
662.358	9393.4
662.708	9435.66
663.059	9379.16
663.409	9347.52
663.76	9492.83
664.11	9415.54
664.461	9519.04
664.811	9414.87
665.161	9428.65
665.511	9443.34
665.862	9427.52
666.212	9513.17
666.562	9403.79
666.912	9438.59
667.262	9444.24
667.612	9418.48
667.962	9438.59
668.312	9475.43
668.662	9388.88
669.011	9463.9
669.361	9443.34
669.711	9421.64
670.06	9424.36
670.41	9418.71
670.76	9412.61
671.109	9490.57
671.459	9352.27
671.808	9399.27
672.157	9411.02
672.507	9371.7
672.856	9352.04
673.205	9346.39
673.554	9365.15
673.904	9334.42
674.253	9464.36
674.602	9370.8
674.951	9190.01
675.3	9185.49
675.649	9320.4
675.998	9280.18
676.346	9331.93
676.695	9298.71
677.044	9241.31
677.393	9236.57
677.741	9309.33
678.09	9246.96
678.438	9227.75
678.787	9280.41
679.135	9221.42
679.484	9185.94
679.832	9204.25
680.181	9159.96
680.529	9112.27
680.877	9170.8
681.225	9097.36
681.573	9175.78
681.922	9097.59
682.27	9051.26
682.618	9114.53
682.966	9048.32
683.314	9054.87
683.661	8987.53
684.009	8970.13
684.357	8962
684.705	8969.23
685.053	8971.04
685.4	8929.23
685.748	8886.29
686.095	8846.97
686.443	8844.94
686.79	8837.03
687.138	8842
687.485	8890.81
687.832	8823.24
688.18	8808.78
688.527	8747.76
688.874	8747.54
689.221	8675.68
689.568	8728.78
689.915	8674.55
690.262	8707.77
690.609	8654.21
690.956	8655.56
691.303	8603.59
691.65	8582.34
691.997	8565.4
692.344	8479.07
692.69	8554.78
693.037	8446.98
693.383	8342.58
693.73	8432.52
694.077	8395.01
694.423	8420.09
694.769	8378.06
695.116	8307.32
695.462	8253.09
695.808	8289.25
696.155	8224.16
696.501	8219.64
696.847	8219.64
697.193	8157.5
697.539	8244.95
697.885	8077.95
698.231	8042.7
698.577	8066.2
698.923	8077.27
699.269	8013.32
699.614	7966.99
699.96	7952.98
700.306	7977.62
700.651	7868.24
700.997	7908.01
701.342	7856.26
701.688	7848.8
702.033	7704.85
702.379	7778.98
702.724	7754.34
703.069	7738.3
703.415	7652.43
703.76	7688.81
704.105	7660.34
704.45	7576.72
704.795	7571.07
705.14	7535.14
705.485	7538.98
705.83	7510.73
706.175	7525.42
706.52	7513.67
706.865	7463.28
707.209	7407.01
707.554	7370.17
707.899	7384.64
708.243	7363.17
708.588	7326.56
708.932	7281.81
709.277	7225.54
709.621	7254.24
709.966	7170.86
710.31	7219.22
710.654	7194.36
710.998	7232.32
711.342	7213.34
711.687	7227.58
712.031	7200.01
712.375	7171.53
712.719	7116.17
713.063	7175.6
713.407	7144.42
713.75	7064.87
714.094	7113.91
714.438	7095.83
714.782	7061.03
715.125	7022.39
715.469	7057.87
715.812	6966.12
716.156	6976.74
716.499	6929.73
716.843	6984.42
717.186	6950.75
717.53	6972.67
717.873	6999.56
718.216	6952.33
718.559	6915.5
718.902	6864.88
719.246	6917.53
719.589	6814.48
719.932	6850.64
720.275	6848.38
720.617	6821.04
720.96	6783.97
721.303	6795.95
721.646	6845.67
721.989	6852.45
722.331	6867.36
722.674	6853.35
723.016	6767.25
723.359	6727.48
723.701	6753.24
724.044	6748.04
724.386	6725.44
724.729	6734.48
725.071	6731.55
725.413	6784.2
725.755	6740.81
726.097	6738.1
726.439	6665.11
726.782	6699.46
727.124	6749.4
727.465	6687.03
727.807	6699.46
728.149	6677.99
728.491	6626.92
728.833	6672.79
729.175	6653.58
729.516	6656.29
729.858	6648.38
730.199	6661.04
730.541	6621.04
730.882	6630.98
731.224	6631.89
731.565	6640.48
731.906	6601.15
732.248	6617.88
732.589	6595.73
732.93	6618.55
733.271	6583.75
733.612	6664.88
733.953	6676.18
734.294	6612.45
734.635	6629.4
734.976	6620.14
735.317	6547.14
735.658	6637.09
735.999	6670.98
736.339	6606.8
736.68	6638.44
737.021	6647.03
737.361	6618.55
737.702	6633.7
738.042	6657.42
738.383	6646.35
738.723	6711.89
739.063	6641.15
739.404	6635.28
739.744	6696.74
740.084	6652.9
740.424	6702.85
740.764	6692.45
741.104	6718.44
741.444	6700.59
741.784	6709.17
742.124	6748.95
742.464	6695.84
742.804	6738.1
743.143	6707.14
743.483	6706.46
743.823	6741.49
744.162	6827.81
744.502	6749.17
744.841	6798.89
745.181	6882.73
745.52	6852.67
745.86	6893.58
746.199	6867.14
746.538	6945.33
746.877	6979.45
747.216	7081.59
747.556	6982.39
747.895	7069.39
748.234	7072.55
748.573	7146
748.911	7089.95
749.25	7140.12
749.589	7197.75
749.928	7284.98
750.267	7346.67
750.605	7390.74
750.944	7399.33
751.283	7454.01
751.621	7556.84
751.96	7590.96
752.298	7635.03
752.636	7764.51
752.975	7737.17
753.313	7822.36
753.651	7928.58
753.989	7994.79
754.327	8086.99
754.666	8138.29
755.004	8179.64
755.342	8317.95
755.679	8394.33
756.017	8559.29
756.355	8682
756.693	8696.47
757.031	8716.8
757.368	8866.86
757.706	8992.73
758.044	9078.15
758.381	9216.45
758.719	9261.88
759.056	9406.5
759.394	9502.09
759.731	9615.76
760.068	9737.79
760.405	9876.55
760.743	10086.26
761.08	10135.75
761.417	10161.96
761.754	10350.66
762.091	10499.13
762.428	10605.34
762.765	10610.31
763.102	10866.35
763.438	10896.41
763.775	10997.87
764.112	11160.13
764.449	11294.36
764.785	11323.06
765.122	11505.43
765.458	11528.48
765.795	11668.59
766.131	11745.43
766.467	11798.31
766.804	11972.99
767.14	12014.12
767.476	12055.25
767.812	12104.29
768.148	12335.47
768.485	12347.44
768.821	12353.32
769.157	12580.88
769.492	12582.24
769.828	12692.97
770.164	12666.53
770.5	12846.87
770.836	12887.77
771.171	12845.06
771.507	12971.83
771.842	12981.1
772.178	13050.7
772.513	13153.52
772.849	13195.11
773.184	13215.67
773.519	13288.66
773.855	13382.22
774.19	13439.39
774.525	13307.42
774.86	13452.05
775.195	13461.99
775.53	13563.46
775.865	13466.96
776.2	13523.23
776.535	13413.4
776.87	13544.7
777.205	13497.24
777.539	13469.67
777.874	13641.87
778.209	13574.3
778.543	13594.19
778.878	13554.19
779.212	13664.92
779.547	13647.97
779.881	13766.39
780.215	13731.36
780.55	13681.42
780.884	13698.14
781.218	13608.2
781.552	13697.24
781.886	13695.66
782.22	13658.6
782.554	13632.61
782.888	13531.59
783.222	13587.86
783.556	13512.16
783.889	13572.04
784.223	13384.03
784.557	13479.62
784.89	13469.67
785.224	13441.88
785.557	13434.42
785.891	13443.46
786.224	13406.62
786.558	13495.89
786.891	13393.07
787.224	13359.85
787.557	13365.04
787.891	13339.28
788.224	13312.62
788.557	13351.26
788.89	13389.45
789.223	13285.72
789.556	13286.18
789.888	13265.61
790.221	13231.71
790.554	13159.17
790.887	13159.63
791.219	13135.22
791.552	13183.81
791.884	13026.52
792.217	13030.82
792.549	12956.02
792.882	12993.98
793.214	12980.42
793.546	12938.84
793.879	12947.43
794.211	12885.73
794.543	12985.17
794.875	12866.3
795.207	12934.77
795.539	12789.01
795.871	12890.71
796.203	12700.65
796.535	12610.04
796.867	12608.45
797.198	12604.84
797.53	12612.75
797.862	12559.64
798.193	12584.73
798.525	12468.57
798.856	12531.39
799.188	12364.62
799.519	12333.66
799.85	12330.95
800.182	12398.29
800.513	12361.45
800.844	12239.65
801.175	12321.91
801.506	12339.76
801.837	12286.43
802.168	12196.49
802.499	12121.01
802.83	12076.04
803.161	12125.3
803.491	12069.26
803.822	12088.24
804.153	12001.24
804.483	11929.6
804.814	11858.19
805.145	11918.3
805.475	11912.65
805.805	11780.9
806.136	11836.72
806.466	11852.77
806.796	11866.1
807.126	11751.3
807.457	11784.29
807.787	11694.81
808.117	11674.24
808.447	11662.04
808.777	11689.61
809.107	11587.69
809.436	11572.77
809.766	11583.85
810.096	11506.34
810.426	11465.66
810.755	11551.53
811.085	11500.23
811.414	11460.24
811.744	11430.18
812.073	11386.79
812.403	11361.25
812.732	11299.79
813.061	11224.54
813.39	11237.87
813.719	11223.41
814.049	11302.5
814.378	11229.06
814.707	11186.34
815.036	11168.49
815.365	11192.22
815.693	11073.8
816.022	11076.97
816.351	11027.7
816.68	10987.48
817.008	11007.59
817.337	10905
817.665	10920.36
817.994	10926.92
818.322	10963.53
818.651	10801.5
818.979	10841.04
819.307	10920.81
819.636	10867.48
819.964	10800.82
820.292	10896.41
820.62	10819.57
820.948	10737.77
821.276	10826.58
821.604	10730.31
821.932	10796.98
822.259	10848.73
822.587	10795.85
822.915	10799.69
823.243	10747.03
823.57	10728.28
823.898	10801.5
824.225	10772.34
824.553	10740.25
824.88	10789.52
825.207	10749.29
825.535	10770.08
825.862	10761.27
826.189	10806.02
826.516	10855.51
826.843	10779.35
827.17	10831.78
827.497	10799.69
827.824	10763.98
828.151	10816.64
828.478	10806.69
828.805	10813.92
829.131	10778.45
829.458	10799.69
829.785	10727.83
830.111	10773.47
830.438	10870.19
830.764	10794.94
831.09	10784.32
831.417	10671.78
831.743	10858.22
832.069	10780.03
832.395	10711.1
832.722	10782.51
833.048	10764.21
833.374	10745.68
833.7	10714.27
834.026	10691.22
834.351	10745.9
834.677	10667.49
835.003	10730.09
835.329	10692.8
835.654	10745.68
835.98	10615.51
836.306	10631.33
836.631	10625
836.956	10621.84
837.282	10687.15
837.607	10601.27
837.932	10550.88
838.258	10551.56
838.583	10578.22
838.908	10440.83
839.233	10518.34
839.558	10480.15
839.883	10448.28
840.208	10404.67
840.533	10399.47
840.858	10435.86
841.182	10403.99
841.507	10436.08
841.832	10371.45
842.156	10378.91
842.481	10356.54
842.805	10251.91
843.13	10306.37
843.454	10247.84
843.778	10241.96
844.103	10209.87
844.427	10169.42
844.751	10229.53
845.075	10147.05
845.399	10128.07
845.723	10098.69
846.047	10073.15
846.371	9989.99
846.695	9954.51
847.019	9901.86
847.343	9909.09
847.666	9820.5
847.99	9787.96
848.313	9787.06
848.637	9709.55
848.96	9774.4
849.284	9717.46
849.607	9660.28
849.931	9573.73
850.254	9543.9
850.577	9533.96
850.9	9461.42
851.223	9475.65
851.546	9423.23
851.869	9326.51
852.192	9376
852.515	9310.69
852.838	9231.14
853.161	9281.76
853.483	9173.74
853.806	9201.99
854.129	9112.95
854.451	9131.03
854.774	9098.72
855.096	9087.19
855.419	8978.72
855.741	9063.91
856.063	8943.47
856.385	8927.65
856.708	8872.51
857.03	8890.13
857.352	8861.21
857.674	8772.85
857.996	8733.98
858.318	8735.11
858.64	8778.05
858.961	8746.63
859.283	8690.59
859.605	8689.46
859.926	8672.29
860.248	8694.21
860.57	8567.88
860.891	8706.86
861.212	8597.49
861.534	8573.98
861.855	8526.98
862.176	8519.97
862.498	8561.55
862.819	8557.49
863.14	8457.6
863.461	8440.43
863.782	8430.26
864.103	8434.55
864.424	8429.58
864.745	8467.77
865.065	8432.07
865.386	8415.57
865.707	8329.47
866.027	8372.63
866.348	8352.52
866.668	8300.77
866.989	8303.26
867.309	8302.13
867.63	8279.08
867.95	8237.27
868.27	8226.65
868.59	8249.02
868.91	8200.89
869.23	8205.63
869.55	8169.47
869.87	8211.51
870.19	8181.9
870.51	8230.26
870.83	8245.4
871.15	8093.32
871.469	8128.57
871.789	8212.19
872.109	8120.66
872.428	8045.86
872.748	8090.15
873.067	8091.74
873.386	8089.48
873.706	8048.35
874.025	8044.73
874.344	8042.02
874.663	8050.83
874.982	7951.85
875.301	7990.72
875.62	8001.8
875.939	7928.12
876.258	7996.82
876.577	7957.28
876.896	7915.92
877.214	7877.5
877.533	7921.35
877.852	7851.97
878.17	7898.97
878.489	7887.22
878.807	7843.16
879.125	7825.53
879.444	7820.33
879.762	7839.77
880.08	7785.53
880.398	7759.09
880.716	7778.98
881.034	7705.98
881.352	7794.57
881.67	7740.11
881.988	7656.95
882.306	7682.26
882.624	7634.35
882.941	7625.31
883.259	7601.35
883.577	7643.84
883.894	7635.48
884.212	7571.75
884.529	7590.05
884.846	7562.03
885.164	7521.36
885.481	7504.18
885.798	7528.59
886.115	7394.81
886.432	7497.63
886.75	7482.94
887.067	7477.06
887.383	7442.71
887.7	7469.83
888.017	7346.22
888.334	7414.24
888.651	7302.83
888.967	7324.75
889.284	7311.64
889.6	7333.11
889.917	7207.01
890.233	7233.68
890.55	7186.22
890.866	7195.94
891.182	7149.39
891.498	7164.53
891.815	7137.64
892.131	7124.53
892.447	7082.27
892.763	7026.68
893.079	7115.26
893.395	7004.76
893.71	7006.34
894.026	6970.18
894.342	6945.1
894.657	6892.9
894.973	6911.2
895.289	6870.75
895.604	6886.34
895.92	6805.44
896.235	6791.21
896.55	6792.11
896.865	6772.9
897.181	6720.92
897.496	6749.17
897.811	6729.96
898.126	6673.47
898.441	6655.16
898.756	6684.54
899.071	6549.86
899.386	6605.9
899.7	6615.17
900.015	6518.44
900.33	6468.73
900.644	6525.45
900.959	6497.43
901.273	6525
901.588	6494.26
901.902	6440.71
902.216	6407.26
902.531	6376.08
902.845	6388.96
903.159	6317.55
903.473	6275.74
903.787	6313.93
904.101	6233.71
904.415	6239.81
904.729	6262.41
905.042	6172.92
905.356	6176.53
905.67	6156.87
905.984	6174.95
906.297	6123.2
906.611	6071.9
906.924	6046.59
907.237	6019.93
907.551	5977.44
907.864	5978.35
908.177	5919.14
908.491	5930.21
908.804	5929.53
909.117	5921.4
909.43	5875.75
909.743	5860.83
910.056	5831.91
910.368	5775.64
910.681	5751.68
910.994	5751.91
911.307	5683.21
911.619	5701.06
911.932	5700.39
912.244	5683.44
912.557	5704.91
912.869	5576.55
913.181	5615.64
913.494	5574.51
913.806	5567.28
914.118	5536.78
914.43	5499.04
914.742	5496.78
915.054	5451.58
915.366	5465.36
915.678	5466.95
915.99	5455.2
916.302	5370.45
916.613	5332.71
916.925	5353.96
917.236	5299.49
917.548	5324.8
917.859	5319.61
918.171	5237.12
918.482	5200.29
918.794	5190.8
919.105	5227.18
919.416	5161.19
919.727	5136.56
920.038	5100.4
920.349	5092.04
920.66	5078.48
920.971	5082.1
921.282	5071.93
921.593	5068.31
921.903	5026.05
922.214	5002.55
922.525	4957.58
922.835	4949.9
923.146	4889.79
923.456	4923.23
923.767	4862.67
924.077	4845.95
924.387	4902.22
924.697	4826.51
925.008	4848.21
925.318	4741.77
925.628	4808.43
925.938	4751.49
926.248	4734.54
926.558	4725.27
926.867	4709.68
927.177	4649.79
927.487	4634.65
927.796	4631.94
928.106	4640.98
928.416	4571.38
928.725	4594.2
929.034	4558.27
929.344	4583.81
929.653	4527.08
929.962	4526.18
930.271	4514.66
930.581	4478.95
930.89	4455.45
931.199	4424.49
931.508	4453.19
931.817	4417.48
932.125	4402.12
932.434	4352.85
932.743	4341.1
933.051	4327.54
933.36	4298.16
933.669	4312.85
933.977	4342.68
934.286	4293.87
934.594	4277.37
934.902	4230.59
935.21	4239.86
935.519	4211.16
935.827	4200.09
936.135	4170.94
936.443	4110.37
936.751	4127.77
937.059	4134.1
937.367	4134.33
937.674	4118.06
937.982	4079.19
938.29	4070.83
938.597	4063.59
938.905	4040.77
939.213	3995.8
939.52	3964.61
939.827	4008.45
940.135	3973.2
940.442	3919.64
940.749	3948.57
941.056	3956.25
941.363	3925.52
941.67	3902.69
941.977	3849.14
942.284	3784.96
942.591	3822.02
942.898	3746.99
943.205	3849.36
943.511	3783.38
943.818	3822.02
944.125	3761.23
944.431	3778.63
944.738	3696.37
945.044	3729.82
945.35	3684.62
945.657	3673.1
945.963	3638.29
946.269	3593.55
946.575	3659.76
946.881	3593.55
947.187	3591.97
947.493	3543.16
947.799	3563.49
948.105	3546.55
948.41	3554.45
948.716	3565.98
949.022	3504.96
949.327	3508.35
949.633	3454.8
949.938	3444.17
950.244	3492.99
950.549	3459.77
950.854	3439.88
951.16	3371.41
951.465	3395.59
951.77	3350.62
952.075	3348.58
952.38	3313.56
952.685	3331.18
952.99	3330.28
953.294	3258.87
953.599	3273.11
953.904	3233.56
954.209	3250.06
954.513	3274.69
954.818	3252.99
955.122	3236.5
955.426	3232.2
955.731	3212.99
956.035	3180.91
956.339	3170.06
956.643	3161.24
956.948	3123.05
957.252	3112.66
957.556	3128.7
957.86	3132.54
958.163	3080.12
958.467	3060
958.771	3075.37
959.075	3066.33
959.378	3053.45
959.682	2991.76
959.985	3006.9
960.289	3005.77
960.592	2954.92
960.896	2968.26
961.199	2963.28
961.502	2989.27
961.805	2968.03
962.108	2931.87
962.411	2947.92
962.714	2879.9
963.017	2864.76
963.32	2917.18
963.623	2865.89
963.926	2849.16
964.228	2831.08
964.531	2861.37
964.833	2850.97
965.136	2777.75
965.438	2785.66
965.741	2780.24
966.043	2766.23
966.345	2770.07
966.648	2728.26
966.95	2734.59
967.252	2735.95
967.554	2706.12
967.856	2716.28
968.158	2681.94
968.46	2699.34
968.761	2691.2
969.063	2633.35
969.365	2656.17
969.666	2636.96
969.968	2651.2
970.269	2600.58
970.571	2577.76
970.872	2589.51
971.174	2584.31
971.475	2580.69
971.776	2592.45
972.077	2580.92
972.378	2560.13
972.679	2587.7
972.98	2512.67
973.281	2536.85
973.582	2499.79
973.883	2496.86
974.183	2503.86
974.484	2485.56
974.785	2448.95
975.085	2460.47
975.386	2477.87
975.686	2416.86
975.986	2430.87
976.287	2453.69
976.587	2405.11
976.887	2366.46
977.187	2398.55
977.487	2395.16
977.787	2332.11
978.087	2322.85
978.387	2357.2
978.687	2335.96
978.987	2322.85
979.286	2305.22
979.586	2324.88
979.885	2291.66
980.185	2257.77
980.484	2236.75
980.784	2239.01
981.083	2273.58
981.382	2292.79
981.682	2235.85
981.981	2257.54
982.28	2221.83
982.579	2186.35
982.878	2201.72
983.177	2172.57
983.475	2200.37
983.774	2147.26
984.073	2149.07
984.372	2145
984.67	2123.08
984.969	2147.71
985.267	2112.68
985.566	2107.03
985.864	2117.43
986.162	2078.34
986.461	2059.13
986.759	2083.08
987.057	2072.69
987.355	2051.22
987.653	2040.6
987.951	2034.27
988.249	2023.87
988.547	2020.03
988.844	2024.78
989.142	1995.17
989.44	1982.52
989.737	1984.55
990.035	1960.15
990.332	1982.07
990.63	1969.19
990.927	1951.33
991.224	1928.73
991.521	1952.46
991.819	1915.18
992.116	1946.81
992.413	1952.91
992.71	1905.46
993.006	1872.46
993.303	1892.35
993.6	1858.23
993.897	1889.41
994.193	1856.19
994.49	1831.34
994.787	1828.85
995.083	1834.73
995.379	1824.56
995.676	1788.63
995.972	1789.76
996.268	1793.37
996.565	1797.21
996.861	1816.87
997.157	1796.53
997.453	1755.63
997.749	1730.55
998.044	1742.75
998.34	1743.2
998.636	1720.6
998.932	1725.12
999.227	1710.89
999.523	1706.82
999.818	1698.46
1000.114	1649.42
1000.409	1665.24
1000.704	1652.36
1001	1675.18
1001.295	1649.65
1001.59	1665.24
1001.885	1627.05
1002.18	1636.09
1002.475	1610.55
1002.77	1633.38
1003.065	1615.75
1003.359	1593.6
1003.654	1585.92
1003.949	1586.37
1004.243	1587.27
1004.538	1545.24
1004.832	1585.69
1005.127	1544.79
1005.421	1550.67
1005.715	1518.35
1006.009	1528.29
1006.304	1516.32
1006.598	1491.46
1006.892	1507.73
1007.186	1493.27
1007.48	1499.59
1007.773	1472.25
1008.067	1491.68
1008.361	1439.71
1008.655	1466.6
1008.948	1443.1
1009.242	1431.8
1009.535	1414.17
1009.829	1424.34
1010.122	1420.95
1010.415	1398.81
1010.708	1392.48
1011.001	1424.12
1011.295	1393.61
1011.588	1375.3
1011.881	1349.09
1012.173	1359.94
1012.466	1320.39
1012.759	1339.6
1013.052	1329.88
1013.344	1323.1
1013.637	1335.08
1013.93	1332.82
1014.222	1331.69
1014.514	1315.87
1014.807	1294.18
1015.099	1277.45
1015.391	1301.41
1015.683	1291.46
1015.976	1250.11
1016.268	1262.54
1016.56	1274.97
1016.851	1254.18
1017.143	1261.18
1017.435	1216.21
1017.727	1234.06
1018.018	1213.5
1018.31	1212.6
1018.602	1224.57
1018.893	1215.53
1019.185	1216.21
1019.476	1174.4
1019.767	1193.16
1020.058	1161.52
1020.35	1141.86
1020.641	1137.57
1020.932	1163.11
1021.223	1141.41
1021.514	1119.94
1021.804	1094.18
1022.095	1124.91
1022.386	1118.36
1022.677	1086.04
1022.967	1101.64
1023.258	1062.54
1023.548	1062.54
1023.839	1072.03
1024.129	1108.42
1024.419	1076.33
1024.709	1033.62
1025	1067.06
1025.29	1032.04
1025.58	1034.07
1025.87	1038.14
1026.16	1033.39
1026.449	1014.18
1026.739	1002.88
1027.029	1025.93
1027.319	991.36
1027.608	1002.88
1027.898	995.2
1028.187	979.16
1028.477	1008.08
1028.766	993.62
1029.055	982.54
1029.344	953.84
1029.634	966.95
1029.923	919.27
1030.212	971.47
1030.501	941.64
1030.79	934.86
1031.078	930.57
1031.367	928.08
1031.656	921.08
1031.945	914.75
1032.233	899.84
1032.522	904.81
1032.81	899.84
1033.099	893.06
1033.387	875.2
1033.675	896.45
1033.963	865.49
1034.251	881.76
1034.54	875.43
1034.828	877.91
1035.116	860.29
1035.403	873.85
1035.691	852.83
1035.979	862.32
1036.267	854.64
1036.554	828.42
1036.842	828.42
1037.129	839.5
1037.417	840.85
1037.704	813.96
1037.992	791.59
1038.279	810.8
1038.566	766.28
1038.853	766.28
1039.14	766.28
