Data from hue_34_FLMS001491_00099.txt Node
Date: Tue Feb 07 17:26:29 GMT 2017
User: dcchb
Spectrometer: FLMS00149
Trigger mode: 0
Integration Time (sec): 2.000000E-2
Scans to average: 10
Electric dark correction enabled: true
Nonlinearity correction enabled: false
Boxcar width: 0
XAxis mode: Wavelengths
Number of Pixels in Spectrum: 2048
>>>>>Begin Spectral Data<<<<<
341.393	-13.67
341.776	-13.67
342.16	-13.67
342.543	-48.02
342.927	-64.07
343.31	-72.88
343.693	-85.76
344.077	-56.61
344.46	-57.51
344.843	-53.44
345.226	-49.15
345.61	-31.07
345.993	-7.34
346.376	-7.8
346.759	5.54
347.142	29.49
347.525	35.59
347.908	63.84
348.291	88.7
348.674	81.69
349.057	116.72
349.44	138.87
349.823	144.97
350.206	162.59
350.588	214.34
350.971	210.5
351.354	248.24
351.737	227.68
352.119	259.99
352.502	273.1
352.884	278.75
353.267	300.67
353.65	290.27
354.032	311.52
354.414	318.07
354.797	321.01
355.179	340.67
355.562	331.4
355.944	324.85
356.326	301.35
356.709	352.42
357.091	346.54
357.473	342.48
357.855	342.02
358.238	340.67
358.62	359.88
359.002	361.01
359.384	353.32
359.766	356.26
360.148	351.29
360.53	349.93
360.912	337.05
361.294	323.04
361.676	352.42
362.057	325.3
362.439	346.77
362.821	325.53
363.203	342.48
363.584	348.13
363.966	333.21
364.348	318.75
364.729	340.22
365.111	321.91
365.493	311.74
365.874	316.26
366.256	319.88
366.637	332.53
367.019	344.06
367.4	320.33
367.781	295.92
368.163	324.85
368.544	325.98
368.925	320.56
369.306	328.69
369.688	324.62
370.069	309.71
370.45	318.07
370.831	330.95
371.212	318.75
371.593	301.35
371.974	338.86
372.355	314
372.736	317.39
373.117	334.57
373.498	325.75
373.879	312.42
374.26	313.1
374.641	291.18
375.021	312.2
375.402	325.08
375.783	324.85
376.163	318.97
376.544	327.79
376.925	321.91
377.305	316.94
377.686	308.35
378.066	345.64
378.447	305.87
378.827	342.7
379.208	332.53
379.588	336.6
379.968	346.09
380.349	350.84
380.729	341.35
381.109	316.49
381.489	330.05
381.87	326.21
382.25	336.15
382.63	348.13
383.01	344.96
383.39	346.77
383.77	360.78
384.15	344.96
384.53	342.02
384.91	347
385.29	337.73
385.67	377.05
386.049	360.56
386.429	372.08
386.809	360.78
387.189	341.57
387.568	343.38
387.948	357.84
388.328	363.04
388.707	349.03
389.087	364.4
389.466	349.48
389.846	346.09
390.225	360.33
390.605	372.53
390.984	369.14
391.363	358.52
391.743	380.22
392.122	377.28
392.501	383.61
392.881	354
393.26	383.38
393.639	385.41
394.018	373.89
394.397	353.32
394.776	365.98
395.155	388.13
395.534	390.84
395.913	387
396.292	382.02
396.671	377.05
397.05	388.35
397.429	385.64
397.808	369.14
398.186	388.8
398.565	399.42
398.944	388.13
399.323	396.71
399.701	385.41
400.08	403.04
400.458	397.16
400.837	409.14
401.215	381.35
401.594	398.75
401.972	404.4
402.351	410.27
402.729	415.02
403.107	408.92
403.486	386.09
403.864	389.48
404.242	404.62
404.62	406.43
404.999	406.88
405.377	414.34
405.755	407.56
406.133	418.18
406.511	422.93
406.889	424.96
407.267	444.62
407.645	425.86
408.023	424.73
408.401	430.16
408.779	436.94
409.156	449.82
409.534	454.56
409.912	464.73
410.29	435.81
410.667	445.07
411.045	459.99
411.422	428.35
411.8	448.01
412.178	464.28
412.555	461.12
412.933	479.87
413.31	481
413.687	468.35
414.065	488.24
414.442	483.49
414.819	482.59
415.197	473.77
415.574	472.42
415.951	460.21
416.328	496.37
416.705	492.53
417.082	477.84
417.46	457.5
417.837	491.63
418.214	496.82
418.591	487.56
418.967	505.64
419.344	491.85
419.721	510.83
420.098	513.09
420.475	510.38
420.852	532.53
421.228	502.7
421.605	526.88
421.982	530.95
422.358	526.2
422.735	532.98
423.111	513.55
423.488	539.99
423.864	518.97
424.241	535.24
424.617	536.82
424.994	536.14
425.37	546.31
425.746	571.62
426.123	540.44
426.499	558.97
426.875	569.14
427.251	562.58
427.627	571.17
428.003	610.72
428.379	556.03
428.756	580.66
429.132	586.99
429.507	592.87
429.883	584.5
430.259	610.27
430.635	579.76
431.011	621.57
431.387	614.33
431.763	614.79
432.138	612.3
432.514	643.03
432.89	654.79
433.265	639.42
433.641	656.82
434.016	639.42
434.392	641
434.767	656.14
435.143	664.05
435.518	669.7
435.894	676.93
436.269	689.59
436.644	696.14
437.02	688.68
437.395	698.4
437.77	686.65
438.145	689.81
438.52	684.84
438.895	697.27
439.271	725.29
439.646	707.67
440.021	710.6
440.395	728.23
440.77	737.72
441.145	728.68
441.52	742.01
441.895	741.79
442.27	756.93
442.645	767.1
443.019	753.99
443.394	757.61
443.769	762.58
444.143	746.53
444.518	770.26
444.892	756.7
445.267	770.49
445.641	805.06
446.016	811.17
446.39	809.58
446.764	795.8
447.139	787.44
447.513	806.42
447.887	804.16
448.262	801.9
448.636	798.74
449.01	831.73
449.384	817.04
449.758	813.65
450.132	840.09
450.506	841.67
450.88	836.25
451.254	857.27
451.628	841.22
452.002	846.87
452.376	858.4
452.75	857.27
453.123	873.54
453.497	891.61
453.871	901.11
454.244	907.66
454.618	922.57
454.992	899.98
455.365	930.26
455.739	924.16
456.112	941.11
456.486	948.11
456.859	986.53
457.232	1011.39
457.606	964.61
457.979	1002.8
458.352	990.82
458.725	1016.13
459.099	1010.48
459.472	1035.34
459.845	1043.48
460.218	1039.63
460.591	1071.27
460.964	1052.74
461.337	1066.98
461.71	1092.97
462.083	1126.19
462.456	1100.2
462.829	1104.72
463.201	1120.08
463.574	1158.73
463.947	1153.53
464.32	1193.98
464.692	1178.84
465.065	1178.16
465.438	1187.88
465.81	1225.84
466.183	1253.19
466.555	1283.7
466.928	1288.89
467.3	1283.47
467.672	1307.2
468.045	1333.41
468.417	1327.54
468.789	1342.9
469.161	1381.32
469.534	1384.94
469.906	1443.46
470.278	1421.54
470.65	1453.18
471.022	1466.97
471.394	1501.09
471.766	1506.51
472.138	1557.36
472.51	1551.26
472.882	1608.21
473.253	1637.58
473.625	1671.03
473.997	1705.6
474.369	1738.6
474.74	1750.35
475.112	1778.6
475.484	1804.59
475.855	1853.85
476.227	1903.79
476.598	1923.68
476.97	1969.55
477.341	2035.99
477.713	2082.54
478.084	2111.24
478.455	2167.51
478.827	2188.3
479.198	2278.7
479.569	2308.53
479.94	2366.38
480.311	2403.89
480.682	2452.7
481.053	2522.31
481.424	2599.82
481.795	2668.29
482.166	2689.31
482.537	2759.36
482.908	2875.97
483.279	2911.67
483.65	2963.42
484.021	3093.59
484.391	3120.71
484.762	3185.57
485.133	3263.98
485.503	3308.5
485.874	3443.64
486.244	3498.33
486.615	3587.14
486.985	3670.75
487.356	3735.61
487.726	3781.03
488.097	3923.85
488.467	3950.07
488.837	4104.64
489.207	4157.52
489.578	4277.06
489.948	4356.83
490.318	4430.73
490.688	4466.66
491.058	4572.65
491.428	4689.03
491.798	4734
492.168	4874.11
492.538	4963.6
492.908	5036.82
493.278	5117.04
493.648	5163.37
494.017	5268
494.387	5379.41
494.757	5470.25
495.126	5546.63
495.496	5569.46
495.866	5698.27
496.235	5748.44
496.605	5801.09
496.974	5856.91
497.344	5948.66
497.713	6035.66
498.082	6133.06
498.452	6186.17
498.821	6272.94
499.19	6299.16
499.559	6472.71
499.928	6506.61
500.298	6588.19
500.667	6601.52
501.036	6652.37
501.405	6792.25
501.774	6814.17
502.143	6942.3
502.512	6953.6
502.88	7062.3
503.249	7045.8
503.618	7168.29
503.987	7193.14
504.356	7253.71
504.724	7280.37
505.093	7303.2
505.462	7379.13
505.83	7479.46
506.199	7523.76
506.567	7618.9
506.936	7645.34
507.304	7720.59
507.672	7804.43
508.041	7816.63
508.409	7853.01
508.777	7992.9
509.145	8087.58
509.514	8074.48
509.882	8148.6
510.25	8130.07
510.618	8253.68
510.986	8233.79
511.354	8322.38
511.722	8402.38
512.09	8546.33
512.458	8492.32
512.826	8590.4
513.193	8594.69
513.561	8663.39
513.929	8664.29
514.297	8815.93
514.664	8824.29
515.032	8840.33
515.4	8981.57
515.767	8976.15
516.135	9021.57
516.502	8953.78
516.869	9145.86
517.237	9151.51
517.604	9169.82
517.972	9243.71
518.339	9310.83
518.706	9411.39
519.073	9382.01
519.44	9495.91
519.808	9464.95
520.175	9511.28
520.542	9568
520.909	9647.54
521.276	9665.62
521.643	9756.69
522.009	9807.31
522.376	9896.8
522.743	9864.49
523.11	10003.47
523.477	10060.41
523.843	10090.47
524.21	10277.58
524.577	10292.27
524.943	10318.49
525.31	10427.86
525.676	10444.36
526.043	10511.93
526.409	10564.35
526.776	10636.67
527.142	10629.21
527.508	10748.76
527.874	10811.13
528.241	10841.18
528.607	10860.84
528.973	10969.99
529.339	11020.39
529.705	11109.43
530.071	11175.41
530.437	11278.91
530.803	11237.33
531.169	11313.49
531.535	11399.36
531.901	11386.71
532.267	11492.69
532.632	11476.65
532.998	11607.49
533.364	11647.26
533.73	11687.49
534.095	11860.82
534.461	11845.9
534.826	11810.42
535.192	11871.89
535.557	12032.11
535.923	11994.6
536.288	11989.63
536.653	12088.16
537.019	12048.16
537.384	12147.59
537.749	12205.22
538.114	12228.94
538.479	12213.8
538.845	12314.59
539.21	12344.2
539.575	12449.05
539.94	12487.02
540.305	12570.63
540.67	12592.55
541.034	12573.79
541.399	12751.19
541.764	12713
542.129	12758.65
542.494	12778.99
542.858	12909.38
543.223	12964.74
543.587	12902.6
543.952	12982.82
544.316	13053.33
544.681	13026.89
545.045	13200.22
545.41	13192.99
545.774	13238.86
546.138	13305.3
546.503	13334
546.867	13316.15
547.231	13480.66
547.595	13477.72
547.959	13560.43
548.324	13510.49
548.688	13587.1
549.052	13665.97
549.416	13695.57
549.779	13724.95
550.143	13855.79
550.507	13865.51
550.871	13911.61
551.235	13932.18
551.599	13964.49
551.962	14008.33
552.326	14127.43
552.689	14180.31
553.053	14043.81
553.417	14155.45
553.78	14305.05
554.143	14302.56
554.507	14330.81
554.87	14397.25
555.234	14526.96
555.597	14484.03
555.96	14565.61
556.323	14636.34
556.686	14622.78
557.05	14713.4
557.413	14748.2
557.776	14802.66
558.139	14862.77
558.502	14913.39
558.865	14963.56
559.228	14989.78
559.59	15081.07
559.953	15054.86
560.316	15192.26
560.679	15236.32
561.041	15296.89
561.404	15306.6
561.767	15430.89
562.129	15456.43
562.492	15566.48
562.854	15526.71
563.217	15531.46
563.579	15609.42
563.941	15803.54
564.304	15784.33
564.666	15829.08
565.028	15886.47
565.39	15934.61
565.753	15985
566.115	16043.98
566.477	16128.05
566.839	16211.89
567.201	16267.03
567.563	16321.72
567.925	16391.32
568.287	16423.41
568.648	16469.28
569.01	16540.24
569.372	16700.92
569.734	16616.17
570.095	16794.02
570.457	16828.82
570.819	16821.59
571.18	16983.4
571.542	17025.88
571.903	17098.42
572.265	17152.66
572.626	17264.07
572.987	17330.28
573.349	17376.38
573.71	17455.25
574.071	17542.25
574.432	17591.74
574.794	17770.27
575.155	17828.34
575.516	17772.75
575.877	18027.89
576.238	18093.42
576.599	18241.44
576.96	18340.42
577.32	18398.5
577.681	18587.42
578.042	18718.72
578.403	18869.9
578.763	18848.43
579.124	19052.95
579.485	19192.15
579.845	19438.7
580.206	19506.94
580.566	19613.38
580.927	19823.55
581.287	20093.37
581.648	20134.05
582.008	20383.53
582.368	20471.44
582.728	20756.86
583.089	20720.25
583.449	21081.14
583.809	21213.79
584.169	21461.7
584.529	21555.03
584.889	21945.75
585.249	21914.34
585.609	22080.44
585.969	22458.51
586.329	22604.49
586.688	22972.62
587.048	22973.52
587.408	23212.84
587.768	23427.07
588.127	23693.95
588.487	23902.08
588.846	24413.93
589.206	24383.65
589.565	24720.59
589.925	25041.04
590.284	25174.59
590.643	25505.66
591.003	25723.5
591.362	26029.03
591.721	26343.15
592.08	26441.9
592.44	26882.57
592.799	27023.58
593.158	27206.18
593.517	27425.83
593.876	27801.42
594.235	27983.33
594.593	28305.58
594.952	28591
595.311	28763.88
595.67	28990.09
596.029	29390.75
596.387	29637.07
596.746	29931.98
597.104	29884.75
597.463	30241.8
597.822	30675.46
598.18	30684.73
598.538	31040.43
598.897	31361.77
599.255	31261.21
599.613	32038.82
599.972	31900.74
600.33	32343.67
600.688	32370.79
601.046	32742.08
601.404	32973.03
601.762	32974.84
602.12	33451.44
602.478	33501.15
602.836	33896.85
603.194	33650.08
603.552	33995.15
603.91	34129.84
604.268	34484.86
604.625	34632.2
604.983	34982.47
605.341	34885.3
605.698	35286.19
606.056	35424.04
606.413	35492.29
606.771	35788.55
607.128	36024.02
607.485	36007.53
607.843	36031.26
608.2	36465.82
608.557	36663.1
608.914	36736.32
609.272	37089.31
609.629	37223.09
609.986	37452.69
610.343	37325.69
610.7	37828.5
611.057	37815.16
611.414	37935.61
611.771	38039.34
612.127	38243.85
612.484	38404.98
612.841	38593.9
613.198	38685.42
613.554	38706.67
613.911	39001.35
614.267	39110.27
614.624	39071.63
614.98	39352.3
615.337	39549.58
615.693	39572.18
616.05	39652.86
616.406	39929.46
616.762	39883.58
617.118	39994.99
617.475	40147.08
617.831	40263.24
618.187	40328.77
618.543	40613.73
618.899	40791.13
619.255	40573.06
619.611	40690.12
619.967	40953.16
620.323	41146.6
620.678	41084.91
621.034	41114.74
621.39	41256.88
621.746	41127.62
622.101	41479.02
622.457	41214.4
622.812	41534.39
623.168	41623.65
623.523	41633.82
623.879	41828.84
624.234	41551.56
624.589	41714.04
624.945	41823.42
625.3	42059.57
625.655	42031.78
626.01	42063.19
626.365	42108.38
626.72	42184.99
627.075	42029.29
627.43	42150.64
627.785	42169.85
628.14	42261.83
628.495	42369.17
628.85	42222.73
629.205	42106.8
629.559	42499.79
629.914	42262.73
630.269	42399.68
630.623	42366.68
630.978	42188.61
631.332	42418.21
631.687	42471.76
632.041	42365.55
632.396	42498.88
632.75	42357.64
633.104	42344.08
633.459	42188.61
633.813	42263.86
634.167	42359
634.521	42332.33
634.875	42556.96
635.229	42297.31
635.583	42284.65
635.937	42146.8
636.291	42337.08
636.645	42418.66
636.999	42229.29
637.352	42393.8
637.706	42181.15
638.06	42383.86
638.413	42223.18
638.767	42107.71
639.121	42219.34
639.474	42022.51
639.828	42114.26
640.181	42127.37
640.534	42138.67
640.888	42079.46
641.241	42006.24
641.594	41992.23
641.947	41998.78
642.301	41977.99
642.654	41992.23
643.007	42097.09
643.36	41945.68
643.713	41842.63
644.066	42039.01
644.419	41859.35
644.771	41608.51
645.124	41356.77
645.477	41007.4
645.83	40740.06
646.182	40794.52
646.535	40657.58
646.888	40754.07
647.24	40550.69
647.593	40803.11
647.945	40715.43
648.298	40531.25
648.65	40531.25
649.002	40366.74
649.355	40646.95
649.707	40651.7
650.059	40663.9
650.411	41249.42
650.763	41174.62
651.115	41604.44
651.467	41411.68
651.819	41445.35
652.171	41504.33
652.523	41281.51
652.875	41305.24
653.227	41158.58
653.578	41377.56
653.93	41231.8
654.282	41207.39
654.633	41076.32
654.985	41153.38
655.337	41227.73
655.688	41246.03
656.039	41373.26
656.391	41058.92
656.742	41065.7
657.094	41085.81
657.445	41227.05
657.796	41091.01
658.147	41063.67
658.498	41186.6
658.849	41052.37
659.2	41123.78
659.551	40896.44
659.902	40992.93
660.253	41083.55
660.604	41107.05
660.955	40947.96
661.306	40928.3
661.656	40938.7
662.007	40909.09
662.358	41029.99
662.708	40904.35
663.059	40870.22
663.409	40624.58
663.76	41006.94
664.11	40939.6
664.461	40967.4
664.811	41042.88
665.161	40893.28
665.511	40834.52
665.862	40780.74
666.212	40912.48
666.562	41045.36
666.912	40725.6
667.262	40688.99
667.612	40785.03
667.962	40936.66
668.312	40811.92
668.662	40928.3
669.011	40835.65
669.361	40907.96
669.711	40685.37
670.06	40770.79
670.41	40841.3
670.76	40666.84
671.109	40838.14
671.459	40693.51
671.808	40678.37
672.157	40708.65
672.507	40569.44
672.856	40503
673.205	40606.28
673.554	40620.74
673.904	40447.41
674.253	40761.08
674.602	40570.12
674.951	39944.83
675.3	39853.75
675.649	40524.47
675.998	40400.18
676.346	40510.01
676.695	40545.04
677.044	40239.51
677.393	40357.47
677.741	40427.07
678.09	40338.94
678.438	40203.58
678.787	40290.35
679.135	40301.2
679.484	40048.33
679.832	40162.67
680.181	39903.24
680.529	40146.63
680.877	39961.55
681.225	39937.59
681.573	40119.51
681.922	39791.61
682.27	39832.06
682.618	39862.34
682.966	39670.48
683.314	39642.23
683.661	39640.2
684.009	39470.04
684.357	39461.67
684.705	39450.38
685.053	39431.84
685.4	39314.56
685.748	39122.93
686.095	39091.51
686.443	39054
686.79	38965.87
687.138	39101.01
687.485	39059.88
687.832	38819.88
688.18	38852.88
688.527	38702.15
688.874	38715.25
689.221	38614.92
689.568	38498.31
689.915	38417.18
690.262	38542.6
690.609	38299.44
690.956	38241.59
691.303	38103.52
691.65	38025.78
691.997	38164.99
692.344	37735.39
692.69	37800.7
693.037	37821.94
693.383	37448.62
693.73	37734.49
694.077	37401.62
694.423	37401.16
694.769	37339.02
695.116	37173.6
695.462	37124.33
695.808	37074.62
696.155	37162.07
696.501	36866.94
696.847	37018.8
697.193	36617.23
697.539	36781.07
697.885	36690.45
698.231	36463.56
698.577	36468.76
698.923	36431.7
699.269	36175.43
699.614	36084.14
699.96	36006.4
700.306	36048.2
700.651	35810.92
700.997	35697.71
701.342	35664.71
701.688	35625.62
702.033	35431.72
702.379	35388.79
702.724	35322.12
703.069	35391.72
703.415	35050.72
703.76	35172.97
704.105	34994.9
704.45	35029.7
704.795	34712.42
705.14	34732.08
705.485	34630.61
705.83	34517.85
706.175	34507
706.52	34446.66
706.865	34306.56
707.209	34253.9
707.554	34163.51
707.899	34189.95
708.243	33911.99
708.588	33941.59
708.932	33841.94
709.277	33636.52
709.621	33838.77
709.966	33478.1
710.31	33582.96
710.654	33349.29
710.998	33429.52
711.342	33520.81
711.687	33265.9
712.031	33141.84
712.375	33107.72
712.719	33107.94
713.063	33134.83
713.407	33171.22
713.75	32904.33
714.094	32734.39
714.438	32790.21
714.782	32916.99
715.125	32706.6
715.469	32778.23
715.812	32361.3
716.156	32369.21
716.499	32389.09
716.843	32433.61
717.186	32247.85
717.53	32361.97
717.873	32305.7
718.216	32378.24
718.559	32055.32
718.902	31893.51
719.246	32097.8
719.589	31940.06
719.932	31848.09
720.275	31810.8
720.617	31758.83
720.96	31723.12
721.303	31729
721.646	31583.24
721.989	31457.14
722.331	31566.51
722.674	31452.39
723.016	31561.32
723.359	31314.09
723.701	31453.3
724.044	31216.69
724.386	31203.13
724.729	31215.56
725.071	31117.26
725.413	31160.2
725.755	31028
726.097	30924.5
726.439	30745.75
726.782	30857.61
727.124	30931.05
727.465	30703.94
727.807	30816.7
728.149	30673.43
728.491	30686.31
728.833	30691.06
729.175	30694.45
729.516	30439.09
729.858	30467.11
730.199	30506.43
730.541	30434.57
730.882	30271.86
731.224	30367.45
731.565	30211.3
731.906	30094.69
732.248	30202.48
732.589	30107.57
732.93	29962.49
733.271	29938.99
733.612	29946.44
733.953	30007.69
734.294	29890.63
734.635	29911.19
734.976	29999.32
735.317	29738.54
735.658	29746.9
735.999	29692.67
736.339	29604.08
736.68	29649.95
737.021	29542.61
737.361	29528.83
737.702	29518.21
738.042	29449.96
738.383	29348.27
738.723	29478.66
739.063	29443.63
739.404	29463.97
739.744	29265.11
740.084	29191.66
740.424	29269.4
740.764	29151.66
741.104	29259.46
741.444	29046.35
741.784	29066.69
742.124	29187.82
742.464	29016.75
742.804	28943.08
743.143	28892.01
743.483	28822.86
743.823	28781.28
744.162	28694.5
744.502	28698.34
744.841	28603.65
745.181	28733.37
745.52	28618.8
745.86	28613.6
746.199	28594.62
746.538	28481.4
746.877	28553.71
747.216	28316.2
747.556	28333.38
747.895	28365.02
748.234	28192.14
748.573	28180.84
748.911	28261.97
749.25	28084.57
749.589	28045.93
749.928	28079.83
750.267	28078.47
750.605	27965.03
750.944	27835.99
751.283	27799.38
751.621	27909.66
751.96	27698.82
752.298	27707.18
752.636	27791.25
752.975	27591.93
753.313	27441.88
753.651	27603.23
753.989	27373.18
754.327	27386.96
754.666	27204.6
755.004	27327.76
755.342	27318.72
755.679	27342.67
756.017	27107.2
756.355	27041.89
756.693	27052.28
757.031	26986.97
757.368	26840.31
757.706	27030.81
758.044	26674.44
758.381	26865.85
758.719	26694.55
759.056	26660.2
759.394	26652.07
759.731	26491.85
760.068	26442.58
760.405	26327.1
760.743	26215.24
761.08	26230.61
761.417	26077.85
761.754	26018.86
762.091	26017.73
762.428	25876.04
762.765	25727.12
763.102	25946.55
763.438	25736.61
763.775	25528.48
764.112	25606.67
764.449	25589.72
764.785	25511.53
765.122	25237.87
765.458	25218.88
765.795	25143.86
766.131	25187.93
766.467	24962.17
766.804	24897.31
767.14	24886.69
767.476	24814.38
767.812	24652.8
768.148	24652.8
768.485	24477.44
768.821	24360.15
769.157	24443.76
769.492	24316.54
769.828	24267.05
770.164	24159.48
770.5	24095.3
770.836	24041.06
771.171	23836.77
771.507	23815.76
771.842	23693.73
772.178	23610.79
772.513	23601.53
772.849	23495.09
773.184	23350.46
773.519	23456.67
773.855	23330.35
774.19	23180.97
774.525	23141.65
774.86	23140.97
775.195	23095.78
775.53	22928.78
775.865	22789.12
776.2	22701.89
776.535	22549.12
776.87	22541.22
777.205	22404.72
777.539	22355.91
777.874	22352.52
778.209	22115.46
778.543	22114.56
778.878	22044.73
779.212	21995.92
779.547	21904.85
779.881	21941.46
780.215	21646.1
780.55	21707.79
780.884	21535.82
781.218	21599.55
781.552	21520.23
781.886	21368.36
782.22	21362.49
782.554	21247.46
782.888	21045.21
783.222	20977.19
783.556	20928.38
783.889	20827.81
784.223	20814.03
784.557	20693.35
784.89	20746.69
785.224	20569.06
785.557	20498.78
785.891	20489.74
786.224	20366.36
786.558	20388.28
786.891	20084.33
787.224	20141.96
787.557	20069.87
787.891	20044.56
788.224	20035.29
788.557	19888.63
788.89	19873.71
789.223	19903.32
789.556	19709.88
789.888	19621.74
790.221	19580.84
790.554	19399.83
790.887	19374.29
791.219	19335.42
791.552	19242.32
791.884	19150.12
792.217	19168.87
792.549	19023.57
792.882	18906.73
793.214	18830.35
793.546	18818.6
793.879	18819.51
794.211	18639.4
794.543	18696.57
794.875	18672.62
795.207	18705.84
795.539	18583.81
795.871	18542.22
796.203	18419.29
796.535	18295
796.867	18368.44
797.198	18231.95
797.53	18183.14
797.862	18074.44
798.193	18105.85
798.525	17977.72
798.856	18010.03
799.188	17836.25
799.519	17794.45
799.85	17703.83
800.182	17676.48
800.513	17731.85
800.844	17569.37
801.175	17538.86
801.506	17623.15
801.837	17527.56
802.168	17351.3
802.499	17407.79
802.83	17360.56
803.161	17285.53
803.491	17261.81
803.822	17230.17
804.153	17055.03
804.483	16929.39
804.814	17013.45
805.145	16928.48
805.475	16891.65
805.805	16802.84
806.136	16682.16
806.466	16746.34
806.796	16694.82
807.126	16608.04
807.457	16523.97
807.787	16629.28
808.117	16448.49
808.447	16340.02
808.777	16383.41
809.107	16391.09
809.436	16219.12
809.766	16351.32
810.096	16222.51
810.426	16111.33
810.755	16089.86
811.085	16087.37
811.414	16036.53
811.744	15925.57
812.073	15897.55
812.403	15856.19
812.732	15810.77
813.061	15789.75
813.39	15698.91
813.719	15695.97
814.049	15679.93
814.378	15671.34
814.707	15621.17
815.036	15564.68
815.365	15494.17
815.693	15373.95
816.022	15411.46
816.351	15268.64
816.68	15305.02
817.008	15289.88
817.337	15188.19
817.665	15211.01
817.994	15195.65
818.322	15252.82
818.651	15100.73
818.979	15088.53
819.307	15098.7
819.636	15011.02
819.964	14923.79
820.292	14992.26
820.62	15013.28
820.948	14927.86
821.276	15008.76
821.604	14890.34
821.932	14887.41
822.259	14975.76
822.587	14917.91
822.915	14811.25
823.243	14970.34
823.57	14790.46
823.898	14852.6
824.225	14817.12
824.553	14852.38
824.88	14778.26
825.207	14909.55
825.535	14814.86
825.862	14907.97
826.189	14740.29
826.516	14869.55
826.843	14894.64
827.17	14803.34
827.497	14852.15
827.824	14849.67
828.151	14877.24
828.478	14768.09
828.805	14831.59
829.131	14829.1
829.458	14827.52
829.785	14661.65
830.111	14805.15
830.438	14861.42
830.764	14823
831.09	14796.56
831.417	14686.51
831.743	14756.56
832.069	14773.51
832.395	14725.6
832.722	14752.04
833.048	14696.45
833.374	14703.91
833.7	14644.47
834.026	14619.39
834.351	14735.09
834.677	14682.66
835.003	14693.51
835.329	14623.01
835.654	14590.69
835.98	14595.21
836.306	14546.17
836.631	14535.32
836.956	14522.44
837.282	14534.19
837.607	14446.51
837.932	14430.69
838.258	14365.61
838.583	14329.91
838.908	14288.78
839.233	14405.38
839.558	14287.19
839.883	14237.25
840.208	14294.43
840.533	14168.55
840.858	14208.78
841.182	14139.4
841.507	14100.76
841.832	14096.92
842.156	14092.62
842.481	14080.42
842.805	14067.54
843.13	14021.44
843.454	13938.05
843.778	13898.5
844.103	13891.5
844.427	13830.71
844.751	13860.54
845.075	13841.78
845.399	13742.35
845.723	13698.51
846.047	13628.46
846.371	13593.2
846.695	13473.21
847.019	13500.55
847.343	13413.55
847.666	13441.12
847.99	13351.85
848.313	13284.51
848.637	13242.93
848.96	13150.95
849.284	13221.91
849.607	13106.44
849.931	13020.56
850.254	13018.53
850.577	12937.4
850.9	12840.23
851.223	12786.22
851.546	12682.27
851.869	12757.97
852.192	12729.5
852.515	12591.42
852.838	12543.06
853.161	12428.03
853.483	12420.8
853.806	12355.95
854.129	12347.58
854.451	12423.29
854.774	12324.08
855.096	12234.14
855.419	12210.87
855.741	12168.83
856.063	12089.74
856.385	12073.92
856.708	12056.52
857.03	11990.31
857.352	12005
857.674	11901.04
857.996	11860.82
858.318	11890.65
858.64	11837.99
858.961	11777.66
859.283	11756.19
859.605	11732.91
859.926	11835.73
860.248	11666.47
860.57	11678
860.891	11736.08
861.212	11604.55
861.534	11610.2
861.855	11508.51
862.176	11597.32
862.498	11560.26
862.819	11417.67
863.14	11511.22
863.461	11369.08
863.782	11397.78
864.103	11468.51
864.424	11350.32
864.745	11315.75
865.065	11249.99
865.386	11261.51
865.707	11287.5
866.027	11265.58
866.348	11278.01
866.668	11242.76
866.989	11213.83
867.309	11142.42
867.63	11108.97
867.95	11118.92
868.27	11001.18
868.59	11085.25
868.91	10993.27
869.23	11004.8
869.55	11030.33
869.87	11058.13
870.19	11050.22
870.51	10995.3
870.83	10971.35
871.15	10958.47
871.469	10897.91
871.789	10923.67
872.109	10882.09
872.428	10835.99
872.748	10902.43
873.067	10841.86
873.386	10848.64
873.706	10847.51
874.025	10739.27
874.344	10775.2
874.663	10717.35
874.982	10766.16
875.301	10672.83
875.62	10666.95
875.939	10642.32
876.258	10616.56
876.577	10641.64
876.896	10683.22
877.214	10587.41
877.533	10548.54
877.852	10548.31
878.17	10576.33
878.489	10642.55
878.807	10569.78
879.125	10483.23
879.444	10452.49
879.762	10464.24
880.08	10500.85
880.398	10353.06
880.716	10392.16
881.034	10361.65
881.352	10452.72
881.67	10316.9
881.988	10265.61
882.306	10278.26
882.624	10251.14
882.941	10245.95
883.259	10174.31
883.577	10175.89
883.894	10229.45
884.212	10167.53
884.529	10132.5
884.846	10018.38
885.164	10099.28
885.481	10042.56
885.798	10065.39
886.115	9983.81
886.432	9977.7
886.75	9908.55
887.067	9919.63
887.383	9935.9
887.7	9893.19
888.017	9857.25
888.334	9859.74
888.651	9864.26
888.967	9810.48
889.284	9769.57
889.6	9796.92
889.917	9697.94
890.233	9700.87
890.55	9693.42
890.866	9686.19
891.182	9565.74
891.498	9608.22
891.815	9541.33
892.131	9445.51
892.447	9453.65
892.763	9475.8
893.079	9433.99
893.395	9348.57
893.71	9397.15
894.026	9379.08
894.342	9290.26
894.657	9323.03
894.973	9265.63
895.289	9189.48
895.604	9211.85
895.92	9158.74
896.235	9136.6
896.55	9127.33
896.865	9055.92
897.181	9008.01
897.496	9064.96
897.811	8945.19
898.126	9011.18
898.441	8916.04
898.756	8973.89
899.071	8828.58
899.386	8884.63
899.7	8803.27
900.015	8768.24
900.33	8764.18
900.644	8723.73
900.959	8715.36
901.273	8660.45
901.588	8687.57
901.902	8584.52
902.216	8532.09
902.531	8495.48
902.845	8522.37
903.159	8452.09
903.473	8486.44
903.787	8382.72
904.101	8370.97
904.415	8337.75
904.729	8318.76
905.042	8301.59
905.356	8221.82
905.67	8230.86
905.984	8180.46
906.297	8141.82
906.611	8082.16
906.924	8103.85
907.237	8105.66
907.551	8062.05
907.864	7976.17
908.177	8085.32
908.491	7952.67
908.804	7870.19
909.117	7925.55
909.43	7836.07
909.743	7812.34
910.056	7815.73
910.368	7800.81
910.681	7704.54
910.994	7645.56
911.307	7708.16
911.619	7575.51
911.932	7673.13
912.244	7570.99
912.557	7559.24
912.869	7475.4
913.181	7460.48
913.494	7494.83
913.806	7397.88
914.118	7391.78
914.43	7328.73
914.742	7349.07
915.054	7267.94
915.366	7260.26
915.678	7309.75
915.99	7232.92
916.302	7168.51
916.613	7147.27
916.925	7133.71
917.236	7086.25
917.548	7003.32
917.859	6998.35
918.171	7023.43
918.482	6968.52
918.794	6911.34
919.105	6931
919.416	6870.67
919.727	6823.89
920.038	6835.64
920.349	6780.5
920.66	6758.81
920.971	6717
921.282	6715.87
921.593	6625.25
921.903	6591.8
922.214	6625.02
922.525	6633.84
922.835	6581.18
923.146	6524.46
923.456	6507.51
923.767	6453.73
924.077	6469.32
924.387	6465.48
924.697	6425.25
925.008	6353.62
925.318	6360.85
925.628	6360.62
925.938	6335.77
926.248	6186.17
926.558	6204.7
926.867	6226.16
927.177	6103
927.487	6182.32
927.796	6145.94
928.106	6108.2
928.416	6043.8
928.725	6034.98
929.034	6020.07
929.344	5986.62
929.653	6018.49
929.962	5962.44
930.271	5873.4
930.581	5907.08
930.89	5885.83
931.199	5849.22
931.508	5845.61
931.817	5762.9
932.125	5733.3
932.434	5841.99
932.743	5729.68
933.051	5656.91
933.36	5678.83
933.669	5606.75
933.977	5682.45
934.286	5618.04
934.594	5639.29
934.902	5527.65
935.21	5515.9
935.519	5545.73
935.827	5475.45
936.135	5469.8
936.443	5407.43
936.751	5369.46
937.059	5393.42
937.367	5349.12
937.674	5375.34
937.982	5322.01
938.29	5308.22
938.597	5270.26
938.905	5200.88
939.213	5236.36
939.52	5189.13
939.827	5217.38
940.135	5122.46
940.442	5139.19
940.749	5126.31
941.056	5152.52
941.363	5076.82
941.67	5064.84
941.977	5004.05
942.284	4989.13
942.591	5041.79
942.898	4977.84
943.205	4968.34
943.511	4969.47
943.818	4930.38
944.125	4916.37
944.431	4851.74
944.738	4817.84
945.044	4812.19
945.35	4804.96
945.657	4792.98
945.963	4724.73
946.269	4715.92
946.575	4723.6
946.881	4693.1
947.187	4672.98
947.493	4645.87
947.799	4636.83
948.105	4584.63
948.41	4584.63
948.716	4594.34
949.022	4603.16
949.327	4535.81
949.633	4511.86
949.938	4534.46
950.244	4449.49
950.549	4437.28
950.854	4409.71
951.16	4408.58
951.465	4407
951.77	4361.58
952.075	4339.43
952.38	4326.55
952.685	4319.55
952.99	4329.26
953.294	4329.49
953.599	4212.21
953.904	4209.49
954.209	4183.73
954.513	4222.37
954.818	4230.06
955.122	4171.75
955.426	4187.8
955.731	4142.6
956.035	4126.78
956.339	4105.77
956.643	4082.94
956.948	4082.49
957.252	4065.32
957.556	4046.33
957.86	4027.13
958.163	3980.35
958.467	3982.38
958.771	3968.14
959.075	3950.07
959.378	3911.2
959.682	3962.49
959.985	3919.56
960.289	3856.73
960.592	3859.67
960.896	3863.97
961.199	3867.58
961.502	3846.34
961.805	3801.14
962.108	3778.54
962.411	3772.67
962.714	3747.36
963.017	3746.91
963.32	3744.42
963.623	3703.29
963.926	3728.83
964.228	3720.47
964.531	3689.51
964.833	3625.1
965.136	3616.74
965.438	3609.96
965.741	3608.83
966.043	3602.73
966.345	3569.28
966.648	3559.79
966.95	3567.48
967.252	3527.25
967.554	3496.74
967.856	3498.55
968.158	3442.28
968.46	3443.86
968.761	3428.05
969.063	3425.79
969.365	3429.85
969.666	3434.37
969.968	3368.61
970.269	3361.38
970.571	3385.11
970.872	3325
971.174	3298.11
971.475	3321.16
971.776	3270.54
972.077	3251.78
972.378	3292.91
972.679	3246.81
972.98	3259.01
973.281	3213.59
973.582	3199.35
973.883	3172.23
974.183	3192.8
974.484	3169.75
974.785	3165.91
975.085	3181.27
975.386	3108.96
975.686	3132.23
975.986	3091.33
976.287	3105.34
976.587	3099.24
976.887	3029.19
977.187	3030.77
977.487	3078
977.787	2983.76
978.087	3001.16
978.387	3018.79
978.687	2973.59
978.987	2941.96
979.286	2918.91
979.586	2945.8
979.885	2897.21
980.185	2895.18
980.484	2900.6
980.784	2892.47
981.083	2868.29
981.382	2884.78
981.682	2865.57
981.981	2845.24
982.28	2820.83
982.579	2790.77
982.878	2802.07
983.177	2795.75
983.475	2768.4
983.774	2783.54
984.073	2758.23
984.372	2734.5
984.67	2746.71
984.969	2760.94
985.267	2717.78
985.566	2663.32
985.864	2651.57
986.162	2670.33
986.461	2629.42
986.759	2649.99
987.057	2606.37
987.355	2610.67
987.653	2625.58
987.951	2559.82
988.249	2593.49
988.547	2590.55
988.844	2582.19
989.142	2563.21
989.44	2524.79
989.737	2544.68
990.035	2515.75
990.332	2487.96
990.63	2496.54
990.927	2464.45
991.224	2495.41
991.521	2437.34
991.819	2459.03
992.116	2457.9
992.413	2455.42
992.71	2406.6
993.006	2394.4
993.303	2391.91
993.6	2376.1
993.897	2367.96
994.193	2367.73
994.49	2351.46
994.787	2327.06
995.083	2311.01
995.379	2324.57
995.676	2266.04
995.972	2303.78
996.268	2241.18
996.565	2281.86
996.861	2246.83
997.157	2218.36
997.453	2216.1
997.749	2198.47
998.044	2178.36
998.34	2164.8
998.636	2162.99
998.932	2171.13
999.227	2148.08
999.523	2161.86
999.818	2161.41
1000.114	2131.13
1000.409	2138.81
1000.704	2096.33
1001	2082.32
1001.295	2063.79
1001.59	2057.01
1001.885	2060.17
1002.18	2036.44
1002.475	2029.21
1002.77	2047.97
1003.065	2019.72
1003.359	2003.9
1003.654	2007.74
1003.949	1990.57
1004.243	1975.88
1004.538	1965.71
1004.832	1964.81
1005.127	1987.41
1005.421	1895.43
1005.715	1911.25
1006.009	1925.49
1006.304	1904.24
1006.598	1899.72
1006.892	1873.28
1007.186	1873.74
1007.48	1852.49
1007.773	1854.3
1008.067	1877.35
1008.361	1824.92
1008.655	1813.85
1008.948	1800.29
1009.242	1789.67
1009.535	1782.44
1009.829	1800.97
1010.122	1771.14
1010.415	1746.96
1010.708	1745.83
1011.001	1748.99
1011.295	1720.97
1011.588	1733.4
1011.881	1716.68
1012.173	1720.75
1012.466	1705.6
1012.759	1669.67
1013.052	1705.83
1013.344	1678.71
1013.637	1633.97
1013.93	1646.62
1014.222	1655.44
1014.514	1631.03
1014.807	1617.47
1015.099	1619.05
1015.391	1590.58
1015.683	1603.01
1015.976	1571.15
1016.268	1570.69
1016.56	1585.38
1016.851	1524.59
1017.143	1540.64
1017.435	1554.65
1017.727	1525.5
1018.018	1529.11
1018.31	1505.61
1018.602	1510.58
1018.893	1477.59
1019.185	1471.03
1019.476	1462.45
1019.767	1430.13
1020.058	1454.31
1020.35	1425.84
1020.641	1416.57
1020.932	1415.22
1021.223	1414.77
1021.514	1436.91
1021.804	1392.62
1022.095	1385.16
1022.386	1398.72
1022.677	1374.77
1022.967	1366.63
1023.258	1356.24
1023.548	1335.22
1023.839	1346.74
1024.129	1326.86
1024.419	1321.21
1024.709	1299.06
1025	1304.26
1025.29	1296.58
1025.58	1277.82
1025.87	1271.94
1026.16	1254.54
1026.449	1262.68
1026.739	1258.61
1027.029	1265.84
1027.319	1238.5
1027.608	1205.96
1027.898	1207.99
1028.187	1208.44
1028.477	1191.49
1028.766	1193.75
1029.055	1163.92
1029.344	1172.29
1029.634	1175.9
1029.923	1176.58
1030.212	1165.51
1030.501	1158.27
1030.79	1127.99
1031.078	1139.97
1031.367	1146.52
1031.656	1137.26
1031.945	1114.43
1032.233	1118.28
1032.522	1099.52
1032.81	1114.21
1033.099	1074.44
1033.387	1053.87
1033.675	1060.88
1033.963	1060.88
1034.251	1073.31
1034.54	1060.42
1034.828	1030.37
1035.116	1033.31
1035.403	1038.28
1035.691	1032.4
1035.979	1034.21
1036.267	1024.94
1036.554	1012.29
1036.842	1000.99
1037.129	989.47
1037.417	982.69
1037.704	962.12
1037.992	979.52
1038.279	961.44
1038.566	928
1038.853	928
1039.14	928
