Data from hue_340_FLMS001491_55.txt Node
Date: Mon Feb 06 15:43:18 GMT 2017
User: dcchb
Spectrometer: FLMS00149
Trigger mode: 0
Integration Time (sec): 2.000000E-2
Scans to average: 10
Electric dark correction enabled: true
Nonlinearity correction enabled: false
Boxcar width: 0
XAxis mode: Wavelengths
Number of Pixels in Spectrum: 2048
>>>>>Begin Spectral Data<<<<<
341.393	-16.48
341.776	-16.48
342.16	-16.48
342.543	-68.46
342.927	-73.43
343.31	-77.05
343.693	-55.8
344.077	-62.81
344.46	-66.2
344.843	-65.07
345.226	-57.84
345.61	-22.58
345.993	-17.16
346.376	-4.73
346.759	15.38
347.142	29.84
347.525	40.24
347.908	62.61
348.291	65.1
348.674	94.47
349.057	121.59
349.44	105.55
349.823	138.32
350.206	153.68
350.588	197.07
350.971	218.31
351.354	222.61
351.737	237.3
352.119	235.04
352.502	251.08
352.884	266.67
353.267	279.55
353.65	268.48
354.032	286.33
354.414	302.38
354.797	329.72
355.179	330.4
355.562	318.65
355.944	329.27
356.326	344.19
356.709	332.21
357.091	336.28
357.473	322.94
357.855	315.26
358.238	337.63
358.62	346.67
359.002	341.02
359.384	334.47
359.766	331.98
360.148	321.81
360.53	343.96
360.912	339.44
361.294	319.55
361.676	326.11
362.057	346.9
362.439	322.94
362.821	322.49
363.203	306.22
363.584	316.62
363.966	307.8
364.348	325.88
364.729	333.34
365.111	317.29
365.493	321.59
365.874	313.68
366.256	308.03
366.637	303.28
367.019	310.29
367.4	311.42
367.781	323.62
368.163	310.74
368.544	308.93
368.925	320.01
369.306	310.74
369.688	298.76
370.069	303.51
370.45	301.7
370.831	291.76
371.212	330.4
371.593	298.31
371.974	313.23
372.355	310.29
372.736	325.66
373.117	326.33
373.498	318.2
373.879	322.94
374.26	305.32
374.641	322.04
375.021	307.12
375.402	293.57
375.783	317.52
376.163	313.23
376.544	327.69
376.925	322.49
377.305	308.71
377.686	312.32
378.066	324.3
378.447	322.94
378.827	333.11
379.208	320.68
379.588	317.07
379.968	309.84
380.349	330.63
380.729	317.97
381.109	331.08
381.489	326.79
381.87	334.24
382.25	330.4
382.63	320.23
383.01	329.72
383.39	350.74
383.77	337.18
384.15	314.58
384.53	335.15
384.91	343.73
385.29	329.5
385.67	335.37
386.049	351.64
386.429	324.98
386.809	343.73
387.189	336.28
387.568	345.77
387.948	339.89
388.328	342.38
388.707	339.89
389.087	376.95
389.466	343.51
389.846	356.39
390.225	359.33
390.605	346.9
390.984	371.3
391.363	358.87
391.743	377.86
392.122	370.85
392.501	365.88
392.881	376.28
393.26	364.52
393.639	362.94
394.018	365.43
394.397	372.66
394.776	374.24
395.155	377.18
395.534	352.1
395.913	374.69
396.292	375.37
396.671	365.43
397.05	348.48
397.429	351.64
397.808	369.04
398.186	355.03
398.565	364.3
398.944	381.25
399.323	367.46
399.701	384.18
400.08	386.22
400.458	381.92
400.837	383.96
401.215	387.12
401.594	373.79
401.972	391.64
402.351	407.69
402.729	409.04
403.107	404.52
403.486	403.17
403.864	378.54
404.242	383.28
404.62	385.99
404.999	416.95
405.377	410.85
405.755	391.19
406.133	405.88
406.511	406.56
406.889	404.07
407.267	424.86
407.645	409.72
408.023	411.75
408.401	397.29
408.779	422.6
409.156	441.36
409.534	416.73
409.912	445.2
410.29	472.77
410.667	434.13
411.045	447.91
411.422	444.07
411.8	457.4
412.178	462.6
412.555	429.83
412.933	455.6
413.31	489.04
413.687	468.25
414.065	477.06
414.442	493.33
414.819	483.84
415.197	509.61
415.574	514.35
415.951	492.2
416.328	521.58
416.705	515.25
417.082	491.07
417.46	519.55
417.837	524.75
418.214	544.63
418.591	527.68
418.967	538.98
419.344	528.36
419.721	517.29
420.098	524.52
420.475	534.46
420.852	567.91
421.228	553.67
421.605	576.5
421.982	550.96
422.358	578.3
422.735	585.54
423.111	568.81
423.488	583.5
423.864	588.25
424.241	580.56
424.617	584.63
424.994	588.93
425.37	609.94
425.746	608.59
426.123	644.97
426.499	614.46
426.875	634.12
427.251	638.42
427.627	615.59
428.003	637.74
428.379	640
428.756	648.36
429.132	657.17
429.507	684.97
429.883	647.23
430.259	680.9
430.635	685.42
431.011	672.09
431.387	693.56
431.763	685.42
432.138	701.92
432.514	729.94
432.89	711.63
433.265	719.32
433.641	727.68
434.016	746.66
434.392	738.98
434.767	767
435.143	761.8
435.518	764.51
435.894	747.79
436.269	787.79
436.644	783.95
437.02	772.65
437.395	794.12
437.77	800.67
438.145	801.57
438.52	792.54
438.895	818.07
439.271	816.72
439.646	861.91
440.021	843.38
440.395	855.58
440.77	846.32
441.145	827.11
441.52	839.54
441.895	843.38
442.27	836.83
442.645	860.33
443.019	879.54
443.394	881.12
443.769	868.92
444.143	871.18
444.518	896.49
444.892	886.77
445.267	912.53
445.641	914.79
446.016	931.52
446.39	898.07
446.764	928.13
447.139	907.33
447.513	941.23
447.887	898.75
448.262	909.37
448.636	922.02
449.01	956.15
449.384	918.41
449.758	929.48
450.132	947.11
450.506	921.35
450.88	955.92
451.254	942.81
451.628	957.73
452.002	974.9
452.376	980.1
452.75	978.52
453.123	989.59
453.497	970.61
453.871	985.98
454.244	988.91
454.618	1004.28
454.992	1024.85
455.365	1050.16
455.739	1039.76
456.112	1054.9
456.486	1049.7
456.859	1064.62
457.232	1096.48
457.606	1082.92
457.979	1098.97
458.352	1101.91
458.725	1090.38
459.099	1100.32
459.472	1139.65
459.845	1113.88
460.218	1161.11
460.591	1160.44
460.964	1168.34
461.337	1159.08
461.71	1181.9
462.083	1221.45
462.456	1198.85
462.829	1193.43
463.201	1189.59
463.574	1217.38
463.947	1251.28
464.32	1259.87
464.692	1256.93
465.065	1252.86
465.438	1304.39
465.81	1286.53
466.183	1336.93
466.555	1317.95
466.928	1327.21
467.3	1333.76
467.672	1349.81
468.045	1397.94
468.417	1376.02
468.789	1402.46
469.161	1413.54
469.534	1424.38
469.906	1439.3
470.278	1464.61
470.65	1478.39
471.022	1474.1
471.394	1499.86
471.766	1514.1
472.138	1553.87
472.51	1564.49
472.882	1577.15
473.253	1574.44
473.625	1615.56
473.997	1644.04
474.369	1619.86
474.74	1653.3
475.112	1695.34
475.484	1689.46
475.855	1738.05
476.227	1782.79
476.598	1774.2
476.97	1791.83
477.341	1824.82
477.713	1837.71
478.084	1895.33
478.455	1912.73
478.827	1956.8
479.198	1979.17
479.569	2013.97
479.94	2029.34
480.311	2029.11
480.682	2113.4
481.053	2090.58
481.424	2138.94
481.795	2173.06
482.166	2192.95
482.537	2247.41
482.908	2272.27
483.279	2298.03
483.65	2327.64
484.021	2379.39
484.391	2394.3
484.762	2422.32
485.133	2425.26
485.503	2470.01
485.874	2486.95
486.244	2526.5
486.615	2576.9
486.985	2594.97
487.356	2619.83
487.726	2630.91
488.097	2698.47
488.467	2694.41
488.837	2769.21
489.207	2794.29
489.578	2838.36
489.948	2842.88
490.318	2904.57
490.688	2894.4
491.058	2957.9
491.428	2965.59
491.798	3014.85
492.168	3046.26
492.538	3088.75
492.908	3122.87
493.278	3136.88
493.648	3144.56
494.017	3169.65
494.387	3210.33
494.757	3244.45
495.126	3291.23
495.496	3267.05
495.866	3304.11
496.235	3323.77
496.605	3363.99
496.974	3375.74
497.344	3446.25
497.713	3408.06
498.082	3412.35
498.452	3463.43
498.821	3489.19
499.19	3505.23
499.559	3501.84
499.928	3562.18
500.298	3582.52
500.667	3608.28
501.036	3620.71
501.405	3654.38
501.774	3615.06
502.143	3660.71
502.512	3683.76
502.88	3707.49
503.249	3700.26
503.618	3754.72
503.987	3711.1
504.356	3745
504.724	3734.83
505.093	3783.19
505.462	3839.46
505.83	3862.74
506.199	3871.1
506.567	3902.28
506.936	3879.01
507.304	3929.18
507.672	3937.09
508.041	3973.92
508.409	3951.55
508.777	3996.97
509.145	4011.43
509.514	4006.24
509.882	3995.84
510.25	4036.74
510.618	4025.22
510.986	4051.66
511.354	4096.4
511.722	4134.14
512.09	4132.33
512.458	4091.66
512.826	4136.85
513.193	4148.38
513.561	4139.57
513.929	4143.18
514.297	4216.17
514.664	4250.75
515.032	4232.22
515.4	4262.27
515.767	4292.33
516.135	4273.8
516.502	4234.25
516.869	4302.95
517.237	4325.78
517.604	4279.68
517.972	4358.09
518.339	4396.73
518.706	4376.4
519.073	4377.53
519.44	4390.41
519.808	4477.18
520.175	4394.25
520.542	4457.07
520.909	4476.28
521.276	4456.62
521.643	4494.81
522.009	4491.2
522.376	4503.85
522.743	4549.5
523.11	4601.02
523.477	4625.88
523.843	4613.68
524.21	4666.11
524.577	4691.87
524.943	4686.22
525.31	4676.5
525.676	4775.26
526.043	4721.7
526.409	4790.4
526.776	4808.93
527.142	4847.34
527.508	4868.13
527.874	4876.72
528.241	4934.57
528.607	4955.14
528.973	4977.51
529.339	4962.6
529.705	4960.11
530.071	5048.02
530.437	5046.89
530.803	5056.6
531.169	5090.5
531.535	5157.84
531.901	5132.08
532.267	5131.63
532.632	5191.29
532.998	5183.83
533.364	5221.12
533.73	5201.01
534.095	5282.36
534.461	5302.47
534.826	5304.51
535.192	5318.29
535.557	5442.13
535.923	5448.46
536.288	5399.19
536.653	5435.13
537.019	5401.91
537.384	5443.94
537.749	5430.83
538.114	5498.17
538.479	5541.34
538.845	5564.84
539.21	5566.42
539.575	5616.82
539.94	5591.73
540.305	5621.11
540.67	5640.09
541.034	5667.44
541.399	5652.75
541.764	5739.75
542.129	5744.95
542.494	5685.74
542.858	5744.5
543.223	5766.87
543.587	5772.97
543.952	5802.12
544.316	5886.41
544.681	5855.45
545.045	5909.46
545.41	5949.69
545.774	5965.73
546.138	5940.65
546.503	5977.94
546.867	5953.98
547.231	6073.07
547.595	6074.43
547.959	6098.16
548.324	6026.07
548.688	6087.76
549.052	6088.22
549.416	6133.19
549.779	6147.42
550.143	6171.83
550.507	6231.26
550.871	6254.54
551.235	6232.39
551.599	6307.64
551.962	6323.24
552.326	6289.79
552.689	6381.09
553.053	6354.88
553.417	6330.7
553.78	6402.56
554.143	6469.9
554.507	6439.84
554.87	6466.74
555.234	6507.87
555.597	6440.75
555.96	6502.44
556.323	6546.73
556.686	6552.38
557.05	6598.71
557.413	6559.39
557.776	6590.12
558.139	6662.89
558.502	6649.33
558.865	6649.33
559.228	6720.29
559.59	6676
559.953	6728.88
560.316	6806.16
560.679	6793.73
561.041	6883.45
561.404	6835.31
561.767	6878.7
562.129	6856.11
562.492	6924.8
562.854	6918.25
563.217	6905.14
563.579	7008.19
563.941	7035.31
564.304	7004.12
564.666	7075.08
565.028	7097.23
565.39	7078.7
565.753	7122.76
566.115	7077.34
566.477	7165.93
566.839	7190.79
567.201	7224.23
567.563	7197.11
567.925	7256.32
568.287	7254.51
568.648	7270.11
569.01	7367.5
569.372	7366.83
569.734	7413.6
570.095	7414.28
570.457	7506.26
570.819	7492.92
571.18	7554.39
571.542	7580.15
571.903	7636.42
572.265	7668.97
572.626	7659.02
572.987	7765.69
573.349	7772.47
573.71	7850.88
574.071	7845.23
574.432	7859.69
574.794	8002.29
575.155	7969.97
575.516	7945.12
575.877	8080.71
576.238	8168.39
576.599	8281.15
576.96	8392.56
577.32	8269.4
577.681	8421.71
578.042	8497.19
578.403	8559.56
578.763	8536.96
579.124	8703.51
579.485	8808.6
579.845	8935.15
580.206	8973.56
580.566	9086.1
580.927	9235.48
581.287	9384.17
581.648	9430.05
582.008	9592.53
582.368	9697.84
582.728	9807.67
583.089	9893.99
583.449	10063.03
583.809	10209.69
584.169	10388.89
584.529	10535.56
584.889	10756.79
585.249	10819.84
585.609	11049.22
585.969	11157.46
586.329	11424.35
586.688	11582.99
587.048	11866.14
587.408	11971.22
587.768	12200.82
588.127	12438.33
588.487	12643.75
588.846	12974.36
589.206	13052.55
589.565	13282.83
589.925	13634.91
590.284	13812.98
590.643	14097.95
591.003	14394.66
591.362	14600.31
591.721	14839.17
592.08	15051.37
592.44	15416.33
592.799	15598.02
593.158	15860.61
593.517	16083.43
593.876	16386.25
594.235	16628.96
594.593	16909.85
594.952	17132.67
595.311	17421.48
595.67	17721.58
596.029	18081.35
596.387	18322.7
596.746	18689.47
597.104	18844.26
597.463	19200.41
597.822	19535.55
598.18	19752.94
598.538	19931.47
598.897	20375.52
599.255	20378.69
599.613	20951.33
599.972	21123.98
600.33	21419.34
600.688	21685.32
601.046	21975.26
601.404	22402.14
601.762	22502.93
602.12	22881.67
602.478	23076.7
602.836	23293.19
603.194	23492.96
603.552	23706.06
603.91	23969.55
604.268	24321.63
604.625	24516.66
604.983	24834.16
605.341	24853.6
605.698	25226.02
606.056	25520.47
606.413	25656.06
606.771	26056.96
607.128	26258.98
607.485	26237.74
607.843	26563.84
608.2	26910.27
608.557	27335.79
608.914	27295.34
609.272	27579.63
609.629	27857.81
609.986	28107.52
610.343	28127.41
610.7	28548.64
611.057	28594.74
611.414	28870.44
611.771	29025.92
612.127	29246.48
612.484	29408.73
612.841	29709.97
613.198	29586.13
613.554	29946.12
613.911	30266.56
614.267	30328.48
614.624	30523.28
614.98	30662.71
615.337	30855.25
615.693	30850.05
616.05	31066.77
616.406	31386.53
616.762	31403.71
617.118	31515.57
617.475	31713.98
617.831	31817.93
618.187	31961.21
618.543	32097.48
618.899	32301.99
619.255	32438.03
619.611	32492.27
619.967	32718.7
620.323	32819.04
620.678	32741.07
621.034	32942.65
621.39	33077.56
621.746	33108.07
622.101	33557.78
622.457	33369.08
622.812	33482.3
623.168	33678.9
623.523	33804.77
623.879	34047.48
624.234	33760.26
624.589	34089.06
624.945	34148.27
625.3	34292.67
625.655	34159.34
626.01	34181.26
626.365	34317.08
626.72	34389.17
627.075	34433.01
627.43	34465.32
627.785	34546
628.14	34559.11
628.495	34776.73
628.85	34666
629.205	34755.71
629.559	34935.59
629.914	34771.08
630.269	34901.7
630.623	34883.62
630.978	34893.56
631.332	35157.51
631.687	35182.59
632.041	35093.33
632.396	35231.18
632.75	35173.33
633.104	35144.4
633.459	35026.21
633.813	34945.99
634.167	35034.57
634.521	35118.86
634.875	35229.37
635.229	35135.81
635.583	34991.64
635.937	35003.84
636.291	35141.24
636.645	35230.5
636.999	35037.74
637.352	35259.43
637.706	35065.53
638.06	35177.85
638.413	35122.25
638.767	35148.02
639.121	35267.79
639.474	35126.1
639.828	35052.2
640.181	35117.73
640.534	35080
640.888	34968.13
641.241	34869.83
641.594	34973.11
641.947	35064.4
642.301	35042.71
642.654	35002.94
643.007	35080.22
643.36	34978.76
643.713	34942.37
644.066	35073.89
644.419	34887.01
644.771	34625.54
645.124	34449.5
645.477	34377.42
645.83	34072.34
646.182	34052.68
646.535	33991.66
646.888	34071.89
647.24	33976.75
647.593	34105.78
647.945	33946.69
648.298	33838.22
648.65	33778.56
649.002	33839.8
649.355	33796.87
649.707	33830.99
650.059	34048.16
650.411	34259
650.763	34415.38
651.115	34891.53
651.467	34624.64
651.819	34610.63
652.171	34687.46
652.523	34609.27
652.875	34632.55
653.227	34402.05
653.578	34768.37
653.93	34513
654.282	34444.08
654.633	34486.34
654.985	34554.13
655.337	34520.46
655.688	34485.89
656.039	34576.51
656.391	34246.35
656.742	34389.84
657.094	34356.85
657.445	34530.18
657.796	34284.31
658.147	34357.3
658.498	34386.45
658.849	34430.75
659.2	34315.04
659.551	34224.65
659.902	34420.13
660.253	34257.19
660.604	34302.16
660.955	34211.77
661.306	34184.88
661.656	34312.56
662.007	34224.65
662.358	34244.09
662.708	34221.94
663.059	34162.28
663.409	34031.66
663.76	34321.15
664.11	34215.84
664.461	34217.19
664.811	34255.38
665.161	34226.91
665.511	34132.22
665.862	34252.22
666.212	34326.8
666.562	34308.72
666.912	34221.71
667.262	34237.76
667.612	34303.97
667.962	34359.79
668.312	34068.95
668.662	34289.73
669.011	34231.88
669.361	34231.88
669.711	34168.38
670.06	34019.91
670.41	34105.56
670.76	34122.05
671.109	34147.82
671.459	34050.42
671.808	34126.35
672.157	34068.04
672.507	33926.58
672.856	33889.52
673.205	34011.32
673.554	34146.01
673.904	33917.31
674.253	34094.26
674.602	33951.44
674.951	33571.11
675.3	33427.61
675.649	33884.55
675.998	33842.97
676.346	33833.93
676.695	34015.84
677.044	33686.59
677.393	33701.05
677.741	33830.54
678.09	33788.28
678.438	33662.63
678.787	33747.83
679.135	33848.62
679.484	33433.94
679.832	33661.73
680.181	33453.15
680.529	33545.35
680.877	33457.44
681.225	33456.99
681.573	33743.99
681.922	33401.4
682.27	33358.46
682.618	33521.39
682.966	33126.37
683.314	33314.39
683.661	33129.31
684.009	33050.9
684.357	33143.78
684.705	32995.3
685.053	32980.84
685.4	32899.94
685.748	32711.47
686.095	32805.03
686.443	32518.03
686.79	32575.65
687.138	32633.28
687.485	32647.97
687.832	32454.3
688.18	32634.86
688.527	32423.12
688.874	32425.15
689.221	32303.12
689.568	32292.95
689.915	32192.16
690.262	32230.35
690.609	32123.24
690.956	32078.94
691.303	32005.27
691.65	31793.98
691.997	31796.01
692.344	31673.53
692.69	31558.51
693.037	31571.39
693.383	31295.46
693.73	31468.57
694.077	31225.41
694.423	31265.86
694.769	31199.19
695.116	31179.99
695.462	31002.36
695.808	30987.45
696.155	31027.67
696.501	30773.22
696.847	30875.13
697.193	30536.61
697.539	30827.45
697.885	30354.47
698.231	30387.24
698.577	30400.34
698.923	30331.87
699.269	30202.38
699.614	30124.87
699.96	30030.41
700.306	30070.18
700.651	29889.4
700.997	29872.9
701.342	29681.95
701.688	29724.2
702.033	29621.16
702.379	29636.3
702.724	29556.07
703.069	29576.64
703.415	29198.57
703.76	29134.62
704.105	29199.7
704.45	29201.28
704.795	28954.06
705.14	28986.37
705.485	28964.68
705.83	28777.34
706.175	28938.46
706.52	28745.02
706.865	28597.23
707.209	28490.79
707.554	28448.98
707.899	28572.14
708.243	28425.03
708.588	28376.9
708.932	28214.41
709.277	28126.05
709.621	28253.73
709.966	27995.21
710.31	28103.68
710.654	27858.49
710.998	28026.17
711.342	27928.09
711.687	27826.63
712.031	27777.81
712.375	27631.15
712.719	27751.15
713.063	27605.84
713.407	27788.21
713.75	27538.73
714.094	27531.04
714.438	27312.06
714.782	27404.72
715.125	27150.94
715.469	27252.4
715.812	27071.62
716.156	27019.64
716.499	26944.62
716.843	26991.17
717.186	26812.19
717.53	26988.23
717.873	26926.09
718.216	26949.14
718.559	26790.04
718.902	26589.37
719.246	26775.13
719.589	26628.69
719.932	26574.68
720.275	26472.99
720.617	26414.91
720.96	26405.87
721.303	26354.58
721.646	26400.9
721.989	26315.03
722.331	26245.43
722.674	26234.35
723.016	26248.82
723.359	26225.31
723.701	26167.69
724.044	26019.22
724.386	25899.45
724.729	26039.1
725.071	25846.34
725.413	25889.5
725.755	25865.1
726.097	25715.72
726.439	25611.09
726.782	25621.94
727.124	25744.87
727.465	25568.83
727.807	25658.77
728.149	25594.37
728.491	25399.8
728.833	25486.35
729.175	25403.64
729.516	25248.62
729.858	25258.79
730.199	25259.69
730.541	25313.02
730.882	25190.99
731.224	25272.34
731.565	25084.55
731.906	24989.19
732.248	25075.74
732.589	24965.46
732.93	24936.31
733.271	24940.38
733.612	24993.26
733.953	24939.47
734.294	24818.8
734.635	24852.02
734.976	24826.71
735.317	24665.35
735.658	24628.07
735.999	24664.68
736.339	24650.44
736.68	24760.04
737.021	24571.35
737.361	24604.79
737.702	24589.88
738.042	24627.84
738.383	24497
738.723	24457.68
739.063	24383.33
739.404	24367.96
739.744	24388.53
740.084	24219.72
740.424	24265.59
740.764	24186.27
741.104	24391.01
741.444	24125.93
741.784	24141.3
742.124	24133.39
742.464	24111.7
742.804	24082.77
743.143	23905.6
743.483	23977.91
743.823	23771.14
744.162	23918.48
744.502	23878.48
744.841	23925.26
745.181	23887.07
745.52	23713.74
745.86	23836.45
746.199	23692.72
746.538	23657.25
746.877	23700.86
747.216	23659.96
747.556	23636.91
747.895	23716.68
748.234	23433.3
748.573	23482.79
748.911	23392.85
749.25	23486.63
749.589	23315.11
749.928	23413.41
750.267	23377.25
750.605	23400.08
750.944	23229.23
751.283	23105.17
751.621	23293.19
751.96	22944.04
752.298	23099.52
752.636	23080.31
752.975	23000.31
753.313	22951.95
753.651	22991.95
753.989	22698.63
754.327	22804.84
754.666	22682.13
755.004	22738.85
755.342	22702.24
755.679	22715.12
756.017	22468.58
756.355	22543.83
756.693	22339.77
757.031	22465.41
757.368	22342.25
757.706	22374.57
758.044	22236.72
758.381	22255.47
758.719	22227.68
759.056	22212.54
759.394	22124.18
759.731	21929.61
760.068	22039.66
760.405	21929.16
760.743	21813
761.08	21839.21
761.417	21775.94
761.754	21664.76
762.091	21657.07
762.428	21608.49
762.765	21405.1
763.102	21341.83
763.438	21353.12
763.775	21227.7
764.112	21308.15
764.449	21222.51
764.785	21184.99
765.122	21018.22
765.458	20814.83
765.795	20947.71
766.131	20929.18
766.467	20843.08
766.804	20752.24
767.14	20652.35
767.476	20704.33
767.812	20616.65
768.148	20538.23
768.485	20358.57
768.821	20398.57
769.157	20292.81
769.492	20273.38
769.828	20158.35
770.164	20112.71
770.5	20040.84
770.836	19958.81
771.171	19866.84
771.507	19911.13
771.842	19765.37
772.178	19681.98
772.513	19628.65
772.849	19597.69
773.184	19511.37
773.519	19429.11
773.855	19321.77
774.19	19366.96
774.525	19145.95
774.86	19201.32
775.195	19205.38
775.53	19097.14
775.865	18975.79
776.2	18761.78
776.535	18719.52
776.87	18682.23
777.205	18666.87
777.539	18652.41
777.874	18559.3
778.209	18541.22
778.543	18367.89
778.878	18324.05
779.212	18312.3
779.547	18136.03
779.881	18246.31
780.215	18171.74
780.55	18053.1
780.884	17958.19
781.218	17898.98
781.552	17916.15
781.886	17811.3
782.22	17704.63
782.554	17717.29
782.888	17527.24
783.222	17388.48
783.556	17414.92
783.889	17312.33
784.223	17131.54
784.557	17211.76
784.89	17269.84
785.224	17190.97
785.557	16994.82
785.891	17031.2
786.224	17001.83
786.558	16928.16
786.891	16787.37
787.224	16649.07
787.557	16633.7
787.891	16576.53
788.224	16616.75
788.557	16623.08
788.89	16543.31
789.223	16470.99
789.556	16305.57
789.888	16318.68
790.221	16180.15
790.554	16073.94
790.887	16061.06
791.219	16063.09
791.552	15952.82
791.884	15960.5
792.217	15876.66
792.549	15849.77
792.882	15675.08
793.214	15756.89
793.546	15811.35
793.879	15527.52
794.211	15539.72
794.543	15649.55
794.875	15536.55
795.207	15555.54
795.539	15450.23
795.871	15533.39
796.203	15340.85
796.535	15221.53
796.867	15212.5
797.198	15118.26
797.53	15064.25
797.862	14986.51
798.193	15045.95
798.525	14938.83
798.856	14950.13
799.188	14847.31
799.519	14795.33
799.85	14653.64
800.182	14801.21
800.513	14643.7
800.844	14612.51
801.175	14590.14
801.506	14614.09
801.837	14443.02
802.168	14430.82
802.499	14421.78
802.83	14344.95
803.161	14215.23
803.491	14262.69
803.822	14303.82
804.153	14242.35
804.483	14126.87
804.814	14083.71
805.145	14022.7
805.475	14021.34
805.805	13953.77
806.136	13962.36
806.466	13938.4
806.796	13890.04
807.126	13821.12
807.457	13720.33
807.787	13734.57
808.117	13677.39
808.447	13642.59
808.777	13698.86
809.107	13672.87
809.436	13521.24
809.766	13509.94
810.096	13454.58
810.426	13415.71
810.755	13459.55
811.085	13424.29
811.414	13389.94
811.744	13315.14
812.073	13229.95
812.403	13224.98
812.732	13166
813.061	13149.72
813.39	13116.73
813.719	13055.26
814.049	13093.46
814.378	13100.46
814.707	12990.18
815.036	12907.7
815.365	12910.41
815.693	12803.75
816.022	12760.36
816.351	12779.79
816.68	12749.28
817.008	12711.54
817.337	12668.16
817.665	12618.67
817.994	12675.16
818.322	12635.61
818.651	12634.26
818.979	12516.97
819.307	12549.74
819.636	12489.63
819.964	12380.25
820.292	12447.37
820.62	12442.85
820.948	12394.72
821.276	12449.18
821.604	12379.35
821.932	12411.89
822.259	12389.29
822.587	12397.2
822.915	12312.23
823.243	12406.92
823.57	12335.06
823.898	12327.15
824.225	12261.39
824.553	12290.76
824.88	12355.85
825.207	12404.89
825.535	12309.75
825.862	12379.58
826.189	12291.22
826.516	12338.67
826.843	12376.19
827.17	12343.87
827.497	12396.75
827.824	12330.76
828.151	12373.93
828.478	12374.38
828.805	12373.7
829.131	12302.06
829.458	12324.44
829.785	12196.08
830.111	12254.83
830.438	12305.23
830.764	12294.61
831.09	12317.43
831.417	12233.36
831.743	12334.15
832.069	12261.16
832.395	12183.87
832.722	12241.95
833.048	12280.6
833.374	12262.52
833.7	12160.6
834.026	12147.27
834.351	12269.3
834.677	12162.18
835.003	12184.33
835.329	12147.27
835.654	12118.34
835.98	12073.82
836.306	12081.5
836.631	12123.31
836.956	12083.31
837.282	12069.53
837.607	12041.05
837.932	11994.28
838.258	11984.11
838.583	11960.83
838.908	11896.42
839.233	11944.33
839.558	11919.47
839.883	11825.24
840.208	11756.54
840.533	11819.36
840.858	11801.29
841.182	11826.6
841.507	11795.86
841.832	11705.24
842.156	11695.53
842.481	11723.1
842.805	11601.97
843.13	11633.38
843.454	11606.71
843.778	11540.5
844.103	11510.67
844.427	11493.27
844.751	11548.64
845.075	11430.67
845.399	11455.98
845.723	11389.77
846.047	11389.77
846.371	11273.39
846.695	11269.55
847.019	11163.79
847.343	11136.22
847.666	11092.83
847.99	11055.54
848.313	11039.27
848.637	10958.37
848.96	10965.38
849.284	10896
849.607	10826.4
849.931	10850.12
850.254	10712.73
850.577	10707.3
850.9	10666.4
851.223	10649.45
851.546	10541.66
851.869	10494.2
852.192	10653.75
852.515	10463.69
852.838	10501.66
853.161	10420.31
853.483	10323.81
853.806	10343.24
854.129	10277.71
854.451	10311.83
854.774	10238.84
855.096	10211.05
855.419	10089.01
855.741	10138.28
856.063	10069.13
856.385	10070.26
856.708	10052.18
857.03	9979.41
857.352	10045.63
857.674	10016.25
857.996	9919.53
858.318	9850.6
858.64	9893.77
858.961	9746.65
859.283	9803.37
859.605	9676.37
859.926	9794.33
860.248	9733.77
860.57	9728.8
860.891	9670.95
861.212	9614.9
861.534	9646.54
861.855	9614.22
862.176	9620.78
862.498	9597.5
862.819	9563.83
863.14	9571.29
863.461	9484.28
863.782	9484.28
864.103	9484.74
864.424	9442.7
864.745	9538.07
865.065	9432.31
865.386	9434.12
865.707	9430.27
866.027	9392.99
866.348	9406.55
866.668	9382.82
866.989	9240.68
867.309	9223.27
867.63	9366.1
867.95	9269.37
868.27	9226.89
868.59	9284.74
868.91	9235.7
869.23	9192.09
869.55	9146.21
869.87	9178.3
870.19	9147.57
870.51	9201.35
870.83	9131.53
871.15	9143.05
871.469	9184.41
871.789	9108.02
872.109	9095.37
872.428	9047.91
872.748	9128.14
873.067	9015.37
873.386	9098.98
873.706	9054.69
874.025	8981.92
874.344	8979.89
874.663	9023.96
874.982	8900.8
875.301	8943.06
875.62	8923.62
875.939	8810.4
876.258	8881.14
876.577	8804.98
876.896	8883.4
877.214	8800.91
877.533	8847.24
877.852	8830.29
878.17	8792.1
878.489	8817.64
878.807	8821.93
879.125	8757.52
879.444	8785.32
879.762	8750.74
880.08	8662.84
880.398	8682.27
880.716	8686.57
881.034	8681.82
881.352	8677.07
881.67	8618.54
881.988	8663.06
882.306	8564.08
882.624	8571.54
882.941	8549.85
883.259	8553.91
883.577	8452
883.894	8488.6
884.212	8439.79
884.529	8447.02
884.846	8403.18
885.164	8496.29
885.481	8429.4
885.798	8363.41
886.115	8357.53
886.432	8282.96
886.75	8306.91
887.067	8306.91
887.383	8239.35
887.7	8307.14
888.017	8222.62
888.334	8292.45
888.651	8207.48
888.967	8190.76
889.284	8087.94
889.6	8112.34
889.917	8041.16
890.233	8033.48
890.55	8050.2
890.866	8024.89
891.182	8002.29
891.498	7979.92
891.815	7937.43
892.131	7953.25
892.447	7956.42
892.763	7863.76
893.079	7864.21
893.395	7787.83
893.71	7850.66
894.026	7808.62
894.342	7812.92
894.657	7685.91
894.973	7687.27
895.289	7684.11
895.604	7708.06
895.92	7673.26
896.235	7594.16
896.55	7617.21
896.865	7582.64
897.181	7549.42
897.496	7544.9
897.811	7520.72
898.126	7482.3
898.441	7433.72
898.756	7422.87
899.071	7347.84
899.386	7389.65
899.7	7345.81
900.015	7267.62
900.33	7263.55
900.644	7295.64
900.959	7259.94
901.273	7224.46
901.588	7188.3
901.902	7191.01
902.216	7123.89
902.531	7078.25
902.845	7058.81
903.159	7090
903.473	7045.7
903.787	7009.77
904.101	6987.4
904.415	7010.9
904.729	6968.42
905.042	6895.43
905.356	6860.4
905.67	6864.24
905.984	6850.23
906.297	6803.23
906.611	6747.18
906.924	6753.96
907.237	6715.32
907.551	6720.29
907.864	6708.99
908.177	6675.77
908.491	6635.09
908.804	6648.2
909.117	6584.93
909.43	6504.48
909.743	6481.43
910.056	6497.47
910.368	6478.49
910.681	6451.6
910.994	6382.67
911.307	6411.6
911.619	6325.05
911.932	6367.08
912.244	6330.7
912.557	6291.6
912.869	6268.78
913.181	6267.65
913.494	6194.65
913.806	6212.73
914.118	6166.86
914.43	6132.96
914.742	6153.3
915.054	6115.33
915.366	6067.88
915.678	6032.17
915.99	6052.28
916.302	6001.66
916.613	5943.81
916.925	5974.77
917.236	5902.01
917.548	5854.78
917.859	5872.4
918.171	5888.67
918.482	5841.67
918.794	5807.55
919.105	5835.79
919.416	5752.18
919.727	5697.27
920.038	5725.29
920.349	5686.42
920.66	5654.55
920.971	5651.39
921.282	5601.9
921.593	5593.77
921.903	5594.9
922.214	5538.85
922.525	5498.63
922.835	5515.12
923.146	5478.51
923.456	5474.9
923.767	5480.77
924.077	5425.63
924.387	5405.52
924.697	5351.96
925.008	5380.44
925.318	5325.98
925.628	5287.78
925.938	5249.59
926.248	5271.74
926.558	5213.44
926.867	5182.48
927.177	5182.93
927.487	5192.42
927.796	5131.86
928.106	5145.19
928.416	5072.65
928.725	5076.04
929.034	5080.78
929.344	5027.9
929.653	5029.71
929.962	4995.36
930.271	4974.57
930.581	4950.84
930.89	4950.39
931.199	4925.76
931.508	4916.5
931.817	4877.63
932.125	4863.62
932.434	4858.64
932.743	4809.15
933.051	4769.15
933.36	4753.56
933.669	4768.48
933.977	4721.92
934.286	4666.78
934.594	4666.56
934.902	4642.83
935.21	4634.92
935.519	4618.42
935.827	4599.44
936.135	4595.15
936.443	4542.95
936.751	4537.3
937.059	4540.46
937.367	4496.39
937.674	4477.41
937.982	4436.06
938.29	4404.87
938.597	4445.55
938.905	4401.48
939.213	4385.89
939.52	4408.71
939.827	4398.99
940.135	4315.15
940.442	4323.97
940.749	4308.83
941.056	4322.16
941.363	4258.21
941.67	4251.65
941.977	4225.67
942.284	4214.37
942.591	4192.9
942.898	4201.03
943.205	4146.8
943.511	4146.57
943.818	4130.08
944.125	4099.79
944.431	4090.98
944.738	4066.35
945.044	4066.57
945.35	4043.07
945.657	3990.64
945.963	4018.44
946.269	3971.21
946.575	3947.25
946.881	3957.65
947.187	3967.14
947.493	3927.82
947.799	3875.39
948.105	3874.04
948.41	3883.08
948.716	3902.06
949.022	3831.33
949.327	3861.61
949.633	3761.05
949.938	3748.84
950.244	3771.89
950.549	3769.86
950.854	3715.62
951.16	3738.22
951.465	3726.47
951.77	3726.24
952.075	3660.03
952.38	3678.34
952.685	3650.31
952.99	3622.52
953.294	3654.16
953.599	3604.67
953.904	3603.08
954.209	3569.64
954.513	3581.84
954.818	3562.86
955.122	3490.54
955.426	3472.47
955.731	3480.83
956.035	3501.62
956.339	3470.21
956.643	3413.94
956.948	3474.05
957.252	3452.35
957.556	3428.85
957.86	3403.09
958.163	3407.83
958.467	3355.63
958.771	3359.02
959.075	3336.65
959.378	3333.26
959.682	3305.69
959.985	3291
960.289	3259.14
960.592	3264.56
960.896	3279.48
961.199	3221.4
961.502	3211.23
961.805	3203.55
962.108	3164.68
962.411	3185.69
962.714	3170.33
963.017	3147.95
963.32	3114.96
963.623	3121.74
963.926	3091.68
964.228	3130.78
964.531	3089.65
964.833	3060.05
965.136	3055.3
965.438	3080.39
965.741	3014.4
966.043	3005.81
966.345	2970.78
966.648	2994.74
966.95	3032.7
967.252	2956.77
967.554	2966.49
967.856	2949.32
968.158	2914.74
968.46	2930.11
968.761	2926.72
969.063	2905.02
969.365	2854.85
969.666	2912.48
969.968	2860.73
970.269	2825.02
970.571	2833.61
970.872	2836.55
971.174	2802.2
971.475	2778.7
971.776	2802.65
972.077	2776.21
972.378	2749.32
972.679	2773.95
972.98	2749.55
973.281	2743.67
973.582	2728.76
973.883	2721.75
974.183	2740.51
974.484	2713.84
974.785	2673.84
975.085	2686.27
975.386	2648.98
975.686	2627.06
975.986	2628.87
976.287	2625.26
976.587	2569.44
976.887	2595.2
977.187	2601.75
977.487	2557.01
977.787	2542.09
978.087	2570.12
978.387	2495.77
978.687	2537.57
978.987	2489.89
979.286	2494.19
979.586	2514.3
979.885	2458.48
980.185	2490.34
980.484	2465.71
980.784	2453.28
981.083	2481.3
981.382	2423.45
981.682	2438.82
981.981	2420.52
982.28	2433.17
982.579	2389.56
982.878	2408.31
983.177	2357.24
983.475	2368.99
983.774	2364.25
984.073	2345.49
984.372	2336
984.67	2295.1
984.969	2309.78
985.267	2314.53
985.566	2297.58
985.864	2295.77
986.162	2291.71
986.461	2266.85
986.759	2255.55
987.057	2259.16
987.355	2243.8
987.653	2247.19
987.951	2246.96
988.249	2185.27
988.547	2188.66
988.844	2174.65
989.142	2190.69
989.44	2141.43
989.737	2179.84
990.035	2114.08
990.332	2138.04
990.63	2118.83
990.927	2103.46
991.224	2112.5
991.521	2086.29
991.819	2075.67
992.116	2041.32
992.413	2044.71
992.71	2056.23
993.006	2033.41
993.303	2017.59
993.6	2065.95
993.897	2031.15
994.193	2010.13
994.49	2000.41
994.787	1986.63
995.083	1966.29
995.379	1968.78
995.676	1972.39
995.972	1969.45
996.268	1973.07
996.565	1922.45
996.861	1896.69
997.157	1920.87
997.453	1884.03
997.749	1920.64
998.044	1885.61
998.34	1870.02
998.636	1870.93
998.932	1846.75
999.227	1871.6
999.523	1849.23
999.818	1831.38
1000.114	1801.77
1000.409	1805.16
1000.704	1817.59
1001	1829.12
1001.295	1763.36
1001.59	1767.2
1001.885	1767.65
1002.18	1748.89
1002.475	1750.48
1002.77	1744.83
1003.065	1743.92
1003.359	1704.38
1003.654	1691.04
1003.949	1710.25
1004.243	1675.9
1004.538	1660.54
1004.832	1701.66
1005.127	1696.69
1005.421	1674.09
1005.715	1676.13
1006.009	1664.6
1006.304	1652.85
1006.598	1646.75
1006.892	1614.66
1007.186	1602.91
1007.48	1582.57
1007.773	1615.11
1008.067	1581.22
1008.361	1569.69
1008.655	1579.18
1008.948	1575.11
1009.242	1548.22
1009.535	1556.58
1009.829	1533.99
1010.122	1507.32
1010.415	1520.2
1010.708	1519.52
1011.001	1526.53
1011.295	1480.65
1011.588	1472.97
1011.881	1454.89
1012.173	1490.37
1012.466	1481.11
1012.759	1460.31
1013.052	1435
1013.344	1432.52
1013.637	1436.13
1013.93	1435.46
1014.222	1402.46
1014.514	1391.16
1014.807	1392.29
1015.099	1378.73
1015.391	1383.71
1015.683	1385.51
1015.976	1352.75
1016.268	1389.81
1016.56	1337.15
1016.851	1368.34
1017.143	1338.28
1017.435	1318.17
1017.727	1306.87
1018.018	1340.09
1018.31	1304.61
1018.602	1296.48
1018.893	1303.03
1019.185	1282.69
1019.476	1266.65
1019.767	1231.39
1020.058	1241.34
1020.35	1254.22
1020.641	1226.87
1020.932	1249.02
1021.223	1211.06
1021.514	1222.81
1021.804	1193.88
1022.095	1214.45
1022.386	1206.08
1022.677	1176.71
1022.967	1170.6
1023.258	1165.41
1023.548	1153.88
1023.839	1161.57
1024.129	1160.66
1024.419	1148.01
1024.709	1124.96
1025	1118.63
1025.29	1127.22
1025.58	1140.1
1025.87	1148.46
1026.16	1103.49
1026.449	1102.13
1026.739	1077.73
1027.029	1062.13
1027.319	1091.06
1027.608	1085.41
1027.898	1072.98
1028.187	1033.66
1028.477	1062.36
1028.766	1035.47
1029.055	1051.29
1029.344	1035.47
1029.634	1044.05
1029.923	1024.39
1030.212	1020.1
1030.501	1007.22
1030.79	993.89
1031.078	980.33
1031.367	972.64
1031.656	948.69
1031.945	971.06
1032.233	938.75
1032.522	948.01
1032.81	950.05
1033.099	961.57
1033.387	941.23
1033.675	941.68
1033.963	923.38
1034.251	934.68
1034.54	926.09
1034.828	923.83
1035.116	897.17
1035.403	889.93
1035.691	911.4
1035.979	898.52
1036.267	886.54
1036.554	880.89
1036.842	887
1037.129	861.23
1037.417	867.34
1037.704	866.66
1037.992	827.11
1038.279	852.65
1038.566	862.36
1038.853	862.36
1039.14	862.36
