Data from hue_24_FLMS001491_00010.txt Node
Date: Tue Feb 07 17:11:41 GMT 2017
User: dcchb
Spectrometer: FLMS00149
Trigger mode: 0
Integration Time (sec): 2.000000E-2
Scans to average: 10
Electric dark correction enabled: true
Nonlinearity correction enabled: false
Boxcar width: 0
XAxis mode: Wavelengths
Number of Pixels in Spectrum: 2048
>>>>>Begin Spectral Data<<<<<
341.393	-18.98
341.776	-18.98
342.16	-18.98
342.543	-67.57
342.927	-70.73
343.31	-80.68
343.693	-70.05
344.077	-67.12
344.46	-58.08
344.843	-62.82
345.226	-32.09
345.61	-33.67
345.993	-20.56
346.376	-29.38
346.759	20.34
347.142	49.04
347.525	50.62
347.908	68.02
348.291	85.87
348.674	64.18
349.057	116.38
349.44	131.52
349.823	164.52
350.206	179.66
350.588	215.14
350.971	210.84
351.354	237.51
351.737	218.75
352.119	251.97
352.502	269.82
352.884	275.7
353.267	280.67
353.65	276.83
354.032	302.82
354.414	303.04
354.797	319.99
355.179	321.12
355.562	323.61
355.944	335.36
356.326	317.51
356.709	343.27
357.091	329.48
357.473	360.22
357.855	340.33
358.238	349.37
358.62	358.41
359.002	345.3
359.384	348.69
359.766	335.81
360.148	344.4
360.53	351.18
360.912	318.86
361.294	331.74
361.676	340.56
362.057	341.46
362.439	323.16
362.821	319.31
363.203	321.12
363.584	318.41
363.966	328.8
364.348	328.13
364.729	340.78
365.111	333.32
365.493	325.87
365.874	332.42
366.256	334.23
366.637	325.42
367.019	323.61
367.4	321.35
367.781	320.67
368.163	306.88
368.544	330.84
368.925	320.67
369.306	317.51
369.688	305.08
370.069	331.97
370.45	327.22
370.831	318.18
371.212	321.8
371.593	306.43
371.974	298.98
372.355	315.02
372.736	317.96
373.117	335.13
373.498	328.13
373.879	305.53
374.26	315.25
374.641	327.22
375.021	311.4
375.402	333.32
375.783	321.57
376.163	310.27
376.544	338.52
376.925	325.42
377.305	327.67
377.686	309.82
378.066	327.67
378.447	332.19
378.827	345.53
379.208	347.56
379.588	341.01
379.968	344.4
380.349	332.87
380.729	319.99
381.109	326.55
381.489	343.49
381.87	336.26
382.25	340.1
382.63	333.1
383.01	335.81
383.39	326.32
383.77	327.22
384.15	337.39
384.53	359.99
384.91	366.77
385.29	350.95
385.67	355.02
386.049	345.98
386.429	349.37
386.809	359.76
387.189	353.44
387.568	370.16
387.948	360.44
388.328	366.77
388.707	388.92
389.087	353.66
389.466	380.33
389.846	358.18
390.225	374.68
390.605	364.74
390.984	355.7
391.363	380.1
391.743	368.58
392.122	369.71
392.501	376.26
392.881	387.11
393.26	377.62
393.639	373.32
394.018	386.43
394.397	371.97
394.776	390.27
395.155	373.1
395.534	376.26
395.913	389.14
396.292	382.59
396.671	401.12
397.05	381.68
397.429	411.74
397.808	385.98
398.186	399.09
398.565	400.22
398.944	394.79
399.323	402.48
399.701	405.87
400.08	400.22
400.458	393.21
400.837	417.39
401.215	402.7
401.594	399.76
401.972	401.12
402.351	417.39
402.729	394.34
403.107	419.65
403.486	432.31
403.864	415.13
404.242	425.98
404.62	425.75
404.999	422.14
405.377	417.39
405.755	447.22
406.133	430.05
406.511	438.63
406.889	411.97
407.267	431.85
407.645	439.54
408.023	439.08
408.401	424.4
408.779	444.96
409.156	457.62
409.534	469.82
409.912	459.87
410.29	455.58
410.667	472.98
411.045	446.54
411.422	487.67
411.8	475.02
412.178	486.77
412.555	484.51
412.933	482.02
413.31	474.79
413.687	474.56
414.065	482.47
414.442	510.95
414.819	486.77
415.197	516.6
415.574	490.38
415.951	468.24
416.328	508.01
416.705	508.69
417.082	511.17
417.46	511.62
417.837	515.92
418.214	509.37
418.591	535.35
418.967	520.21
419.344	520.44
419.721	529.7
420.098	507.33
420.475	537.39
420.852	548.23
421.228	533.55
421.605	552.98
421.982	551.85
422.358	554.56
422.735	556.37
423.111	565.86
423.488	578.74
423.864	567.44
424.241	560.89
424.617	582.58
424.994	577.39
425.37	565.86
425.746	600.21
426.123	602.02
426.499	582.13
426.875	600.44
427.251	594.56
427.627	611.74
428.003	624.39
428.379	604.05
428.756	612.19
429.132	629.59
429.507	625.97
429.883	628.46
430.259	604.28
430.635	653.77
431.011	628.46
431.387	630.04
431.763	666.42
432.138	646.08
432.514	654.9
432.89	671.85
433.265	654.9
433.641	677.04
434.016	694.67
434.392	718.85
434.767	708.68
435.143	703.48
435.518	705.29
435.894	687.21
436.269	685.63
436.644	724.05
437.02	746.65
437.395	746.87
437.77	766.31
438.145	730.83
438.52	745.74
438.895	746.87
439.271	766.53
439.646	790.49
440.021	791.84
440.395	773.76
440.77	781.45
441.145	791.39
441.52	802.92
441.895	797.27
442.27	793.43
442.645	818.74
443.019	837.94
443.394	810.6
443.769	810.83
444.143	820.09
444.518	810.15
444.892	797.04
445.267	835.91
445.641	839.07
446.016	844.05
446.39	827.55
446.764	848.11
447.139	842.01
447.513	873.65
447.887	883.59
448.262	852.63
448.636	900.77
449.01	903.93
449.384	885.85
449.758	877.94
450.132	920.2
450.506	912.29
450.88	899.86
451.254	904.83
451.628	919.3
452.002	941.22
452.376	935.34
452.75	949.13
453.123	949.35
453.497	956.81
453.871	968.11
454.244	983.48
454.618	964.72
454.992	1005.17
455.365	988.67
455.739	1010.14
456.112	1032.52
456.486	1047.88
456.859	1051.27
457.232	1047.2
457.606	1045.17
457.979	1064.6
458.352	1099.63
458.725	1086.75
459.099	1108.45
459.472	1156.58
459.845	1136.92
460.218	1149.57
460.591	1126.98
460.964	1184.6
461.337	1206.75
461.71	1180.76
462.083	1190.03
462.456	1207.43
462.829	1219.18
463.201	1242
463.574	1248.1
463.947	1258.5
464.32	1253.07
464.692	1298.04
465.065	1320.19
465.438	1339.4
465.81	1333.3
466.183	1325.39
466.555	1374.43
466.928	1400.19
467.3	1398.38
467.672	1420.08
468.045	1440.41
468.417	1445.39
468.789	1461.43
469.161	1476.35
469.534	1476.8
469.906	1524.03
470.278	1531.71
470.65	1536.46
471.022	1598.15
471.394	1623.01
471.766	1612.16
472.138	1620.75
472.51	1647.19
472.882	1683.35
473.253	1703.23
473.625	1760.86
473.997	1768.54
474.369	1797.24
474.74	1864.58
475.112	1839.05
475.484	1864.58
475.855	1915.88
476.227	1929.44
476.598	2019.38
476.97	1999.72
477.341	2062.54
477.713	2088.31
478.084	2136.22
478.455	2172.37
478.827	2166.27
479.198	2255.31
479.569	2251.69
479.94	2309.77
480.311	2330.79
480.682	2416.89
481.053	2448.07
481.424	2510.44
481.795	2525.36
482.166	2571.01
482.537	2634.96
482.908	2642.87
483.279	2702.3
483.65	2744.79
484.021	2842.19
484.391	2841.96
484.762	2887.38
485.133	2908.17
485.503	3019.36
485.874	3038.34
486.244	3078.79
486.615	3144.32
486.985	3168.96
487.356	3193.81
487.726	3301.83
488.097	3352.91
488.467	3366.69
488.837	3436.52
489.207	3472.9
489.578	3514.26
489.948	3593.13
490.318	3650.98
490.688	3700.92
491.058	3734.14
491.428	3844.19
491.798	3820.92
492.168	3933.91
492.538	3936.62
492.908	3966.22
493.278	4050.97
493.648	4041.25
494.017	4108.82
494.387	4177.74
494.757	4221.58
495.126	4257.52
495.496	4270.4
495.866	4324.18
496.235	4385.87
496.605	4420.45
496.974	4444.63
497.344	4505.42
497.713	4483.27
498.082	4583.16
498.452	4547.23
498.821	4644.85
499.19	4678.3
499.559	4693.44
499.928	4710.16
500.298	4775.92
500.667	4782.93
501.036	4821.34
501.405	4902.47
501.774	4877.84
502.143	4913.54
502.512	4960.55
502.88	5010.94
503.249	5028.12
503.618	5055.69
503.987	5050.26
504.356	5118.06
504.724	5148.34
505.093	5201.9
505.462	5154.89
505.83	5219.3
506.199	5231.73
506.567	5308.56
506.936	5304.95
507.304	5371.38
507.672	5402.57
508.041	5450.03
508.409	5454.32
508.777	5442.12
509.145	5509.46
509.514	5494.09
509.882	5532.51
510.25	5559.63
510.618	5601.89
510.986	5609.57
511.354	5704.48
511.722	5713.07
512.09	5779.28
512.458	5768.89
512.826	5805.95
513.193	5797.14
513.561	5852.28
513.929	5842.56
514.297	5844.82
514.664	5852.5
515.032	5926.85
515.4	5936.57
515.767	5985.83
516.135	6032.84
516.502	6026.73
516.869	6066.51
517.237	6142.89
517.604	6052.72
517.972	6146.73
518.339	6205.03
518.706	6217.46
519.073	6228.31
519.44	6271.25
519.808	6289.55
520.175	6273.06
520.542	6353.51
520.909	6356.67
521.276	6364.8
521.643	6436.67
522.009	6444.12
522.376	6523.44
522.743	6541.07
523.11	6537.91
523.477	6615.42
523.843	6670.11
524.21	6733.61
524.577	6750.33
524.943	6747.17
525.31	6776.09
525.676	6894.96
526.043	6893.15
526.409	6879.59
526.776	6975.86
527.142	7018.8
527.508	7045.46
527.874	7075.29
528.241	7102.19
528.607	7119.81
528.973	7227.15
529.339	7210.21
529.705	7190.32
530.071	7354.61
530.437	7364.78
530.803	7343.99
531.169	7352.35
531.535	7454.04
531.901	7430.54
532.267	7411.78
532.632	7525.9
532.998	7502.85
533.364	7548.28
533.73	7601.16
534.095	7692.91
534.461	7673.47
534.826	7753.92
535.192	7786.91
535.557	7845.22
535.923	7807.25
536.288	7848.16
536.653	7915.95
537.019	7900.81
537.384	7941.49
537.749	7977.64
538.114	8076.62
538.479	8006.12
538.845	8063.52
539.21	8044.08
539.575	8087.7
539.94	8186.23
540.305	8203.4
540.67	8214.47
541.034	8217.19
541.399	8264.64
541.764	8261.25
542.129	8308.71
542.494	8321.14
542.858	8384.86
543.223	8388.03
543.587	8482.49
543.952	8510.06
544.316	8526.1
544.681	8570.85
545.045	8624.41
545.41	8644.52
545.774	8623.73
546.138	8680.9
546.503	8736.49
546.867	8682.26
547.231	8781.24
547.595	8823.5
547.959	8890.39
548.324	8914.34
548.688	8879.09
549.052	8969.03
549.416	8970.84
549.779	8920.67
550.143	8964.06
550.507	8994.57
550.871	9072.98
551.235	9084.28
551.599	9181.23
551.962	9125.64
552.326	9225.75
552.689	9196.82
553.053	9234.11
553.417	9222.81
553.78	9390.49
554.143	9305.07
554.507	9416.02
554.87	9378.06
555.234	9482.24
555.597	9462.58
555.96	9472.52
556.323	9496.02
556.686	9512.52
557.05	9609.24
557.413	9665.73
557.776	9625.06
558.139	9674.32
558.502	9663.7
558.865	9706.86
559.228	9724.94
559.59	9778.73
559.953	9780.31
560.316	9923.35
560.679	10007.19
561.041	9907.08
561.404	10000.42
561.767	10049.68
562.129	10063.01
562.492	10129.23
562.854	10098.04
563.217	10102.79
563.579	10213.06
563.941	10148.43
564.304	10289.22
564.666	10272.05
565.028	10345.72
565.39	10360.18
565.753	10527.18
566.115	10458.48
566.477	10521.08
566.839	10517.69
567.201	10595.43
567.563	10638.14
567.925	10658.02
568.287	10649.66
568.648	10687.4
569.01	10694.18
569.372	10865.03
569.734	10737.34
570.095	10843.56
570.457	10979.15
570.819	10999.94
571.18	10905.02
571.542	11046.26
571.903	11047.62
572.265	11127.17
572.626	11094.62
572.987	11174.17
573.349	11286.03
573.71	11365.8
574.071	11331
574.432	11458.68
574.794	11591.11
575.155	11549.98
575.516	11596.53
575.877	11690.77
576.238	11749.3
576.599	11882.63
576.96	11937.31
577.32	12019.8
577.681	12069.51
578.042	12196.06
578.403	12276.06
578.763	12345.44
579.124	12460.69
579.485	12546.34
579.845	12774.13
580.206	12810.28
580.566	12869.72
580.927	13133.67
581.287	13271.29
581.648	13259.76
582.008	13481.68
582.368	13584.28
582.728	13749.47
583.089	13885.06
583.449	14027.2
583.809	14207.76
584.169	14431.26
584.529	14551.48
584.889	14796.67
585.249	14859.95
585.609	15124.8
585.969	15323.66
586.329	15473.94
586.688	15759.81
587.048	15891.33
587.408	16096.75
587.768	16393.02
588.127	16610.41
588.487	16816.06
588.846	17267.12
589.206	17296.27
589.565	17578.75
589.925	17949.81
590.284	18276.36
590.643	18459.85
591.003	18816
591.362	19055.32
591.721	19400.62
592.08	19664.34
592.44	19999.02
592.799	20247.6
593.158	20447.15
593.517	20723.75
593.876	21124.87
594.235	21300.46
594.593	21718.75
594.952	21940.67
595.311	22235.35
595.67	22578.84
596.029	22991.94
596.387	23221.76
596.746	23542.43
597.104	23854.51
597.463	24160.95
597.822	24497.21
598.18	24729.52
598.538	24894.03
598.897	25434.13
599.255	25649.27
599.613	26415.8
599.972	26279.08
600.33	26715.23
600.688	26875.23
601.046	27374.2
601.404	27681.31
601.762	27849.66
602.12	28321.52
602.478	28526.93
602.836	28833.14
603.194	28999.69
603.552	29298.21
603.91	29467.7
604.268	29904.52
604.625	30142.03
604.983	30446.88
605.341	30670.38
605.698	30999.64
606.056	31314.43
606.413	31559.4
606.771	31964.36
607.128	32196.22
607.485	32278.02
607.843	32490.22
608.2	32931.34
608.557	33194.83
608.914	33342.85
609.272	33692.45
609.629	34071.42
609.986	34298.76
610.343	34319.1
610.7	34660.33
611.057	34874.79
611.414	34962.92
611.771	35251.5
612.127	35565.17
612.484	35722.9
612.841	35955.89
613.198	36001.09
613.554	36254.64
613.911	36549.32
614.267	36828.86
614.624	36901.85
614.98	37127.16
615.337	37348.17
615.693	37617.77
616.05	37751.55
616.406	38076.96
616.762	37940.47
617.118	38085.78
617.475	38230.18
617.831	38527.35
618.187	38673.56
618.543	38789.94
618.899	39101.57
619.255	39188.8
619.611	39182.7
619.967	39539.53
620.323	39820.65
620.678	39689.58
621.034	39680.99
621.39	39891.61
621.746	39811.83
622.101	40333.63
622.457	40157.59
622.812	40316
623.168	40612.72
623.523	40574.75
623.879	40824.01
624.234	40703.34
624.589	41075.53
624.945	41080.73
625.3	41122.53
625.655	41146.71
626.01	41363.66
626.365	41248.86
626.72	41375.86
627.075	41504.9
627.43	41477.78
627.785	41545.57
628.14	41663.54
628.495	41755.06
628.85	41787.83
629.205	41748.96
629.559	42025.34
629.914	41809.52
630.269	42008.16
630.623	41889.29
630.978	41863.08
631.332	42053.58
631.687	42087.93
632.041	42109.4
632.396	42094.71
632.75	42010.19
633.104	42146.91
633.459	42023.98
633.813	41966.81
634.167	42072.79
634.521	42033.25
634.875	42211.55
635.229	42337.19
635.583	42117.99
635.937	42087.03
636.291	42092.23
636.645	42200.02
636.999	41991.21
637.352	42112.34
637.706	42067.59
638.06	42326.34
638.413	42049.52
638.767	42042.96
639.121	42157.31
639.474	41916.86
639.828	41996.64
640.181	42174.71
640.534	42025.56
640.888	42004.77
641.241	41845.91
641.594	41960.03
641.947	42320.7
642.301	42023.08
642.654	42031.21
643.007	42126.35
643.36	42070.08
643.713	41931.78
644.066	42162.51
644.419	41903.3
644.771	41703.31
645.124	41453.6
645.477	41390.55
645.83	41099.26
646.182	41059.26
646.535	40876.89
646.888	40920.51
647.24	40681.64
647.593	40951.47
647.945	40762.54
648.298	40686.61
648.65	40653.39
649.002	40623.79
649.355	40752.37
649.707	40781.3
650.059	40892.03
650.411	41353.71
650.763	41316.43
651.115	41842.06
651.467	41634.16
651.819	41612.01
652.171	41523.88
652.523	41546.25
652.875	41462.64
653.227	41422.87
653.578	41639.81
653.93	41536.31
654.282	41434.16
654.633	41371.34
654.985	41423.77
655.337	41506.71
655.688	41379.02
656.039	41664.44
656.391	41209.54
656.742	41350.33
657.094	41452.24
657.445	41452.02
657.796	41449.98
658.147	41375.41
658.498	41402.75
658.849	41402.75
659.2	41502.41
659.551	41253.15
659.902	41398.69
660.253	41272.36
660.604	41457.22
660.955	41258.8
661.306	41292.02
661.656	41217
662.007	41243.21
662.358	41330.44
662.708	41223.32
663.059	41243.44
663.409	41042.08
663.76	41285.92
664.11	41200.05
664.461	41273.27
664.811	41224
665.161	41255.19
665.511	41139.03
665.862	41127.96
666.212	41247.73
666.562	41357.33
666.912	41184
667.262	41251.34
667.612	41122.53
667.962	41250.44
668.312	41094.74
668.662	41326.15
669.011	41224
669.361	41162.08
669.711	41063.55
670.06	40977
670.41	41049.32
670.76	40957.34
671.109	41136.55
671.459	40921.18
671.808	40907.85
672.157	41131.8
672.507	40785.37
672.856	40854.97
673.205	41071.01
673.554	41034.63
673.904	40927.96
674.253	41057.45
674.602	41048.86
674.951	40393.97
675.3	40178.6
675.649	40852.71
675.998	40914.4
676.346	40823.56
676.695	40963.22
677.044	40599.61
677.393	40811.58
677.741	40808.19
678.09	40675.31
678.438	40641.19
678.787	40682.32
679.135	40654.07
679.484	40453.85
679.832	40542.89
680.181	40207.08
680.529	40407.07
680.877	40269
681.225	40344.02
681.573	40459.73
681.922	40131.83
682.27	40038.5
682.618	40122.11
682.966	39992.39
683.314	40091.6
683.661	39968.89
684.009	39795.56
684.357	39819.74
684.705	39888.89
685.053	39746.53
685.4	39706.53
685.748	39632.63
686.095	39597.6
686.443	39483.48
686.79	39413.2
687.138	39462.69
687.485	39460.88
687.832	39330.49
688.18	39358.29
688.527	39206.2
688.874	38947.68
689.221	39001.23
689.568	38961.91
689.915	38833.33
690.262	38823.84
690.609	38771.64
690.956	38466.11
691.303	38554.92
691.65	38429.05
691.997	38440.8
692.344	38262.04
692.69	38247.36
693.037	38139.79
693.383	37881.49
693.73	38076.96
694.077	37822.06
694.423	37744.77
694.769	37690.53
695.116	37634.72
695.462	37561.5
695.808	37551.1
696.155	37550.88
696.501	37222.07
696.847	37149.31
697.193	37009.42
697.539	37136.2
697.885	36845.36
698.231	36773.27
698.577	36832.25
698.923	36851.46
699.269	36623.22
699.614	36411.7
699.96	36311.81
700.306	36414.86
700.651	36199.73
700.997	36146.85
701.342	36079.05
701.688	36046.96
702.033	35832.05
702.379	35737.37
702.724	35551.38
703.069	35861.88
703.415	35408.56
703.76	35367.88
704.105	35461.21
704.45	35376.7
704.795	35158.85
705.14	35120.43
705.485	35012.64
705.83	34933.09
706.175	34895.58
706.52	34796.15
706.865	34808.12
707.209	34714.79
707.554	34555.02
707.899	34758.41
708.243	34436.16
708.588	34480.45
708.932	34128.82
709.277	34189.38
709.621	34205.88
709.966	33954.81
710.31	34125.88
710.654	33755.95
710.998	33907.13
711.342	33854.03
711.687	33753.91
712.031	33509.4
712.375	33446.58
712.719	33591.43
713.063	33480.02
713.407	33532.45
713.75	33341.72
714.094	33311.21
714.438	33144.67
714.782	33273.25
715.125	33102.18
715.469	33204.55
715.812	32960.72
716.156	32825.35
716.499	32802.3
716.843	32960.04
717.186	32676.43
717.53	32739.03
717.873	32798.46
718.216	32755.97
718.559	32578.8
718.902	32347.4
719.246	32448.64
719.589	32297.91
719.932	32086.61
720.275	32121.87
720.617	32199.83
720.96	32078.25
721.303	32067.63
721.646	32059.5
721.989	31939.5
722.331	32002.1
722.674	31833.06
723.016	31854.3
723.359	31734.08
723.701	31814.98
724.044	31574.31
724.386	31367.08
724.729	31578.15
725.071	31369.57
725.413	31574.09
725.755	31478.49
726.097	31449.79
726.439	31115.11
726.782	31293.19
727.124	31309.69
727.465	31091.61
727.807	31030.6
728.149	31084.38
728.491	30960.32
728.833	30975.46
729.175	30828.79
729.516	30830.38
729.858	30823.14
730.199	30809.59
730.541	30834.67
730.882	30608.01
731.224	30683.04
731.565	30526.88
731.906	30575.02
732.248	30538.41
732.589	30405.53
732.93	30322.82
733.271	30318.52
733.612	30404.4
733.953	30334.8
734.294	30186.78
734.635	30134.35
734.976	30236.95
735.317	29999.21
735.658	30018.87
735.999	30067.23
736.339	29960.34
736.68	30158.98
737.021	29944.75
737.361	29878.54
737.702	29978.19
738.042	29834.02
738.383	29629.5
738.723	29807.13
739.063	29787.69
739.404	29725.32
739.744	29756.51
740.084	29500.92
740.424	29459.11
740.764	29465.21
741.104	29522.61
741.444	29424.09
741.784	29330.08
742.124	29378.89
742.464	29290.76
742.804	29252.11
743.143	29149.29
743.483	29222.06
743.823	29121.04
744.162	29046.02
744.502	29130.99
744.841	29039.24
745.181	29104.77
745.52	29032.46
745.86	29027.49
746.199	28843.76
746.538	28829.75
746.877	28853.03
747.216	29002.63
747.556	28875.4
747.895	28841.73
748.234	28649.42
748.573	28727.38
748.911	28652.13
749.25	28617.55
749.589	28499.59
749.928	28529.87
750.267	28584.79
750.605	28388.86
750.944	28453.49
751.283	28237
751.621	28307.73
751.96	28136.89
752.298	28296.66
752.636	28211.69
752.975	28035.87
753.313	27951.81
753.651	28121.07
753.989	27900.51
754.327	27910.23
754.666	27808.76
755.004	27737.58
755.342	27807.63
755.679	27660.97
756.017	27524.47
756.355	27719.72
756.693	27418.71
757.031	27465.04
757.368	27367.19
757.706	27317.47
758.044	27216.91
758.381	27277.02
758.719	27170.59
759.056	27206.29
759.394	27174.65
759.731	26888.78
760.068	26831.61
760.405	26865.06
760.743	26780.31
761.08	26699.64
761.417	26668.45
761.754	26635.68
762.091	26552.52
762.428	26389.14
762.765	26271.4
763.102	26384.39
763.438	26160.44
763.775	26147.34
764.112	26095.59
764.449	26080.9
764.785	26002.03
765.122	25786.89
765.458	25791.86
765.795	25674.58
766.131	25753.45
766.467	25585.09
766.804	25462.16
767.14	25437.3
767.476	25398.2
767.812	25138.32
768.148	25241.37
768.485	25050.19
768.821	24877.09
769.157	24907.37
769.492	24805.45
769.828	24810.2
770.164	24617.21
770.5	24504.21
770.836	24581.5
771.171	24363.43
771.507	24329.76
771.842	24221.74
772.178	24264.45
772.513	24150.33
772.849	24027.16
773.184	23861.75
773.519	23903.55
773.855	23662.43
774.19	23762.09
774.525	23662.43
774.86	23616.78
775.195	23556.22
775.53	23418.82
775.865	23292.49
776.2	23141.09
776.535	23053.41
776.87	22904.93
777.205	23028.55
777.539	22787.65
777.874	22885.5
778.209	22590.59
778.543	22661.33
778.878	22524.61
779.212	22415.23
779.547	22418.85
779.881	22454.55
780.215	22214.78
780.55	22293.65
780.884	22152.19
781.218	22015.24
781.552	22094.11
781.886	21948.12
782.22	21821.35
782.554	21727.56
782.888	21542.48
783.222	21556.27
783.556	21388.14
783.889	21374.58
784.223	21108.82
784.557	21143.85
784.89	21183.62
785.224	21076.51
785.557	20946.34
785.891	20886.91
786.224	20854.37
786.558	20854.59
786.891	20629.74
787.224	20649.4
787.557	20487.37
787.891	20490.31
788.224	20361.05
788.557	20392.91
788.89	20419.12
789.223	20328.28
789.556	20190.66
789.888	20101.17
790.221	19982.53
790.554	19905.24
790.887	19840.38
791.219	19803.1
791.552	19637.9
791.884	19668.86
792.217	19602.87
792.549	19517.45
792.882	19393.84
793.214	19321.3
793.546	19339.38
793.879	19240.17
794.211	19166.95
794.543	19188.42
794.875	19140.06
795.207	19008.54
795.539	19038.14
795.871	18983.91
796.203	18864.81
796.535	18759.05
796.867	18705.27
797.198	18661.88
797.53	18646.74
797.862	18603.58
798.193	18587.99
798.525	18393.19
798.856	18418.72
799.188	18179.18
799.519	18165.85
799.85	18106.42
800.182	18174.21
800.513	18071.84
800.844	17947.1
801.175	17953.88
801.506	17880.43
801.837	17829.14
802.168	17838.85
802.499	17708.23
802.83	17650.84
803.161	17600.67
803.491	17600.44
803.822	17487.22
804.153	17506.21
804.483	17386.66
804.814	17331.75
805.145	17303.05
805.475	17272.99
805.805	17177.4
806.136	17184.18
806.466	17224.63
806.796	17053.11
807.126	16979.44
807.457	17029.61
807.787	16933.34
808.117	16859.44
808.447	16821.93
808.777	16759.56
809.107	16746.68
809.436	16614.48
809.766	16730.86
810.096	16590.52
810.426	16481.83
810.755	16539.45
811.085	16522.05
811.414	16463.75
811.744	16292.45
812.073	16242.74
812.403	16233.02
812.732	16231.21
813.061	16210.42
813.39	16028.05
813.719	16050.65
814.049	16102.63
814.378	16036.64
814.707	16030.54
815.036	15859.47
815.365	15863.76
815.693	15670.32
816.022	15714.62
816.351	15696.54
816.68	15565.69
817.008	15707.84
817.337	15526.6
817.665	15536.54
817.994	15551.91
818.322	15551.91
818.651	15314.85
818.979	15380.16
819.307	15445.47
819.636	15313.27
819.964	15273.5
820.292	15329.09
820.62	15349.88
820.948	15202.99
821.276	15353.04
821.604	15232.59
821.932	15195.76
822.259	15270.11
822.587	15229.2
822.915	15123.22
823.243	15191.24
823.57	15203.67
823.898	15146.49
824.225	15193.72
824.553	15158.02
824.88	15238.7
825.207	15179.26
825.535	15135.87
825.862	15134.29
826.189	15110.11
826.516	15212.48
826.843	15173.16
827.17	15144.46
827.497	15249.99
827.824	15148.53
828.151	15206.38
828.478	15137.23
828.805	15189.43
829.131	15159.83
829.458	15064.69
829.785	15072.37
830.111	15062.88
830.438	15088.64
830.764	15158.25
831.09	15156.44
831.417	15052.94
831.743	15072.15
832.069	15101.07
832.395	15046.84
832.722	15026.95
833.048	14980.4
833.374	15128.19
833.7	14925.03
834.026	15022.88
834.351	15025.14
834.677	14963.67
835.003	14935.88
835.329	14963.22
835.654	14967.97
835.98	14848.2
836.306	14808.2
836.631	15024.46
836.956	14847.07
837.282	14840.97
837.607	14838.48
837.932	14717.81
838.258	14695.21
838.583	14736.34
838.908	14635.32
839.233	14684.59
839.558	14583.35
839.883	14515.32
840.208	14540.63
840.533	14551.03
840.858	14506.96
841.182	14531.14
841.507	14552.39
841.832	14381.77
842.156	14356.46
842.481	14395.1
842.805	14326.63
843.13	14307.87
843.454	14333.18
843.778	14224.26
844.103	14203.24
844.427	14194.2
844.751	14153.07
845.075	14092.28
845.399	14133.19
845.723	13940.42
846.047	14073.53
846.371	13911.27
846.695	13930.71
847.019	13830.37
847.343	13700.2
847.666	13615.24
847.99	13615.24
848.313	13577.04
848.637	13525.52
848.96	13512.87
849.284	13423.15
849.607	13289.14
849.931	13257.96
850.254	13213.44
850.577	13204.17
850.9	13109.49
851.223	13093.67
851.546	13020.45
851.869	12925.08
852.192	12992.43
852.515	12836.27
852.838	12856.84
853.161	12750.17
853.483	12769.83
853.806	12643.51
854.129	12757.63
854.451	12644.64
854.774	12533
855.096	12467.92
855.419	12474.02
855.741	12435.15
856.063	12392.22
856.385	12333.46
856.708	12296.17
857.03	12222.96
857.352	12271.32
857.674	12233.8
857.996	12150.41
858.318	12065.22
858.64	12113.81
858.961	12105.44
859.283	12033.58
859.605	11987.26
859.926	11902.06
860.248	12017.76
860.57	11929.18
860.891	11963.53
861.212	11825.9
861.534	11709.97
861.855	11770.31
862.176	11858.67
862.498	11749.97
862.819	11782.06
863.14	11632.01
863.461	11676.98
863.782	11663.2
864.103	11641.5
864.424	11636.08
864.745	11617.77
865.065	11463.88
865.386	11528.28
865.707	11563.31
866.027	11528.96
866.348	11478.12
866.668	11403.54
866.989	11446.93
867.309	11293.71
867.63	11357.67
867.95	11363.77
868.27	11332.81
868.59	11288.74
868.91	11335.52
869.23	11342.75
869.55	11213.94
869.87	11306.37
870.19	11247.84
870.51	11172.81
870.83	11239.93
871.15	11256.65
871.469	11218.46
871.789	11197.22
872.109	11185.24
872.428	11060.27
872.748	11110.44
873.067	11044.23
873.386	11105.24
873.706	11065.7
874.025	11026.38
874.344	10977.34
874.663	10961.75
874.982	10961.52
875.301	10929.2
875.62	10846.04
875.939	10865.93
876.258	10858.47
876.577	10777.8
876.896	10856.89
877.214	10815.08
877.533	10796.1
877.852	10709.32
878.17	10848.75
878.489	10764.01
878.807	10686.5
879.125	10714.29
879.444	10731.92
879.762	10629.33
880.08	10646.5
880.398	10663.9
880.716	10617.12
881.034	10573.51
881.352	10580.06
881.67	10481.98
881.988	10481.31
882.306	10554.07
882.624	10449.89
882.941	10441.99
883.259	10414.87
883.577	10383.46
883.894	10372.16
884.212	10322.89
884.529	10396.34
884.846	10343.91
885.164	10331.25
885.481	10250.13
885.798	10192.05
886.115	10296.45
886.432	10202.22
886.75	10206.96
887.067	10218.94
887.383	10121.09
887.7	10122.22
888.017	10130.58
888.334	10133.29
888.651	10027.31
888.967	10082.9
889.284	9971.04
889.6	9940.98
889.917	9911.6
890.233	9884.94
890.55	9869.57
890.866	9881.55
891.182	9813.3
891.498	9824.6
891.815	9778.95
892.131	9722.46
892.447	9742.79
892.763	9649.92
893.079	9693.76
893.395	9533.31
893.71	9631.84
894.026	9604.95
894.342	9518.62
894.657	9513.65
894.973	9507.32
895.289	9436.14
895.604	9464.16
895.92	9369.47
896.235	9318.17
896.55	9315.91
896.865	9383.26
897.181	9297.61
897.496	9284.28
897.811	9231.17
898.126	9172.41
898.441	9142.58
898.756	9120.21
899.071	9071.85
899.386	9039.76
899.7	8974.91
900.015	8950.95
900.33	8893.55
900.644	8870.28
900.959	8882.25
901.273	8834.34
901.588	8828.02
901.902	8774.46
902.216	8705.53
902.531	8721.8
902.845	8713.44
903.159	8627.12
903.473	8581.47
903.787	8611.07
904.101	8554.58
904.415	8564.29
904.729	8415.82
905.042	8404.75
905.356	8411.76
905.67	8406.33
905.984	8407.69
906.297	8365.66
906.611	8277.52
906.924	8268.94
907.237	8300.12
907.551	8208.82
907.864	8215.83
908.177	8181.03
908.491	8160.01
908.804	8052.9
909.117	7999.34
909.43	8029.17
909.743	8022.84
910.056	8003.18
910.368	7964.76
910.681	7920.47
910.994	7843.64
911.307	7812.68
911.619	7738.55
911.932	7816.07
912.244	7735.16
912.557	7670.31
912.869	7648.84
913.181	7655.39
913.494	7582.17
913.806	7611.55
914.118	7589.4
914.43	7483.19
914.742	7525.45
915.054	7461.72
915.366	7448.39
915.678	7388.96
915.99	7306.02
916.302	7304.44
916.613	7258.34
916.925	7286.81
917.236	7303.99
917.548	7183.77
917.859	7137.44
918.171	7126.37
918.482	7082.07
918.794	7055.63
919.105	7114.62
919.416	7000.49
919.727	7005.47
920.038	7006.6
920.349	6929.99
920.66	6894.96
920.971	6912.36
921.282	6837.79
921.593	6827.62
921.903	6785.13
922.214	6767.73
922.525	6760.95
922.835	6714.63
923.146	6712.82
923.456	6680.05
923.767	6583.56
924.077	6674.63
924.387	6551.24
924.697	6545.59
925.008	6504.24
925.318	6476.21
925.628	6522.31
925.938	6374.52
926.248	6354.41
926.558	6368.65
926.867	6342.43
927.177	6304.02
927.487	6266.28
927.796	6221.53
928.106	6209.55
928.416	6222.66
928.725	6200.74
929.034	6101.08
929.344	6170.01
929.653	6120.97
929.962	6082.78
930.271	6081.65
930.581	6049.56
930.89	6011.82
931.199	5981.76
931.508	5926.62
931.817	5919.84
932.125	5951.93
932.434	5880.75
932.743	5824.03
933.051	5833.74
933.36	5772.05
933.669	5797.36
933.977	5747.87
934.286	5723.47
934.594	5745.61
934.902	5670.81
935.21	5644.82
935.519	5652.73
935.827	5589.01
936.135	5586.07
936.443	5507.43
936.751	5562.11
937.059	5500.65
937.367	5469.23
937.674	5481.89
937.982	5462.91
938.29	5418.61
938.597	5438.73
938.905	5316.92
939.213	5340.65
939.52	5293.87
939.827	5332.97
940.135	5269.24
940.442	5279.86
940.749	5226.53
941.056	5226.76
941.363	5182.01
941.67	5127.77
941.977	5149.7
942.284	5083.48
942.591	5105.4
942.898	5037.61
943.205	5067.21
943.511	5036.48
943.818	4969.81
944.125	4960.1
944.431	4998.96
944.738	4962.36
945.044	4917.84
945.35	4901.34
945.657	4881.68
945.963	4846.65
946.269	4783.38
946.575	4811.4
946.881	4742.93
947.187	4799.87
947.493	4788.35
947.799	4704.96
948.105	4747.67
948.41	4711.51
948.716	4668.13
949.022	4690.5
949.327	4666.77
949.633	4607.34
949.938	4628.58
950.244	4583.61
950.549	4534.57
950.854	4499.77
951.16	4504.74
951.465	4499.99
951.77	4478.3
952.075	4447.79
952.38	4439.88
952.685	4422.71
952.99	4352.43
953.294	4379.77
953.599	4344.07
953.904	4344.97
954.209	4304.52
954.513	4337.06
954.818	4336.84
955.122	4248.93
955.426	4235.59
955.731	4265.42
956.035	4215.48
956.339	4163.28
956.643	4176.16
956.948	4192.88
957.252	4137.29
957.556	4130.06
957.86	4111.76
958.163	4088.25
958.467	4091.42
958.771	4059.55
959.075	4045.09
959.378	4017.97
959.682	3998.99
959.985	3997.18
960.289	3982.72
960.592	3924.64
960.896	3897.98
961.199	3922.38
961.502	3904.98
961.805	3876.96
962.108	3841.03
962.411	3817.3
962.714	3806.45
963.017	3792.44
963.32	3816.62
963.623	3788.37
963.926	3775.04
964.228	3744.08
964.531	3676.06
964.833	3707.25
965.136	3654.82
965.438	3636.29
965.741	3652.11
966.043	3630.41
966.345	3617.08
966.648	3632.9
966.95	3623.41
967.252	3603.3
967.554	3593.35
967.856	3528.27
968.158	3518.33
968.46	3539.57
968.761	3504.09
969.063	3495.05
969.365	3487.82
969.666	3520.59
969.968	3456.86
970.269	3406.46
970.571	3434.71
970.872	3424.32
971.174	3410.31
971.475	3358.56
971.776	3375.5
972.077	3357.65
972.378	3312.91
972.679	3312.46
972.98	3331.21
973.281	3277.43
973.582	3292.34
973.883	3252.12
974.183	3250.31
974.484	3222.29
974.785	3236.98
975.085	3212.12
975.386	3160.82
975.686	3160.82
975.986	3134.15
976.287	3142.29
976.587	3115.62
976.887	3109.97
977.187	3091.44
977.487	3089.18
977.787	3043.31
978.087	3066.81
978.387	3046.25
978.687	3056.42
978.987	3048.06
979.286	2977.32
979.586	3007.6
979.885	2970.09
980.185	2926.25
980.484	2972.13
980.784	2948.17
981.083	2929.64
981.382	2872.92
981.682	2902.3
981.981	2874.5
982.28	2848.96
982.579	2856.2
982.878	2881.28
983.177	2869.53
983.475	2814.62
983.774	2793.82
984.073	2764.9
984.372	2768.06
984.67	2773.03
984.969	2763.77
985.267	2772.36
985.566	2740.04
985.864	2693.49
986.162	2709.53
986.461	2700.72
986.759	2661.62
987.057	2679.93
987.355	2651.46
987.653	2633.83
987.951	2580.5
988.249	2627.05
988.547	2619.59
988.844	2613.26
989.142	2613.26
989.44	2560.84
989.737	2594.06
990.035	2521.97
990.332	2539.82
990.63	2541.18
990.927	2515.64
991.224	2502.53
991.521	2504.57
991.819	2508.63
992.116	2495.75
992.413	2455.3
992.71	2459.14
993.006	2461.4
993.303	2476.55
993.6	2459.37
993.897	2427.51
994.193	2419.6
994.49	2400.84
994.787	2375.98
995.083	2365.81
995.379	2348.64
995.676	2335.53
995.972	2338.92
996.268	2311.13
996.565	2310.9
996.861	2263.22
997.157	2295.08
997.453	2258.92
997.749	2268.64
998.044	2270.22
998.34	2270.9
998.636	2215.53
998.932	2233.16
999.227	2219.38
999.523	2213.28
999.818	2175.31
1000.114	2166.5
1000.409	2158.59
1000.704	2113.84
1001	2142.99
1001.295	2127.4
1001.59	2154.52
1001.885	2128.08
1002.18	2104.58
1002.475	2107.29
1002.77	2085.82
1003.065	2046.73
1003.359	2034.52
1003.654	2029.1
1003.949	2030.23
1004.243	2018.03
1004.538	2008.99
1004.832	2021.87
1005.127	1957.24
1005.421	1970.57
1005.715	1985.03
1006.009	1955.65
1006.304	1955.65
1006.598	1943.9
1006.892	1921.76
1007.186	1913.17
1007.48	1883.79
1007.773	1907.29
1008.067	1874.75
1008.361	1864.36
1008.655	1860.06
1008.948	1851.48
1009.242	1849.22
1009.535	1849.44
1009.829	1809.67
1010.122	1811.7
1010.415	1817.13
1010.708	1785.94
1011.001	1780.52
1011.295	1768.32
1011.588	1782.78
1011.881	1745.94
1012.173	1710.92
1012.466	1703.68
1012.759	1689.45
1013.052	1712.95
1013.344	1731.48
1013.637	1697.13
1013.93	1685.83
1014.222	1676.79
1014.514	1638.83
1014.807	1647.87
1015.099	1653.52
1015.391	1599.73
1015.683	1615.1
1015.976	1627.3
1016.268	1617.36
1016.56	1570.58
1016.851	1566.74
1017.143	1580.3
1017.435	1534.87
1017.727	1542.56
1018.018	1555.21
1018.31	1533.74
1018.602	1530.36
1018.893	1513.63
1019.185	1511.37
1019.476	1480.87
1019.767	1480.41
1020.058	1465.27
1020.35	1444.48
1020.641	1447.19
1020.932	1442.22
1021.223	1440.87
1021.514	1446.97
1021.804	1431.15
1022.095	1386.86
1022.386	1396.57
1022.677	1396.12
1022.967	1371.04
1023.258	1356.35
1023.548	1336.01
1023.839	1383.01
1024.129	1376.46
1024.419	1321.77
1024.709	1334.43
1025	1315.22
1025.29	1284.49
1025.58	1303.24
1025.87	1283.36
1026.16	1294.66
1026.449	1292.62
1026.739	1256.69
1027.029	1265.28
1027.319	1265.05
1027.608	1244.71
1027.898	1242.68
1028.187	1215.56
1028.477	1234.09
1028.766	1233.19
1029.055	1221.44
1029.344	1187.31
1029.634	1147.99
1029.923	1187.77
1030.212	1170.82
1030.501	1171.27
1030.79	1160.87
1031.078	1134.66
1031.367	1131.04
1031.656	1148.67
1031.945	1140.76
1032.233	1129.24
1032.522	1115.68
1032.81	1088.56
1033.099	1081.55
1033.387	1082.91
1033.675	1102.8
1033.963	1082.23
1034.251	1053.08
1034.54	1047.88
1034.828	1041.55
1035.116	1061.22
1035.403	1059.41
1035.691	1037.49
1035.979	1033.42
1036.267	1001.33
1036.554	1025.28
1036.842	1015.34
1037.129	1019.86
1037.417	1004.27
1037.704	996.58
1037.992	995.68
1038.279	980.09
1038.566	970.82
1038.853	970.82
1039.14	970.82
