Data from hue_280_FLMS001491_00081.txt Node
Date: Tue Feb 07 15:55:54 GMT 2017
User: dcchb
Spectrometer: FLMS00149
Trigger mode: 0
Integration Time (sec): 2.000000E-2
Scans to average: 10
Electric dark correction enabled: true
Nonlinearity correction enabled: false
Boxcar width: 0
XAxis mode: Wavelengths
Number of Pixels in Spectrum: 2048
>>>>>Begin Spectral Data<<<<<
341.393	-6.5
341.776	-6.5
342.16	-6.5
342.543	-65.03
342.927	-62.09
343.31	-60.51
343.693	-62.31
344.077	-64.35
344.46	-57.12
344.843	-60.28
345.226	-18.02
345.61	-24.12
345.993	-16.89
346.376	-2.88
346.759	-1.75
347.142	19.49
347.525	34.41
347.908	51.58
348.291	84.35
348.674	85.93
349.057	92.48
349.44	119.83
349.823	147.62
350.206	163.67
350.588	182.42
350.971	189.66
351.354	219.03
351.737	234.17
352.119	236.43
352.502	241.41
352.884	256.09
353.267	286.38
353.65	288.18
354.032	282.53
354.414	290.67
354.797	288.64
355.179	297.68
355.562	319.37
355.944	317.56
356.326	325.02
356.709	327.96
357.091	312.82
357.473	333.83
357.855	337.45
358.238	344.68
358.62	341.52
359.002	336.09
359.384	326.83
359.766	329.31
360.148	343.32
360.53	319.37
360.912	322.53
361.294	345.58
361.676	354.17
362.057	331.12
362.439	339.71
362.821	310.33
363.203	319.6
363.584	327.51
363.966	323.89
364.348	324.12
364.729	326.15
365.111	317.34
365.493	324.79
365.874	309.43
366.256	321.4
366.637	309.43
367.019	315.53
367.4	315.08
367.781	302.2
368.163	291.12
368.544	301.52
368.925	317.11
369.306	313.27
369.688	317.34
370.069	313.72
370.45	324.12
370.831	312.82
371.212	304.68
371.593	284.57
371.974	307.39
372.355	309.65
372.736	296.55
373.117	315.98
373.498	310.78
373.879	300.39
374.26	320.5
374.641	318.24
375.021	306.94
375.402	300.39
375.783	323.66
376.163	313.72
376.544	316.88
376.925	318.24
377.305	325.92
377.686	314.17
378.066	317.79
378.447	335.19
378.827	319.14
379.208	328.64
379.588	343.55
379.968	312.14
380.349	322.76
380.729	320.95
381.109	327.51
381.489	332.7
381.87	342.87
382.25	331.57
382.63	343.1
383.01	326.6
383.39	333.83
383.77	336.54
384.15	322.76
384.53	332.7
384.91	358.24
385.29	343.1
385.67	343.55
386.049	334.51
386.429	333.16
386.809	322.08
387.189	347.62
387.568	345.36
387.948	362.31
388.328	352.82
388.707	344
389.087	358.01
389.466	349.43
389.846	361.18
390.225	374.96
390.605	375.19
390.984	359.82
391.363	375.19
391.743	360.72
392.122	354.17
392.501	352.82
392.881	370.89
393.26	360.27
393.639	382.87
394.018	377
394.397	363.66
394.776	361.18
395.155	372.7
395.534	379.26
395.913	375.64
396.292	391.91
396.671	391.23
397.05	416.77
397.429	382.19
397.808	375.41
398.186	396.88
398.565	404.79
398.944	387.39
399.323	377.9
399.701	399.37
400.08	393.27
400.458	412.48
400.837	399.37
401.215	416.99
401.594	402.08
401.972	427.39
402.351	419.71
402.729	415.64
403.107	421.29
403.486	417.9
403.864	424.68
404.242	413.6
404.62	428.75
404.999	421.51
405.377	434.4
405.755	416.99
406.133	461.97
406.511	434.85
406.889	460.16
407.267	466.71
407.645	447.05
408.023	440.27
408.401	474.17
408.779	476.2
409.156	486.37
409.534	458.58
409.912	494.51
410.29	498.57
410.667	505.35
411.045	493.6
411.422	507.39
411.8	505.35
412.178	512.13
412.555	537.9
412.933	532.47
413.31	564.11
413.687	530.21
414.065	543.32
414.442	560.27
414.819	577.22
415.197	578.8
415.574	578.35
415.951	575.86
416.328	593.94
416.705	572.02
417.082	585.58
417.46	605.69
417.837	634.84
418.214	593.71
418.591	616.09
418.967	639.81
419.344	629.19
419.721	663.77
420.098	665.35
420.475	668.51
420.852	662.41
421.228	693.37
421.605	696.54
421.982	656.76
422.358	698.8
422.735	716.65
423.111	717.78
423.488	749.19
423.864	763.43
424.241	738.12
424.617	757.78
424.994	765.23
425.37	773.14
425.746	774.73
426.123	781.5
426.499	807.27
426.875	786.93
427.251	815.4
427.627	831.9
428.003	831.9
428.379	847.27
428.756	845.23
429.132	880.49
429.507	879.58
429.883	898.11
430.259	898.79
430.635	909.86
431.011	888.39
431.387	923.87
431.763	934.95
432.138	922.29
432.514	925.23
432.89	965.45
433.265	1031.44
433.641	993.25
434.016	1000.48
434.392	1030.99
434.767	1055.62
435.143	1017.88
435.518	1039.58
435.894	1067.37
436.269	1093.14
436.644	1126.58
437.02	1113.47
437.395	1114.83
437.77	1143.76
438.145	1149.4
438.52	1179.91
438.895	1180.59
439.271	1174.49
439.646	1227.37
440.021	1233.7
440.395	1245.67
440.77	1231.21
441.145	1206.58
441.52	1249.52
441.895	1252.23
442.27	1254.03
442.645	1277.31
443.019	1296.75
443.394	1294.71
443.769	1295.84
444.143	1308.5
444.518	1303.3
444.892	1314.6
445.267	1355.5
445.641	1333.81
446.016	1364.99
446.39	1360.7
446.764	1370.87
447.139	1364.77
447.513	1353.02
447.887	1365.44
448.262	1399.57
448.636	1405.44
449.01	1436.63
449.384	1402.96
449.758	1419
450.132	1457.42
450.506	1445.89
450.88	1422.17
451.254	1462.39
451.628	1438.66
452.002	1488.38
452.376	1484.31
452.75	1516.85
453.123	1503.07
453.497	1548.49
453.871	1533.8
454.244	1567.7
454.618	1546.46
454.992	1595.04
455.365	1553.24
455.739	1586.46
456.112	1637.08
456.486	1623.97
456.859	1637.53
457.232	1676.62
457.606	1630.52
457.979	1688.6
458.352	1678.2
458.725	1731.08
459.099	1716.17
459.472	1743.74
459.845	1777.18
460.218	1737.19
460.591	1758.43
460.964	1776.73
461.337	1825.32
461.71	1810.18
462.083	1880.01
462.456	1850.4
462.829	1902.61
463.201	1856.05
463.574	1874.81
463.947	1898.99
464.32	1921.81
464.692	1969.5
465.065	1975.15
465.438	1953.68
465.81	1977.63
466.183	2020.34
466.555	2058.08
466.928	2065.76
467.3	2048.36
467.672	2083.17
468.045	2090.4
468.417	2116.84
468.789	2158.87
469.161	2169.49
469.534	2175.37
469.906	2203.16
470.278	2230.28
470.65	2250.17
471.022	2291.75
471.394	2316.38
471.766	2318.19
472.138	2287.91
472.51	2370.39
472.882	2374.46
473.253	2400.22
473.625	2450.84
473.997	2489.48
474.369	2482.25
474.74	2488.13
475.112	2569.03
475.484	2609.25
475.855	2615.35
476.227	2607.67
476.598	2703.49
476.97	2684.51
477.341	2721.34
477.713	2762.24
478.084	2757.5
478.455	2863.48
478.827	2839.53
479.198	2897.61
479.569	2910.49
479.94	2965.63
480.311	2970.15
480.682	3022.58
481.053	3085.4
481.424	3111.16
481.795	3144.38
482.166	3154.55
482.537	3260.31
482.908	3250.82
483.279	3272.74
483.65	3309.35
484.021	3382.34
484.391	3397.26
484.762	3397.71
485.133	3458.5
485.503	3472.73
485.874	3514.54
486.244	3600.19
486.615	3584.37
486.985	3569.68
487.356	3681.32
487.726	3688.1
488.097	3750.92
488.467	3753.4
488.837	3809.67
489.207	3851.25
489.578	3839.96
489.948	3929.22
490.318	3937.13
490.688	3990.46
491.058	4014.19
491.428	4057.12
491.798	4044.92
492.168	4107.52
492.538	4138.03
492.908	4148.87
493.278	4197.23
493.648	4207.86
494.017	4258.25
494.387	4279.49
494.757	4345.25
495.126	4337.57
495.496	4350
495.866	4401.97
496.235	4455.53
496.605	4442.65
496.974	4460.5
497.344	4485.36
497.713	4521.29
498.082	4544.34
498.452	4606.04
498.821	4602.42
499.19	4585.25
499.559	4643.32
499.928	4613.04
500.298	4670.89
500.667	4717.67
501.036	4669.76
501.405	4697.11
501.774	4674.96
502.143	4746.15
502.512	4744.34
502.88	4730.33
503.249	4763.55
503.618	4815.75
503.987	4803.77
504.356	4796.77
504.724	4860.95
505.093	4853.04
505.462	4851.45
505.83	4924.67
506.199	4898.23
506.567	4967.16
506.936	4935.29
507.304	4993.6
507.672	5035.63
508.041	5015.74
508.409	5042.86
508.777	5056.87
509.145	5068.17
509.514	5064.33
509.882	5097.1
510.25	5124.44
510.618	5138.68
510.986	5162.18
511.354	5168.51
511.722	5241.5
512.09	5206.02
512.458	5147.27
512.826	5242.4
513.193	5204.44
513.561	5241.5
513.929	5299.35
514.297	5292.57
514.664	5267.26
515.032	5280.6
515.4	5359.92
515.767	5362.85
516.135	5360.82
516.502	5326.92
516.869	5386.13
517.237	5365.34
517.604	5406.69
517.972	5408.28
518.339	5474.94
518.706	5401.27
519.073	5473.81
519.44	5426.58
519.808	5501.61
520.175	5482.4
520.542	5495.96
520.909	5522.62
521.276	5483.08
521.643	5576.18
522.009	5578.21
522.376	5589.51
522.743	5617.08
523.11	5653.92
523.477	5735.5
523.843	5702.28
524.21	5700.47
524.577	5740.47
524.943	5750.64
525.31	5737.31
525.676	5831.99
526.043	5816.85
526.409	5871.31
526.776	5858.89
527.142	5883.29
527.508	5889.62
527.874	5907.7
528.241	5979.56
528.607	5941.82
528.973	6016.4
529.339	5960.35
529.705	6029.5
530.071	6113.79
530.437	6113.12
530.803	6081.48
531.169	6094.59
531.535	6083.96
531.901	6128.93
532.267	6175.26
532.632	6219.55
532.998	6200.57
533.364	6184.98
533.73	6203.06
534.095	6244.64
534.461	6294.81
534.826	6236.95
535.192	6296.84
535.557	6339.1
535.923	6283.28
536.288	6361.02
536.653	6355.37
537.019	6307.46
537.384	6376.61
537.749	6448.7
538.114	6410.96
538.479	6372.32
538.845	6428.36
539.21	6433.56
539.575	6438.98
539.94	6479.89
540.305	6476.5
540.67	6481.69
541.034	6452.99
541.399	6522.14
541.764	6482.37
542.129	6480.56
542.494	6546.33
542.858	6576.15
543.223	6559.66
543.587	6648.92
543.952	6623.84
544.316	6535.93
544.681	6656.15
545.045	6645.98
545.41	6683.5
545.774	6688.02
546.138	6652.54
546.503	6725.08
546.867	6714
547.231	6676.49
547.595	6722.37
547.959	6751.52
548.324	6718.07
548.688	6733.21
549.052	6801.46
549.416	6737.05
549.779	6785.64
550.143	6773.21
550.507	6885.98
550.871	6890.95
551.235	6812.08
551.599	6879.42
551.962	6891.4
552.326	6846.2
552.689	6869.48
553.053	6844.17
553.417	6938.86
553.78	6986.77
554.143	6920.78
554.507	6967.1
554.87	6951.06
555.234	6979.76
555.597	6965.75
555.96	6988.35
556.323	7034.9
556.686	7019.98
557.05	7064.05
557.413	7091.4
557.776	7116.25
558.139	7079.42
558.502	7116.48
558.865	7079.19
559.228	7085.07
559.59	7193.31
559.953	7134.33
560.316	7266.53
560.679	7187.66
561.041	7247.1
561.404	7270.83
561.767	7332.52
562.129	7319.86
562.492	7429.24
562.854	7410.03
563.217	7403.03
563.579	7473.31
563.941	7490.71
564.304	7464.72
564.666	7541.1
565.028	7480.31
565.39	7520.31
565.753	7636.01
566.115	7605.73
566.477	7663.36
566.839	7659.97
567.201	7658.39
567.563	7729.57
567.925	7748.1
568.287	7722.57
568.648	7771.38
569.01	7786.29
569.372	7809.79
569.734	7804.82
570.095	7896.8
570.457	7925.5
570.819	7918.72
571.18	7924.82
571.542	7972.05
571.903	7998.72
572.265	8014.99
572.626	8043.23
572.987	8100.63
573.349	8127.75
573.71	8169.33
574.071	8200.29
574.432	8209.33
574.794	8283.23
575.155	8272.16
575.516	8301.08
575.877	8364.58
576.238	8388.08
576.599	8435.77
576.96	8406.84
577.32	8439.16
577.681	8573.84
578.042	8526.16
578.403	8574.75
578.763	8638.47
579.124	8640.73
579.485	8718.92
579.845	8774.97
580.206	8779.71
580.566	8789.2
580.927	8911.69
581.287	8937.45
581.648	8939.03
582.008	9017.45
582.368	9015.19
582.728	9071.46
583.089	9125.24
583.449	9106.71
583.809	9172.7
584.169	9258.8
584.529	9325.91
584.889	9468.51
585.249	9340.38
585.609	9418.34
585.969	9488.17
586.329	9566.36
586.688	9614.27
587.048	9719.35
587.408	9756.64
587.768	9784.21
588.127	9828.72
588.487	9881.6
588.846	10007.25
589.206	9998.89
589.565	10070.07
589.925	10262.84
590.284	10196.85
590.643	10293.12
591.003	10386
591.362	10464.64
591.721	10516.84
592.08	10589.83
592.44	10565.65
592.799	10583.96
593.158	10757.51
593.517	10854.69
593.876	10900.79
594.235	10915.48
594.593	10951.86
594.952	11049.03
595.311	11115.7
595.67	11199.76
596.029	11283.38
596.387	11394.79
596.746	11370.38
597.104	11363.15
597.463	11486.31
597.822	11493.77
598.18	11584.84
598.538	11607.21
598.897	11723.82
599.255	11706.19
599.613	11876.35
599.972	11829.8
600.33	11946.18
600.688	11932.17
601.046	12044.03
601.404	12147.31
601.762	12132.17
602.12	12289.22
602.478	12218.94
602.836	12235.67
603.194	12208.55
603.552	12291.48
603.91	12270.24
604.268	12441.09
604.625	12336.23
604.983	12480.41
605.341	12363.8
605.698	12640.63
606.056	12661.64
606.413	12729.89
606.771	12621.19
607.128	12766.05
607.485	12700.97
607.843	12832.04
608.2	12791.58
608.557	12926.04
608.914	12947.51
609.272	12978.7
609.629	12970.34
609.986	13065.25
610.343	13055.31
610.7	13138.24
611.057	13120.39
611.414	13139.82
611.771	13155.64
612.127	13267.28
612.484	13233.61
612.841	13359.25
613.198	13229.09
613.554	13337.78
613.911	13338.46
614.267	13315.86
614.624	13383.66
614.98	13456.88
615.337	13549.08
615.693	13534.84
616.05	13482.87
616.406	13625.91
616.762	13642.41
617.118	13544.11
617.475	13629.53
617.831	13686.25
618.187	13711.11
618.543	13755.4
618.899	13799.47
619.255	13796.3
619.611	13754.5
619.967	13788.62
620.323	13931.22
620.678	13806.47
621.034	13886.47
621.39	13856.64
621.746	13930.99
622.101	13941.84
622.457	13868.84
622.812	13975.28
623.168	13973.93
623.523	13987.26
623.879	13978.67
624.234	13966.24
624.589	13932.35
624.945	13919.46
625.3	14037.2
625.655	14006.47
626.01	14037.43
626.365	14050.53
626.72	13980.03
627.075	14048.73
627.43	14013.7
627.785	14009.18
628.14	14053.25
628.495	14011.89
628.85	14090.76
629.205	14007.37
629.559	14074.49
629.914	14031.1
630.269	14047.14
630.623	13929.18
630.978	13931.89
631.332	13981.61
631.687	14001.27
632.041	13974.38
632.396	13971.44
632.75	13959.01
633.104	13933.7
633.459	13996.07
633.813	13910.65
634.167	13905.45
634.521	13940.25
634.875	13930.54
635.229	13901.39
635.583	13925.79
635.937	13887.15
636.291	13816.19
636.645	13887.83
636.999	13840.82
637.352	13879.69
637.706	13706.81
638.06	13849.64
638.413	13773.93
638.767	13683.99
639.121	13763.76
639.474	13708.85
639.828	13704.1
640.181	13748.17
640.534	13675.86
640.888	13648.51
641.241	13610.77
641.594	13637.66
641.947	13654.61
642.301	13652.8
642.654	13722.18
643.007	13663.43
643.36	13643.99
643.713	13620.49
644.066	13690.77
644.419	13590.66
644.771	13472.02
645.124	13345.47
645.477	13361.74
645.83	13243.32
646.182	13291.46
646.535	13251.91
646.888	13220.5
647.24	13158.13
647.593	13210.33
647.945	13222.99
648.298	13186.15
648.65	13098.92
649.002	13134.63
649.355	13259.59
649.707	13244.68
650.059	13264.79
650.411	13406.26
650.763	13424.56
651.115	13565.12
651.467	13562.64
651.819	13514.05
652.171	13538.68
652.523	13500.94
652.875	13461.4
653.227	13469.76
653.578	13562.19
653.93	13534.39
654.282	13503.43
654.633	13439.03
654.985	13485.8
655.337	13456.43
655.688	13544.33
656.039	13567.61
656.391	13439.93
656.742	13442.19
657.094	13436.31
657.445	13501.4
657.796	13432.47
658.147	13461.17
658.498	13520.6
658.849	13608.51
659.2	13499.81
659.551	13499.81
659.902	13549.76
660.253	13500.94
660.604	13543.43
660.955	13509.08
661.306	13535.29
661.656	13528.97
662.007	13552.02
662.358	13598.57
662.708	13522.19
663.059	13604.22
663.409	13540.49
663.76	13618.68
664.11	13677.66
664.461	13596.08
664.811	13608.51
665.161	13637.21
665.511	13626.59
665.862	13573.48
666.212	13631.11
666.562	13663.2
666.912	13612.13
667.262	13477.22
667.612	13622.75
667.962	13543.43
668.312	13630.21
668.662	13680.6
669.011	13674.27
669.361	13596.54
669.711	13621.39
670.06	13608.74
670.41	13503.43
670.76	13527.16
671.109	13620.26
671.459	13602.64
671.808	13547.95
672.157	13564.9
672.507	13503.66
672.856	13486.48
673.205	13507.72
673.554	13479.7
673.904	13462.98
674.253	13652.58
674.602	13507.72
674.951	13302.98
675.3	13205.81
675.649	13438.8
675.998	13425.92
676.346	13427.95
676.695	13540.72
677.044	13416.43
677.393	13395.86
677.741	13432.92
678.09	13424.79
678.438	13291.68
678.787	13439.03
679.135	13423.66
679.484	13305.47
679.832	13270.44
680.181	13215.53
680.529	13252.14
680.877	13246.94
681.225	13239.48
681.573	13297.33
681.922	13111.35
682.27	13185.25
682.618	13092.59
682.966	13141.18
683.314	13161.97
683.661	13101.63
684.009	13052.14
684.357	12986.61
684.705	12984.57
685.053	13028.41
685.4	12943.22
685.748	12925.59
686.095	12861.87
686.443	12839.72
686.79	12839.72
687.138	12806.27
687.485	12835.88
687.832	12822.09
688.18	12748.2
688.527	12683.56
688.874	12674.98
689.221	12608.09
689.568	12661.87
689.915	12595.88
690.262	12554.75
690.609	12507.75
690.956	12483.12
691.303	12463.46
691.65	12332.84
691.997	12418.71
692.344	12244.25
692.69	12234.54
693.037	12218.04
693.383	12117.93
693.73	12200.19
694.077	12067.99
694.423	12068.89
694.769	12049.91
695.116	11883.81
695.462	11965.39
695.808	11881.1
696.155	11969.01
696.501	11799.29
696.847	11856.02
697.193	11716.81
697.539	11727.66
697.885	11628.68
698.231	11645.85
698.577	11562.01
698.923	11636.36
699.269	11535.12
699.614	11434.11
699.96	11433.43
700.306	11433.2
700.651	11421.68
700.997	11320.66
701.342	11298.74
701.688	11262.59
702.033	11213.55
702.379	11247.9
702.724	11153.44
703.069	11163.6
703.415	11037.73
703.76	11062.59
704.105	11054
704.45	10993.44
704.795	10914.57
705.14	10911.63
705.485	10872.09
705.83	10768.13
706.175	10850.17
706.52	10813.78
706.865	10653.79
707.209	10665.54
707.554	10690.4
707.899	10714.58
708.243	10629.16
708.588	10532.43
708.932	10559.55
709.277	10553.9
709.621	10528.14
709.966	10436.62
710.31	10466.9
710.654	10423.51
710.998	10456.73
711.342	10400.24
711.687	10390.97
712.031	10220.35
712.375	10314.59
712.719	10293.12
713.063	10240.47
713.407	10218.09
713.75	10210.41
714.094	10200.01
714.438	10224.87
714.782	10134.25
715.125	10144.87
715.469	10071.88
715.812	10068.72
716.156	10077.31
716.499	10055.84
716.843	10036.63
717.186	9949.85
717.53	10053.58
717.873	10074.14
718.216	9970.64
718.559	9916.86
718.902	9934.03
719.246	9949.17
719.589	9847.48
719.932	9842.28
720.275	9810.65
720.617	9840.48
720.96	9836.41
721.303	9838.44
721.646	9860.81
721.989	9744.89
722.331	9799.35
722.674	9815.39
723.016	9783.53
723.359	9743.98
723.701	9840.48
724.044	9667.37
724.386	9653.14
724.729	9680.71
725.071	9754.83
725.413	9755.28
725.755	9669.41
726.097	9679.58
726.439	9655.85
726.782	9630.31
727.124	9676.86
727.465	9636.41
727.807	9675.96
728.149	9586.92
728.491	9583.53
728.833	9624.89
729.175	9562.74
729.516	9588.73
729.858	9589.18
730.199	9582.86
730.541	9573.82
730.882	9557.09
731.224	9668.73
731.565	9527.94
731.906	9575.4
732.248	9553.48
732.589	9566.13
732.93	9550.09
733.271	9566.36
733.612	9534.04
733.953	9625.11
734.294	9565.23
734.635	9414.95
734.976	9523.42
735.317	9527.49
735.658	9546.02
735.999	9563.19
736.339	9522.97
736.68	9611.78
737.021	9548.51
737.361	9559.13
737.702	9590.54
738.042	9575.4
738.383	9602.06
738.723	9653.14
739.063	9549.86
739.404	9661.95
739.744	9583.08
740.084	9590.09
740.424	9607.94
740.764	9628.05
741.104	9696.52
741.444	9649.97
741.784	9639.35
742.124	9703.53
742.464	9654.49
742.804	9722.51
743.143	9787.37
743.483	9793.7
743.823	9718.22
744.162	9767.26
744.502	9819.23
744.841	9833.02
745.181	9904.43
745.52	9902.85
745.86	9993.92
746.199	9992.34
746.538	9990.53
746.877	10108.49
747.216	10106.01
747.556	10103.75
747.895	10274.36
748.234	10228.26
748.573	10286.57
748.911	10340.12
749.25	10461.25
749.589	10464.64
749.928	10531.31
750.267	10597.29
750.605	10750.73
750.944	10739.66
751.283	10754.35
751.621	10823.05
751.96	10957.73
752.298	11022.14
752.636	11175.58
752.975	11205.19
753.313	11318.63
753.651	11401.11
753.989	11518.85
754.327	11632.52
754.666	11709.81
755.004	11829.12
755.342	11970.82
755.679	12118.38
756.017	12217.36
756.355	12337.13
756.693	12339.85
757.031	12629.78
757.368	12754.52
757.706	12906.38
758.044	12939.83
758.381	13127.85
758.719	13231.12
759.056	13388.63
759.394	13537.55
759.731	13607.16
760.068	13769.19
760.405	13868.84
760.743	13995.17
761.08	14204.43
761.417	14271.32
761.754	14414.37
762.091	14612.1
762.428	14734.36
762.765	14758.31
763.102	15035.14
763.438	15114.24
763.775	15148.81
764.112	15404.85
764.449	15594.45
764.785	15698.4
765.122	15720.55
765.458	15928.23
765.795	16040.76
766.131	16108.33
766.467	16345.39
766.804	16337.93
767.14	16393.75
767.476	16589.45
767.812	16750.35
768.148	16760.52
768.485	16883.68
768.821	16900.63
769.157	17044.81
769.492	17185.59
769.828	17254.52
770.164	17177.46
770.5	17334.74
770.836	17439.37
771.171	17437.34
771.507	17571.57
771.842	17576.77
772.178	17594.17
772.513	17668.97
772.849	17787.39
773.184	17818.57
773.519	17912.81
773.855	17912.35
774.19	17923.43
774.525	17922.52
774.86	17978.79
775.195	18014.72
775.53	18040.94
775.865	18061.95
776.2	18054.05
776.535	17995.97
776.87	18088.17
777.205	18096.76
777.539	18112.8
777.874	18231.89
778.209	18181.73
778.543	18068.28
778.878	18023.09
779.212	18111.67
779.547	18136.98
779.881	18206.36
780.215	18181.73
780.55	18333.36
780.884	18172.01
781.218	18200.93
781.552	18104.44
781.886	18113.7
782.22	18027.15
782.554	18054.27
782.888	17946.7
783.222	17919.13
783.556	17933.14
783.889	17912.58
784.223	17854.95
784.557	17848.4
784.89	17927.95
785.224	17942.64
785.557	17817.44
785.891	17860.15
786.224	17767.27
786.558	17729.31
786.891	17703.09
787.224	17687.95
787.557	17557.56
787.891	17606.15
788.224	17597.33
788.557	17631.01
788.89	17505.36
789.223	17579.26
789.556	17536.54
789.888	17382.2
790.221	17377.9
790.554	17231.24
790.887	17331.13
791.219	17305.59
791.552	17203.22
791.884	17131.13
792.217	17235.31
792.549	17177.46
792.882	17011.81
793.214	16985.37
793.546	16991.25
793.879	16893.62
794.211	16838.26
794.543	16915.54
794.875	16893.17
795.207	16879.84
795.539	16714.42
795.871	16714.87
796.203	16650.92
796.535	16562.78
796.867	16620.18
797.198	16532.28
797.53	16528.21
797.862	16444.14
798.193	16506.29
798.525	16391.49
798.856	16426.74
799.188	16276.46
799.519	16270.14
799.85	16110.82
800.182	16173.19
800.513	16172.29
800.844	16033.08
801.175	16224.94
801.506	16113.31
801.837	15972.74
802.168	15934.1
802.499	15936.36
802.83	15832.86
803.161	15825.4
803.491	15857.04
803.822	15784.73
804.153	15711.51
804.483	15645.52
804.814	15586.77
805.145	15582.7
805.475	15629.7
805.805	15532.98
806.136	15564.17
806.466	15430.39
806.796	15427.22
807.126	15379.99
807.457	15308.35
807.787	15397.84
808.117	15205.53
808.447	15210.28
808.777	15256.83
809.107	15152.43
809.436	15093.22
809.766	15093.22
810.096	15027.68
810.426	15003.73
810.755	15003.28
811.085	14927.8
811.414	14931.19
811.744	14900
812.073	14848.93
812.403	14875.15
812.732	14735.94
813.061	14767.58
813.39	14737.3
813.719	14601.25
814.049	14757.63
814.378	14724.42
814.707	14530.3
815.036	14533.01
815.365	14451.2
815.693	14414.14
816.022	14475.61
816.351	14428.38
816.68	14365.33
817.008	14388.38
817.337	14253.69
817.665	14283.97
817.994	14291.21
818.322	14236.07
818.651	14203.75
818.979	14145.9
819.307	14251.21
819.636	14170.08
819.964	14033.59
820.292	14184.54
820.62	14072
820.948	14058.44
821.276	14199.91
821.604	14056.41
821.932	14065.22
822.259	14058.44
822.587	14121.49
822.915	14040.37
823.243	14077.43
823.57	14059.12
823.898	14155.62
824.225	13950.42
824.553	13937.09
824.88	14076.97
825.207	14032.23
825.535	14029.52
825.862	14052.34
826.189	14042.4
826.516	14093.02
826.843	14111.1
827.17	14085.79
827.497	14191.1
827.824	14164.2
828.151	14089.63
828.478	14136.18
828.805	14129.63
829.131	14005.11
829.458	14047.6
829.785	13993.36
830.111	13998.33
830.438	14016.41
830.764	14078.33
831.09	14030.42
831.417	13962.18
831.743	13992.46
832.069	13993.36
832.395	13941.84
832.722	14013.47
833.048	13932.12
833.374	13941.16
833.7	13834.49
834.026	13893.02
834.351	13909.75
834.677	13939.13
835.003	14060.03
835.329	13924.44
835.654	13932.57
835.98	13794.27
836.306	13827.94
836.631	13748.4
836.956	13871.1
837.282	13896.19
837.607	13834.72
837.932	13733.48
838.258	13768.28
838.583	13711.33
838.908	13627.72
839.233	13692.35
839.558	13590.66
839.883	13641.96
840.208	13524.9
840.533	13583.2
840.858	13639.47
841.182	13571
841.507	13560.15
841.832	13453.49
842.156	13406.48
842.481	13401.96
842.805	13354.06
843.13	13337.11
843.454	13383.43
843.778	13232.48
844.103	13292.81
844.427	13218.69
844.751	13161.74
845.075	13180.5
845.399	13089.88
845.723	13097.11
846.047	13024.35
846.371	12997.23
846.695	13013.95
847.019	12808.53
847.343	12769.21
847.666	12703.23
847.99	12752.94
848.313	12727.41
848.637	12635.66
848.96	12561.31
849.284	12537.13
849.607	12464.81
849.931	12466.17
850.254	12370.13
850.577	12352.73
850.9	12192.73
851.223	12216.68
851.546	12157.25
851.869	12130.13
852.192	12147.31
852.515	11968.56
852.838	12001.1
853.161	11961.55
853.483	11864.6
853.806	11955
854.129	11817.82
854.451	11820.54
854.774	11791.16
855.096	11742.12
855.419	11696.7
855.741	11637.94
856.063	11667.55
856.385	11617.83
856.708	11476.82
857.03	11543.93
857.352	11473.88
857.674	11443.37
857.996	11371.51
858.318	11374.45
858.64	11338.29
858.961	11320.66
859.283	11312.08
859.605	11210.38
859.926	11222.13
860.248	11171.29
860.57	11216.94
860.891	11176.71
861.212	11082.25
861.534	11025.08
861.855	11040.9
862.176	11055.81
862.498	11028.47
862.819	11090.84
863.14	10999.99
863.461	10905.76
863.782	10985.3
864.103	10941.92
864.424	10915.25
864.745	10915.48
865.065	10840.22
865.386	10783.5
865.707	10761.13
866.027	10879.09
866.348	10742.37
866.668	10848.13
866.989	10776.72
867.309	10737.18
867.63	10691.53
867.95	10705.09
868.27	10634.35
868.59	10630.96
868.91	10597.07
869.23	10599.33
869.55	10546.9
869.87	10613.79
870.19	10621.47
870.51	10522.94
870.83	10513
871.15	10471.87
871.469	10518.65
871.789	10502.61
872.109	10463.96
872.428	10460.57
872.748	10499.44
873.067	10392.1
873.386	10349.61
873.706	10342.61
874.025	10299.67
874.344	10354.81
874.663	10307.36
874.982	10347.58
875.301	10254.48
875.62	10194.14
875.939	10300.8
876.258	10299.67
876.577	10218.54
876.896	10264.65
877.214	10129.96
877.533	10156.63
877.852	10148.49
878.17	10180.13
878.489	10141.48
878.807	10112.33
879.125	10076.85
879.444	10098.55
879.762	10036.85
880.08	10044.54
880.398	10001.38
880.716	10010.64
881.034	9968.38
881.352	9961.6
881.67	9943.75
881.988	9899.91
882.306	9866.46
882.624	9879.8
882.941	9803.87
883.259	9781.95
883.577	9753.47
883.894	9803.64
884.212	9746.01
884.529	9736.75
884.846	9693.81
885.164	9685.23
885.481	9604.1
885.798	9635.51
886.115	9543.08
886.432	9583.53
886.75	9549.64
887.067	9529.07
887.383	9498.56
887.7	9526.59
888.017	9453.14
888.334	9465.57
888.651	9461.5
888.967	9415.63
889.284	9351.45
889.6	9375.4
889.917	9331.56
890.233	9340.38
890.55	9222.64
890.866	9303.09
891.182	9205.92
891.498	9214.28
891.815	9196.65
892.131	9179.25
892.447	9085.24
892.763	9055.64
893.079	9084.34
893.395	9025.58
893.71	8981.52
894.026	8965.7
894.342	8975.64
894.657	8889.77
894.973	8838.69
895.289	8813.84
895.604	8850.9
895.92	8840.05
896.235	8786.04
896.55	8766.15
896.865	8699.04
897.181	8752.14
897.496	8737.91
897.811	8597.8
898.126	8606.61
898.441	8589.44
898.756	8518.02
899.071	8557.57
899.386	8541.07
899.7	8421.53
900.015	8404.36
900.33	8344.24
900.644	8328.43
900.959	8307.86
901.273	8298.82
901.588	8210.01
901.902	8225.83
902.216	8157.58
902.531	8167.53
902.845	8083.46
903.159	8084.59
903.473	8018.6
903.787	8057.7
904.101	7960.07
904.415	7980.19
904.729	7993.52
905.042	7847.08
905.356	7910.58
905.67	7817.03
905.984	7836.01
906.297	7815.44
906.611	7776.8
906.924	7752.17
907.237	7726.18
907.551	7748.1
907.864	7718.5
908.177	7693.19
908.491	7630.14
908.804	7566.19
909.117	7577.94
909.43	7461.56
909.743	7501.33
910.056	7450.48
910.368	7377.72
910.681	7357.6
910.994	7289.13
911.307	7218.85
911.619	7277.61
911.932	7174.11
912.244	7206.65
912.557	7219.98
912.869	7161.22
913.181	7136.82
913.494	7142.92
913.806	7080.77
914.118	7017.05
914.43	6967.33
914.742	7028.35
915.054	6981.12
915.366	6958.07
915.678	6901.57
915.99	6835.13
916.302	6868.58
916.613	6797.84
916.925	6739.31
917.236	6739.54
917.548	6732.08
917.859	6724.85
918.171	6659.99
918.482	6625.87
918.794	6586.78
919.105	6684.63
919.416	6566.44
919.727	6602.14
920.038	6525.31
920.349	6486.89
920.66	6504.74
920.971	6431.98
921.282	6432.2
921.593	6356.05
921.903	6329.61
922.214	6244.19
922.525	6285.31
922.835	6230.4
923.146	6248.93
923.456	6214.81
923.767	6163.96
924.077	6236.05
924.387	6134.81
924.697	6119.67
925.008	6138.2
925.318	6114.7
925.628	6042.16
925.938	6035.38
926.248	6001.48
926.558	5936.17
926.867	5949.05
927.177	5884.65
927.487	5907.02
927.796	5861.37
928.106	5801.49
928.416	5822.73
928.725	5848.26
929.034	5770.75
929.344	5794.93
929.653	5784.09
929.962	5701.38
930.271	5677.65
930.581	5595.84
930.89	5665.67
931.199	5574.15
931.508	5607.14
931.817	5551.32
932.125	5584.77
932.434	5554.94
932.743	5485.34
933.051	5422.06
933.36	5427.48
933.669	5382.06
933.977	5407.15
934.286	5358.79
934.594	5363.08
934.902	5316.98
935.21	5296.41
935.519	5301.61
935.827	5269.07
936.135	5283.31
936.443	5200.37
936.751	5196.98
937.059	5197.43
937.367	5148.62
937.674	5161.95
937.982	5116.76
938.29	5116.76
938.597	5065.69
938.905	5060.49
939.213	5043.77
939.52	5008.29
939.827	4996.08
940.135	4962.64
940.442	4955.63
940.749	4921.06
941.056	4942.3
941.363	4887.61
941.67	4880.15
941.977	4834.73
942.284	4793.15
942.591	4783.21
942.898	4766.48
943.205	4808.07
943.511	4745.92
943.818	4721.29
944.125	4682.19
944.431	4710.22
944.738	4689.42
945.044	4606.72
945.35	4641.29
945.657	4614.4
945.963	4568.3
946.269	4553.16
946.575	4566.49
946.881	4546.15
947.187	4495.08
947.493	4507.51
947.799	4489.43
948.105	4437.68
948.41	4422.31
948.716	4420.73
949.022	4392.71
949.327	4409.21
949.633	4343.9
949.938	4307.74
950.244	4319.72
950.549	4307.74
950.854	4297.12
951.16	4268.87
951.465	4245.14
951.77	4219.15
952.075	4176.9
952.38	4219.15
952.685	4217.35
952.99	4155.88
953.294	4130.57
953.599	4103
953.904	4131.25
954.209	4067.97
954.513	4097.8
954.818	4012.61
955.122	3979.39
955.426	4008.99
955.731	3963.12
956.035	3952.95
956.339	3973.29
956.643	3926.28
956.948	3948.43
957.252	3848.99
957.556	3896.68
957.86	3897.13
958.163	3841.54
958.467	3801.31
958.771	3824.81
959.075	3813.97
959.378	3759.96
959.682	3799.05
959.985	3788.88
960.289	3779.84
960.592	3742.1
960.896	3700.98
961.199	3694.2
961.502	3681.09
961.805	3671.82
962.108	3636.35
962.411	3667.08
962.714	3582.11
963.017	3637.47
963.32	3589.79
963.623	3588.21
963.926	3563.8
964.228	3541.43
964.531	3539.62
964.833	3525.61
965.136	3509.57
965.438	3491.94
965.741	3439.97
966.043	3429.34
966.345	3424.6
966.648	3378.27
966.95	3401.1
967.252	3383.47
967.554	3344.83
967.856	3364.26
968.158	3339.18
968.46	3367.43
968.761	3300.31
969.063	3314.32
969.365	3302.79
969.666	3296.47
969.968	3276.81
970.269	3265.73
970.571	3218.05
970.872	3193.64
971.174	3202.01
971.475	3180.76
971.776	3202.46
972.077	3140.09
972.378	3183.02
972.679	3139.18
972.98	3119.07
973.281	3095.34
973.582	3122.46
973.883	3096.02
974.183	3050.37
974.484	3049.69
974.785	3045.85
975.085	3009.24
975.386	3003.59
975.686	2994.33
975.986	2994.33
976.287	2995.91
976.587	2959.07
976.887	2971.28
977.187	2930.37
977.487	2928.79
977.787	2938.74
978.087	2890.15
978.387	2894.22
978.687	2891.28
978.987	2825.29
979.286	2831.17
979.586	2839.98
979.885	2826.65
980.185	2782.81
980.484	2787.78
980.784	2759.98
981.083	2713.66
981.382	2739.87
981.682	2753.88
981.981	2752.07
982.28	2741.68
982.579	2678.86
982.878	2706.43
983.177	2708.69
983.475	2715.92
983.774	2653.09
984.073	2625.98
984.372	2602.02
984.67	2621
984.969	2604.06
985.267	2590.72
985.566	2613.55
985.864	2578.75
986.162	2579.65
986.461	2547.33
986.759	2567.67
987.057	2515.92
987.355	2523.15
987.653	2511.63
987.951	2476.83
988.249	2468.47
988.547	2464.17
988.844	2489.03
989.142	2428.47
989.44	2421.69
989.737	2437.05
990.035	2408.58
990.332	2381.01
990.63	2385.98
990.927	2396.38
991.224	2339.43
991.521	2404.29
991.819	2362.48
992.116	2346.44
992.413	2344.85
992.71	2292.65
993.006	2294.46
993.303	2305.31
993.6	2316.83
993.897	2275.02
994.193	2288.36
994.49	2243.84
994.787	2235.03
995.083	2182.15
995.379	2217.4
995.676	2246.1
995.972	2164.07
996.268	2170.85
996.565	2177.17
996.861	2145.99
997.157	2141.02
997.453	2143.73
997.749	2140.11
998.044	2127.68
998.34	2117.51
998.636	2118.19
998.932	2073.9
999.227	2080.68
999.523	2049.27
999.818	2052.66
1000.114	2050.4
1000.409	2049.27
1000.704	2026.44
1001	2021.02
1001.295	2009.72
1001.59	1985.54
1001.885	1952.32
1002.18	1970.4
1002.475	1902.83
1002.77	1937.63
1003.065	1931.98
1003.359	1957.52
1003.654	1916.84
1003.949	1899.22
1004.243	1894.24
1004.538	1877.75
1004.832	1860.35
1005.127	1893.57
1005.421	1839.56
1005.715	1840.69
1006.009	1850.63
1006.304	1829.61
1006.598	1796.17
1006.892	1781.7
1007.186	1783.96
1007.48	1793
1007.773	1781.93
1008.067	1754.36
1008.361	1763.63
1008.655	1737.41
1008.948	1750.97
1009.242	1699.22
1009.535	1715.72
1009.829	1699.45
1010.122	1680.92
1010.415	1680.24
1010.708	1703.51
1011.001	1649.5
1011.295	1641.6
1011.588	1650.86
1011.881	1629.62
1012.173	1649.5
1012.466	1614.93
1012.759	1603.18
1013.052	1611.09
1013.344	1601.14
1013.637	1589.62
1013.93	1593.69
1014.222	1554.14
1014.514	1555.95
1014.807	1540.35
1015.099	1541.03
1015.391	1522.05
1015.683	1500.36
1015.976	1532.67
1016.268	1495.16
1016.56	1479.11
1016.851	1481.83
1017.143	1460.81
1017.435	1447.02
1017.727	1449.28
1018.018	1428.04
1018.31	1403.41
1018.602	1417.19
1018.893	1434.37
1019.185	1440.7
1019.476	1399.79
1019.767	1407.25
1020.058	1382.17
1020.35	1375.16
1020.641	1370.42
1020.932	1357.99
1021.223	1323.41
1021.514	1345.11
1021.804	1323.41
1022.095	1301.49
1022.386	1294.26
1022.677	1293.36
1022.967	1294.03
1023.258	1284.32
1023.548	1291.77
1023.839	1277.31
1024.129	1271.44
1024.419	1263.98
1024.709	1217.43
1025	1217.65
1025.29	1231.21
1025.58	1212.91
1025.87	1219.69
1026.16	1197.31
1026.449	1189.86
1026.739	1181.27
1027.029	1175.39
1027.319	1192.57
1027.608	1158.67
1027.898	1161.61
1028.187	1150.99
1028.477	1146.02
1028.766	1152.34
1029.055	1137.88
1029.344	1134.72
1029.634	1102.85
1029.923	1098.11
1030.212	1084.32
1030.501	1103.53
1030.79	1084.1
1031.078	1107.6
1031.367	1063.53
1031.656	1068.28
1031.945	1077.99
1032.233	1081.84
1032.522	1034.61
1032.81	1054.94
1033.099	1034.61
1033.387	1050.65
1033.675	1035.06
1033.963	1026.47
1034.251	1026.7
1034.54	998.9
1034.828	980.37
1035.116	1007.26
1035.403	992.57
1035.691	963.65
1035.979	955.74
1036.267	960.94
1036.554	968.39
1036.842	957.09
1037.129	969.97
1037.417	939.01
1037.704	953.93
1037.992	934.72
1038.279	897.43
1038.566	907.38
1038.853	907.38
1039.14	907.38
