Data from hue_310_FLMS001491_53.txt Node
Date: Mon Feb 06 15:49:52 GMT 2017
User: dcchb
Spectrometer: FLMS00149
Trigger mode: 0
Integration Time (sec): 2.000000E-2
Scans to average: 10
Electric dark correction enabled: true
Nonlinearity correction enabled: false
Boxcar width: 0
XAxis mode: Wavelengths
Number of Pixels in Spectrum: 2048
>>>>>Begin Spectral Data<<<<<
341.393	-18.3
341.776	-18.3
342.16	-18.3
342.543	-47.46
342.927	-83.84
343.31	-75.25
343.693	-71.41
344.077	-68.92
344.46	-63.5
344.843	-57.85
345.226	-44.29
345.61	-16.95
345.993	-26.21
346.376	-0.68
346.759	18.98
347.142	24.18
347.525	50.39
347.908	72.99
348.291	68.25
348.674	77.74
349.057	112.54
349.44	118.87
349.823	147.11
350.206	171.52
350.588	204.29
350.971	228.02
351.354	208.81
351.737	217.62
352.119	244.51
352.502	247.23
352.884	270.28
353.267	294.68
353.65	289.94
354.032	306.88
354.414	301.46
354.797	326.09
355.179	324.29
355.562	331.06
355.944	337.62
356.326	345.53
356.709	334.23
357.091	343.72
357.473	340.1
357.855	342.14
358.238	335.58
358.62	338.75
359.002	313.66
359.384	337.62
359.766	343.72
360.148	329.71
360.53	350.5
360.912	329.93
361.294	329.71
361.676	315.02
362.057	324.74
362.439	330.39
362.821	323.16
363.203	320.9
363.584	316.6
363.966	331.97
364.348	321.12
364.729	312.76
365.111	301.01
365.493	331.52
365.874	323.61
366.256	327
366.637	319.09
367.019	324.96
367.4	311.86
367.781	325.19
368.163	301.01
368.544	321.12
368.925	299.43
369.306	308.92
369.688	320.9
370.069	297.17
370.45	335.58
370.831	308.01
371.212	307.79
371.593	321.12
371.974	297.62
372.355	336.49
372.736	313.89
373.117	322.93
373.498	308.47
373.879	322.25
374.26	318.18
374.641	320.67
375.021	306.66
375.402	318.64
375.783	330.61
376.163	314.79
376.544	315.47
376.925	332.87
377.305	336.71
377.686	328.35
378.066	322.93
378.447	319.99
378.827	340.78
379.208	312.53
379.588	344.17
379.968	346.66
380.349	342.59
380.729	331.06
381.109	351.63
381.489	345.75
381.87	306.88
382.25	330.16
382.63	336.04
383.01	351.63
383.39	330.61
383.77	353.44
384.15	336.71
384.53	362.02
384.91	352.53
385.29	348.01
385.67	374.91
386.049	350.05
386.429	368.8
386.809	355.24
387.189	350.5
387.568	367.9
387.948	364.51
388.328	369.71
388.707	359.54
389.087	365.64
389.466	356.15
389.846	376.04
390.225	379.88
390.605	376.71
390.984	348.24
391.363	352.53
391.743	354.79
392.122	369.93
392.501	389.14
392.881	378.97
393.26	375.13
393.639	391.4
394.018	391.18
394.397	388.46
394.776	389.14
395.155	406.54
395.534	394.11
395.913	395.47
396.292	395.7
396.671	386.2
397.05	404.28
397.429	404.28
397.808	377.84
398.186	398.41
398.565	412.87
398.944	392.08
399.323	405.64
399.701	402.02
400.08	406.54
400.458	417.16
400.837	406.32
401.215	416.49
401.594	437.73
401.972	420.33
402.351	446.09
402.729	416.94
403.107	443.83
403.486	408.12
403.864	416.94
404.242	456.03
404.62	444.28
404.999	439.08
405.377	440.44
405.755	442.47
406.133	465.3
406.511	446.09
406.889	442.93
407.267	458.07
407.645	477.73
408.023	476.82
408.401	483.15
408.779	469.37
409.156	497.84
409.534	515.24
409.912	511.85
410.29	527.44
410.667	530.38
411.045	525.64
411.422	533.77
411.8	536.03
412.178	548.69
412.555	550.95
412.933	573.54
413.31	572.19
413.687	562.02
414.065	601.57
414.442	579.42
414.819	588.69
415.197	602.02
415.574	602.47
415.951	604.73
416.328	597.5
416.705	607.67
417.082	656.48
417.46	645.18
417.837	656.25
418.214	683.37
418.591	672.3
418.967	687.67
419.344	674.11
419.721	711.39
420.098	698.06
420.475	720.43
420.852	708.68
421.228	727.66
421.605	717.72
421.982	750.94
422.358	747.1
422.735	755.69
423.111	774.67
423.488	782.8
423.864	802.24
424.241	801.56
424.617	804.5
424.994	817.38
425.37	823.26
425.746	826.42
426.123	832.29
426.499	851.28
426.875	856.93
427.251	880.2
427.627	901.9
428.003	923.59
428.379	858.28
428.756	906.87
429.132	905.74
429.507	957.49
429.883	932.86
430.259	952.07
430.635	955.91
431.011	954.55
431.387	962.01
431.763	990.71
432.138	1005.62
432.514	1013.98
432.89	1018.28
433.265	1067.77
433.641	1082.46
434.016	1064.15
434.392	1084.27
434.767	1089.69
435.143	1109.35
435.518	1123.59
435.894	1132.17
436.269	1141.89
436.644	1151.83
437.02	1179.63
437.395	1164.94
437.77	1186.18
438.145	1183.02
438.52	1195.22
438.895	1220.98
439.271	1214.43
439.646	1246.07
440.021	1245.16
440.395	1238.84
440.77	1235.22
441.145	1265.96
441.52	1274.77
441.895	1280.64
442.27	1275.22
442.645	1267.09
443.019	1286.29
443.394	1302.56
443.769	1305.73
444.143	1319.74
444.518	1347.76
444.892	1314.54
445.267	1320.19
445.641	1336.91
446.016	1327.42
446.39	1319.06
446.764	1362.68
447.139	1354.54
447.513	1398.61
447.887	1398.16
448.262	1395.44
448.636	1373.98
449.01	1395.67
449.384	1397.03
449.758	1401.32
450.132	1433.86
450.506	1433.41
450.88	1433.18
451.254	1466.85
451.628	1451.49
452.002	1440.64
452.376	1431.83
452.75	1458.04
453.123	1484.48
453.497	1470.24
453.871	1469.79
454.244	1499.85
454.618	1506.63
454.992	1538.49
455.365	1525.84
455.739	1543.01
456.112	1564.03
456.486	1576.23
456.859	1593.86
457.232	1573.07
457.606	1595.21
457.979	1622.78
458.352	1628.66
458.725	1677.92
459.099	1646.28
459.472	1653.29
459.845	1663.69
460.218	1705.04
460.591	1711.82
460.964	1702.33
461.337	1745.94
461.71	1723.8
462.083	1784.36
462.456	1753.17
462.829	1783.23
463.201	1817.81
463.574	1797.24
463.947	1827.52
464.32	1859.61
464.692	1866.39
465.065	1858.26
465.438	1894.64
465.81	1895.54
466.183	1914.07
466.555	1965.15
466.928	1949.33
467.3	1958.82
467.672	1947.29
468.045	2005.15
468.417	1979.61
468.789	2029.1
469.161	2025.94
469.534	2057.57
469.906	2112.26
470.278	2082.43
470.65	2105.71
471.022	2138.93
471.394	2150.45
471.766	2164.24
472.138	2182.99
472.51	2273.16
472.882	2273.84
473.253	2277
473.625	2293.5
473.997	2336.44
474.369	2312.48
474.74	2331.24
475.112	2391.8
475.484	2443.78
475.855	2424.57
476.227	2447.62
476.598	2498.92
476.97	2511.57
477.341	2540.5
477.713	2579.14
478.084	2572.14
478.455	2620.95
478.827	2624.79
479.198	2693.26
479.569	2705.69
479.94	2723.77
480.311	2757.22
480.682	2777.55
481.053	2840.38
481.424	2870.43
481.795	2934.16
482.166	2932.58
482.537	2994.95
482.908	3002.63
483.279	3019.36
483.65	3054.16
484.021	3143.19
484.391	3099.81
484.762	3129.41
485.133	3215.51
485.503	3206.02
485.874	3242.17
486.244	3280.82
486.615	3332.34
486.985	3345.45
487.356	3385.22
487.726	3413.92
488.097	3465.22
488.467	3471.77
488.837	3504.54
489.207	3544.31
489.578	3571.21
489.948	3594.26
490.318	3650.98
490.688	3624.09
491.058	3660.69
491.428	3719.68
491.798	3770.75
492.168	3831.31
492.538	3833.57
492.908	3845.55
493.278	3882.38
493.648	3908.15
494.017	3905.66
494.387	3936.85
494.757	3972.1
495.126	4034.47
495.496	4014.36
495.866	4016.84
496.235	4066.33
496.605	4135.26
496.974	4097.29
497.344	4143.62
497.713	4122.83
498.082	4137.97
498.452	4190.17
498.821	4205.99
499.19	4237.63
499.559	4281.02
499.928	4250.51
500.298	4304.29
500.667	4301.36
501.036	4341.81
501.405	4322.6
501.774	4340.22
502.143	4396.72
502.512	4428.58
502.88	4409.6
503.249	4435.59
503.618	4440.34
503.987	4481.24
504.356	4461.13
504.724	4485.98
505.093	4505.19
505.462	4489.83
505.83	4526.66
506.199	4604.62
506.567	4621.8
506.936	4604.17
507.304	4611.18
507.672	4670.61
508.041	4646.88
508.409	4691.18
508.777	4736.6
509.145	4737.95
509.514	4776.6
509.882	4783.15
510.25	4710.61
510.618	4791.06
510.986	4725.53
511.354	4841.45
511.722	4871.74
512.09	4872.41
512.458	4837.61
512.826	4888.91
513.193	4916.48
513.561	4885.52
513.929	4920.1
514.297	4936.37
514.664	4978.85
515.032	4968.68
515.4	5012.07
515.767	5043.48
516.135	5002.13
516.502	5015.91
516.869	5037.61
517.237	5098.85
517.604	5113.09
517.972	5101.33
518.339	5079.41
518.706	5131.16
519.073	5144.95
519.44	5180.2
519.808	5205.51
520.175	5181.78
520.542	5222.69
520.909	5227.89
521.276	5233.08
521.643	5297.04
522.009	5255.46
522.376	5336.36
522.743	5278.73
523.11	5354.66
523.477	5443.25
523.843	5412.29
524.21	5448.44
524.577	5498.84
524.943	5563.24
525.31	5545.16
525.676	5612.06
526.043	5583.58
526.409	5575.45
526.776	5626.07
527.142	5598.72
527.508	5686.18
527.874	5681.88
528.241	5711.26
528.607	5711.04
528.973	5746.52
529.339	5742.9
529.705	5809.34
530.071	5833.52
530.437	5908.32
530.803	5874.42
531.169	5938.15
531.535	5949
531.901	5962.1
532.267	5963.91
532.632	6015.21
532.998	6097.01
533.364	6118.26
533.73	6104.92
534.095	6159.84
534.461	6179.72
534.826	6205.03
535.192	6216.11
535.557	6241.64
535.923	6301.08
536.288	6287.29
536.653	6341.08
537.019	6312.15
537.384	6360.06
537.749	6365.71
538.114	6400.06
538.479	6443.22
538.845	6500.17
539.21	6461.98
539.575	6520.96
539.94	6549.43
540.305	6532.71
540.67	6526.61
541.034	6584.46
541.399	6588.08
541.764	6611.58
542.129	6667.4
542.494	6704.91
542.858	6780.16
543.223	6744.91
543.587	6823.32
543.952	6818.13
544.316	6856.09
544.681	6765.02
545.045	6859.71
545.41	6959.37
545.774	6946.48
546.138	6932.47
546.503	6976.54
546.867	6972.25
547.231	7038.01
547.595	7083.66
547.959	7079.14
548.324	7143.09
548.688	7143.99
549.052	7128.63
549.416	7204.56
549.779	7148.74
550.143	7156.2
550.507	7268.28
550.871	7280.71
551.235	7336.98
551.599	7349.41
551.962	7341.28
552.326	7409.97
552.689	7419.01
553.053	7397.77
553.417	7370.43
553.78	7591.44
554.143	7446.13
554.507	7490.88
554.87	7500.82
555.234	7588.73
555.597	7540.59
555.96	7647.93
556.323	7647.48
556.686	7639.8
557.05	7723.41
557.413	7665.34
557.776	7659.69
558.139	7708.72
558.502	7721.38
558.865	7754.37
559.228	7853.35
559.59	7859.45
559.953	7822.62
560.316	7904.65
560.679	7870.98
561.041	7911.2
561.404	7917.76
561.767	7986
562.129	8011.54
562.492	8090.86
562.854	8041.6
563.217	8056.06
563.579	8099.67
563.941	8209.28
564.304	8136.28
564.666	8235.94
565.028	8273.23
565.39	8307.8
565.753	8288.6
566.115	8285.21
566.477	8374.92
566.839	8328.14
567.201	8423.73
567.563	8365.2
567.925	8398.88
568.287	8442.49
568.648	8446.11
569.01	8510.06
569.372	8648.36
569.734	8640.9
570.095	8622.15
570.457	8693.1
570.819	8693.56
571.18	8773.33
571.542	8828.02
571.903	8801.12
572.265	8856.94
572.626	8918.41
572.987	8946.88
573.349	9000.22
573.71	9029.59
574.071	9081.57
574.432	9159.76
574.794	9267.33
575.155	9293.99
575.516	9267.78
575.877	9401.11
576.238	9442.69
576.599	9596.58
576.96	9579.41
577.32	9758.61
577.681	9772.85
578.042	9845.16
578.403	9941.89
578.763	10019.85
579.124	10204.25
579.485	10265.27
579.845	10418.71
580.206	10449.44
580.566	10573.28
580.927	10698.7
581.287	10879.71
581.648	10930.79
582.008	11183.89
582.368	11314.05
582.728	11449.19
583.089	11634.95
583.449	11749.75
583.809	11996.52
584.169	12158.78
584.529	12263.86
584.889	12665.2
585.249	12713.79
585.609	12891.41
585.969	13288.69
586.329	13427.22
586.688	13594.9
587.048	13914.44
587.408	14043.25
587.768	14327.08
588.127	14576.11
588.487	14748.76
588.846	15133.39
589.206	15266.94
589.565	15493.83
589.925	15959.58
590.284	16140.14
590.643	16401.38
591.003	16806.34
591.362	16994.36
591.721	17336.95
592.08	17497.85
592.44	17889.47
592.799	18303.47
593.158	18435.22
593.517	18746.4
593.876	19121.53
594.235	19377.8
594.593	19673.38
594.952	20094.61
595.311	20365.57
595.67	20677.42
596.029	21023.63
596.387	21384.3
596.746	21677.62
597.104	21955.81
597.463	22232.41
597.822	22587.43
598.18	22963.01
598.538	23221.08
598.897	23582.43
599.255	23655.42
599.613	24325.24
599.972	24472.58
600.33	24823.53
600.688	24988.95
601.046	25367.02
601.404	25733.56
601.762	25924.74
602.12	26360.66
602.478	26647.89
602.836	26909.57
603.194	26897.15
603.552	27346.4
603.91	27386.17
604.268	27987.96
604.625	28155.19
604.983	28441.06
605.341	28667.04
605.698	28988.16
606.056	29322.84
606.413	29502.28
606.771	29878.76
607.128	30102.26
607.485	30192.2
607.843	30531.4
608.2	30698.18
608.557	31046.64
608.914	31194.21
609.272	31688.88
609.629	31972.27
609.986	32244.35
610.343	32240.51
610.7	32667.62
611.057	32792.36
611.414	33007.27
611.771	33308.28
612.127	33482.74
612.484	33767.47
612.841	33821.94
613.198	33928.37
613.554	34218.31
613.911	34504.86
614.267	34672.08
614.624	34719.31
614.98	34895.58
615.337	35295.57
615.693	35240.2
616.05	35493.53
616.406	35677.93
616.762	35741.66
617.118	36024.82
617.475	36056
617.831	36464.8
618.187	36418.7
618.543	36651.47
618.899	36858.01
619.255	36967.84
619.611	37116.09
619.967	37334.84
620.323	37444.44
620.678	37247.61
621.034	37410.54
621.39	37614.15
621.746	37727.37
622.101	38258.2
622.457	38062.5
622.812	38115.38
623.168	38316.96
623.523	38416.39
623.879	38622.26
624.234	38412.55
624.589	38707
624.945	38678.53
625.3	38911.29
625.655	38923.27
626.01	39011.18
626.365	39063.61
626.72	39179.53
627.075	39234.22
627.43	39191.74
627.785	39246.43
628.14	39396.7
628.495	39494.55
628.85	39414.33
629.205	39418.85
629.559	39685.96
629.914	39594.67
630.269	39769.35
630.623	39621.33
630.978	39662.69
631.332	39736.36
631.687	40082.79
632.041	39812.96
632.396	39977.71
632.75	39739.29
633.104	40083.69
633.459	39753.31
633.813	40005.73
634.167	39906.75
634.521	39910.36
634.875	40193.52
635.229	39993.3
635.583	39830.37
635.937	39942.23
636.291	39991.26
636.645	39955.33
636.999	39948.78
637.352	39990.13
637.706	39826.3
638.06	39948.1
638.413	39914.43
638.767	39865.39
639.121	39931.15
639.474	39829.91
639.828	39905.17
640.181	39869.23
640.534	39946.07
640.888	39805.06
641.241	39610.48
641.594	39768.22
641.947	39953.07
642.301	39697.71
642.654	39916.92
643.007	39843.7
643.36	39765.73
643.713	39741.33
644.066	39907.88
644.419	39618.62
644.771	39624.95
645.124	39101.12
645.477	39189.7
645.83	38862.48
646.182	38734.57
646.535	38660
646.888	38717.4
647.24	38492.55
647.593	38704.97
647.945	38714.01
648.298	38562.15
648.65	38544.75
649.002	38359.44
649.355	38566.44
649.707	38504.52
650.059	38702.26
650.411	39059.31
650.763	39160.55
651.115	39512.41
651.467	39352.41
651.819	39497.27
652.171	39347.89
652.523	39367.78
652.875	39396.03
653.227	39301.57
653.578	39504.5
653.93	39331.4
654.282	39280.78
654.633	39286.65
654.985	39262.47
655.337	39347.89
655.688	39247.56
656.039	39280.78
656.391	39056.37
656.742	39165.3
657.094	39206.43
657.445	39280.78
657.796	39182.92
658.147	38974.12
658.498	39139.08
658.849	39111.51
659.2	39118.75
659.551	39019.09
659.902	39064.28
660.253	39032.65
660.604	39298.4
660.955	38876.04
661.306	39057.73
661.656	39049.82
662.007	39112.64
662.358	38972.99
662.708	38992.65
663.059	38897.28
663.409	38725.99
663.76	39022.48
664.11	39035.81
664.461	39001.91
664.811	38867.9
665.161	38946.55
665.511	38821.58
665.862	38977.96
666.212	39013.89
666.562	38937.73
666.912	38922.37
667.262	38873.78
667.612	38827.23
667.962	39008.92
668.312	38855.48
668.662	39087.11
669.011	38812.31
669.361	38805.31
669.711	38815.93
670.06	38785.65
670.41	38723.28
670.76	38655.03
671.109	38850.73
671.459	38900.67
671.808	38782.48
672.157	38800.11
672.507	38670.17
672.856	38734.12
673.205	38751.98
673.554	38641.92
673.904	38554.47
674.253	38854.12
674.602	38660.68
674.951	38184.31
675.3	38001.03
675.649	38646.89
675.998	38526.67
676.346	38537.74
676.695	38669.72
677.044	38244.87
677.393	38528.25
677.741	38499.33
678.09	38432.21
678.438	38380.46
678.787	38516.05
679.135	38552.88
679.484	38247.13
679.832	38433.79
680.181	38070.41
680.529	38231.76
680.877	38196.28
681.225	38107.25
681.573	38464.75
681.922	38093.91
682.27	37935.95
682.618	37884.2
682.966	37841.04
683.314	37883.52
683.661	37808.05
684.009	37578.45
684.357	37594.27
684.705	37703.19
685.053	37620.25
685.4	37523.08
685.748	37315.4
686.095	37269.98
686.443	37272.24
686.79	37185.46
687.138	37113.15
687.485	37341.84
687.832	37118.8
688.18	37284.44
688.527	36904.11
688.874	36891.01
689.221	36841.29
689.568	36828.64
689.915	36780.5
690.262	36619.83
690.609	36601.75
690.956	36366.05
691.303	36465.71
691.65	36257.58
691.997	36284.7
692.344	36042.89
692.69	35964.03
693.037	36029.11
693.383	35812.39
693.73	36018.94
694.077	35665.95
694.423	35635.45
694.769	35519.97
695.116	35537.6
695.462	35516.13
695.808	35288.11
696.155	35340.31
696.501	35230.26
696.847	35132.41
697.193	34841.57
697.539	35042.92
697.885	34826.65
698.231	34695.13
698.577	34684.29
698.923	34517.06
699.269	34440
699.614	34288.82
699.96	34198.65
700.306	34240.23
700.651	34124.98
700.997	34077.75
701.342	34036.39
701.688	34000.24
702.033	33819
702.379	33780.81
702.724	33769.51
703.069	33830.97
703.415	33399.35
703.76	33455.62
704.105	33424.43
704.45	33371.55
704.795	33243.65
705.14	33132.01
705.485	33173.59
705.83	33050.88
706.175	33013.14
706.52	32942.41
706.865	32766.37
707.209	32679.82
707.554	32576.54
707.899	32619.71
708.243	32441.86
708.588	32438.7
708.932	32186.27
709.277	32317.79
709.621	32281.86
709.966	31964.58
710.31	32129.1
710.654	31857.47
710.998	32029.89
711.342	31974.53
711.687	31867.86
712.031	31616.12
712.375	31593.29
712.719	31633.97
713.063	31566.18
713.407	31756.23
713.75	31445.05
714.094	31462.9
714.438	31311.49
714.782	31340.87
715.125	31216.13
715.469	31217.94
715.812	31079.63
716.156	30903.14
716.499	30800.55
716.843	30896.59
717.186	30884.16
717.53	30905.63
717.873	30779.53
718.216	30708.8
718.559	30567.56
718.902	30366.66
719.246	30518.07
719.589	30441.91
719.932	30438.3
720.275	30268.36
720.617	30248.47
720.96	30187.91
721.303	30107.23
721.646	30294.12
721.989	30044.41
722.331	30106.1
722.674	30069.72
723.016	30165.08
723.359	29855.49
723.701	30000.79
724.044	29816.84
724.386	29755.6
724.729	29799.44
725.071	29611.65
725.413	29739.33
725.755	29662.95
726.097	29514.25
726.439	29419.57
726.782	29446.46
727.124	29530.07
727.465	29207.59
727.807	29360.36
728.149	29340.25
728.491	29190.64
728.833	29249.17
729.175	29026.58
729.516	29111.32
729.858	29056.19
730.199	29008.28
730.541	28928.5
730.882	28999.24
731.224	29075.62
731.565	28821.62
731.906	28927.6
732.248	28831.11
732.589	28734.61
732.93	28595.86
733.271	28458.91
733.612	28573.94
733.953	28629.53
734.294	28441.29
734.635	28488.29
734.976	28518.12
735.317	28349.31
735.658	28331.01
735.999	28346.6
736.339	28159.71
736.68	28281.74
737.021	28111.58
737.361	28027.29
737.702	28316.77
738.042	28061.41
738.383	28127.17
738.723	28153.38
739.063	27952.94
739.404	27996.33
739.744	27971.24
740.084	27824.13
740.424	27946.38
740.764	27762.66
741.104	27839.95
741.444	27644.24
741.784	27664.36
742.124	27624.36
742.464	27642.44
742.804	27528.99
743.143	27576.68
743.483	27402.9
743.823	27387.98
744.162	27407.64
744.502	27333.52
744.841	27313.63
745.181	27229.34
745.52	27194.31
745.86	27261.2
746.199	27184.14
746.538	27113.41
746.877	27129.46
747.216	26972.4
747.556	27016.69
747.895	26945.96
748.234	26860.08
748.573	26790.26
748.911	26816.24
749.25	26753.87
749.589	26647.43
749.928	26607.21
750.267	26762.91
750.605	26604.72
750.944	26621.22
751.283	26385.29
751.621	26370.83
751.96	26374.67
752.298	26306.88
752.636	26398.18
752.975	26176.49
753.313	26088.81
753.651	26130.84
753.989	26088.81
754.327	25992.31
754.666	25970.16
755.004	25940.11
755.342	25904.4
755.679	25942.14
756.017	25708.7
756.355	25729.94
756.693	25625.54
757.031	25632.77
757.368	25538.54
757.706	25466.45
758.044	25416.05
758.381	25395.04
758.719	25425.09
759.056	25251.09
759.394	25092.9
759.731	24956.41
760.068	24933.36
760.405	24940.14
760.743	24824.43
761.08	24798.22
761.417	24694.94
761.754	24629.63
762.091	24632.35
762.428	24505.12
762.765	24283.88
763.102	24351.45
763.438	24241.17
763.775	24213.6
764.112	24249.98
764.449	24227.16
764.785	24071.91
765.122	23932.48
765.458	23868.52
765.795	23923.21
766.131	23799.37
766.467	23715.08
766.804	23579.72
767.14	23452.04
767.476	23528.87
767.812	23509.44
768.148	23405.94
768.485	23206.62
768.821	23173.85
769.157	23062.9
769.492	23085.95
769.828	22981.54
770.164	22875.78
770.5	22741.77
770.836	22777.25
771.171	22594.89
771.507	22536.13
771.842	22327.55
772.178	22415.46
772.513	22361.67
772.849	22258.62
773.184	22169.81
773.519	22266.76
773.855	21945.86
774.19	22012.53
774.525	21840.1
774.86	21946.54
775.195	21774.12
775.53	21664.97
775.865	21555.14
776.2	21386.78
776.535	21287.12
776.87	21330.06
777.205	21248.93
777.539	21142.95
777.874	21146.34
778.209	20922.39
778.543	20965.55
778.878	20850.98
779.212	20812.11
779.547	20708.16
779.881	20692.34
780.215	20566.01
780.55	20575.5
780.884	20461.83
781.218	20385.45
781.552	20342.52
781.886	20211.9
782.22	20127.15
782.554	20135.29
782.888	19895.75
783.222	19741.4
783.556	19838.57
783.889	19780.27
784.223	19690.33
784.557	19628.86
784.89	19637.9
785.224	19443.33
785.557	19439.71
785.891	19344.35
786.224	19287.85
786.558	19247.4
786.891	19114.75
787.224	19052.61
787.557	18977.35
787.891	18994.53
788.224	18865.94
788.557	18977.35
788.89	18749.11
789.223	18857.36
789.556	18596.8
789.888	18532.62
790.221	18561.55
790.554	18379.86
790.887	18369.01
791.219	18388.44
791.552	18259.86
791.884	18202.46
792.217	18145.96
792.549	17978.06
792.882	17876.37
793.214	17866.87
793.546	17920.88
793.879	17811.74
794.211	17687.67
794.543	17621.46
794.875	17674.34
795.207	17703.04
795.539	17522.7
795.871	17536.26
796.203	17308.02
796.535	17388.92
796.867	17226.67
797.198	17247
797.53	17172.2
797.862	17085.2
798.193	17108.7
798.525	16983.51
798.856	16908.26
799.188	16810.18
799.519	16843.62
799.85	16722.5
800.182	16767.24
800.513	16673.69
800.844	16589.17
801.175	16627.81
801.506	16571.09
801.837	16430.98
802.168	16409.96
802.499	16416.74
802.83	16296.75
803.161	16294.03
803.491	16190.31
803.822	16220.59
804.153	16107.6
804.483	16023.53
804.814	15970.88
805.145	15917.77
805.475	15944.44
805.805	15881.39
806.136	15834.39
806.466	15861.5
806.796	15775.63
807.126	15685.46
807.457	15666.93
807.787	15548.07
808.117	15522.76
808.447	15483.66
808.777	15522.3
809.107	15494.73
809.436	15368.64
809.766	15402.31
810.096	15337.9
810.426	15351.23
810.755	15299.94
811.085	15282.54
811.414	15223.33
811.744	15092.48
812.073	15071.47
812.403	15054.97
812.732	14983.11
813.061	14924.81
813.39	14793.51
813.719	14812.04
814.049	14897.69
814.378	14789.44
814.707	14744.7
815.036	14705.83
815.365	14644.13
815.693	14596
816.022	14599.84
816.351	14541.54
816.68	14451.82
817.008	14416.57
817.337	14344.93
817.665	14318.95
817.994	14372.28
818.322	14356.91
818.651	14279.85
818.979	14198.95
819.307	14281.21
819.636	14238.5
819.964	14165.96
820.292	14139.06
820.62	14166.18
820.948	14059.97
821.276	14119.4
821.604	14081.44
821.932	14069.23
822.259	14088.44
822.587	14073.98
822.915	14058.39
823.243	14123.7
823.57	13990.14
823.898	14057.48
824.225	13965.06
824.553	14009.12
824.88	14042.57
825.207	14039.4
825.535	13991.27
825.862	14104.26
826.189	13913.08
826.516	14055.9
826.843	14018.84
827.17	14074.66
827.497	14039.18
827.824	14042.12
828.151	14078.5
828.478	14015.22
828.805	14030.14
829.131	13988.56
829.458	13995.34
829.785	13963.25
830.111	13980.2
830.438	14016.81
830.764	14003.47
831.09	13972.97
831.417	13882.12
831.743	13962.57
832.069	13913.76
832.395	13914.44
832.722	13984.04
833.048	13875.12
833.374	13960.54
833.7	13812.07
834.026	13823.37
834.351	13845.29
834.677	13821.11
835.003	13816.36
835.329	13795.12
835.654	13823.37
835.98	13803.7
836.306	13727.55
836.631	13753.76
836.956	13724.84
837.282	13682.13
837.607	13599.42
837.932	13626.31
838.258	13637.61
838.583	13615.01
838.908	13519.87
839.233	13546.31
839.558	13544.28
839.883	13559.19
840.208	13478.74
840.533	13437.84
840.858	13403.26
841.182	13444.39
841.507	13369.14
841.832	13335.69
842.156	13273.1
842.481	13341.12
842.805	13213.21
843.13	13244.85
843.454	13160.11
843.778	13163.04
844.103	13051.63
844.427	13064.74
844.751	13089.6
845.075	13100.22
845.399	13122.14
845.723	12971.64
846.047	12897.51
846.371	12814.58
846.695	12815.71
847.019	12716.5
847.343	12794.47
847.666	12629.5
847.99	12645.09
848.313	12617.07
848.637	12469.28
848.96	12460.01
849.284	12391.09
849.607	12382.95
849.931	12319.68
850.254	12241.26
850.577	12164.88
850.9	12051.21
851.223	12048.72
851.546	12026.8
851.869	11966.92
852.192	12016.63
852.515	11824.77
852.838	11821.16
853.161	11780.71
853.483	11786.13
853.806	11615.51
854.129	11703.42
854.451	11583.2
854.774	11587.94
855.096	11465.01
855.419	11571.9
855.741	11472.92
856.063	11397.89
856.385	11374.16
856.708	11333.94
857.03	11359.48
857.352	11340.49
857.674	11243.77
857.996	11296.43
858.318	11168.52
858.64	11210.78
858.961	11112.7
859.283	11077.22
859.605	11030.67
859.926	11019.15
860.248	10999.03
860.57	10943.67
860.891	11033.38
861.212	11023.89
861.534	10872.93
861.855	10871.13
862.176	10964.01
862.498	10865.7
862.819	10795.42
863.14	10827.51
863.461	10710.9
863.782	10687.4
864.103	10699.83
864.424	10753.39
864.745	10732.6
865.065	10714.97
865.386	10634.97
865.707	10679.49
866.027	10648.53
866.348	10555.2
866.668	10614.18
866.989	10571.93
867.309	10487.86
867.63	10568.54
867.95	10529.67
868.27	10440.4
868.59	10479.5
868.91	10441.31
869.23	10426.17
869.55	10407.86
869.87	10365.15
870.19	10418.26
870.51	10368.77
870.83	10367.19
871.15	10338.94
871.469	10307.98
871.789	10364.93
872.109	10300.97
872.428	10193.63
872.748	10252.16
873.067	10307.07
873.386	10239.5
873.706	10268.43
874.025	10157.25
874.344	10150.24
874.663	10177.81
874.982	10137.36
875.301	10113.18
875.62	10040.87
875.939	10102.11
876.258	10074.54
876.577	10079.06
876.896	10081.32
877.214	10006.74
877.533	10007.65
877.852	9963.81
878.17	9977.82
878.489	9971.04
878.807	9963.58
879.125	9954.54
879.444	9938.27
879.762	9897.82
880.08	9819.18
880.398	9834.54
880.716	9768.78
881.034	9816.01
881.352	9834.54
881.67	9743.25
881.988	9748.9
882.306	9715
882.624	9762.91
882.941	9684.72
883.259	9652.4
883.577	9580.09
883.894	9623.7
884.212	9555.91
884.529	9602.91
884.846	9547.32
885.164	9510.71
885.481	9502.12
885.798	9576.92
886.115	9423.71
886.432	9403.37
886.75	9420.09
887.067	9406.08
887.383	9348.68
887.7	9375.35
888.017	9334.9
888.334	9316.37
888.651	9332.86
888.967	9322.01
889.284	9242.92
889.6	9224.84
889.917	9169.48
890.233	9153.88
890.55	9080.21
890.866	9131.06
891.182	9100.1
891.498	9012.87
891.815	9014.45
892.131	8976.04
892.447	9017.62
892.763	8982.59
893.079	8893.1
893.395	8914.79
893.71	8877.05
894.026	8818.3
894.342	8783.05
894.657	8749.6
894.973	8767.91
895.289	8757.06
895.604	8734.23
895.92	8660.34
896.235	8635.93
896.55	8655.59
896.865	8571.75
897.181	8615.82
897.496	8515.03
897.811	8478.42
898.126	8485.2
898.441	8405.2
898.756	8338.76
899.071	8379.67
899.386	8432.09
899.7	8306
900.015	8270.29
900.33	8235.94
900.644	8274.81
900.959	8211.08
901.273	8136.96
901.588	8160.24
901.902	8170.41
902.216	8112.1
902.531	8056.74
902.845	8078.88
903.159	7961.82
903.473	7911.2
903.787	7996.17
904.101	7922.73
904.415	7804.54
904.729	7865.78
905.042	7739.91
905.356	7763.41
905.67	7752.11
905.984	7761.38
906.297	7727.93
906.611	7649.74
906.924	7675.73
907.237	7604.77
907.551	7549.18
907.864	7527.03
908.177	7573.59
908.491	7521.38
908.804	7423.53
909.117	7390.09
909.43	7354.83
909.743	7349.64
910.056	7377.66
910.368	7259.92
910.681	7273.48
910.994	7294.05
911.307	7241.39
911.619	7103.32
911.932	7155.29
912.244	7143.31
912.557	7163.88
912.869	7074.84
913.181	6984.9
913.494	7074.84
913.806	6930.67
914.118	6934.28
914.43	6890.44
914.742	6926.37
915.054	6881.63
915.366	6873.27
915.678	6880.72
915.99	6777.22
916.302	6751.69
916.613	6784.23
916.925	6748.98
917.236	6695.87
917.548	6656.32
917.859	6646.15
918.171	6567.51
918.482	6617
918.794	6539.94
919.105	6495.2
919.416	6523.22
919.727	6484.35
920.038	6460.17
920.349	6406.16
920.66	6401.19
920.971	6380.85
921.282	6426.05
921.593	6325.03
921.903	6273.51
922.214	6264.69
922.525	6193.28
922.835	6187.86
923.146	6189.67
923.456	6131.14
923.767	6158.71
924.077	6099.95
924.387	6054.53
924.697	6076
925.008	6013.4
925.318	5998.49
925.628	6005.27
925.938	5976.79
926.248	5958.94
926.558	5941.09
926.867	5854.54
927.177	5852.05
927.487	5867.87
927.796	5838.72
928.106	5784.25
928.416	5775.89
928.725	5766.4
929.034	5699.29
929.344	5686.86
929.653	5670.59
929.962	5634.2
930.271	5580.64
930.581	5558.95
930.89	5571.6
931.199	5518.27
931.508	5533.41
931.817	5515.11
932.125	5506.3
932.434	5435.56
932.743	5444.83
933.051	5372.29
933.36	5336.81
933.669	5286.41
933.977	5337.03
934.286	5325.06
934.594	5239.64
934.902	5213.87
935.21	5186.08
935.519	5197.6
935.827	5232.4
936.135	5179.07
936.443	5116.25
936.751	5121.67
937.059	5100.88
937.367	5058.85
937.674	5092.07
937.982	5036.7
938.29	5024.73
938.597	4983.82
938.905	4952.41
939.213	4898.63
939.52	4938.85
939.827	4943.82
940.135	4866.99
940.442	4844.39
940.749	4884.84
941.056	4853.21
941.363	4792.87
941.67	4791.51
941.977	4764.39
942.284	4732.98
942.591	4705.41
942.898	4639.65
943.205	4711.74
943.511	4634.91
943.818	4661.12
944.125	4549.94
944.431	4564.17
944.738	4565.3
945.044	4521.69
945.35	4548.35
945.657	4481.46
945.963	4528.24
946.269	4507.68
946.575	4464.06
946.881	4458.19
947.187	4422.48
947.493	4395.59
947.799	4355.37
948.105	4348.36
948.41	4379.77
948.716	4372.99
949.022	4317.85
949.327	4328.25
949.633	4238.98
949.938	4230.85
950.244	4229.95
950.549	4231.08
950.854	4195.6
951.16	4191.75
951.465	4157.18
951.77	4163.28
952.075	4123.73
952.38	4098.65
952.685	4104.52
952.99	4046.9
953.294	4055.71
953.599	4083.51
953.904	4027.24
954.209	3985.21
954.513	3988.82
954.818	3982.72
955.122	3949.73
955.426	3958.77
955.731	3966.22
956.035	3902.72
956.339	3880.8
956.643	3883.97
956.948	3888.03
957.252	3847.81
957.556	3804.19
957.86	3846.9
958.163	3829.28
958.467	3823.85
958.771	3799.9
959.075	3744.76
959.378	3746.79
959.682	3698.43
959.985	3689.85
960.289	3710.41
960.592	3695.04
960.896	3661.82
961.199	3640.81
961.502	3639.9
961.805	3636.29
962.108	3587.02
962.411	3559
962.714	3557.42
963.017	3561.26
963.32	3539.34
963.623	3515.16
963.926	3537.53
964.228	3457.31
964.531	3475.16
964.833	3453.02
965.136	3475.84
965.438	3395.16
965.741	3401.04
966.043	3396.75
966.345	3347.48
966.648	3374.6
966.95	3350.65
967.252	3341.61
967.554	3294.38
967.856	3292.57
968.158	3281.72
968.46	3243.53
968.761	3271.33
969.063	3226.58
969.365	3190.2
969.666	3232.46
969.968	3216.41
970.269	3194.72
970.571	3154.95
970.872	3154.04
971.174	3138.22
971.475	3152.46
971.776	3119.01
972.077	3098.22
972.378	3055.74
972.679	3116.75
972.98	3060.03
973.281	3047.38
973.582	3074.27
973.883	3035.4
974.183	2996.31
974.484	3000.83
974.785	2997.66
975.085	3005.8
975.386	2984.33
975.686	2916.08
975.986	2956.76
976.287	2943.2
976.587	2881.96
976.887	2897.1
977.187	2907.72
977.487	2879.02
977.787	2879.47
978.087	2834.5
978.387	2823.65
978.687	2820.04
978.987	2855.52
979.286	2805.8
979.586	2793.37
979.885	2768.06
980.185	2778.23
980.484	2746.37
980.784	2731.68
981.083	2707.5
981.382	2713.83
981.682	2695.52
981.981	2717.89
982.28	2663.21
982.579	2669.08
982.878	2672.02
983.177	2666.82
983.475	2641.74
983.774	2621.17
984.073	2616.65
984.372	2593.83
984.67	2580.27
984.969	2621.17
985.267	2588.18
985.566	2600.84
985.864	2527.17
986.162	2553.61
986.461	2543.44
986.759	2534.62
987.057	2491.23
987.355	2489.65
987.653	2509.09
987.951	2462.76
988.249	2472.25
988.547	2436.09
988.844	2415.76
989.142	2445.36
989.44	2422.31
989.737	2434.74
990.035	2380.28
990.332	2362.2
990.63	2380.05
990.927	2373.72
991.224	2322.42
991.521	2349.32
991.819	2313.39
992.116	2310.67
992.413	2287.85
992.71	2313.39
993.006	2284.69
993.303	2274.97
993.6	2288.3
993.897	2260.28
994.193	2214.86
994.49	2195.65
994.787	2236.1
995.083	2242.43
995.379	2173.95
995.676	2208.08
995.972	2147.06
996.268	2161.3
996.565	2133.73
996.861	2143.22
997.157	2135.09
997.453	2108.19
997.749	2115.2
998.044	2097.12
998.34	2083.34
998.636	2065.48
998.932	2083.56
999.227	2062.77
999.523	2017.8
999.818	2067.97
1000.114	2027.29
1000.409	1989.55
1000.704	2008.08
1001	1975.54
1001.295	2002.89
1001.59	2017.12
1001.885	1981.87
1002.18	1952.04
1002.475	1942.55
1002.77	1950.23
1003.065	1907.52
1003.359	1920.63
1003.654	1890.57
1003.949	1889.44
1004.243	1891.02
1004.538	1866.62
1004.832	1890.12
1005.127	1867.52
1005.421	1858.03
1005.715	1834.75
1006.009	1806.28
1006.304	1819.39
1006.598	1809.44
1006.892	1791.82
1007.186	1803.12
1007.48	1788.65
1007.773	1760.63
1008.067	1762.21
1008.361	1739.62
1008.655	1715.89
1008.948	1699.39
1009.242	1709.79
1009.535	1716.34
1009.829	1741.65
1010.122	1695.77
1010.415	1663.23
1010.708	1677.92
1011.001	1642.44
1011.295	1646.28
1011.588	1637.47
1011.881	1627.08
1012.173	1632.27
1012.466	1612.39
1012.759	1589.79
1013.052	1572.84
1013.344	1596.34
1013.637	1585.04
1013.93	1565.16
1014.222	1580.52
1014.514	1562.22
1014.807	1531.49
1015.099	1524.03
1015.391	1509.11
1015.683	1503.24
1015.976	1500.98
1016.268	1506.18
1016.56	1470.7
1016.851	1468.66
1017.143	1467.53
1017.435	1466.63
1017.727	1451.94
1018.018	1424.37
1018.31	1431.83
1018.602	1440.41
1018.893	1410.81
1019.185	1411.26
1019.476	1395.9
1019.767	1398.16
1020.058	1363.81
1020.35	1402
1020.641	1380.3
1020.932	1358.83
1021.223	1335.33
1021.514	1337.37
1021.804	1333.07
1022.095	1326.29
1022.386	1301.21
1022.677	1317.25
1022.967	1306.63
1023.258	1257.14
1023.548	1265.28
1023.839	1269.12
1024.129	1273.64
1024.419	1279.29
1024.709	1268.22
1025	1223.24
1025.29	1218.05
1025.58	1237.26
1025.87	1211.95
1026.16	1197.26
1026.449	1204.04
1026.739	1191.16
1027.029	1179.86
1027.319	1189.12
1027.608	1182.57
1027.898	1147.09
1028.187	1163.81
1028.477	1131.72
1028.766	1138.05
1029.055	1136.24
1029.344	1126.98
1029.634	1128.33
1029.923	1103.25
1030.212	1098.73
1030.501	1104.83
1030.79	1110.03
1031.078	1075.68
1031.367	1103.02
1031.656	1060.09
1031.945	1051.95
1032.233	1077.94
1032.522	1040.42
1032.81	1054.66
1033.099	1052.63
1033.387	1037.03
1033.675	1014.21
1033.963	1001.56
1034.251	1039.29
1034.54	1020.54
1034.828	995
1035.116	966.75
1035.403	1006.08
1035.691	974.21
1035.979	987.77
1036.267	957.71
1036.554	961.1
1036.842	962.23
1037.129	954.1
1037.417	934.66
1037.704	937.83
1037.992	937.15
1038.279	912.29
1038.566	927.66
1038.853	927.66
1039.14	927.66
