Data from hue_300_FLMS001491_00032.txt Node
Date: Tue Feb 07 15:50:38 GMT 2017
User: dcchb
Spectrometer: FLMS00149
Trigger mode: 0
Integration Time (sec): 2.000000E-2
Scans to average: 10
Electric dark correction enabled: true
Nonlinearity correction enabled: false
Boxcar width: 0
XAxis mode: Wavelengths
Number of Pixels in Spectrum: 2048
>>>>>Begin Spectral Data<<<<<
341.393	0.28
341.776	0.28
342.16	0.28
342.543	-70.68
342.927	-58.93
343.31	-60.05
343.693	-79.26
344.077	-72.48
344.46	-53.95
344.843	-51.92
345.226	-52.6
345.61	-21.64
345.993	-20.51
346.376	-0.4
346.759	21.52
347.142	20.62
347.525	54.97
347.908	55.42
348.291	69.89
348.674	85.48
349.057	104.91
349.44	99.26
349.823	138.13
350.206	157.79
350.588	194.18
350.971	208.19
351.354	226.04
351.737	243.21
352.119	264.23
352.502	269.65
352.884	274.85
353.267	280.73
353.65	292.7
354.032	288.86
354.414	309.65
354.797	301.52
355.179	309.65
355.562	327.96
355.944	308.3
356.326	314.85
356.709	326.15
357.091	321.4
357.473	335.41
357.855	358.24
358.238	358.92
358.62	340.61
359.002	326.6
359.384	330.67
359.766	341.06
360.148	337.22
360.53	329.31
360.912	323.21
361.294	316.21
361.676	325.47
362.057	329.77
362.439	350.1
362.821	294.06
363.203	325.02
363.584	295.87
363.966	306.94
364.348	326.15
364.729	316.43
365.111	319.82
365.493	308.52
365.874	315.98
366.256	304
366.637	289.09
367.019	306.49
367.4	308.07
367.781	315.53
368.163	299.03
368.544	297.45
368.925	309.88
369.306	331.8
369.688	306.49
370.069	311.01
370.45	311.91
370.831	318.01
371.212	308.3
371.593	325.92
371.974	297.68
372.355	306.49
372.736	308.3
373.117	306.49
373.498	301.97
373.879	305.36
374.26	300.84
374.641	316.21
375.021	308.07
375.402	313.95
375.783	326.6
376.163	323.21
376.544	319.14
376.925	347.62
377.305	322.31
377.686	297.9
378.066	311.69
378.447	327.73
378.827	337.9
379.208	313.72
379.588	333.38
379.968	318.01
380.349	319.82
380.729	336.09
381.109	322.99
381.489	344
381.87	332.48
382.25	344.45
382.63	318.69
383.01	347.62
383.39	327.05
383.77	345.13
384.15	350.1
384.53	338.58
384.91	339.48
385.29	329.99
385.67	343.32
386.049	335.64
386.429	347.62
386.809	349.65
387.189	349.43
387.568	356.21
387.948	340.39
388.328	351.91
388.707	345.36
389.087	349.65
389.466	351.91
389.846	358.92
390.225	353.27
390.605	345.81
390.984	369.99
391.363	355.3
391.743	372.93
392.122	355.3
392.501	374.74
392.881	375.64
393.26	369.31
393.639	371.12
394.018	367.96
394.397	357.11
394.776	352.82
395.155	379.03
395.534	377
395.913	377.67
396.292	398.69
396.671	369.76
397.05	372.25
397.429	385.13
397.808	395.75
398.186	395.3
398.565	376.77
398.944	397.33
399.323	397.33
399.701	386.94
400.08	390.78
400.458	405.02
400.837	420.61
401.215	386.26
401.594	386.26
401.972	421.51
402.351	424.68
402.729	401.18
403.107	417.22
403.486	422.19
403.864	396.2
404.242	415.19
404.62	446.6
404.999	421.97
405.377	453.6
405.755	444.11
406.133	434.85
406.511	448.18
406.889	437.56
407.267	475.07
407.645	485.92
408.023	484.56
408.401	472.81
408.779	458.12
409.156	481.4
409.534	498.35
409.912	494.96
410.29	506.94
410.667	504.22
411.045	530.89
411.422	517.11
411.8	514.85
412.178	536.31
412.555	536.09
412.933	537.22
413.31	565.69
413.687	556.65
414.065	563.21
414.442	601.17
414.819	588.29
415.197	588.52
415.574	605.01
415.951	594.84
416.328	623.54
416.705	632.13
417.082	643.2
417.46	652.92
417.837	656.31
418.214	665.35
418.591	662.64
418.967	665.12
419.344	671.68
419.721	697.89
420.098	674.84
420.475	698.12
420.852	722.07
421.228	729.08
421.605	731.11
421.982	724.56
422.358	719.59
422.735	747.61
423.111	732.92
423.488	766.82
423.864	764.33
424.241	815.4
424.617	772.92
424.994	795.74
425.37	797.55
425.746	803.43
426.123	830.77
426.499	841.84
426.875	868.28
427.251	858.34
427.627	853.59
428.003	888.39
428.379	884.1
428.756	894.04
429.132	905.8
429.507	919.13
429.883	930.88
430.259	932.46
430.635	942.18
431.011	973.14
431.387	957.77
431.763	982.18
432.138	974.72
432.514	1001.16
432.89	1026.47
433.265	1038.22
433.641	1041.84
434.016	1058.56
434.392	1046.81
434.767	1089.07
435.143	1066.24
435.518	1091.78
435.894	1095.85
436.269	1101.5
436.644	1114.38
437.02	1138.56
437.395	1137.2
437.77	1164.32
438.145	1171.1
438.52	1172.23
438.895	1183.53
439.271	1174.71
439.646	1232.79
440.021	1236.18
440.395	1230.31
440.77	1219.69
441.145	1218.33
441.52	1260.14
441.895	1228.72
442.27	1269.4
442.645	1238.67
443.019	1283.19
443.394	1268.05
443.769	1308.95
444.143	1293.36
444.518	1307.37
444.892	1288.84
445.267	1284.54
445.641	1309.17
446.016	1305.78
446.39	1331.32
446.764	1303.07
447.139	1335.61
447.513	1348.04
447.887	1349.4
448.262	1322.06
448.636	1339.46
449.01	1368.83
449.384	1373.58
449.758	1392.79
450.132	1368.83
450.506	1368.83
450.88	1393.47
451.254	1374.94
451.628	1398.66
452.002	1383.52
452.376	1398.89
452.75	1397.76
453.123	1430.53
453.497	1462.62
453.871	1426.23
454.244	1456.29
454.618	1445.89
454.992	1475.72
455.365	1464.65
455.739	1471.88
456.112	1495.61
456.486	1539.23
456.859	1523.86
457.232	1567.25
457.606	1530.19
457.979	1564.08
458.352	1563.18
458.725	1569.28
459.099	1578.77
459.472	1602.73
459.845	1627.36
460.218	1624.19
460.591	1626.45
460.964	1634.14
461.337	1662.61
461.71	1673.01
462.083	1682.95
462.456	1703.29
462.829	1705.55
463.201	1696.74
463.574	1688.6
463.947	1737.86
464.32	1765.66
464.692	1763.4
465.065	1753.91
465.438	1776.28
465.81	1799.11
466.183	1808.6
466.555	1868.71
466.928	1850.4
467.3	1849.05
467.672	1877.52
468.045	1877.52
468.417	1939.89
468.789	1905.09
469.161	1909.38
469.534	1920.68
469.906	1980.8
470.278	1969.04
470.65	1992.09
471.022	2001.13
471.394	2041.13
471.766	2058.31
472.138	2065.54
472.51	2128.36
472.882	2097.18
473.253	2121.58
473.625	2141.92
473.997	2191.86
474.369	2171.07
474.74	2207
475.112	2202.94
475.484	2261.24
475.855	2274.8
476.227	2259.66
476.598	2323.84
476.97	2341.01
477.341	2360.22
477.713	2380.56
478.084	2398.19
478.455	2470.73
478.827	2442.25
479.198	2547.11
479.569	2509.37
479.94	2540.1
480.311	2588.01
480.682	2616.71
481.053	2655.13
481.424	2650.61
481.795	2647.9
482.166	2750.72
482.537	2724.96
482.908	2793.43
483.279	2786.42
483.65	2766.54
484.021	2835.46
484.391	2890.83
484.762	2879.98
485.133	2904.84
485.503	2950.04
485.874	2963.14
486.244	2962.24
486.615	3020.09
486.985	3075.68
487.356	3096.47
487.726	3096.02
488.097	3160.2
488.467	3154.32
488.837	3219.41
489.207	3204.49
489.578	3275.45
489.948	3272.51
490.318	3331.49
490.688	3265.06
491.058	3316.35
491.428	3392.74
491.798	3398.61
492.168	3430.7
492.538	3442.45
492.908	3489
493.278	3488.78
493.648	3563.13
494.017	3508.44
494.387	3571.71
494.757	3558.61
495.126	3576.69
495.496	3578.95
495.866	3621.43
496.235	3671.15
496.605	3656.68
496.974	3678.38
497.344	3757.02
497.713	3651.71
498.082	3733.74
498.452	3715.89
498.821	3818.04
499.19	3755.21
499.559	3785.27
499.928	3815.55
500.298	3813.97
500.667	3851.03
501.036	3855.55
501.405	3890.58
501.774	3870.92
502.143	3909.78
502.512	3897.81
502.88	3955.88
503.249	3929.67
503.618	3938.26
503.987	3951.82
504.356	3971.7
504.724	4013.74
505.093	4019.61
505.462	3949.56
505.83	4038.59
506.199	4036.11
506.567	4030.01
506.936	4086.5
507.304	4081.31
507.672	4094.41
508.041	4137.35
508.409	4131.7
508.777	4157.24
509.145	4140.51
509.514	4173.05
509.882	4159.27
510.25	4181.42
510.618	4182.32
510.986	4222.09
511.354	4231.13
511.722	4263
512.09	4330.11
512.458	4285.37
512.826	4315.2
513.193	4302.99
513.561	4325.14
513.929	4340.51
514.297	4341.19
514.664	4335.99
515.032	4408.75
515.4	4413.27
515.767	4417.57
516.135	4394.97
516.502	4332.6
516.869	4463.89
517.237	4419.6
517.604	4474.97
517.972	4455.98
518.339	4437
518.706	4498.02
519.073	4463.89
519.44	4493.72
519.808	4509.77
520.175	4514.06
520.542	4527.62
520.909	4568.07
521.276	4569.2
521.643	4580.05
522.009	4650.56
522.376	4597.45
522.743	4629.77
523.11	4681.74
523.477	4724.9
523.843	4692.36
524.21	4782.76
524.577	4825.69
524.943	4761.51
525.31	4799.03
525.676	4833.15
526.043	4835.64
526.409	4843.77
526.776	4869.31
527.142	4886.71
527.508	4917.89
527.874	4955.18
528.241	5038.34
528.607	4929.87
528.973	5043.77
529.339	5008.96
529.705	5064.56
530.071	5071.56
530.437	5106.36
530.803	5137.32
531.169	5107.49
531.535	5177.55
531.901	5175.06
532.267	5201.28
532.632	5218.68
532.998	5260.71
533.364	5265.68
533.73	5249.64
534.095	5316.75
534.461	5275.17
534.826	5365.11
535.192	5363.76
535.557	5406.24
535.923	5408.95
536.288	5443.98
536.653	5477.43
537.019	5425.68
537.384	5460.03
537.749	5493.47
538.114	5508.16
538.479	5523.53
538.845	5572.11
539.21	5538.89
539.575	5589.51
539.94	5614.82
540.305	5624.77
540.67	5637.2
541.034	5691.66
541.399	5668.16
541.764	5736.4
542.129	5717.19
542.494	5758.32
542.858	5768.94
543.223	5795.84
543.587	5820.24
543.952	5795.84
544.316	5856.63
544.681	5901.82
545.045	5925.1
545.41	5971.42
545.774	5974.59
546.138	5954.25
546.503	5989.5
546.867	6015.94
547.231	6067.92
547.595	6062.04
547.959	6106.56
548.324	6100.46
548.688	6127.8
549.052	6150.18
549.416	6138.88
549.779	6196.05
550.143	6166.67
550.507	6266.56
550.871	6271.3
551.235	6262.26
551.599	6278.99
551.962	6281.02
552.326	6292.77
552.689	6344.3
553.053	6302.49
553.417	6314.69
553.78	6429.04
554.143	6397.63
554.507	6430.4
554.87	6447.8
555.234	6480.79
555.597	6464.97
555.96	6488.93
556.323	6484.18
556.686	6511.07
557.05	6573.89
557.413	6549.26
557.776	6502.71
558.139	6636.27
558.502	6594.69
558.865	6653.89
559.228	6688.69
559.59	6690.5
559.953	6723.5
560.316	6735.25
560.679	6749.26
561.041	6801.23
561.404	6831.52
561.767	6827.45
562.129	6841.46
562.492	6893.21
562.854	6886.2
563.217	6861.57
563.579	6910.61
563.941	6930.72
564.304	6963.94
564.666	6962.81
565.028	7020.21
565.39	7061.34
565.753	7045.75
566.115	7119.64
566.477	7132.98
566.839	7118.06
567.201	7146.31
567.563	7126.87
567.925	7194.22
568.287	7183.82
568.648	7225.4
569.01	7277.83
569.372	7317.15
569.734	7329.81
570.095	7401.67
570.457	7497.71
570.819	7429.69
571.18	7475.57
571.542	7490.03
571.903	7541.1
572.265	7598.5
572.626	7576.35
572.987	7634.88
573.349	7746.75
573.71	7767.54
574.071	7788.55
574.432	7838.95
574.794	7944.93
575.155	7990.58
575.516	7934.76
575.877	8037.81
576.238	8156.45
576.599	8236
576.96	8259.5
577.32	8366.16
577.681	8461.08
578.042	8525.26
578.403	8552.6
578.763	8721.86
579.124	8741.07
579.485	8892.25
579.845	9019.03
580.206	9076.2
580.566	9144.45
580.927	9297.44
581.287	9505.57
581.648	9532.69
582.008	9711.21
582.368	9812
582.728	9974.03
583.089	10130.19
583.449	10267.58
583.809	10443.62
584.169	10629.61
584.529	10766.78
584.889	11043.83
585.249	11169.71
585.609	11303.49
585.969	11541.67
586.329	11724.49
586.688	11990.93
587.048	12222.11
587.408	12430.92
587.768	12731.02
588.127	12942.99
588.487	13081.07
588.846	13415.07
589.206	13538.46
589.565	13795.17
589.925	14161.49
590.284	14312.22
590.643	14613.91
591.003	14933.22
591.362	15154.23
591.721	15440.78
592.08	15799.64
592.44	16059.75
592.799	16325.28
593.158	16607.3
593.517	16854.3
593.876	17054.98
594.235	17480.27
594.593	17734.05
594.952	18018.11
595.311	18319.35
595.67	18593.47
596.029	19027.58
596.387	19276.84
596.746	19590.05
597.104	19783.49
597.463	20185.06
597.822	20427.54
598.18	20630.25
598.538	20855.1
598.897	21388.42
599.255	21446.95
599.613	22022.08
599.972	22171.9
600.33	22470.88
600.688	22575.06
601.046	22933.01
601.404	23387.69
601.762	23606.67
602.12	23867.9
602.478	24163.49
602.836	24496.36
603.194	24561.67
603.552	24904.26
603.91	24955.33
604.268	25388.77
604.625	25524.13
604.983	25942.43
605.341	25938.36
605.698	26364.79
606.056	26614.95
606.413	26847.71
606.771	27121.83
607.128	27475.72
607.485	27414.7
607.843	27775.6
608.2	28026.89
608.557	28372.19
608.914	28395.02
609.272	28612.64
609.629	28877.04
609.986	29220.53
610.343	29285.61
610.7	29554.99
611.057	29728.31
611.414	29829.55
611.771	30254.63
612.127	30377.34
612.484	30529.42
612.841	30721.28
613.198	30860.94
613.554	30884.44
613.911	31382.51
614.267	31297.09
614.624	31530.3
614.98	31748.37
615.337	31912.89
615.693	31958.54
616.05	32231.53
616.406	32382.03
616.762	32548.81
617.118	32568.47
617.475	32649.37
617.831	32862.02
618.187	33078.28
618.543	33168.22
618.899	33501.1
619.255	33590.13
619.611	33590.81
619.967	33888.66
620.323	33986.06
620.678	34040.74
621.034	33986.73
621.39	34126.16
621.746	34239.38
622.101	34675.53
622.457	34529.54
622.812	34699.26
623.168	34807.73
623.523	34872.36
623.879	35025.8
624.234	34876.2
624.589	35196.65
624.945	35241.16
625.3	35398.9
625.655	35348.51
626.01	35366.58
626.365	35460.14
626.72	35513.47
627.075	35562.51
627.43	35583.53
627.785	35586.47
628.14	35790.98
628.495	35625.33
628.85	35837.08
629.205	35697.42
629.559	36091.76
629.914	35950.52
630.269	36075.49
630.623	35999.11
630.978	35990.52
631.332	36131.54
631.687	36106.23
632.041	36093.12
632.396	36173.12
632.75	35954.82
633.104	36197.07
633.459	35996.17
633.813	35929.06
634.167	35964.31
634.521	36044.98
634.875	36197.07
635.229	36214.02
635.583	36155.49
635.937	36032.1
636.291	35999.56
636.645	36031.65
636.999	36135.83
637.352	36206.34
637.706	35934.7
638.06	36305.99
638.413	36162.04
638.767	36132.44
639.121	36221.7
639.474	35981.71
639.828	35992.56
640.181	36139.9
640.534	36209.05
640.888	35985.78
641.241	35974.7
641.594	36044.53
641.947	36152.1
642.301	36050.41
642.654	36054.02
643.007	36112.55
643.36	36122.04
643.713	36098.77
644.066	36277.97
644.419	35944.65
644.771	35754.14
645.124	35477.54
645.477	35416.98
645.83	35218.11
646.182	35105.8
646.535	35118.68
646.888	35016.54
647.24	34893.83
647.593	35176.98
647.945	35137.44
648.298	34955.3
648.65	34771.8
649.002	34731.8
649.355	35029.42
649.707	34877.11
650.059	34969.53
650.411	35511.21
650.763	35480.25
651.115	35896.51
651.467	35805.44
651.819	35644.54
652.171	35733.81
652.523	35547.14
652.875	35719.12
653.227	35584.66
653.578	35739.91
653.93	35665.11
654.282	35601.15
654.633	35503.98
654.985	35428.96
655.337	35543.75
655.688	35696.75
656.039	35752.11
656.391	35478.45
656.742	35546.24
657.094	35503.08
657.445	35695.62
657.796	35586.24
658.147	35496.75
658.498	35529.97
658.849	35564.55
659.2	35530.2
659.551	35430.09
659.902	35472.8
660.253	35566.13
660.604	35579.91
660.955	35448.39
661.306	35573.36
661.656	35449.97
662.007	35402.06
662.358	35461.95
662.708	35504.21
663.059	35406.81
663.409	35293.14
663.76	35578.56
664.11	35450.42
664.461	35462.4
664.811	35492.23
665.161	35399.8
665.511	35380.82
665.862	35387.37
666.212	35507.37
666.562	35587.6
666.912	35482.74
667.262	35458.33
667.612	35416.75
667.962	35543.08
668.312	35383.98
668.662	35428.05
669.011	35344.44
669.361	35358.22
669.711	35226.7
670.06	35347.38
670.41	35277.55
670.76	35262.86
671.109	35413.81
671.459	35215.4
671.808	35206.81
672.157	35198.23
672.507	35065.12
672.856	35048.4
673.205	35198.68
673.554	35400.93
673.904	35005.46
674.253	35378.11
674.602	35132.01
674.951	34581.29
675.3	34550.33
675.649	35012.47
675.998	34913.94
676.346	35174.95
676.695	35233.48
677.044	34797.56
677.393	34959.59
677.741	35120.04
678.09	35071.22
678.438	34875.75
678.787	34938.57
679.135	34904
679.484	34704
679.832	34785.81
680.181	34592.59
680.529	34633.72
680.877	34619.03
681.225	34609.99
681.573	34672.82
681.922	34398.02
682.27	34450.9
682.618	34409.1
682.966	34357.57
683.314	34426.72
683.661	34267.86
684.009	34172.94
684.357	34062.21
684.705	34122.1
685.053	34130.23
685.4	34030.12
685.748	33883.91
686.095	33986.96
686.443	33701.32
686.79	33749.9
687.138	33810.92
687.485	33790.13
687.832	33701.54
688.18	33591.49
688.527	33468.78
688.874	33356.02
689.221	33328.9
689.568	33310.14
689.915	33269.01
690.262	33202.8
690.609	33143.59
690.956	33007.1
691.303	33063.59
691.65	32871.06
691.997	32743.6
692.344	32650.05
692.69	32691.17
693.037	32724.85
693.383	32370.5
693.73	32618.18
694.077	32303.39
694.423	32484.63
694.769	32326.89
695.116	32189.49
695.462	32097.07
695.808	32037.63
696.155	32156.73
696.501	31941.82
696.847	32004.86
697.193	31691.65
697.539	31745.21
697.885	31584.54
698.231	31484.88
698.577	31358.33
698.923	31474.26
699.269	31228.84
699.614	31175.51
699.96	31067.94
700.306	30987.49
700.651	30881.05
700.997	30859.81
701.342	30791.56
701.688	30780.26
702.033	30582.3
702.379	30622.53
702.724	30493.94
703.069	30614.39
703.415	30275.19
703.76	30285.36
704.105	30286.27
704.45	30117.23
704.795	30067.29
705.14	29883.79
705.485	29855.77
705.83	29661.2
706.175	29880.17
706.52	29725.6
706.865	29591.59
707.209	29547.75
707.554	29520.41
707.899	29566.06
708.243	29321.77
708.588	29320.42
708.932	29166.75
709.277	29151.15
709.621	29172.85
709.966	29009.24
710.31	29136.01
710.654	28774.67
710.998	28937.15
711.342	28761.33
711.687	28720.88
712.031	28642.02
712.375	28559.31
712.719	28624.84
713.063	28513.21
713.407	28609.93
713.75	28493.54
714.094	28391.4
714.438	28190.73
714.782	28284.51
715.125	28155.02
715.469	28186.43
715.812	28017.62
716.156	27923.84
716.499	28023.27
716.843	27988.47
717.186	27851.98
717.53	27999.32
717.873	27842.49
718.216	27741.47
718.559	27629.16
718.902	27479.79
719.246	27602.72
719.589	27500.12
719.932	27483.4
720.275	27442.5
720.617	27377.64
720.96	27416.96
721.303	27310.98
721.646	27408.6
721.989	27181.71
722.331	27141.04
722.674	26991.66
723.016	27184.43
723.359	27135.16
723.701	27110.3
724.044	26935.17
724.386	26803.42
724.729	26897.2
725.071	26732.69
725.413	26694.27
725.755	26786.7
726.097	26662.18
726.439	26571.11
726.782	26516.65
727.124	26632.12
727.465	26591.67
727.807	26520.49
728.149	26391.45
728.491	26405.46
728.833	26478.68
729.175	26285.02
729.516	26295.86
729.858	26243.21
730.199	26287.73
730.541	26135.19
730.882	26205.24
731.224	26281.4
731.565	26106.49
731.906	26061.97
732.248	26017
732.589	25937.68
732.93	25844.8
733.271	25885.48
733.612	25930.45
733.953	25889.09
734.294	25860.62
734.635	25718.25
734.976	25845.7
735.317	25608.87
735.658	25644.58
735.999	25579.27
736.339	25582.66
736.68	25641.87
737.021	25534.75
737.361	25466.73
737.702	25671.92
738.042	25455.66
738.383	25404.81
738.723	25496.11
739.063	25383.34
739.404	25373.63
739.744	25329.79
740.084	25121.2
740.424	25166.4
740.764	25178.38
741.104	25300.86
741.444	25140.86
741.784	25061.32
742.124	25057.02
742.464	25025.16
742.804	25072.17
743.143	24926.18
743.483	24977.48
743.823	24809.57
744.162	24877.82
744.502	24920.08
744.841	24804.38
745.181	24949.01
745.52	24798.27
745.86	24848.89
746.199	24821.78
746.538	24720.54
746.877	24817.26
747.216	24842.12
747.556	24648.67
747.895	24632.18
748.234	24463.37
748.573	24549.02
748.911	24595.57
749.25	24629.69
749.589	24501.56
749.928	24510.37
750.267	24506.76
750.605	24402.13
750.944	24387.66
751.283	24171.4
751.621	24353.09
751.96	24278.06
752.298	24290.94
752.636	24243.49
752.975	24163.94
753.313	24001.69
753.651	24302.24
753.989	23999.2
754.327	24088.69
754.666	23887.11
755.004	23996.49
755.342	23952.87
755.679	23949.48
756.017	23810.5
756.355	23965.3
756.693	23689.15
757.031	23748.36
757.368	23593.11
757.706	23651.19
758.044	23589.27
758.381	23518.53
758.719	23489.83
759.056	23581.81
759.394	23455.26
759.731	23365.77
760.068	23310.63
760.405	23136.62
760.743	23234.47
761.08	23331.65
761.417	23148.83
761.754	23114.93
762.091	23159.22
762.428	23019.34
762.765	22895.27
763.102	22956.52
763.438	22799.46
763.775	22771.44
764.112	22770.31
764.449	22841.04
764.785	22684.66
765.122	22584.55
765.458	22417.32
765.795	22447.6
766.131	22380.71
766.467	22374.61
766.804	22188.17
767.14	22125.12
767.476	22172.35
767.812	22024.11
768.148	22147.72
768.485	21938.91
768.821	21825.25
769.157	21760.84
769.492	21747.73
769.828	21753.16
770.164	21626.38
770.5	21631.13
770.836	21483.79
771.171	21305.03
771.507	21276.11
771.842	21175.77
772.178	21107.98
772.513	21055.1
772.849	20985.27
773.184	20889.9
773.519	20919.96
773.855	20682
774.19	20656.91
774.525	20634.54
774.86	20594.77
775.195	20521.78
775.53	20483.81
775.865	20368.79
776.2	20331.95
776.535	20138.51
776.87	20005.63
777.205	20057.83
777.539	20038.85
777.874	20012.86
778.209	19814.45
778.543	19859.65
778.878	19679.54
779.212	19759.99
779.547	19636.83
779.881	19623.27
780.215	19487
780.55	19581.46
780.884	19409.49
781.218	19334.01
781.552	19395.25
781.886	19242.04
782.22	19068.26
782.554	19075.04
782.888	18876.85
783.222	18737.42
783.556	18806.12
783.889	18738.32
784.223	18563.18
784.557	18532.9
784.89	18569.06
785.224	18459.91
785.557	18441.61
785.891	18319.57
786.224	18330.42
786.558	18193.02
786.891	18059.92
787.224	18023.54
787.557	18013.82
787.891	17967.95
788.224	17867.38
788.557	17905.57
788.89	17834.84
789.223	17830.55
789.556	17669.42
789.888	17585.13
790.221	17582.19
790.554	17366.15
790.887	17416.77
791.219	17388.53
791.552	17246.16
791.884	17168.87
792.217	17235.76
792.549	17131.36
792.882	17036.22
793.214	16953.51
793.546	16950.12
793.879	16837.35
794.211	16699.73
794.543	16852.72
794.875	16694.31
795.207	16839.39
795.539	16507.19
795.871	16672.61
796.203	16501.32
796.535	16433.52
796.867	16339.51
797.198	16278.5
797.53	16273.53
797.862	16153.98
798.193	16168.22
798.525	16096.81
798.856	16170.93
799.188	15977.94
799.519	15868.79
799.85	15891.39
800.182	15842.35
800.513	15961.67
800.844	15615.24
801.175	15825.4
801.506	15835.12
801.837	15709.93
802.168	15693.66
802.499	15537.05
802.83	15507.9
803.161	15379.31
803.491	15423.15
803.822	15396.49
804.153	15324.63
804.483	15170.96
804.814	15224.74
805.145	15214.57
805.475	15113.56
805.805	15037.63
806.136	15115.14
806.466	15098.64
806.796	15012.09
807.126	14876.05
807.457	14886.22
807.787	14877.86
808.117	14798.09
808.447	14746.34
808.777	14732.55
809.107	14766.22
809.436	14642.84
809.766	14637.86
810.096	14563.97
810.426	14478.77
810.755	14471.77
811.085	14471.09
811.414	14507.47
811.744	14277.87
812.073	14368.27
812.403	14315.61
812.732	14220.47
813.061	14251.66
813.39	14139.12
813.719	14058.22
814.049	14129.4
814.378	14094.83
814.707	14022.06
815.036	14078.1
815.365	13902.06
815.693	13896.64
816.022	13881.73
816.351	13800.37
816.68	13667.72
817.008	13702.3
817.337	13648.06
817.665	13708.4
817.994	13645.8
818.322	13620.04
818.651	13521.51
818.979	13475.18
819.307	13590.66
819.636	13516.54
819.964	13450.32
820.292	13487.39
820.62	13420.72
820.948	13364
821.276	13407.61
821.604	13446.26
821.932	13417.78
822.259	13345.24
822.587	13422.98
822.915	13409.42
823.243	13403.55
823.57	13256.43
823.898	13423.43
824.225	13298.92
824.553	13369.42
824.88	13374.85
825.207	13381.63
825.535	13336.88
825.862	13329.42
826.189	13303.66
826.516	13364.9
826.843	13440.38
827.17	13290.33
827.497	13298.24
827.824	13315.19
828.151	13386.15
828.478	13354.73
828.805	13355.64
829.131	13240.16
829.458	13286.71
829.785	13236.32
830.111	13248.07
830.438	13326.94
830.764	13307.28
831.09	13355.41
831.417	13237.67
831.743	13287.62
832.069	13237.22
832.395	13199.48
832.722	13208.97
833.048	13168.98
833.374	13193.38
833.7	13118.58
834.026	13209.65
834.351	13246.26
834.677	13113.38
835.003	13185.92
835.329	13131.69
835.654	13073.39
835.98	13095.31
836.306	13034.52
836.631	13028.41
836.956	13015.53
837.282	13072.71
837.607	12978.47
837.932	12865.48
838.258	13066.83
838.583	12958.81
838.908	12816.89
839.233	12929.43
839.558	12810.57
839.883	12791.36
840.208	12861.41
840.533	12687.63
840.858	12768.31
841.182	12785.48
841.507	12744.81
841.832	12705.71
842.156	12680.4
842.481	12602.66
842.805	12621.19
843.13	12587.3
843.454	12582.55
843.778	12488.77
844.103	12497.36
844.427	12410.58
844.751	12454.42
845.075	12408.54
845.399	12305.95
845.723	12295.33
846.047	12310.24
846.371	12193.41
846.695	12211.03
847.019	12143.47
847.343	12110.47
847.666	11972.85
847.99	11980.53
848.313	12010.81
848.637	11812.63
848.96	11755.23
849.284	11785.06
849.607	11700.99
849.931	11667.77
850.254	11609.92
850.577	11596.59
850.9	11457.61
851.223	11463.94
851.546	11458.29
851.869	11341.45
852.192	11366.09
852.515	11191.63
852.838	11278.63
853.161	11256.71
853.483	11186.88
853.806	11141.91
854.129	11129.93
854.451	10993.67
854.774	11022.82
855.096	10928.58
855.419	10949.37
855.741	10965.64
856.063	10928.13
856.385	10887.91
856.708	10830.28
857.03	10736.5
857.352	10794.35
857.674	10715.48
857.996	10638.19
858.318	10597.52
858.64	10672.54
858.961	10605.2
859.283	10570.17
859.605	10561.36
859.926	10528.37
860.248	10464.19
860.57	10427.8
860.891	10449.05
861.212	10398.43
861.534	10443.62
861.855	10350.52
862.176	10370.41
862.498	10426.67
862.819	10390.29
863.14	10285.66
863.461	10309.62
863.782	10329.73
864.103	10221.03
864.424	10253.12
864.745	10199.34
865.065	10230.3
865.386	10135.84
865.707	10109.85
866.027	10174.93
866.348	10135.38
866.668	10161.37
866.989	10101.26
867.309	10050.87
867.63	10042.28
867.95	10038.66
868.27	9925.22
868.59	9986.46
868.91	9956.63
869.23	9942.17
869.55	9846.13
869.87	10004.54
870.19	9903.52
870.51	9860.81
870.83	9920.02
871.15	9818.78
871.469	9860.36
871.789	9901.27
872.109	9774.71
872.428	9772
872.748	9816.97
873.067	9788.73
873.386	9776.75
873.706	9717.54
874.025	9637.09
874.344	9699.01
874.663	9705.56
874.982	9745.34
875.301	9642.06
875.62	9661.27
875.939	9547.83
876.258	9559.58
876.577	9586.7
876.896	9567.04
877.214	9508.51
877.533	9545.57
877.852	9479.81
878.17	9487.26
878.489	9492.46
878.807	9412.24
879.125	9471.9
879.444	9431.22
879.762	9444.33
880.08	9460.37
880.398	9360.26
880.716	9405.68
881.034	9304.67
881.352	9346.93
881.67	9348.06
881.988	9303.77
882.306	9229.42
882.624	9224.45
882.941	9217.22
883.259	9216.09
883.577	9187.39
883.894	9158.69
884.212	9161.62
884.529	9134.05
884.846	9066.26
885.164	9074.85
885.481	9057.9
885.798	9055.64
886.115	8948.75
886.432	8993.27
886.75	8993.94
887.067	8968.86
887.383	8863.78
887.7	8949.43
888.017	8908.3
888.334	8887.51
888.651	8777.68
888.967	8842.54
889.284	8800.05
889.6	8749.2
889.917	8703.56
890.233	8639.83
890.55	8667.17
890.866	8665.59
891.182	8648.87
891.498	8613.39
891.815	8600.06
892.131	8527.52
892.447	8553.05
892.763	8534.52
893.079	8541.53
893.395	8472.83
893.71	8472.6
894.026	8450
894.342	8414.3
894.657	8321.19
894.973	8295.66
895.289	8312.15
895.604	8347.63
895.92	8260.63
896.235	8269.22
896.55	8206.62
896.865	8186.96
897.181	8214.53
897.496	8163.01
897.811	8099.05
898.126	8099.5
898.441	8066.06
898.756	8023.12
899.071	8002.11
899.386	7964.14
899.7	7919.62
900.015	7878.49
900.33	7885.05
900.644	7876.69
900.959	7845.27
901.273	7824.48
901.588	7790.36
901.902	7776.58
902.216	7748.33
902.531	7714.2
902.845	7683.92
903.159	7586.52
903.473	7561.67
903.787	7550.82
904.101	7489.8
904.415	7503.14
904.729	7484.15
905.042	7449.35
905.356	7424.95
905.67	7406.64
905.984	7291.16
906.297	7322.35
906.611	7355.57
906.924	7261.33
907.237	7232.18
907.551	7212.3
907.864	7156.03
908.177	7141.34
908.491	7177.95
908.804	7187.44
909.117	7085.97
909.43	7049.81
909.743	7020.66
910.056	6991.74
910.368	6977.05
910.681	6926.43
910.994	6871.51
911.307	6827
911.619	6889.37
911.932	6824.28
912.244	6801.91
912.557	6842.81
912.869	6792.87
913.181	6687.11
913.494	6697.06
913.806	6637.4
914.118	6658.41
914.43	6587.68
914.742	6581.35
915.054	6554.23
915.366	6542.48
915.678	6509.72
915.99	6418.87
916.302	6434.24
916.613	6405.09
916.925	6358.31
917.236	6339.55
917.548	6326.22
917.859	6291.19
918.171	6231.08
918.482	6195.37
918.794	6252.55
919.105	6207.35
919.416	6152.89
919.727	6123.29
920.038	6147.01
920.349	6088.03
920.66	6023.17
920.971	6077.18
921.282	6054.36
921.593	5994.25
921.903	5952.44
922.214	5936.4
922.525	5910.41
922.835	5890.07
923.146	5867.47
923.456	5827.25
923.767	5894.82
924.077	5824.08
924.387	5796.51
924.697	5728.27
925.008	5734.82
925.318	5684.88
925.628	5668.16
925.938	5686.23
926.248	5682.39
926.558	5634.03
926.867	5639.23
927.177	5582.28
927.487	5573.7
927.796	5459.35
928.106	5479.69
928.416	5491.21
928.725	5448.27
929.034	5405.34
929.344	5451.66
929.653	5443.76
929.962	5357.66
930.271	5342.97
930.581	5307.04
930.89	5286.47
931.199	5303.19
931.508	5243.76
931.817	5229.75
932.125	5219.58
932.434	5186.59
932.743	5166.02
933.051	5122.18
933.36	5105.46
933.669	5106.14
933.977	5050.77
934.286	5054.84
934.594	4983.65
934.902	5022.98
935.21	4944.11
935.519	4945.01
935.827	4972.58
936.135	4918.35
936.443	4863.43
936.751	4860.04
937.059	4865.01
937.367	4796.77
937.674	4822.08
937.982	4804.68
938.29	4756.77
938.597	4779.59
938.905	4651.01
939.213	4674.74
939.52	4702.08
939.827	4698.69
940.135	4667.05
940.442	4639.03
940.749	4666.37
941.056	4638.35
941.363	4557.9
941.67	4561.74
941.977	4542.08
942.284	4543.21
942.591	4492.14
942.898	4427.28
943.205	4434.74
943.511	4436.32
943.818	4424.12
944.125	4410.34
944.431	4391.58
944.738	4378.25
945.044	4336.67
945.35	4307.51
945.657	4274.52
945.963	4319.94
946.269	4263.45
946.575	4219.61
946.881	4237.91
947.187	4201.53
947.493	4224.58
947.799	4177.12
948.105	4140.96
948.41	4151.81
948.716	4114.07
949.022	4116.56
949.327	4077.92
949.633	4076.56
949.938	4058.48
950.244	4085.37
950.549	4053.96
950.854	4008.31
951.16	3974.87
951.465	3956.11
951.77	3953.17
952.075	3889.9
952.38	3928.99
952.685	3869.56
952.99	3867.07
953.294	3849.9
953.599	3864.81
953.904	3829.79
954.209	3833.4
954.513	3797.92
954.818	3740.3
955.122	3740.75
955.426	3724.7
955.731	3732.16
956.035	3726.96
956.339	3676.12
956.643	3667.76
956.948	3647.42
957.252	3642.67
957.556	3625.95
957.86	3631.6
958.163	3577.82
958.467	3573.97
958.771	3577.59
959.075	3591.15
959.378	3535.56
959.682	3576.91
959.985	3543.24
960.289	3517.7
960.592	3468.44
960.896	3495.56
961.199	3455.56
961.502	3448.33
961.805	3431.15
962.108	3397.26
962.411	3389.12
962.714	3350.48
963.017	3350.93
963.32	3368.1
963.623	3326.75
963.926	3305.51
964.228	3278.61
964.531	3292.4
964.833	3255.11
965.136	3242.23
965.438	3222.57
965.741	3199.52
966.043	3240.88
966.345	3180.99
966.648	3194.77
966.95	3211.27
967.252	3169.92
967.554	3180.09
967.856	3129.01
968.158	3119.52
968.46	3114.55
968.761	3106.64
969.063	3053.76
969.365	3083.82
969.666	3090.14
969.968	3038.17
970.269	3063.03
970.571	3004.27
970.872	3032.07
971.174	2964.72
971.475	2953.65
971.776	2932.41
972.077	2940.54
972.378	2954.78
972.679	2961.56
972.98	2938.06
973.281	2872.3
973.582	2892.18
973.883	2904.39
974.183	2839.3
974.484	2861.68
974.785	2839.3
975.085	2836.37
975.386	2841.56
975.686	2792.3
975.986	2809.25
976.287	2782.81
976.587	2763.37
976.887	2752.3
977.187	2772.19
977.487	2749.81
977.787	2722.7
978.087	2698.97
978.387	2701.45
978.687	2694.67
978.987	2659.87
979.286	2643.15
979.586	2622.36
979.885	2655.81
980.185	2621.91
980.484	2628.69
980.784	2598.18
981.083	2555.47
981.382	2540.78
981.682	2582.59
981.981	2557.28
982.28	2540.33
982.579	2556.6
982.878	2516.37
983.177	2483.38
983.475	2505.53
983.774	2472.31
984.073	2431.4
984.372	2463.27
984.67	2430.5
984.969	2418.3
985.267	2441.35
985.566	2447.9
985.864	2416.94
986.162	2386.66
986.461	2415.59
986.759	2408.81
987.057	2359.09
987.355	2346.21
987.653	2346.44
987.951	2343.5
988.249	2325.42
988.547	2285.87
988.844	2313.89
989.142	2304.18
989.44	2322.26
989.737	2269.15
990.035	2269.6
990.332	2275.7
990.63	2205.87
990.927	2237.74
991.224	2243.16
991.521	2218.08
991.819	2217.85
992.116	2189.83
992.413	2178.3
992.71	2171.52
993.006	2131.98
993.303	2180.56
993.6	2163.84
993.897	2158.19
994.193	2115.03
994.49	2126.1
994.787	2121.36
995.083	2035.48
995.379	2085.43
995.676	2053.56
995.972	2067.35
996.268	2047.23
996.565	2046.1
996.861	2046.33
997.157	2030.96
997.453	2017.63
997.749	2007.91
998.044	1956.39
998.34	1994.35
998.636	1983.96
998.932	1945.99
999.227	1953.9
999.523	1936.95
999.818	1940.57
1000.114	1902.15
1000.409	1900.8
1000.704	1892.66
1001	1887.92
1001.295	1872.55
1001.59	1873.68
1001.885	1857.86
1002.18	1864.64
1002.475	1864.87
1002.77	1813.34
1003.065	1826
1003.359	1817.86
1003.654	1801.37
1003.949	1823.06
1004.243	1785.09
1004.538	1759.78
1004.832	1791.65
1005.127	1751.65
1005.421	1767.02
1005.715	1737.86
1006.009	1736.73
1006.304	1729.95
1006.598	1700.8
1006.892	1681.14
1007.186	1688.37
1007.48	1691.76
1007.773	1643.4
1008.067	1634.59
1008.361	1633.91
1008.655	1640.69
1008.948	1609.05
1009.242	1610.86
1009.535	1625.32
1009.829	1586.68
1010.122	1597.3
1010.415	1598.66
1010.708	1597.75
1011.001	1574.48
1011.295	1553.01
1011.588	1553.69
1011.881	1562.73
1012.173	1560.02
1012.466	1533.8
1012.759	1506.68
1013.052	1511.2
1013.344	1478.66
1013.637	1500.81
1013.93	1454.26
1014.222	1498.77
1014.514	1466.46
1014.807	1445.67
1015.099	1443.86
1015.391	1456.29
1015.683	1421.26
1015.976	1445.67
1016.268	1401.15
1016.56	1402.28
1016.851	1379.23
1017.143	1391.66
1017.435	1382.17
1017.727	1363.41
1018.018	1364.09
1018.31	1373.81
1018.602	1341.94
1018.893	1325.9
1019.185	1358.89
1019.476	1328.16
1019.767	1310.53
1020.058	1294.26
1020.35	1305.11
1020.641	1271.89
1020.932	1279.34
1021.223	1276.18
1021.514	1250.19
1021.804	1274.6
1022.095	1236.41
1022.386	1270.31
1022.677	1252.23
1022.967	1232.34
1023.258	1246.8
1023.548	1219.23
1023.839	1205
1024.129	1182.62
1024.419	1186.69
1024.709	1171.1
1025	1189.63
1025.29	1162.51
1025.58	1169.52
1025.87	1154.38
1026.16	1131.55
1026.449	1151.89
1026.739	1138.33
1027.029	1120.93
1027.319	1113.47
1027.608	1099.91
1027.898	1117.54
1028.187	1126.35
1028.477	1099.91
1028.766	1069.86
1029.055	1045.9
1029.344	1063.76
1029.634	1073.25
1029.923	1047.94
1030.212	1043.19
1030.501	1044.77
1030.79	1018.11
1031.078	1021.72
1031.367	1018.33
1031.656	1025.57
1031.945	1015.62
1032.233	1023.08
1032.522	998.9
1032.81	993.25
1033.099	972.23
1033.387	960.48
1033.675	985.12
1033.963	975.17
1034.251	964.1
1034.54	971.33
1034.828	960.71
1035.116	955.06
1035.403	931.33
1035.691	928.17
1035.979	918.45
1036.267	928.85
1036.554	888.62
1036.842	904.21
1037.129	919.58
1037.417	898.11
1037.704	894.5
1037.992	908.96
1038.279	887.72
1038.566	870.09
1038.853	870.09
1039.14	870.09
