Data from hue_120_FLMS001491_00098.txt Node
Date: Tue Feb 07 17:00:17 GMT 2017
User: dcchb
Spectrometer: FLMS00149
Trigger mode: 0
Integration Time (sec): 2.000000E-2
Scans to average: 10
Electric dark correction enabled: true
Nonlinearity correction enabled: false
Boxcar width: 0
XAxis mode: Wavelengths
Number of Pixels in Spectrum: 2048
>>>>>Begin Spectral Data<<<<<
341.393	-16.3
341.776	-16.3
342.16	-16.3
342.543	-54.72
342.927	-73.47
343.31	-71.66
343.693	-57.2
344.077	-65.79
344.46	-61.27
344.843	-51.33
345.226	-35.06
345.61	-34.6
345.993	-10.2
346.376	-9.97
346.759	8.33
347.142	14.21
347.525	51.95
347.908	56.69
348.291	83.81
348.674	79.74
349.057	102.34
349.44	121.55
349.823	138.5
350.206	173.98
350.588	187.09
350.971	203.81
351.354	237.03
351.737	219.63
352.119	239.74
352.502	264.37
352.884	263.02
353.267	277.93
353.65	291.94
354.032	307.76
354.414	285.61
354.797	316.12
355.179	309.57
355.562	289.68
355.944	310.47
356.326	338.04
356.709	341.66
357.091	330.58
357.473	327.65
357.855	343.69
358.238	342.56
358.62	342.79
359.002	330.81
359.384	331.04
359.766	347.31
360.148	350.25
360.53	336.91
360.912	314.31
361.294	335.33
361.676	329.23
362.057	338.49
362.439	332.17
362.821	319.06
363.203	315.22
363.584	325.39
363.966	340.3
364.348	326.97
364.729	322.68
365.111	330.81
365.493	326.52
365.874	324.03
366.256	322
366.637	308.44
367.019	303.47
367.4	301.21
367.781	297.59
368.163	310.02
368.544	291.94
368.925	331.71
369.306	312.73
369.688	306.86
370.069	305.05
370.45	279.51
370.831	304.14
371.212	306.18
371.593	330.58
371.974	343.01
372.355	319.96
372.736	314.09
373.117	312.73
373.498	307.31
373.879	313.18
374.26	315.44
374.641	298.49
375.021	315.9
375.402	312.96
375.783	313.64
376.163	343.92
376.544	326.06
376.925	335.1
377.305	326.06
377.686	308.21
378.066	330.36
378.447	326.74
378.827	320.64
379.208	321.77
379.588	323.35
379.968	330.81
380.349	328.1
380.729	336.46
381.109	332.39
381.489	334.43
381.87	327.65
382.25	320.87
382.63	334.88
383.01	317.93
383.39	333.97
383.77	359.96
384.15	369.91
384.53	333.07
384.91	338.49
385.29	364.03
385.67	336.46
386.049	357.25
386.429	351.83
386.809	361.77
387.189	355.89
387.568	349.34
387.948	356.35
388.328	353.18
388.707	325.39
389.087	347.53
389.466	358.15
389.846	365.61
390.225	362.67
390.605	364.93
390.984	377.81
391.363	377.59
391.743	375.1
392.122	345.5
392.501	396.8
392.881	374.65
393.26	358.61
393.639	365.16
394.018	372.62
394.397	358.15
394.776	363.8
395.155	358.38
395.534	384.59
395.913	387.98
396.292	371.49
396.671	364.26
397.05	376.91
397.429	392.05
397.808	391.83
398.186	397.7
398.565	384.82
398.944	381.88
399.323	391.37
399.701	385.95
400.08	397.48
400.458	405.61
400.837	417.81
401.215	390.47
401.594	410.81
401.972	387.31
402.351	416.46
402.729	425.27
403.107	395.44
403.486	411.94
403.864	401.09
404.242	405.61
404.62	413.97
404.999	407.64
405.377	417.36
405.755	424.14
406.133	422.56
406.511	427.53
406.889	416.68
407.267	432.95
407.645	425.72
408.023	425.05
408.401	434.54
408.779	422.79
409.156	453.07
409.534	440.86
409.912	438.6
410.29	460.75
410.667	454.42
411.045	455.55
411.422	464.14
411.8	469.56
412.178	484.25
412.555	461.2
412.933	481.54
413.31	456.68
413.687	486.74
414.065	500.52
414.442	501.65
414.819	496.46
415.197	499.62
415.574	485.83
415.951	480.86
416.328	527.19
416.705	515.44
417.082	516.79
417.46	505.27
417.837	511.6
418.214	518.38
418.591	512.95
418.967	509.34
419.344	520.86
419.721	514.99
420.098	532.61
420.475	537.58
420.852	522.67
421.228	534.42
421.605	533.74
421.982	565.15
422.358	545.49
422.735	561.09
423.111	566.51
423.488	581.65
423.864	578.94
424.241	572.39
424.617	553.63
424.994	585.04
425.37	588.2
425.746	606.28
426.123	584.59
426.499	600.86
426.875	614.19
427.251	581.65
427.627	617.58
428.003	610.35
428.379	599.96
428.756	607.41
429.132	626.4
429.507	630.92
429.883	637.02
430.259	660.75
430.635	661.88
431.011	645.6
431.387	643.12
431.763	661.65
432.138	674.53
432.514	678.37
432.89	647.19
433.265	679.5
433.641	701.87
434.016	695.77
434.392	706.85
434.767	716.34
435.143	728.77
435.518	733.74
435.894	747.52
436.269	751.36
436.644	740.07
437.02	764.02
437.395	757.69
437.77	764.47
438.145	756.34
438.52	781.42
438.895	784.81
439.271	765.6
439.646	798.14
440.021	799.72
440.395	778.71
440.77	823.45
441.145	803.11
441.52	825.71
441.895	814.41
442.27	810.12
442.645	822.32
443.019	845.15
443.394	855.99
443.769	853.51
444.143	812.61
444.518	834.75
444.892	847.86
445.267	866.62
445.641	866.39
446.016	886.73
446.39	876.33
446.764	879.72
447.139	855.99
447.513	918.59
447.887	930.57
448.262	905.26
448.636	909.33
449.01	920.17
449.384	914.52
449.758	930.12
450.132	947.74
450.506	957.46
450.88	951.13
451.254	949.1
451.628	967.86
452.002	972.6
452.376	1015.09
452.75	990.68
453.123	990.91
453.497	1026.16
453.871	1023.67
454.244	1048.08
454.618	1027.97
454.992	1047.4
455.365	1039.94
455.739	1068.19
456.112	1101.64
456.486	1102.77
456.859	1092.6
457.232	1122.2
457.606	1109.77
457.979	1130.34
458.352	1179.6
458.725	1161.98
459.099	1207.4
459.472	1230.22
459.845	1227.96
460.218	1225.93
460.591	1232.48
460.964	1250.33
461.337	1248.98
461.71	1293.72
462.083	1315.19
462.456	1315.42
462.829	1326.94
463.201	1349.77
463.574	1356.77
463.947	1393.38
464.32	1408.3
464.692	1402.87
465.065	1425.02
465.438	1462.76
465.81	1460.05
466.183	1506.6
466.555	1492.36
466.928	1544.11
467.3	1545.92
467.672	1586.82
468.045	1631.57
468.417	1636.54
468.789	1623.43
469.161	1671.57
469.534	1672.7
469.906	1743.43
470.278	1758.34
470.65	1772.58
471.022	1865.91
471.394	1879.02
471.766	1898.9
472.138	1942.07
472.51	1988.39
472.882	2021.61
473.253	2032.91
473.625	2050.77
473.997	2120.37
474.369	2156.53
474.74	2221.61
475.112	2235.85
475.484	2326.69
475.855	2370.53
476.227	2416.86
476.598	2498.66
476.97	2508.83
477.341	2651.43
477.713	2639.9
478.084	2676.74
478.455	2811.2
478.827	2870.4
479.198	3001.02
479.569	3028.14
479.94	3139.1
480.311	3151.3
480.682	3294.8
481.053	3365.53
481.424	3466.1
481.795	3519.43
482.166	3590.61
482.537	3718.97
482.908	3876.03
483.279	3892.98
483.65	4040.32
484.021	4144.72
484.391	4238.28
484.762	4320.54
485.133	4403.92
485.503	4517.37
485.874	4697.93
486.244	4794.2
486.615	4934.76
486.985	5007.75
487.356	5216.78
487.726	5270.34
488.097	5447.74
488.467	5486.16
488.837	5700.16
489.207	5797.79
489.578	5929.53
489.948	6026.48
490.318	6239.81
490.688	6289.3
491.058	6498.33
491.428	6611.78
491.798	6735.61
492.168	6934.25
492.538	7033.01
492.908	7115.72
493.278	7328.37
493.648	7358.2
494.017	7537.4
494.387	7692.2
494.757	7774.91
495.126	7933.1
495.496	8021
495.866	8118.4
496.235	8346.64
496.605	8456.7
496.974	8531.27
497.344	8730.36
497.713	8767.65
498.082	8904.14
498.452	9093.97
498.821	9171.71
499.19	9179.84
499.559	9348.43
499.928	9475.65
500.298	9547.52
500.667	9683.33
501.036	9693.73
501.405	9879.03
501.774	9882.42
502.143	10052.14
502.512	10141.17
502.88	10245.13
503.249	10278.8
503.618	10429.3
503.987	10391.11
504.356	10560.15
504.724	10643.31
505.093	10761.5
505.462	10797.43
505.83	10860.7
506.199	10974.6
506.567	11165.1
506.936	11104.76
507.304	11228.6
507.672	11402.61
508.041	11350.86
508.409	11467.01
508.777	11541.82
509.145	11693
509.514	11680.34
509.882	11771.19
510.25	11784.07
510.618	11864.07
510.986	11879.66
511.354	12064.51
511.722	12067.23
512.09	12104.51
512.458	12141.8
512.826	12252.98
513.193	12342.47
513.561	12332.3
513.929	12391.96
514.297	12473.54
514.664	12539.08
515.032	12553.77
515.4	12645.06
515.767	12644.39
516.135	12766.87
516.502	12668.79
516.869	12871.05
517.237	12887.32
517.604	12908.11
517.972	12972.06
518.339	12898.39
518.706	12947.65
519.073	12974.09
519.44	13016.8
519.808	13080.08
520.175	13163.24
520.542	13200.53
520.909	13282.33
521.276	13273.97
521.643	13352.16
522.009	13402.78
522.376	13402.56
522.743	13395.55
523.11	13478.49
523.477	13605.72
523.843	13614.98
524.21	13678.93
524.577	13737.24
524.943	13734.53
525.31	13849.33
525.676	13819.5
526.043	13874.64
526.409	13879.61
526.776	13873.28
527.142	13960.96
527.508	13940.85
527.874	14054.74
528.241	14074.4
528.607	14011.58
528.973	14138.13
529.339	13994.18
529.705	14107.4
530.071	14171.58
530.437	14188.3
530.803	14126.15
531.169	14171.58
531.535	14109.21
531.901	14065.36
532.267	14097.45
532.632	14202.08
532.998	14218.13
533.364	14165.93
533.73	14236.89
534.095	14221.52
534.461	14177.68
534.826	14165.47
535.192	14178.13
535.557	14191.46
535.923	14101.97
536.288	14078.7
536.653	14153.05
537.019	14063.1
537.384	14068.53
537.749	14027.17
538.114	13950.34
538.479	14012.48
538.845	14003.45
539.21	13910.57
539.575	13986.04
539.94	13968.64
540.305	13930.45
540.67	13868.31
541.034	13839.61
541.399	13788.31
541.764	13811.13
542.129	13880.51
542.494	13792.15
542.858	13812.04
543.223	13718.48
543.587	13755.77
543.952	13626.51
544.316	13668.76
544.681	13700.4
545.045	13705.37
545.41	13720.06
545.774	13561.42
546.138	13601.2
546.503	13550.35
546.867	13567.3
547.231	13487.53
547.595	13507.64
547.959	13395.78
548.324	13375.44
548.688	13365.27
549.052	13414.08
549.416	13353.07
549.779	13289.34
550.143	13329.11
550.507	13250.47
550.871	13359.62
551.235	13208.89
551.599	13232.84
551.962	13152.85
552.326	13200.98
552.689	13238.27
553.053	13098.16
553.417	13078.72
553.78	13143.35
554.143	13054.77
554.507	13096.8
554.87	13113.3
555.234	13204.37
555.597	13013.64
555.96	12957.15
556.323	12991.27
556.686	13036.47
557.05	13062
557.413	13069.68
557.776	13009.8
558.139	13063.58
558.502	13003.02
558.865	12903.36
559.228	13078.05
559.59	13003.92
559.953	12953.53
560.316	13103.13
560.679	13027.43
561.041	13084.83
561.404	13084.15
561.767	13069.01
562.129	13019.74
562.492	13141.32
562.854	13075.11
563.217	13063.13
563.579	13003.47
563.941	13147.42
564.304	13186.29
564.666	13191.26
565.028	13130.47
565.39	13132.51
565.753	13201.43
566.115	13256.8
566.477	13292.96
566.839	13223.8
567.201	13294.99
567.563	13256.12
567.925	13291.83
568.287	13323.24
568.648	13285.5
569.01	13447.08
569.372	13348.32
569.734	13332.95
570.095	13422.44
570.457	13355.78
570.819	13386.96
571.18	13376.34
571.542	13422.44
571.903	13483.01
572.265	13484.59
572.626	13448.43
572.987	13485.04
573.349	13517.36
573.71	13377.02
574.071	13508.54
574.432	13559.39
574.794	13628.77
575.155	13575.89
575.516	13480.07
575.877	13525.72
576.238	13562.78
576.599	13615.88
576.96	13611.59
577.32	13525.72
577.681	13676.9
578.042	13592.61
578.403	13574.98
578.763	13604.81
579.124	13567.98
579.485	13661.76
579.845	13676.67
580.206	13546.96
580.566	13578.6
580.927	13574.08
581.287	13586.28
581.648	13604.59
582.008	13659.27
582.368	13602.33
582.728	13667.41
583.089	13619.5
583.449	13554.19
583.809	13638.48
584.169	13615.43
584.529	13546.51
584.889	13658.37
585.249	13580.18
585.609	13506.96
585.969	13556.23
586.329	13531.37
586.688	13569.11
587.048	13531.59
587.408	13549.45
587.768	13461.76
588.127	13485.04
588.487	13443.69
588.846	13576.11
589.206	13419.28
589.565	13447.08
589.925	13570.91
590.284	13363.46
590.643	13438.26
591.003	13453.63
591.362	13460.63
591.721	13494.76
592.08	13344.71
592.44	13381.77
592.799	13435.1
593.158	13364.59
593.517	13399.17
593.876	13371.82
594.235	13479.39
594.593	13414.08
594.952	13440.75
595.311	13273.3
595.67	13438.04
596.029	13456.34
596.387	13423.35
596.746	13384.93
597.104	13283.01
597.463	13328.21
597.822	13469.67
598.18	13335.44
598.538	13287.98
598.897	13534.76
599.255	13228.1
599.613	13451.37
599.972	13339.28
600.33	13403.24
600.688	13313.52
601.046	13323.01
601.404	13420.41
601.762	13441.88
602.12	13449.11
602.478	13361.88
602.836	13429
603.194	13325.27
603.552	13375.89
603.91	13287.08
604.268	13298.15
604.625	13306.51
604.983	13273.97
605.341	13301.99
605.698	13304.25
606.056	13393.97
606.413	13374.08
606.771	13378.15
607.128	13433.06
607.485	13343.58
607.843	13372.05
608.2	13447.53
608.557	13446.4
608.914	13432.84
609.272	13421.09
609.629	13429.22
609.986	13487.98
610.343	13483.23
610.7	13513.97
611.057	13541.76
611.414	13496.11
611.771	13492.95
612.127	13588.77
612.484	13518.03
612.841	13616.79
613.198	13523.46
613.554	13483.01
613.911	13557.36
614.267	13570.91
614.624	13617.92
614.98	13625.15
615.337	13617.47
615.693	13618.82
616.05	13563.91
616.406	13699.72
616.762	13625.15
617.118	13604.81
617.475	13638.94
617.831	13745.6
618.187	13726.39
618.543	13631.03
618.899	13753.73
619.255	13797.35
619.611	13726.84
619.967	13802.55
620.323	13724.58
620.678	13781.3
621.034	13686.17
621.39	13767.52
621.746	13684.81
622.101	13839.61
622.457	13640.07
622.812	13685.49
623.168	13661.53
623.523	13737.01
623.879	13854.3
624.234	13651.59
624.589	13805.71
624.945	13757.58
625.3	13775.2
625.655	13709.67
626.01	13788.08
626.365	13772.04
626.72	13804.81
627.075	13723.45
627.43	13758.25
627.785	13749.67
628.14	13713.96
628.495	13789.67
628.85	13713.74
629.205	13671.48
629.559	13761.19
629.914	13606.62
630.269	13688.65
630.623	13685.26
630.978	13600.07
631.332	13756.67
631.687	13675.32
632.041	13725.71
632.396	13640.74
632.75	13604.59
633.104	13652.27
633.459	13608.43
633.813	13622.44
634.167	13568.43
634.521	13576.34
634.875	13577.92
635.229	13571.82
635.583	13481.65
635.937	13494.76
636.291	13400.52
636.645	13484.14
636.999	13478.49
637.352	13452.73
637.706	13319.85
638.06	13452.73
638.413	13351.94
638.767	13391.03
639.121	13396.46
639.474	13316.68
639.828	13398.49
640.181	13300.19
640.534	13294.76
640.888	13257.7
641.241	13240.53
641.594	13264.93
641.947	13266.29
642.301	13205.05
642.654	13204.37
643.007	13224.71
643.36	13188.1
643.713	13136.35
644.066	13251.15
644.419	13160.08
644.771	13158.95
645.124	12980.2
645.477	12976.58
645.83	12917.15
646.182	12823.14
646.535	12796.25
646.888	12740.2
647.24	12755.79
647.593	12776.36
647.945	12695.68
648.298	12797.15
648.65	12664.27
649.002	12597.15
649.355	12711.05
649.707	12753.08
650.059	12833.31
650.411	12951.5
650.763	12885.51
651.115	13039.85
651.467	12997.37
651.819	12908.78
652.171	12985.39
652.523	13031.95
652.875	12949.91
653.227	12895.45
653.578	13008.9
653.93	13014.09
654.282	12992.17
654.633	12921.89
654.985	13001.66
655.337	12962.79
655.688	13023.58
656.039	12980.65
656.391	12896.36
656.742	12894.55
657.094	12984.26
657.445	13074.66
657.796	13017.71
658.147	13050.02
658.498	12936.58
658.849	12991.72
659.2	12913.76
659.551	12942.23
659.902	12959.41
660.253	13010.93
660.604	13050.02
660.955	12987.2
661.306	12994.88
661.656	12958.73
662.007	12966.86
662.358	12989.69
662.708	12952.17
663.059	13086.18
663.409	12971.38
663.76	13007.31
664.11	12986.3
664.461	13007.31
664.811	13055.45
665.161	12987.88
665.511	13049.8
665.862	13056.58
666.212	13090.93
666.562	13074.2
666.912	13055.22
667.262	13025.39
667.612	13029.01
667.962	13021.1
668.312	13023.13
668.662	13085.96
669.011	12988.78
669.361	12998.5
669.711	12953.76
670.06	13080.08
670.41	12946.3
670.76	12999.86
671.109	12966.64
671.459	12970.03
671.808	12994.43
672.157	13002.34
672.507	12846.87
672.856	12854.55
673.205	12936.13
673.554	13012.28
673.904	12960.53
674.253	12994.88
674.602	12968.67
674.951	12735.46
675.3	12680.32
675.649	12835.11
675.998	12839.86
676.346	12815.45
676.695	12902.91
677.044	12781.33
677.393	12836.02
677.741	12790.14
678.09	12766.87
678.438	12717.83
678.787	12704.72
679.135	12689.13
679.484	12673.08
679.832	12744.04
680.181	12536.82
680.529	12644.84
680.877	12586.08
681.225	12602.13
681.573	12603.71
681.922	12452.98
682.27	12518.74
682.618	12578.62
682.966	12426.31
683.314	12558.96
683.661	12462.47
684.009	12383.83
684.357	12411.85
684.705	12357.39
685.053	12329.37
685.4	12318.07
685.748	12260.44
686.095	12224.96
686.443	12186.77
686.79	12265.86
687.138	12207.56
687.485	12235.58
687.832	12155.13
688.18	12187
688.527	12114.68
688.874	12043.72
689.221	12035.81
689.568	11998.98
689.915	11921.69
690.262	11969.15
690.609	11878.98
690.956	11976.15
691.303	11852.32
691.65	11836.04
691.997	11802.83
692.344	11678.99
692.69	11694.81
693.037	11733.22
693.383	11524.87
693.73	11576.16
694.077	11484.19
694.423	11529.16
694.769	11430.41
695.116	11449.16
695.462	11395.83
695.808	11351.76
696.155	11398.32
696.501	11294.36
696.847	11290.75
697.193	11168.94
697.539	11229.06
697.885	11077.87
698.231	11073.8
698.577	11002.85
698.923	11039
699.269	11012.56
699.614	10958.1
699.96	10931.44
700.306	10906.13
700.651	10791.1
700.997	10760.82
701.342	10756.07
701.688	10722.4
702.033	10610.09
702.379	10648.05
702.724	10658.9
703.069	10642.4
703.415	10494.61
703.76	10470.88
704.105	10516.08
704.45	10440.38
704.795	10335.29
705.14	10301.85
705.485	10275.86
705.83	10223.66
706.175	10247.16
706.52	10243.77
706.865	10221.85
707.209	10238.35
707.554	10092.36
707.899	10165.35
708.243	10125.58
708.588	10110.21
708.932	10030.89
709.277	9999.71
709.621	10020.27
709.966	9921.52
710.31	9931.69
710.654	9886.94
710.998	9952.03
711.342	9893.95
711.687	9908.64
712.031	9855.08
712.375	9712.26
712.719	9774.18
713.063	9744.8
713.407	9790
713.75	9739.38
714.094	9687.4
714.438	9629.55
714.782	9647.85
715.125	9622.77
715.469	9648.98
715.812	9620.74
716.156	9550.23
716.499	9541.19
716.843	9556.1
717.186	9495.32
717.53	9488.08
717.873	9505.03
718.216	9521.98
718.559	9433.17
718.902	9389.33
719.246	9538.25
719.589	9453.51
719.932	9394.08
720.275	9445.37
720.617	9468.65
720.96	9365.15
721.303	9328.99
721.646	9345.26
721.989	9288.77
722.331	9302.55
722.674	9336.68
723.016	9324.02
723.359	9249.45
723.701	9315.21
724.044	9307.98
724.386	9227.3
724.729	9276.34
725.071	9294.87
725.413	9235.89
725.755	9206.06
726.097	9232.05
726.439	9143.69
726.782	9149.56
727.124	9155.44
727.465	9148.88
727.807	9166.51
728.149	9120.41
728.491	9122.9
728.833	9107.75
729.175	9154.08
729.516	9125.16
729.858	9129
730.199	9127.42
730.541	9127.87
730.882	9010.58
731.224	9059.85
731.565	8997.02
731.906	9121.09
732.248	9148.66
732.589	9034.31
732.93	9041.99
733.271	9044.93
733.612	9069.11
733.953	9087.19
734.294	9051.03
734.635	8976.68
734.976	9016.91
735.317	8964.03
735.658	9022.79
735.999	9024.14
736.339	9076.8
736.68	9117.7
737.021	9056.91
737.361	9038.38
737.702	9065.5
738.042	9092.16
738.383	9062.33
738.723	9078.38
739.063	9166.06
739.404	9112.73
739.744	9149.79
740.084	9144.82
740.424	9116.57
740.764	9114.53
741.104	9177.58
741.444	9107.98
741.784	9126.74
742.124	9237.92
742.464	9198.6
742.804	9181.88
743.143	9210.58
743.483	9214.19
743.823	9233.4
744.162	9202.89
744.502	9279.05
744.841	9189.79
745.181	9345.49
745.52	9377.8
745.86	9449.67
746.199	9494.64
746.538	9470.68
746.877	9576.9
747.216	9624.13
747.556	9581.19
747.895	9694.41
748.234	9710.45
748.573	9730.56
748.911	9797.23
749.25	9848.3
749.589	9826.38
749.928	10008.52
750.267	10036.32
750.605	10147.73
750.944	10222.75
751.283	10234.73
751.621	10381.62
751.96	10388.17
752.298	10455.52
752.636	10577.55
752.975	10664.78
753.313	10697.54
753.651	10872.45
753.989	10836.97
754.327	11029.06
754.666	11065.22
755.004	11248.26
755.342	11343.4
755.679	11475.83
756.017	11603.51
756.355	11727.35
756.693	11846.44
757.031	12012.76
757.368	12094.79
757.706	12247.79
758.044	12313.77
758.381	12611.17
758.719	12646.42
759.056	12869.92
759.394	12926.19
759.731	13079.63
760.068	13212.05
760.405	13279.62
760.743	13470.13
761.08	13678.48
761.417	13796.67
761.754	13927.97
762.091	14137.23
762.428	14321.86
762.765	14451.34
763.102	14640.72
763.438	14710.09
763.775	14779.92
764.112	15039.58
764.449	15197.99
764.785	15348.72
765.122	15362.73
765.458	15506.91
765.795	15734.47
766.131	15841.36
766.467	15974.02
766.804	16070.96
767.14	16217.17
767.476	16279.77
767.812	16479.09
768.148	16543.72
768.485	16666.65
768.821	16762.92
769.157	16838.85
769.492	17016.47
769.828	17129.92
770.164	17102.8
770.5	17295.79
770.836	17394.77
771.171	17394.32
771.507	17446.52
771.842	17587.08
772.178	17776.91
772.513	17824.14
772.849	17803.57
773.184	17769.67
773.519	18090.34
773.855	18011.93
774.19	18115.88
774.525	18149.78
774.86	18229.32
775.195	18281.98
775.53	18326.5
775.865	18258.02
776.2	18215.54
776.535	18171.7
776.87	18344.35
777.205	18366.49
777.539	18337.57
777.874	18429.77
778.209	18402.65
778.543	18352.94
778.878	18414.63
779.212	18456.66
779.547	18405.14
779.881	18502.31
780.215	18458.7
780.55	18521.07
780.884	18516.1
781.218	18455.98
781.552	18627.28
781.886	18491.46
782.22	18442.42
782.554	18537.56
782.888	18379.15
783.222	18397
783.556	18375.53
783.889	18369.43
784.223	18254.41
784.557	18372.82
784.89	18400.84
785.224	18256.67
785.557	18303.22
785.891	18278.36
786.224	18284.46
786.558	18175.99
786.891	18161.98
787.224	18082.66
787.557	18097.35
787.891	18209.89
788.224	18097.35
788.557	18226.39
788.89	18032.94
789.223	18166.05
789.556	18009.89
789.888	18027.75
790.221	17950.46
790.554	17865.94
790.887	17821.65
791.219	17761.54
791.552	17860.52
791.884	17719.73
792.217	17708.66
792.549	17686.29
792.882	17692.16
793.214	17612.16
793.546	17669.79
793.879	17510.7
794.211	17506.18
794.543	17456.91
794.875	17452.17
795.207	17482.9
795.539	17452.39
795.871	17372.4
796.203	17304.6
796.535	17227.54
796.867	17190.03
797.198	17075
797.53	17093.31
797.862	17061.44
798.193	17056.25
798.525	17002.46
798.856	17076.58
799.188	16812.86
799.519	16805.41
799.85	16686.76
800.182	16683.83
800.513	16764.95
800.844	16586.88
801.175	16775.8
801.506	16670.95
801.837	16564.96
802.168	16585.07
802.499	16350.5
802.83	16435.25
803.161	16452.19
803.491	16377.17
803.822	16378.07
804.153	16260.56
804.483	16190.73
804.814	16211.97
805.145	16145.31
805.475	16193.67
805.805	16011.3
806.136	16152.54
806.466	16033.67
806.796	16023.96
807.126	15948.25
807.457	16000.68
807.787	15963.62
808.117	15896.95
808.447	15757.07
808.777	15858.54
809.107	15664.42
809.436	15618.09
809.766	15680.92
810.096	15670.97
810.426	15553.46
810.755	15555.27
811.085	15586.68
811.414	15557.08
811.744	15458.32
812.073	15464.2
812.403	15372.67
812.732	15279.34
813.061	15375.84
813.39	15190.08
813.719	15218.1
814.049	15319.34
814.378	15223.07
814.707	15118.22
815.036	15135.62
815.365	15113.02
815.693	15002.52
816.022	15027.6
816.351	15000.03
816.68	14919.13
817.008	14937.43
817.337	14823.76
817.665	14791
817.994	14843.42
818.322	14851.33
818.651	14776.08
818.979	14699.02
819.307	14858.34
819.636	14814.05
819.964	14672.58
820.292	14668.29
820.62	14708.74
820.948	14666.03
821.276	14708.74
821.604	14618.34
821.932	14785.57
822.259	14631.23
822.587	14567.95
822.915	14675.74
823.243	14635.97
823.57	14583.54
823.898	14675.52
824.225	14533.6
824.553	14480.49
824.88	14529.99
825.207	14598.01
825.535	14533.83
825.862	14580.83
826.189	14547.61
826.516	14628.97
826.843	14659.02
827.17	14680.49
827.497	14678.68
827.824	14602.98
828.151	14614.95
828.478	14599.59
828.805	14627.84
829.131	14650.66
829.458	14633.03
829.785	14511
830.111	14576.76
830.438	14708.06
830.764	14581.96
831.09	14664.22
831.417	14591
831.743	14552.36
832.069	14608.85
832.395	14544.45
832.722	14569.53
833.048	14496.54
833.374	14462.64
833.7	14474.39
834.026	14592.13
834.351	14600.72
834.677	14457.44
835.003	14519.82
835.329	14415.41
835.654	14452.02
835.98	14367.96
836.306	14381.51
836.631	14428.52
836.956	14388.07
837.282	14420.16
837.607	14290.22
837.932	14335.41
838.258	14271.91
838.583	14249.54
838.908	14144.01
839.233	14220.39
839.558	14221.52
839.883	14114.85
840.208	14020.62
840.533	14122.09
840.858	14084.8
841.182	14036.89
841.507	14046.83
841.832	13971.36
842.156	14026.27
842.481	13917.35
842.805	13918.7
843.13	13851.81
843.454	13893.39
843.778	13791.25
844.103	13748.08
844.427	13747.18
844.751	13790.34
845.075	13699.27
845.399	13614.08
845.723	13575.21
846.047	13575.43
846.371	13492.5
846.695	13487.98
847.019	13391.03
847.343	13354.2
847.666	13291.83
847.99	13269.91
848.313	13140.87
848.637	13132.96
848.96	13172.96
849.284	13200.3
849.607	13019.97
849.931	13000.08
850.254	12866.07
850.577	12876.47
850.9	12749.47
851.223	12733.87
851.546	12610.49
851.869	12568.23
852.192	12617.95
852.515	12490.26
852.838	12366.2
853.161	12495.91
853.483	12369.82
853.806	12341.34
854.129	12306.09
854.451	12279.42
854.774	12271.29
855.096	12159.2
855.419	12109.94
855.741	12111.07
856.063	11978.19
856.385	11994.46
856.708	11996.04
857.03	11900.9
857.352	11904.07
857.674	11813.22
857.996	11881.92
858.318	11803.73
858.64	11812.32
858.961	11743.84
859.283	11685.31
859.605	11665.65
859.926	11723.96
860.248	11638.08
860.57	11644.64
860.891	11658.42
861.212	11560.35
861.534	11563.96
861.855	11433.34
862.176	11447.35
862.498	11474.47
862.819	11462.04
863.14	11353.57
863.461	11326.91
863.782	11373.91
864.103	11396.73
864.424	11283.29
864.745	11256.85
865.065	11236.29
865.386	11219.56
865.707	11292.78
866.027	11246.91
866.348	11139.11
866.668	11217.98
866.989	11167.59
867.309	11085.56
867.63	11170.53
867.95	11124.2
868.27	11025.67
868.59	11042.17
868.91	11047.82
869.23	10986.8
869.55	10988.61
869.87	10984.32
870.19	10927.82
870.51	11006.91
870.83	10987.25
871.15	10884.43
871.469	10919.23
871.789	10899.12
872.109	10817.31
872.428	10747.26
872.748	10853.25
873.067	10845.56
873.386	10835.39
873.706	10727.15
874.025	10788.16
874.344	10708.62
874.663	10768.95
874.982	10663.65
875.301	10724.89
875.62	10627.04
875.939	10665.45
876.258	10629.75
876.577	10608.73
876.896	10639.92
877.214	10550.43
877.533	10553.59
877.852	10521.5
878.17	10594.95
878.489	10516.31
878.807	10480.15
879.125	10520.6
879.444	10452.35
879.762	10481.73
880.08	10413.94
880.398	10396.99
880.716	10350.43
881.034	10420.04
881.352	10365.12
881.67	10339.36
881.988	10318.12
882.306	10287.16
882.624	10312.02
882.941	10251.91
883.259	10191.12
883.577	10187.05
883.894	10193.83
884.212	10209.19
884.529	10180.04
884.846	10093.72
885.164	10048.3
885.481	10074.06
885.798	10060.95
886.115	10018.47
886.432	9952.48
886.75	9938.92
887.067	9960.84
887.383	9880.16
887.7	9965.59
888.017	9909.09
888.334	9923.1
888.651	9859.37
888.967	9757.68
889.284	9724.24
889.6	9715.2
889.917	9662.77
890.233	9651.47
890.55	9592.26
890.866	9677.23
891.182	9566.73
891.498	9521.3
891.815	9506.39
892.131	9570.34
892.447	9481.98
892.763	9407.41
893.079	9446.05
893.395	9374.19
893.71	9388.65
894.026	9350.01
894.342	9333.96
894.657	9328.99
894.973	9242.44
895.289	9252.61
895.604	9186.62
895.92	9069.11
896.235	9148.21
896.55	9144.14
896.865	9036.12
897.181	9037.47
897.496	9010.36
897.811	8975.1
898.126	8916.12
898.441	8875.67
898.756	8916.8
899.071	8838.61
899.386	8862.11
899.7	8826.41
900.015	8704.38
900.33	8667.99
900.644	8675.68
900.959	8697.37
901.273	8676.35
901.588	8626.64
901.902	8494.21
902.216	8519.97
902.531	8436.81
902.845	8428
903.159	8439.52
903.473	8413.31
903.787	8331.05
904.101	8298.96
904.415	8304.39
904.729	8234.78
905.042	8151.4
905.356	8178.29
905.67	8160.21
905.984	8184.84
906.297	8104.17
906.611	8097.39
906.924	8040.89
907.237	8034.34
907.551	8018.97
907.864	8004.06
908.177	7930.38
908.491	7884.28
908.804	7899.2
909.117	7822.59
909.43	7722.71
909.743	7770.84
910.056	7771.97
910.368	7720.45
910.681	7637.06
910.994	7633.22
911.307	7631.41
911.619	7536.04
911.932	7601.81
912.244	7473.67
912.557	7499.44
912.869	7437.52
913.181	7447.91
913.494	7341.25
913.806	7303.96
914.118	7353.68
914.43	7275.03
914.742	7273.23
915.054	7247.69
915.366	7164.98
915.678	7179.9
915.99	7153.91
916.302	7090.18
916.613	7070.97
916.925	7057.87
917.236	7066.45
917.548	6939
917.859	7009.05
918.171	6975.61
918.482	6913.46
918.794	6894.48
919.105	6890.19
919.416	6818.32
919.727	6856.06
920.038	6756.86
920.349	6732
920.66	6672.56
920.971	6702.85
921.282	6708.27
921.593	6665.56
921.903	6583.98
922.214	6625.11
922.525	6546.47
922.835	6520.25
923.146	6453.36
923.456	6499.69
923.767	6425.34
924.077	6438.45
924.387	6409.29
924.697	6382.63
925.008	6351.44
925.318	6305.12
925.628	6378.34
925.938	6294.5
926.248	6210.66
926.558	6216.31
926.867	6209.98
927.177	6229.41
927.487	6146.7
927.796	6074.16
928.106	6118.45
928.416	6067.83
928.725	6034.62
929.034	5993.94
929.344	6027.61
929.653	5985.35
929.962	5904.45
930.271	5876.65
930.581	5898.12
930.89	5904.9
931.199	5824
931.508	5780.84
931.817	5811.12
932.125	5836.88
932.434	5694.96
932.743	5717.34
933.051	5705.13
933.36	5702.19
933.669	5655.42
933.977	5584.23
934.286	5559.15
934.594	5593.27
934.902	5555.31
935.21	5497.91
935.519	5502.43
935.827	5494.29
936.135	5450.68
936.443	5442.99
936.751	5447.96
937.059	5385.14
937.367	5400.51
937.674	5330.91
937.982	5393.95
938.29	5281.87
938.597	5294.52
938.905	5256.56
939.213	5249.1
939.52	5205.94
939.827	5215.43
940.135	5168.65
940.442	5124.36
940.749	5116.45
941.056	5125.03
941.363	5070.35
941.67	5056.56
941.977	5004.81
942.284	4954.42
942.591	5014.08
942.898	4970.91
943.205	4915.77
943.511	4941.54
943.818	4911.48
944.125	4901.09
944.431	4812.05
944.738	4865.61
945.044	4859.28
945.35	4816.34
945.657	4811.6
945.963	4768.43
946.269	4719.85
946.575	4711.71
946.881	4708.55
947.187	4660.41
947.493	4663.8
947.799	4687.53
948.105	4634.2
948.41	4604.37
948.716	4600.98
949.022	4581.32
949.327	4574.77
949.633	4549.91
949.938	4533.41
950.244	4538.84
950.549	4488.67
950.854	4409.12
951.16	4440.76
951.465	4410.03
951.77	4391.04
952.075	4378.84
952.38	4336.35
952.685	4368.67
952.99	4307.88
953.294	4293.64
953.599	4267.66
953.904	4251.84
954.209	4225.85
954.513	4226.08
954.818	4175.23
955.122	4209.35
955.426	4185.4
955.731	4132.29
956.035	4109.47
956.339	4111.5
956.643	4123.25
956.948	4095.01
957.252	4076.47
957.556	4041.45
957.86	4031.5
958.163	4037.83
958.467	4013.43
958.771	3959.64
959.075	4016.14
959.378	3996.02
959.682	3970.49
959.985	3901.56
960.289	3907.44
960.592	3900.43
960.896	3896.82
961.199	3840.77
961.502	3858.18
961.805	3823.37
962.108	3805.52
962.411	3815.01
962.714	3792.41
963.017	3773.66
963.32	3730.5
963.623	3738.63
963.926	3746.54
964.228	3667.22
964.531	3644.4
964.833	3681.91
965.136	3666.32
965.438	3592.65
965.741	3616.15
966.043	3575.24
966.345	3577.28
966.648	3563.95
966.95	3565.98
967.252	3513.1
967.554	3522.82
967.856	3521.01
968.158	3502.48
968.46	3472.2
968.761	3466.1
969.063	3492.08
969.365	3410.28
969.666	3409.37
969.968	3422.25
970.269	3372.09
970.571	3373.89
970.872	3295.25
971.174	3348.36
971.475	3328.25
971.776	3308.36
972.077	3292.77
972.378	3288.7
972.679	3287.34
972.98	3257.29
973.281	3242.6
973.582	3262.03
973.883	3239.21
974.183	3203.96
974.484	3192.43
974.785	3148.59
975.085	3146.1
975.386	3163.96
975.686	3116.27
975.986	3135.26
976.287	3078.08
976.587	3112.43
976.887	3090.74
977.187	3070.85
977.487	3041.7
977.787	3013
978.087	2974.36
978.387	3060.23
978.687	2984.3
978.987	2975.94
979.286	2918.99
979.586	2938.43
979.885	2921.93
980.185	2904.75
980.484	2915.15
980.784	2911.31
981.083	2885.77
981.382	2912.21
981.682	2903.4
981.981	2829.73
982.28	2843.51
982.579	2822.04
982.878	2827.92
983.177	2779.79
983.475	2763.51
983.774	2811.2
984.073	2768.49
984.372	2750.18
984.67	2734.59
984.969	2771.88
985.267	2709.28
985.566	2673.12
985.864	2693.46
986.162	2645.55
986.461	2698.88
986.759	2616.63
987.057	2632.44
987.355	2646.46
987.653	2594.25
987.951	2602.62
988.249	2560.58
988.547	2555.84
988.844	2553.12
989.142	2587.02
989.44	2564.42
989.737	2523.75
990.035	2519.91
990.332	2527.81
990.63	2484.88
990.927	2491.88
991.224	2479.68
991.521	2431.32
991.819	2429.96
992.116	2445.56
992.413	2445.33
992.71	2380.02
993.006	2380.47
993.303	2383.64
993.6	2356.52
993.897	2366.46
994.193	2333.24
994.49	2345.67
994.787	2347.03
995.083	2322.62
995.379	2325.11
995.676	2307.48
995.972	2279.23
996.268	2261.16
996.565	2260.93
996.861	2234.04
997.157	2250.76
997.453	2237.65
997.749	2214.38
998.044	2223.42
998.34	2194.26
998.636	2178.67
998.932	2197.43
999.227	2194.94
999.523	2129.63
999.818	2161.95
1000.114	2150.42
1000.409	2099.35
1000.704	2108.16
1001	2092.57
1001.295	2050.09
1001.59	2104.1
1001.885	2053.03
1002.18	2039.92
1002.475	2049.18
1002.77	2032.23
1003.065	2018.9
1003.359	2002.63
1003.654	1994.95
1003.949	1997.43
1004.243	2008.28
1004.538	1966.7
1004.832	1942.97
1005.127	1949.75
1005.421	1926.93
1005.715	1929.64
1006.009	1914.27
1006.304	1881.73
1006.598	1886.25
1006.892	1866.14
1007.186	1869.75
1007.48	1854.84
1007.773	1846.7
1008.067	1829.98
1008.361	1828.4
1008.655	1775.97
1008.948	1766.03
1009.242	1785.24
1009.535	1785.01
1009.829	1763.09
1010.122	1748.85
1010.415	1771
1010.708	1758.8
1011.001	1766.93
1011.295	1740.72
1011.588	1730.32
1011.881	1712.92
1012.173	1678.35
1012.466	1732.13
1012.759	1663.66
1013.052	1669.98
1013.344	1643.09
1013.637	1630.89
1013.93	1674.28
1014.222	1618.91
1014.514	1657.33
1014.807	1619.59
1015.099	1592.47
1015.391	1586.6
1015.683	1587.05
1015.976	1613.49
1016.268	1570.33
1016.56	1549.08
1016.851	1530.78
1017.143	1548.63
1017.435	1536.65
1017.727	1528.97
1018.018	1514.06
1018.31	1482.64
1018.602	1482.87
1018.893	1472.02
1019.185	1485.13
1019.476	1455.98
1019.767	1442.19
1020.058	1418.47
1020.35	1418.47
1020.641	1420.73
1020.932	1399.03
1021.223	1400.61
1021.514	1411.69
1021.804	1389.09
1022.095	1390.67
1022.386	1377.34
1022.677	1374.4
1022.967	1359.03
1023.258	1348.64
1023.548	1341.41
1023.839	1333.95
1024.129	1321.07
1024.419	1300.95
1024.709	1295.53
1025	1284.91
1025.29	1284.01
1025.58	1285.14
1025.87	1240.39
1026.16	1255.53
1026.449	1272.93
1026.739	1233.39
1027.029	1231.35
1027.319	1210.34
1027.608	1223.67
1027.898	1216.66
1028.187	1193.61
1028.477	1215.31
1028.766	1174.18
1029.055	1166.27
1029.344	1157.46
1029.634	1161.3
1029.923	1148.42
1030.212	1128.76
1030.501	1153.84
1030.79	1146.83
1031.078	1110
1031.367	1122.2
1031.656	1090.34
1031.945	1110.9
1032.233	1082.2
1032.522	1092.82
1032.81	1091.92
1033.099	1087.63
1033.387	1070
1033.675	1059.15
1033.963	1060.06
1034.251	1038.81
1034.54	1035.42
1034.828	1031.58
1035.116	1020.96
1035.403	1023
1035.691	1015.09
1035.979	1020.74
1036.267	1010.79
1036.554	996.78
1036.842	985.03
1037.129	986.84
1037.417	966.95
1037.704	984.35
1037.992	954.97
1038.279	930.57
1038.566	963.34
1038.853	963.34
1039.14	963.34
