Data from hue_110_FLMS001491_00035.txt Node
Date: Tue Feb 07 17:01:14 GMT 2017
User: dcchb
Spectrometer: FLMS00149
Trigger mode: 0
Integration Time (sec): 2.000000E-2
Scans to average: 10
Electric dark correction enabled: true
Nonlinearity correction enabled: false
Boxcar width: 0
XAxis mode: Wavelengths
Number of Pixels in Spectrum: 2048
>>>>>Begin Spectral Data<<<<<
341.393	-22.01
341.776	-22.01
342.16	-22.01
342.543	-57.03
342.927	-52.51
343.31	-60.65
343.693	-75.11
344.077	-81.66
344.46	-53.64
344.843	-62.46
345.226	-42.57
345.61	-17.71
345.993	-7.99
346.376	-9.8
346.759	4.21
347.142	38.33
347.525	26.36
347.908	58.44
348.291	81.04
348.674	90.31
349.057	112.91
349.44	121.49
349.823	158.33
350.206	149.52
350.588	221.83
350.971	208.05
351.354	222.51
351.737	239.01
352.119	249.4
352.502	275.84
352.884	275.39
353.267	307.25
353.65	292.56
354.032	293.47
354.414	314.71
354.797	317.87
355.179	328.27
355.562	322.39
355.944	318.55
356.326	323.97
356.709	318.32
357.091	340.47
357.473	336.4
357.855	347.25
358.238	344.09
358.62	355.61
359.002	335.73
359.384	346.12
359.766	343.64
360.148	361.94
360.53	351.32
360.912	331.21
361.294	327.82
361.676	328.49
362.057	330.75
362.439	342.96
362.821	337.76
363.203	328.04
363.584	330.75
363.966	323.07
364.348	335.5
364.729	335.5
365.111	348.83
365.493	314.71
365.874	308.38
366.256	323.52
366.637	307.7
367.019	306.57
367.4	308.38
367.781	301.6
368.163	328.72
368.544	307.25
368.925	318.78
369.306	328.27
369.688	301.6
370.069	315.16
370.45	318.1
370.831	322.39
371.212	320.13
371.593	323.07
371.974	322.62
372.355	307.48
372.736	329.62
373.117	315.61
373.498	325.78
373.879	328.95
374.26	305.44
374.641	309.96
375.021	317.42
375.402	344.76
375.783	332.34
376.163	318.78
376.544	328.49
376.925	331.43
377.305	342.96
377.686	328.95
378.066	344.99
378.447	342.51
378.827	344.54
379.208	323.07
379.588	329.85
379.968	330.75
380.349	340.47
380.729	333.92
381.109	349.51
381.489	333.24
381.87	344.09
382.25	351.77
382.63	344.54
383.01	331.66
383.39	349.06
383.77	353.35
384.15	340.92
384.53	349.28
384.91	364.65
385.29	359.68
385.67	351.32
386.049	358.32
386.429	363.3
386.809	357.42
387.189	366.23
387.568	361.71
387.948	349.74
388.328	370.3
388.707	382.05
389.087	377.31
389.466	368.04
389.846	353.8
390.225	371.2
390.605	369.17
390.984	392.67
391.363	380.24
391.743	401.26
392.122	390.64
392.501	373.01
392.881	376.18
393.26	396.29
393.639	393.35
394.018	377.98
394.397	376.85
394.776	371.88
395.155	392.9
395.534	396.51
395.913	397.87
396.292	386.35
396.671	412.56
397.05	390.87
397.429	381.83
397.808	389.06
398.186	396.06
398.565	419.57
398.944	408.72
399.323	416.18
399.701	394.48
400.08	399
400.458	428.15
400.837	412.56
401.215	426.34
401.594	400.58
401.972	419.79
402.351	415.27
402.729	406.68
403.107	438.55
403.486	422.5
403.864	441.71
404.242	425.89
404.62	427.7
404.999	428.6
405.377	434.03
405.755	441.94
406.133	425.67
406.511	431.77
406.889	457.98
407.267	452.56
407.645	455.27
408.023	462.95
408.401	473.35
408.779	458.89
409.156	450.07
409.534	453.01
409.912	464.08
410.29	476.74
410.667	482.84
411.045	459.34
411.422	471.09
411.8	470.86
412.178	470.64
412.555	479
412.933	483.74
413.31	518.32
413.687	501.6
414.065	505.89
414.442	503.63
414.819	490.3
415.197	512.67
415.574	514.93
415.951	502.05
416.328	519.22
416.705	516.51
417.082	524.2
417.46	547.47
417.837	523.74
418.214	537.53
418.591	549.51
418.967	564.42
419.344	545.21
419.721	541.14
420.098	544.76
420.475	564.42
420.852	555.15
421.228	556.51
421.605	573.23
421.982	566.68
422.358	567.13
422.735	584.98
423.111	570.75
423.488	596.96
423.864	577.53
424.241	579.79
424.617	591.76
424.994	590.86
425.37	589.73
425.746	599
426.123	621.37
426.499	613.91
426.875	619.79
427.251	609.16
427.627	642.61
428.003	640.58
428.379	650.07
428.756	648.26
429.132	645.32
429.507	628.15
429.883	647.81
430.259	681.25
430.635	695.26
431.011	680.12
431.387	685.09
431.763	712.21
432.138	684.87
432.514	709.5
432.89	702.04
433.265	721.48
433.641	740.23
434.016	711.76
434.392	734.59
434.767	738.2
435.143	721.25
435.518	733.46
435.894	752.66
436.269	767.35
436.644	780.23
437.02	752.66
437.395	784.75
437.77	791.53
438.145	830.63
438.52	813.68
438.895	815.94
439.271	819.1
439.646	841.7
440.021	845.32
440.395	823.62
440.77	838.31
441.145	846.22
441.52	854.58
441.895	865.43
442.27	879.21
442.645	849.61
443.019	865.2
443.394	855.49
443.769	869.27
444.143	875.82
444.518	880.34
444.892	894.58
445.267	908.37
445.641	902.26
446.016	930.06
446.39	911.3
446.764	947.23
447.139	940.91
447.513	926.67
447.887	927.8
448.262	944.07
448.636	958.08
449.01	962.38
449.384	951.3
449.758	959.66
450.132	987.91
450.506	991.08
450.88	997.86
451.254	1004.41
451.628	1029.27
452.002	996.27
452.376	1016.61
452.75	1039.44
453.123	1058.87
453.497	1032.66
453.871	1069.49
454.244	1063.62
454.618	1082.15
454.992	1090.73
455.365	1114.46
455.739	1113.56
456.112	1156.04
456.486	1135.7
456.859	1156.27
457.232	1169.83
457.606	1184.97
457.979	1213.67
458.352	1208.7
458.725	1237.4
459.099	1236.72
459.472	1252.99
459.845	1268.81
460.218	1272.42
460.591	1300.67
460.964	1309.94
461.337	1340.22
461.71	1389.94
462.083	1366.43
462.456	1379.54
462.829	1390.39
463.201	1425.87
463.574	1383.16
463.947	1436.94
464.32	1475.36
464.692	1494.11
465.065	1491.18
465.438	1546.32
465.81	1563.26
466.183	1560.1
466.555	1593.55
466.928	1610.72
467.3	1623.38
467.672	1644.17
468.045	1669.25
468.417	1704.73
468.789	1709.93
469.161	1749.93
469.534	1801.9
469.906	1830.6
470.278	1866.98
470.65	1879.19
471.022	1944.72
471.394	1959.86
471.766	2012.97
472.138	2022.46
472.51	2035.79
472.882	2129.35
473.253	2158.95
473.625	2196.47
473.997	2262
474.369	2281.66
474.74	2320.98
475.112	2384.94
475.484	2445.5
475.855	2539.96
476.227	2571.37
476.598	2646.17
476.97	2716
477.341	2790.12
477.713	2852.72
478.084	2858.15
478.455	2995.54
478.827	3026.28
479.198	3138.14
479.569	3196.44
479.94	3311.01
480.311	3331.35
480.682	3495.42
481.053	3572.48
481.424	3671.23
481.795	3784.45
482.166	3872.13
482.537	3959.81
482.908	4075.06
483.279	4226.24
483.65	4353.47
484.021	4428.05
484.391	4570.42
484.762	4633.01
485.133	4715.5
485.503	4835.04
485.874	4998.65
486.244	5135.37
486.615	5268.25
486.985	5437.51
487.356	5515.93
487.726	5674.12
488.097	5806.77
488.467	5863.49
488.837	6098.06
489.207	6177.61
489.578	6403.36
489.948	6489.01
490.318	6643.81
490.688	6800.41
491.058	6916.34
491.428	7098.71
491.798	7210.57
492.168	7432.49
492.538	7624.8
492.908	7747.73
493.278	7839.71
493.648	8017.56
494.017	8206.25
494.387	8256.87
494.757	8418.9
495.126	8580.93
495.496	8686.69
495.866	8797.42
496.235	8937.99
496.605	9111.09
496.974	9213.68
497.344	9363.96
497.713	9468.37
498.082	9622.26
498.452	9749.49
498.821	9844.4
499.19	10008.92
499.559	10133.21
499.928	10186.99
500.298	10398.29
500.667	10483.26
501.036	10460.88
501.405	10677.15
501.774	10754.89
502.143	10931.83
502.512	10915.33
502.88	11077.59
503.249	11221.77
503.618	11244.82
503.987	11311.03
504.356	11492.95
504.724	11504.25
505.093	11577.01
505.462	11663.11
505.83	11786.5
506.199	11887.96
506.567	12011.35
506.936	12063.33
507.304	12193.72
507.672	12321.4
508.041	12362.98
508.409	12491.56
508.777	12521.85
509.145	12694.72
509.514	12555.52
509.882	12748.96
510.25	12798.22
510.618	12787.83
510.986	12848.39
511.354	13000.93
511.722	13017.88
512.09	13238.66
512.458	13184.2
512.826	13300.36
513.193	13342.62
513.561	13451.09
513.929	13436.62
514.297	13558.43
514.664	13555.04
515.032	13689.72
515.4	13809.04
515.767	13751.87
516.135	13798.42
516.502	13782.15
516.869	14043.16
517.237	13973.33
517.604	13954.12
517.972	14100.56
518.339	14031.64
518.706	14131.52
519.073	14104.4
519.44	14212.2
519.808	14257.62
520.175	14256.94
520.542	14451.74
520.909	14443.38
521.276	14415.36
521.643	14499.65
522.009	14616.25
522.376	14652.86
522.743	14678.85
523.11	14731.73
523.477	14799.75
523.843	14869.81
524.21	15077.26
524.577	15029.8
524.943	15056.47
525.31	15009.24
525.676	15113.87
526.043	15156.58
526.409	15158.84
526.776	15303.24
527.142	15281.1
527.508	15333.52
527.874	15346.4
528.241	15368.32
528.607	15376.23
528.973	15425.95
529.339	15379.17
529.705	15500.52
530.071	15561.77
530.437	15550.47
530.803	15573.97
531.169	15569
531.535	15496.91
531.901	15487.64
532.267	15431.15
532.632	15524.48
532.998	15475.21
533.364	15601.54
533.73	15555.21
534.095	15624.14
534.461	15517.25
534.826	15604.48
535.192	15581.65
535.557	15640.86
535.923	15493.52
536.288	15582.78
536.653	15574.87
537.019	15412.39
537.384	15371.26
537.749	15404.71
538.114	15419.85
538.479	15387.08
538.845	15398.61
539.21	15328.78
539.575	15285.62
539.94	15360.42
540.305	15365.84
540.67	15208.55
541.034	15324.48
541.399	15274.99
541.764	15124.49
542.129	15256.69
542.494	15297.82
542.858	15225.28
543.223	15053.08
543.587	15146.86
543.952	14979.18
544.316	15047.43
544.681	15009.24
545.045	14968.79
545.41	15028.22
545.774	15034.32
546.138	14939.41
546.503	14829.36
546.867	14794.78
547.231	14913.65
547.595	14896.47
547.959	14779.87
548.324	14764.27
548.688	14718.85
549.052	14689.47
549.416	14635.01
549.779	14632.75
550.143	14623.26
550.507	14670.49
550.871	14612.41
551.235	14623.49
551.599	14595.24
551.962	14623.49
552.326	14551.62
552.689	14568.8
553.053	14455.13
553.417	14416.49
553.78	14536.26
554.143	14424.39
554.507	14484.96
554.87	14483.6
555.234	14455.58
555.597	14435.47
555.96	14446.09
556.323	14441.34
556.686	14363.38
557.05	14398.63
557.413	14356.15
557.776	14326.09
558.139	14350.95
558.502	14364.96
558.865	14267.56
559.228	14350.95
559.59	14318.86
559.953	14363.61
560.316	14425.75
560.679	14450.38
561.041	14375.81
561.404	14429.37
561.767	14465.98
562.129	14320.44
562.492	14433.66
562.854	14397.05
563.217	14423.04
563.579	14444.51
563.941	14471.4
564.304	14506.88
564.666	14563.37
565.028	14530.15
565.39	14460.78
565.753	14546.2
566.115	14550.72
566.477	14576.93
566.839	14606.31
567.201	14720.43
567.563	14624.16
567.925	14669.13
568.287	14660.55
568.648	14624.16
569.01	14753.43
569.372	14853.76
569.734	14693.99
570.095	14685.86
570.457	14838.62
570.819	14827.32
571.18	14785.52
571.542	14888.56
571.903	14851.28
572.265	14909.58
572.626	14959.52
572.987	14830.71
573.349	14898.05
573.71	14961.33
574.071	15002.23
574.432	14912.97
574.794	14991.16
575.155	14943.93
575.516	14917.72
575.877	15010.14
576.238	14993.65
576.599	15096.92
576.96	14934.89
577.32	14962.46
577.681	14998.16
578.042	15077.26
578.403	15006.3
578.763	15006.53
579.124	15027.54
579.485	15075
579.845	15054.43
580.206	15084.04
580.566	15003.81
580.927	15042.01
581.287	15101.21
581.648	15091.5
582.008	15161.32
582.368	15001.1
582.728	15066.64
583.089	15021.89
583.449	15053.3
583.809	15016.47
584.169	15067.99
584.529	14964.72
584.889	15106.64
585.249	14956.36
585.609	14903.25
585.969	15017.37
586.329	14787.32
586.688	14981.89
587.048	14967.21
587.408	14917.04
587.768	14970.82
588.127	14937.83
588.487	14919.07
588.846	15046.98
589.206	14855.57
589.565	14886.76
589.925	14973.53
590.284	14891.5
590.643	14910.71
591.003	14916.81
591.362	14983.7
591.721	14863.71
592.08	14868.22
592.44	14881.33
592.799	14831.84
593.158	14823.48
593.517	14868.22
593.876	14881.56
594.235	14787.32
594.593	14815.34
594.952	14755.23
595.311	14719.08
595.67	14776.7
596.029	14853.76
596.387	14849.47
596.746	14787.55
597.104	14702.35
597.463	14693.54
597.822	14855.34
598.18	14734.22
598.538	14676.14
598.897	14771.73
599.255	14619.19
599.613	14874.1
599.972	14693.99
600.33	14779.87
600.688	14779.41
601.046	14703.26
601.404	14802.69
601.762	14809.02
602.12	14834.78
602.478	14867.32
602.836	14826.87
603.194	14742.58
603.552	14747.78
603.91	14650.38
604.268	14810.15
604.625	14740.32
604.983	14855.12
605.341	14710.94
605.698	14804.05
606.056	14804.27
606.413	14792.52
606.771	14859.19
607.128	14809.24
607.485	14677.95
607.843	14780.09
608.2	14775.8
608.557	14761.34
608.914	14742.35
609.272	14894.66
609.629	14886.08
609.986	14898.96
610.343	14879.98
610.7	14956.58
611.057	14889.92
611.414	14898.73
611.771	14942.57
612.127	15038.84
612.484	14987.77
612.841	15024.15
613.198	14862.12
613.554	14985.28
613.911	15130.59
614.267	15033.87
614.624	14928.34
614.98	14928.34
615.337	15088.11
615.693	15091.04
616.05	15093.3
616.406	15137.37
616.762	15023.93
617.118	15169.23
617.475	15106.86
617.831	15210.14
618.187	15157.26
618.543	15190.48
618.899	15260.98
619.255	15225.5
619.611	15148.44
619.967	15277.03
620.323	15281.32
620.678	15226.86
621.034	15086.52
621.39	15209.68
621.746	15174.43
622.101	15349.12
622.457	15097.82
622.812	15185.28
623.168	15285.39
623.523	15252.4
623.879	15302.11
624.234	15169.23
624.589	15220.98
624.945	15263.24
625.3	15255.33
625.655	15163.36
626.01	15256.69
626.365	15315.67
626.72	15219.63
627.075	15204.49
627.43	15240.19
627.785	15230.48
628.14	15262.56
628.495	15290.13
628.85	15278.38
629.205	15178.05
629.559	15222.57
629.914	15186.86
630.269	15122.91
630.623	15099.18
630.978	15084.72
631.332	15170.14
631.687	15150.93
632.041	15166.07
632.396	15162.23
632.75	15083.36
633.104	15037.03
633.459	15118.39
633.813	14984.61
634.167	15020.76
634.521	14995.45
634.875	14972.85
635.229	14966.3
635.583	14856.47
635.937	14925.85
636.291	14854.89
636.645	14920.65
636.999	14828.9
637.352	14870.71
637.706	14733.77
638.06	14859.19
638.413	14783.71
638.767	14754.33
639.121	14819.64
639.474	14745.52
639.828	14746.65
640.181	14771.28
640.534	14669.59
640.888	14628.91
641.241	14630.49
641.594	14734.67
641.947	14695.57
642.301	14663.94
642.654	14670.26
643.007	14702.13
643.36	14634.33
643.713	14656.25
644.066	14642.47
644.419	14585.75
644.771	14480.66
645.124	14387.79
645.477	14355.92
645.83	14117.06
646.182	14223.04
646.535	14135.36
646.888	14199.99
647.24	14132.2
647.593	14208.81
647.945	14061.47
648.298	14007.68
648.65	14044.07
649.002	14079.77
649.355	14218.75
649.707	14119.09
650.059	14178.07
650.411	14318.41
650.763	14371.74
651.115	14522.25
651.467	14476.37
651.819	14462.81
652.171	14382.59
652.523	14402.93
652.875	14479.31
653.227	14398.41
653.578	14485.64
653.93	14462.13
654.282	14321.35
654.633	14385.75
654.985	14381.46
655.337	14394.79
655.688	14483.38
656.039	14548.46
656.391	14362.25
656.742	14430.5
657.094	14470.95
657.445	14403.6
657.796	14473.88
658.147	14375.81
658.498	14358.86
658.849	14451.74
659.2	14438.18
659.551	14474.79
659.902	14444.73
660.253	14415.13
660.604	14425.52
660.955	14362.93
661.306	14410.38
661.656	14407.67
662.007	14411.06
662.358	14449.25
662.708	14451.74
663.059	14492.42
663.409	14330.39
663.76	14449.03
664.11	14433.43
664.461	14450.16
664.811	14545.3
665.161	14458.07
665.511	14456.48
665.862	14523.6
666.212	14445.19
666.562	14507.56
666.912	14441.57
667.262	14388.46
667.612	14493.77
667.962	14460.1
668.312	14432.98
668.662	14520.66
669.011	14417.39
669.361	14431.4
669.711	14456.71
670.06	14402.7
670.41	14380.33
670.76	14411.29
671.109	14422.13
671.459	14404.96
671.808	14397.5
672.157	14440.67
672.507	14289.71
672.856	14414.68
673.205	14322.25
673.554	14301.46
673.904	14286.77
674.253	14393.66
674.602	14335.13
674.951	14035.93
675.3	14019.66
675.649	14238.64
675.998	14244.29
676.346	14257.85
676.695	14287.68
677.044	14198.64
677.393	14179.66
677.741	14175.14
678.09	14152.76
678.438	14162.03
678.787	14187.56
679.135	14206.77
679.484	14036.83
679.832	14136.49
680.181	14108.92
680.529	14037.96
680.877	13948.48
681.225	13971.07
681.573	14112.54
681.922	13979.66
682.27	13936.05
682.618	13804.3
682.966	13862.38
683.314	13917.97
683.661	13856.27
684.009	13802.04
684.357	13795.48
684.705	13811.08
685.053	13779.44
685.4	13662.38
685.748	13721.36
686.095	13734.7
686.443	13527.47
686.79	13550.07
687.138	13583.29
687.485	13548.49
687.832	13562.72
688.18	13491.31
688.527	13374.93
688.874	13408.83
689.221	13365.89
689.568	13343.29
689.915	13305.1
690.262	13331.09
690.609	13271.66
690.956	13181.49
691.303	13154.37
691.65	13111.66
691.997	13052.68
692.344	13007.48
692.69	12932.46
693.037	12943.53
693.383	12727.04
693.73	12786.47
694.077	12855.85
694.423	12757.09
694.769	12703.76
695.116	12724.78
695.462	12668.06
695.808	12602.3
696.155	12695.17
696.501	12568.85
696.847	12483.43
697.193	12428.97
697.539	12491.11
697.885	12444.33
698.231	12333.83
698.577	12351.91
698.923	12240.05
699.269	12162.76
699.614	12121.18
699.96	12154.62
700.306	12141.74
700.651	11993.95
700.997	11991.24
701.342	11974.29
701.688	11860.39
702.033	11847.97
702.379	11848.19
702.724	11816.1
703.069	11774.07
703.415	11697.01
703.76	11667.18
704.105	11643.22
704.45	11591.02
704.795	11608.2
705.14	11511.03
705.485	11553.74
705.83	11472.83
706.175	11466.28
706.52	11417.47
706.865	11432.61
707.209	11339.96
707.554	11393.97
707.899	11369.33
708.243	11286.17
708.588	11212.5
708.932	11156.91
709.277	11189.9
709.621	11120.53
709.966	11023.81
710.31	11087.08
710.654	10911.04
710.998	10968.89
711.342	10996.46
711.687	10906.97
712.031	10924.6
712.375	10869.01
712.719	10803.02
713.063	10877.14
713.407	10872.17
713.75	10791.5
714.094	10795.79
714.438	10749.92
714.782	10722.57
715.125	10704.72
715.469	10714.66
715.812	10604.83
716.156	10620.88
716.499	10550.15
716.843	10621.1
717.186	10547.21
717.53	10646.64
717.873	10520.54
718.216	10538.62
718.559	10444.16
718.902	10354.22
719.246	10389.7
719.589	10442.58
719.932	10433.09
720.275	10389.25
720.617	10415.91
720.96	10298.85
721.303	10369.59
721.646	10349.93
721.989	10272.41
722.331	10397.16
722.674	10389.02
723.016	10354.9
723.359	10286.42
723.701	10299.08
724.044	10236.48
724.386	10243.26
724.729	10313.77
725.071	10233.54
725.413	10252.08
725.755	10288.01
726.097	10198.97
726.439	10136.6
726.782	10139.99
727.124	10152.19
727.465	10110.61
727.807	10181.79
728.149	10080.1
728.491	10128.46
728.833	10062.7
729.175	10087.33
729.516	10087.56
729.858	10136.6
730.199	10116.03
730.541	10124.62
730.882	10136.6
731.224	10147.45
731.565	10081.46
731.906	10120.55
732.248	10022.93
732.589	10086.2
732.93	10027
733.271	10053.44
733.612	10122.36
733.953	10085.3
734.294	10012.53
734.635	10023.83
734.976	10106.09
735.317	10046.88
735.658	10091.63
735.999	10066.77
736.339	10074.45
736.68	10090.05
737.021	10070.84
737.361	10012.08
737.702	10110.16
738.042	10093.21
738.383	10065.19
738.723	10093.44
739.063	10092.98
739.404	10172.53
739.744	10144.06
740.084	10158.52
740.424	10148.8
740.764	10191.06
741.104	10166.43
741.444	10189.93
741.784	10164.39
742.124	10137.95
742.464	10222.92
742.804	10245.52
743.143	10211.17
743.483	10250.95
743.823	10190.38
744.162	10270.61
744.502	10377.5
744.841	10285.75
745.181	10393.09
745.52	10429.7
745.86	10534.1
746.199	10534.33
746.538	10512.86
746.877	10603.7
747.216	10741.78
747.556	10677.15
747.895	10739.29
748.234	10813.19
748.573	10817.03
748.911	10892.74
749.25	10948.33
749.589	11002.11
749.928	11076.69
750.267	11221.54
750.605	11222.67
750.944	11289.56
751.283	11394.87
751.621	11428.09
751.96	11510.57
752.298	11628.54
752.636	11777.68
752.975	11808.64
753.313	11878.7
753.651	12047.28
753.989	12184.91
754.327	12257.22
754.666	12302.42
755.004	12549.42
755.342	12617.89
755.679	12814.04
756.017	12858.56
756.355	13004.09
756.693	13043.19
757.031	13252.67
757.368	13350.52
757.706	13618.77
758.044	13723.85
758.381	13867.57
758.719	13997.51
759.056	14203.61
759.394	14326.32
759.731	14391.85
760.068	14569.7
760.405	14764.5
760.743	14896.92
761.08	15095.34
761.417	15210.59
761.754	15397.25
762.091	15491.71
762.428	15646.28
762.765	15745.94
763.102	16106.16
763.438	16140.96
763.775	16232.93
764.112	16496.2
764.449	16697.33
764.785	16801.06
765.122	16781.62
765.458	17031.56
765.795	17078.79
766.131	17356.3
766.467	17419.34
766.804	17566.91
767.14	17684.65
767.476	17801.93
767.812	17905.21
768.148	18061.14
768.485	18134.58
768.821	18177.06
769.157	18476.27
769.492	18456.83
769.828	18589.71
770.164	18568.24
770.5	18716.49
770.836	18882.36
771.171	18881
771.507	19041.22
771.842	19022.24
772.178	19098.62
772.513	19170.71
772.849	19321.22
773.184	19275.11
773.519	19441.89
773.855	19500.87
774.19	19326.41
774.525	19459.06
774.86	19666.97
775.195	19742.9
775.53	19740.87
775.865	19654.54
776.2	19647.99
776.535	19570.25
776.87	19674.43
777.205	19683.47
777.539	19769.11
777.874	19733.86
778.209	19817.02
778.543	19772.5
778.878	19671.94
779.212	19810.24
779.547	19728.44
779.881	19883.01
780.215	19800.75
780.55	19890.24
780.884	19773.86
781.218	19810.24
781.552	19868.09
781.886	19803.69
782.22	19837.81
782.554	19727.98
782.888	19594.2
783.222	19645.73
783.556	19717.81
783.889	19638.49
784.223	19449.35
784.557	19583.36
784.89	19672.62
785.224	19574.77
785.557	19464.04
785.891	19532.28
786.224	19518.95
786.558	19503.13
786.891	19406.18
787.224	19344.94
787.557	19351.72
787.891	19273.98
788.224	19320.31
788.557	19279.41
788.89	19298.39
789.223	19352.63
789.556	19243.7
789.888	19164.16
790.221	19104.72
790.554	19082.8
790.887	19070.83
791.219	18973.43
791.552	18952.41
791.884	19016.14
792.217	18914.9
792.549	18857.05
792.882	18748.35
793.214	18746.31
793.546	18744.96
793.879	18714.23
794.211	18546.77
794.543	18544.96
794.875	18567.56
795.207	18500.9
795.539	18489.15
795.871	18439.2
796.203	18345.65
796.535	18338.19
796.867	18290.06
797.198	18173.9
797.53	18237.85
797.862	18145.88
798.193	18056.62
798.525	17990.18
798.856	18119.89
799.188	17865.21
799.519	17810.75
799.85	17764.87
800.182	17799.9
800.513	17830.86
800.844	17716.06
801.175	17769.62
801.506	17706.34
801.837	17582.96
802.168	17628.6
802.499	17555.39
802.83	17497.99
803.161	17420.47
803.491	17416.18
803.822	17393.81
804.153	17360.36
804.483	17195.4
804.814	17224.77
805.145	17142.52
805.475	17135.96
805.805	17130.76
806.136	17138.67
806.466	17140.03
806.796	17142.97
807.126	16917.21
807.457	16903.65
807.787	16862.97
808.117	16776.42
808.447	16786.82
808.777	16799.25
809.107	16700.27
809.436	16669.31
809.766	16596.54
810.096	16652.58
810.426	16524.45
810.755	16617.33
811.085	16463.44
811.414	16466.37
811.744	16444
812.073	16341.18
812.403	16277
812.732	16232.03
813.061	16284.68
813.39	16176.44
813.719	16124.24
814.049	16221.86
814.378	16169.43
814.707	16098.93
815.036	16120.4
815.365	15960.85
815.693	15926.95
816.022	15939.84
816.351	15888.99
816.68	15693.51
817.008	15961.3
817.337	15792.27
817.665	15741.2
817.994	15778.03
818.322	15723.57
818.651	15681.08
818.979	15569.45
819.307	15712.27
819.636	15634.31
819.964	15547.08
820.292	15577.81
820.62	15479.06
820.948	15526.06
821.276	15567.87
821.604	15478.6
821.932	15484.25
822.259	15594.76
822.587	15588.43
822.915	15457.81
823.243	15555.44
823.57	15467.08
823.898	15561.31
824.225	15428.89
824.553	15430.02
824.88	15380.08
825.207	15554.53
825.535	15472.05
825.862	15594.99
826.189	15376.91
826.516	15549.79
826.843	15675.21
827.17	15501.2
827.497	15578.94
827.824	15617.36
828.151	15610.58
828.478	15561.99
828.805	15567.42
829.131	15456.46
829.458	15495.78
829.785	15405.16
830.111	15466.85
830.438	15579.62
830.764	15549.56
831.09	15559.73
831.417	15356.8
831.743	15525.83
832.069	15575.1
832.395	15340.53
832.722	15469.79
833.048	15351.6
833.374	15391.6
833.7	15357.25
834.026	15277.48
834.351	15368.1
834.677	15259.85
835.003	15278.16
835.329	15312.96
835.654	15263.47
835.98	15264.82
836.306	15317.48
836.631	15267.54
836.956	15254.2
837.282	15272.73
837.607	15184.37
837.932	15232.28
838.258	15196.58
838.583	15096.92
838.908	15016.7
839.233	15072.06
839.558	14996.13
839.883	15067.54
840.208	15032.06
840.533	15025.96
840.858	14959.52
841.182	14858.28
841.507	14923.82
841.832	14908.68
842.156	14849.92
842.481	14829.81
842.805	14756.59
843.13	14729.25
843.454	14854.67
843.778	14617.84
844.103	14659.19
844.427	14588.91
844.751	14621.45
845.075	14557.95
845.399	14501.45
845.723	14435.92
846.047	14414.45
846.371	14291.29
846.695	14368.8
847.019	14290.39
847.343	14131.3
847.666	14145.08
847.99	13995.48
848.313	14062.6
848.637	13858.99
848.96	14015.59
849.284	13844.3
849.607	13736.05
849.931	13726.79
850.254	13661.48
850.577	13566.56
850.9	13515.49
851.223	13503.29
851.546	13452.67
851.869	13291.77
852.192	13435.95
852.515	13286.57
852.838	13249.51
853.161	13219.68
853.483	13161.15
853.806	13081.83
854.129	13070.08
854.451	13018.33
854.774	13022.4
855.096	12895.17
855.419	12888.16
855.741	12902.63
856.063	12849.52
856.385	12761.61
856.708	12767.04
857.03	12662.63
857.352	12763.2
857.674	12645.01
857.996	12559.81
858.318	12536.08
858.64	12506.71
858.961	12472.36
859.283	12410.89
859.605	12313.04
859.926	12394.84
860.248	12402.08
860.57	12304
860.891	12276.2
861.212	12272.13
861.534	12201.18
861.855	12155.75
862.176	12112.59
862.498	12237.33
862.819	12161.86
863.14	12130.67
863.461	12070.11
863.782	11960.73
864.103	12082.54
864.424	11985.36
864.745	11975.65
865.065	11946.95
865.386	11860.17
865.707	11894.74
866.027	11917.57
866.348	11830.11
866.668	11806.38
866.989	11874.18
867.309	11726.84
867.63	11741.08
867.95	11779.72
868.27	11689.33
868.59	11780.62
868.91	11710.57
869.23	11712.15
869.55	11656.11
869.87	11763
870.19	11618.14
870.51	11691.81
870.83	11685.94
871.15	11633.28
871.469	11627.86
871.789	11553.51
872.109	11602.77
872.428	11524.58
872.748	11525.49
873.067	11473.06
873.386	11523.45
873.706	11432.61
874.025	11413.85
874.344	11324.14
874.663	11355.32
874.982	11382.67
875.301	11345.61
875.62	11377.92
875.939	11255.21
876.258	11326.85
876.577	11238.26
876.896	11202.78
877.214	11254.31
877.533	11193.75
877.852	11179.06
878.17	11166.85
878.489	11132.05
878.807	11160.75
879.125	11098.15
879.444	11171.37
879.762	11008.89
880.08	11071.26
880.398	10996.01
880.716	11029.46
881.034	10973.64
881.352	10963.69
881.67	10977.25
881.988	10892.74
882.306	10834.21
882.624	10867.88
882.941	10866.52
883.259	10735.23
883.577	10773.87
883.894	10724.61
884.212	10754.21
884.529	10713.08
884.846	10720.31
885.164	10628.56
885.481	10568.9
885.798	10580.65
886.115	10571.39
886.432	10608.9
886.75	10477.83
887.067	10556.25
887.383	10532.52
887.7	10483.03
888.017	10473.31
888.334	10468.57
888.651	10444.16
888.967	10394.22
889.284	10361.9
889.6	10312.86
889.917	10261.79
890.233	10255.46
890.55	10238.29
890.866	10190.38
891.182	10173.21
891.498	10129.14
891.815	10109.71
892.131	10074.68
892.447	10083.72
892.763	9933.67
893.079	10032.42
893.395	10007.11
893.71	9834.01
894.026	9873.33
894.342	9822.93
894.657	9833.1
894.973	9806.89
895.289	9716.5
895.604	9779.55
895.92	9677.4
896.235	9591.98
896.55	9657.29
896.865	9611.41
897.181	9616.16
897.496	9597.4
897.811	9518.76
898.126	9442.83
898.441	9480.57
898.756	9308.82
899.071	9400.8
899.386	9361.25
899.7	9285.77
900.015	9194.48
900.33	9175.49
900.644	9219.79
900.959	9175.27
901.273	9128.94
901.588	9155.38
901.902	9030.19
902.216	9075.16
902.531	9023.63
902.845	8973.01
903.159	8861.83
903.473	8849.17
903.787	8857.99
904.101	8749.29
904.415	8745.67
904.729	8699.35
905.042	8697.31
905.356	8723.08
905.67	8662.96
905.984	8683.53
906.297	8627.03
906.611	8574.15
906.924	8554.94
907.237	8515.4
907.551	8464.78
907.864	8425.68
908.177	8392.91
908.491	8357.89
908.804	8366.7
909.117	8248.29
909.43	8250.77
909.743	8249.87
910.056	8238.34
910.368	8167.38
910.681	8199.7
910.994	8104.11
911.307	8124.9
911.619	8012.36
911.932	8021.4
912.244	7918.8
912.557	7952.47
912.869	7858.47
913.181	7859.37
913.494	7861.18
913.806	7784.8
914.118	7744.8
914.43	7721.29
914.742	7722.65
915.054	7661.18
915.366	7644.23
915.678	7640.17
915.99	7529.66
916.302	7490.79
916.613	7467.97
916.925	7449.21
917.236	7453.96
917.548	7403.11
917.859	7413.51
918.171	7337.12
918.482	7384.35
918.794	7312.72
919.105	7287.86
919.416	7246.5
919.727	7230.69
920.038	7216.22
920.349	7114.76
920.66	7159.05
920.971	7133.51
921.282	7072.5
921.593	6988.43
921.903	6940.75
922.214	6940.07
922.525	6959.05
922.835	6905.95
923.146	6872.73
923.456	6871.6
923.767	6809.68
924.077	6800.41
924.387	6783.69
924.697	6726.52
925.008	6702.34
925.318	6670.25
925.628	6678.16
925.938	6580.53
926.248	6632.96
926.558	6555.9
926.867	6555.9
927.177	6526.52
927.487	6530.59
927.796	6428.22
928.106	6454.21
928.416	6395.45
928.725	6378.28
929.034	6376.24
929.344	6339.64
929.653	6373.98
929.962	6240.66
930.271	6282.91
930.581	6256.93
930.89	6209.92
931.199	6141.45
931.508	6194.1
931.817	6170.6
932.125	6189.13
932.434	6065.74
932.743	6003.15
933.051	6053.32
933.36	5995.46
933.669	5970.61
933.977	5966.99
934.286	5898.97
934.594	5896.03
934.902	5855.13
935.21	5885.41
935.519	5837.73
935.827	5791.18
936.135	5752.31
936.443	5725.19
936.751	5748.92
937.059	5721.57
937.367	5679.31
937.674	5645.42
937.982	5645.87
938.29	5601.12
938.597	5639.54
938.905	5491.52
939.213	5521.13
939.52	5520.9
939.827	5548.02
940.135	5511.86
940.442	5416.27
940.749	5437.51
941.056	5449.94
941.363	5343.96
941.67	5351.86
941.977	5313.22
942.284	5277.97
942.591	5280
942.898	5271.42
943.205	5223.28
943.511	5211.76
943.818	5213.79
944.125	5179.21
944.431	5113.91
944.738	5165.2
945.044	5123.4
945.35	5096.73
945.657	5047.24
945.963	5050.63
946.269	4996.17
946.575	4987.35
946.881	4977.64
947.187	4948.71
947.493	4935.15
947.799	4911.88
948.105	4908.26
948.41	4860.58
948.716	4836.17
949.022	4801.6
949.327	4802.95
949.633	4772.9
949.938	4768.6
950.244	4777.64
950.549	4730.41
950.854	4719.57
951.16	4723.18
951.465	4686.12
951.77	4619.23
952.075	4640.7
952.38	4588.72
952.685	4650.19
952.99	4564.09
953.294	4510.76
953.599	4532
953.904	4538.55
954.209	4507.14
954.513	4465.56
954.818	4448.84
955.122	4449.06
955.426	4421.72
955.731	4380.82
956.035	4349.86
956.339	4308.05
956.643	4361.38
956.948	4283.64
957.252	4304.89
957.556	4293.81
957.86	4247.71
958.163	4217.66
958.467	4246.58
958.771	4244.55
959.075	4201.61
959.378	4153.7
959.682	4169.07
959.985	4141.95
960.289	4140.6
960.592	4101.28
960.896	4100.6
961.199	4041.39
961.502	4014.5
961.805	4003.2
962.108	4009.75
962.411	3982.86
962.714	3941.28
963.017	4007.72
963.32	3941.96
963.623	3917.33
963.926	3905.35
964.228	3856.31
964.531	3874.84
964.833	3896.76
965.136	3849.53
965.438	3817.67
965.741	3809.31
966.043	3815.63
966.345	3761.17
966.648	3745.35
966.95	3725.02
967.252	3698.8
967.554	3694.06
967.856	3678.69
968.158	3650.89
968.46	3648.41
968.761	3632.36
969.063	3606.6
969.365	3601.18
969.666	3637.56
969.968	3567.51
970.269	3566.83
970.571	3541.29
970.872	3558.47
971.174	3497.68
971.475	3472.82
971.776	3479.6
972.077	3478.92
972.378	3405.7
972.679	3391.01
972.98	3417.23
973.281	3448.64
973.582	3426.04
973.883	3374.74
974.183	3355.08
974.484	3347.85
974.785	3320.05
975.085	3344.46
975.386	3296.78
975.686	3309.66
975.986	3272.82
976.287	3271.47
976.587	3242.54
976.887	3199.83
977.187	3223.79
977.487	3179.94
977.787	3208.87
978.087	3191.02
978.387	3178.81
978.687	3190.11
978.987	3165.26
979.286	3175.42
979.586	3127.29
979.885	3057.46
980.185	3105.14
980.484	3065.15
980.784	3080.96
981.083	3031.7
981.382	3059.72
981.682	2992.15
981.981	2981.98
982.28	3024.92
982.579	2956.9
982.878	2991.48
983.177	2931.59
983.475	2950.57
983.774	2925.26
984.073	2937.92
984.372	2905.6
984.67	2875.09
984.969	2901.31
985.267	2852.04
985.566	2870.35
985.864	2830.35
986.162	2821.08
986.461	2793.74
986.759	2791.48
987.057	2733.18
987.355	2751.93
987.653	2724.59
987.951	2713.97
988.249	2734.98
988.547	2727.08
988.844	2685.04
989.142	2671.48
989.44	2643.46
989.737	2654.08
990.035	2632.16
990.332	2638.26
990.63	2652.95
990.927	2626.51
991.224	2581.54
991.521	2544.03
991.819	2582.67
992.116	2583.58
992.413	2571.15
992.71	2531.6
993.006	2513.52
993.303	2520.98
993.6	2475.1
993.897	2464.71
994.193	2512.39
994.49	2483.24
994.787	2451.6
995.083	2447.08
995.379	2464.03
995.676	2406.41
995.972	2399.85
996.268	2401.89
996.565	2397.59
996.861	2354.88
997.157	2375.67
997.453	2345.84
997.749	2332.74
998.044	2351.49
998.34	2304.04
998.636	2302.91
998.932	2315.79
999.227	2288.67
999.523	2275.11
999.818	2284.15
1000.114	2229.46
1000.409	2226.75
1000.704	2242.12
1001	2221.78
1001.295	2223.59
1001.59	2161.44
1001.885	2207.54
1002.18	2191.5
1002.475	2181.78
1002.77	2154.21
1003.065	2085.06
1003.359	2146.98
1003.654	2117.83
1003.949	2090.48
1004.243	2069.01
1004.538	2052.52
1004.832	2044.83
1005.127	2073.08
1005.421	2070.82
1005.715	2049.58
1006.009	1973.87
1006.304	1999.86
1006.598	1982.24
1006.892	2002.12
1007.186	1957.38
1007.48	1946.08
1007.773	1938.85
1008.067	1921.45
1008.361	1902.01
1008.655	1885.97
1008.948	1895.01
1009.242	1882.8
1009.535	1907.44
1009.829	1890.04
1010.122	1863.14
1010.415	1855.23
1010.708	1855.46
1011.001	1825.18
1011.295	1832.18
1011.588	1794.67
1011.881	1793.54
1012.173	1775.01
1012.466	1788.57
1012.759	1746.31
1013.052	1747.21
1013.344	1719.87
1013.637	1716.93
1013.93	1709.7
1014.222	1704.73
1014.514	1727.1
1014.807	1732.07
1015.099	1685.29
1015.391	1656.14
1015.683	1658.4
1015.976	1646.65
1016.268	1660.89
1016.56	1622.25
1016.851	1637.61
1017.143	1606.43
1017.435	1600.78
1017.727	1598.07
1018.018	1558.97
1018.31	1547.45
1018.602	1553.55
1018.893	1537.73
1019.185	1546.32
1019.476	1516.03
1019.767	1539.31
1020.058	1504.06
1020.35	1476.94
1020.641	1481.68
1020.932	1482.14
1021.223	1449.14
1021.514	1466.09
1021.804	1452.53
1022.095	1434.45
1022.386	1422.02
1022.677	1424.28
1022.967	1410.5
1023.258	1379.31
1023.548	1388.13
1023.839	1395.81
1024.129	1380.9
1024.419	1363.5
1024.709	1376.6
1025	1346.55
1025.29	1374.79
1025.58	1318.52
1025.87	1325.08
1026.16	1300.9
1026.449	1307.23
1026.739	1278.3
1027.029	1293.67
1027.319	1270.16
1027.608	1245.31
1027.898	1247.57
1028.187	1247.11
1028.477	1245.76
1028.766	1246.21
1029.055	1257.51
1029.344	1227
1029.634	1231.75
1029.923	1196.27
1030.212	1209.15
1030.501	1167.12
1030.79	1189.26
1031.078	1165.76
1031.367	1169.15
1031.656	1169.6
1031.945	1150.39
1032.233	1146.78
1032.522	1140
1032.81	1128.93
1033.099	1152.65
1033.387	1123.95
1033.675	1132.54
1033.963	1098.19
1034.251	1099.55
1034.54	1077.4
1034.828	1106.33
1035.116	1107.68
1035.403	1064.29
1035.691	1065.88
1035.979	1075.59
1036.267	1077.18
1036.554	1056.84
1036.842	1047.12
1037.129	1028.36
1037.417	1013.22
1037.704	1005.31
1037.992	1031.53
1038.279	1001.92
1038.566	982.71
1038.853	982.71
1039.14	982.71
