Data from hue_36_FLMS001491_00091.txt Node
Date: Tue Feb 07 17:30:32 GMT 2017
User: dcchb
Spectrometer: FLMS00149
Trigger mode: 0
Integration Time (sec): 2.000000E-2
Scans to average: 10
Electric dark correction enabled: true
Nonlinearity correction enabled: false
Boxcar width: 0
XAxis mode: Wavelengths
Number of Pixels in Spectrum: 2048
>>>>>Begin Spectral Data<<<<<
341.393	-31.57
341.776	-31.57
342.16	-31.57
342.543	-70.89
342.927	-89.42
343.31	-58.23
343.693	-67.72
344.077	-81.28
344.46	-64.79
344.843	-79.48
345.226	-29.76
345.61	-21.17
345.993	-20.49
346.376	-8.29
346.759	6.62
347.142	50.69
347.525	41.43
347.908	54.08
348.291	61.99
348.674	107.86
349.057	108.54
349.44	108.32
349.823	139.5
350.206	156.22
350.588	189.44
350.971	201.42
351.354	222.89
351.737	254.53
352.119	247.07
352.502	262.89
352.884	292.04
353.267	266.5
353.65	299.05
354.032	295.2
354.414	311.02
354.797	311.93
355.179	329.55
355.562	313.73
355.944	342.43
356.326	312.6
356.709	318.48
357.091	348.31
357.473	332.72
357.855	342.21
358.238	346.05
358.62	333.17
359.002	341.76
359.384	315.77
359.766	359.84
360.148	326.62
360.53	322.1
360.912	346.28
361.294	333.85
361.676	330.68
362.057	340.17
362.439	337.46
362.821	335.43
363.203	330.91
363.584	309.44
363.966	334.75
364.348	310.57
364.729	327.75
365.111	322.32
365.493	328.88
365.874	306.96
366.256	324.13
366.637	310.34
367.019	294.98
367.4	316.22
367.781	325.26
368.163	293.62
368.544	321.87
368.925	313.96
369.306	305.83
369.688	304.92
370.069	309.44
370.45	297.46
370.831	304.02
371.212	303.34
371.593	323.23
371.974	307.18
372.355	319.61
372.736	304.47
373.117	338.14
373.498	313.73
373.879	326.39
374.26	306.28
374.641	331.14
375.021	304.02
375.402	322.32
375.783	318.25
376.163	349.67
376.544	310.8
376.925	301.98
377.305	306.73
377.686	318.93
378.066	324.13
378.447	328.88
378.827	319.61
379.208	311.25
379.588	334.07
379.968	318.03
380.349	310.34
380.729	315.77
381.109	317.8
381.489	307.41
381.87	326.62
382.25	325.94
382.63	364.81
383.01	339.95
383.39	331.81
383.77	340.4
384.15	344.92
384.53	357.35
384.91	354.41
385.29	347.86
385.67	349.21
386.049	354.64
386.429	363.68
386.809	365.03
387.189	330.46
387.568	340.4
387.948	344.47
388.328	358.48
388.707	347.86
389.087	354.41
389.466	348.99
389.846	353.51
390.225	352.38
390.605	361.42
390.984	349.67
391.363	380.17
391.743	364.13
392.122	375.43
392.501	365.94
392.881	376.11
393.26	360.51
393.639	348.08
394.018	367.29
394.397	376.56
394.776	362.77
395.155	388.99
395.534	353.96
395.913	364.81
396.292	399.16
396.671	378.14
397.05	384.24
397.429	374.52
397.808	354.64
398.186	362.09
398.565	369.33
398.944	399.16
399.323	389.66
399.701	371.13
400.08	390.34
400.458	379.04
400.837	388.76
401.215	388.76
401.594	417.91
401.972	398.25
402.351	397.8
402.729	401.87
403.107	375.2
403.486	391.7
403.864	384.92
404.242	416.78
404.62	399.61
404.999	426.27
405.377	390.79
405.755	422.66
406.133	418.36
406.511	414.75
406.889	436.67
407.267	415.88
407.645	424.24
408.023	406.16
408.401	440.74
408.779	431.25
409.156	445.48
409.534	432.15
409.912	435.09
410.29	446.84
410.667	445.93
411.045	435.77
411.422	442.77
411.8	452.04
412.178	450.68
412.555	457.69
412.933	485.03
413.31	451.58
413.687	468.76
414.065	452.26
414.442	460.62
414.819	467.63
415.197	466.27
415.574	471.47
415.951	480.28
416.328	482.32
416.705	487.06
417.082	504.01
417.46	476.67
417.837	505.59
418.214	486.84
418.591	505.14
418.967	494.97
419.344	511.7
419.721	489.78
420.098	518.93
420.475	519.6
420.852	492.94
421.228	515.99
421.605	545.82
421.982	508.98
422.358	533.39
422.735	531.81
423.111	530.68
423.488	542.2
423.864	525.03
424.241	538.59
424.617	524.8
424.994	548.76
425.37	547.4
425.746	542.43
426.123	561.64
426.499	567.51
426.875	556.67
427.251	551.92
427.627	552.15
428.003	575.2
428.379	600.96
428.756	578.13
429.132	580.17
429.507	568.64
429.883	592.37
430.259	617.91
430.635	621.52
431.011	610
431.387	602.31
431.763	637.79
432.138	619.94
432.514	641.41
432.89	652.26
433.265	650.45
433.641	629.66
434.016	663.33
434.392	654.97
434.767	639.15
435.143	658.58
435.518	664.91
435.894	670.56
436.269	648.42
436.644	694.74
437.02	700.17
437.395	677.79
437.77	721.41
438.145	720.5
438.52	723.67
438.895	732.03
439.271	715.31
439.646	723.22
440.021	750.56
440.395	727.96
440.77	744.01
441.145	743.78
441.52	754.4
441.895	742.42
442.27	744.46
442.645	735.19
443.019	742.88
443.394	762.08
443.769	761.86
444.143	766.6
444.518	767.96
444.892	785.81
445.267	783.78
445.641	777.68
446.016	799.82
446.39	775.87
446.764	787.39
447.139	805.02
447.513	790.11
447.887	831.01
448.262	812.03
448.636	835.08
449.01	803.89
449.384	798.92
449.758	806.38
450.132	853.38
450.506	833.5
450.88	846.6
451.254	850.9
451.628	861.74
452.002	872.14
452.376	885.47
452.75	867.62
453.123	877.56
453.497	878.01
453.871	909.88
454.244	911.91
454.618	920.72
454.992	940.16
455.365	923.89
455.739	927.96
456.112	941.51
456.486	943.77
456.859	980.38
457.232	993.26
457.606	983.77
457.979	996.65
458.352	1017.9
458.725	1011.12
459.099	1023.09
459.472	1040.5
459.845	1057.67
460.218	1049.53
460.591	1062.64
460.964	1075.07
461.337	1094.96
461.71	1113.26
462.083	1109.65
462.456	1145.13
462.829	1140.38
463.201	1139.25
463.574	1188.29
463.947	1175.86
464.32	1185.8
464.692	1222.86
465.065	1194.84
465.438	1227.61
465.81	1231.68
466.183	1261.28
466.555	1280.94
466.928	1304.44
467.3	1304.9
467.672	1334.5
468.045	1348.96
468.417	1367.72
468.789	1357.55
469.161	1380.37
469.534	1429.64
469.906	1461.5
470.278	1447.72
470.65	1459.69
471.022	1536.98
471.394	1565.68
471.766	1559.8
472.138	1586.47
472.51	1597.54
472.882	1646.58
473.253	1683.42
473.625	1689.52
473.997	1731.1
474.369	1750.76
474.74	1785.11
475.112	1846.12
475.484	1887.03
475.855	1923.18
476.227	1940.36
476.598	1985.78
476.97	2057.64
477.341	2064.2
477.713	2162.5
478.084	2167.47
478.455	2187.36
478.827	2273.01
479.198	2341.48
479.569	2393.45
479.94	2459.67
480.311	2512.55
480.682	2574.01
481.053	2638.87
481.424	2711.86
481.795	2754.35
482.166	2816.04
482.537	2877.51
482.908	2955.47
483.279	3014.23
483.65	3108.24
484.021	3194.11
484.391	3289.48
484.762	3369.93
485.133	3421.9
485.503	3456.93
485.874	3613.31
486.244	3679.75
486.615	3807.43
486.985	3828.22
487.356	3973.53
487.726	3989.34
488.097	4110.02
488.467	4204.71
488.837	4339.39
489.207	4390.46
489.578	4500.97
489.948	4603.57
490.318	4693.51
490.688	4746.16
491.058	4853.05
491.428	4969.43
491.798	5049.43
492.168	5232.7
492.538	5272.47
492.908	5347.95
493.278	5423.88
493.648	5527.16
494.017	5624.33
494.387	5723.31
494.757	5804.66
495.126	5933.02
495.496	5992.91
495.866	6096.18
496.235	6177.54
496.605	6284.2
496.974	6323.97
497.344	6396.74
497.713	6512.89
498.082	6598.32
498.452	6659.33
498.821	6745.2
499.19	6803.73
499.559	6922.37
499.928	6990.4
500.298	7017.06
500.667	7193.55
501.036	7239.2
501.405	7256.6
501.774	7315.58
502.143	7413.21
502.512	7482.81
502.88	7591.51
503.249	7625.41
503.618	7673.54
503.987	7759.64
504.356	7897.49
504.724	7956.02
505.093	7951.73
505.462	8071.95
505.83	8130.7
506.199	8198.05
506.567	8260.42
506.936	8312.39
507.304	8449.57
507.672	8471.03
508.041	8552.61
508.409	8605.72
508.777	8699.28
509.145	8785.83
509.514	8762.55
509.882	8834.41
510.25	8943.79
510.618	8935.43
510.986	9032.15
511.354	9100.4
511.722	9185.14
512.09	9247.51
512.458	9276.89
512.826	9366.38
513.193	9388.07
513.561	9456.77
513.929	9541.51
514.297	9624.9
514.664	9678.69
515.032	9749.64
515.4	9823.99
515.767	9816.99
516.135	9887.72
516.502	9901.73
516.869	10099.01
517.237	10041.16
517.604	10085.91
517.972	10183.98
518.339	10160.26
518.706	10266.02
519.073	10278.22
519.44	10377.65
519.808	10424.2
520.175	10437.31
520.542	10624.42
520.909	10662.16
521.276	10638.21
521.643	10777.87
522.009	10768.6
522.376	10875.49
522.743	10905.77
523.11	10991.87
523.477	11106.67
523.843	11114.13
524.21	11319.1
524.577	11350.96
524.943	11358.19
525.31	11397.29
525.676	11527
526.043	11603.61
526.409	11668.92
526.776	11739.87
527.142	11809.48
527.508	11868.46
527.874	11934.9
528.241	12011.28
528.607	12042.92
528.973	12145.74
529.339	12222.12
529.705	12347.77
530.071	12329.69
530.437	12393.64
530.803	12468.67
531.169	12576.69
531.535	12586.41
531.901	12671.15
532.267	12718.61
532.632	12747.76
532.998	12800.86
533.364	12940.07
533.73	12953.4
534.095	13065.26
534.461	13063
534.826	13127.64
535.192	13104.36
535.557	13246.28
535.923	13252.6
536.288	13361.08
536.653	13386.16
537.019	13343
537.384	13460.06
537.749	13592.48
538.114	13528.53
538.479	13653.5
538.845	13684.68
539.21	13763.78
539.575	13744.34
539.94	13897.33
540.305	13969.65
540.67	13909.08
541.034	13965.13
541.399	14058.23
541.764	14081.28
542.129	14126.48
542.494	14175.74
542.858	14297.1
543.223	14301.16
543.587	14340.94
543.952	14391.1
544.316	14425.23
544.681	14458.9
545.045	14588.39
545.41	14513.81
545.774	14701.15
546.138	14649.18
546.503	14768.27
546.867	14698.67
547.231	14866.57
547.595	14881.26
547.959	14946.57
548.324	15034.7
548.688	14961.49
549.052	15118.09
549.416	15134.81
549.779	15193.12
550.143	15200.35
550.507	15313.79
550.871	15430.63
551.235	15361.47
551.599	15515.59
551.962	15555.59
552.326	15536.84
552.689	15674.01
553.053	15652.99
553.417	15665.87
553.78	15770.28
554.143	15767.34
554.507	15867
554.87	15945.87
555.234	16042.81
555.597	16013.89
555.96	16082.81
556.323	16128.69
556.686	16153.32
557.05	16322.35
557.413	16256.82
557.776	16300.66
558.139	16425.63
558.502	16622.23
558.865	16560.09
559.228	16584.04
559.59	16634.21
559.953	16619.75
560.316	16836.01
560.679	16847.09
561.041	16902.68
561.404	16964.6
561.767	17136.12
562.129	17118.04
562.492	17245.49
562.854	17199.17
563.217	17316.68
563.579	17344.47
563.941	17488.65
564.304	17537.91
564.666	17638.48
565.028	17616.1
565.39	17524.58
565.753	17800.96
566.115	17805.25
566.477	17926.83
566.839	17887.74
567.201	18014.06
567.563	18028.98
567.925	18123.66
568.287	18263.09
568.648	18240.72
569.01	18360.49
569.372	18429.42
569.734	18554.61
570.095	18581.73
570.457	18597.1
570.819	18785.57
571.18	18758.45
571.542	18942.62
571.903	18935.62
572.265	19058.55
572.626	19172.9
572.987	19207.02
573.349	19248.38
573.71	19328.38
574.071	19408.37
574.432	19480.01
574.794	19720.46
575.155	19707.35
575.516	19732.66
575.877	19820.34
576.238	20002.03
576.599	20043.84
576.96	20232.53
577.32	20239.31
577.681	20458.29
578.042	20592.98
578.403	20630.26
578.763	20780.32
579.124	21023.02
579.485	21059.4
579.845	21203.81
580.206	21342.56
580.566	21481.54
580.927	21661.87
581.287	21870.46
581.648	21890.34
582.008	22125.14
582.368	22241.75
582.728	22496.65
583.089	22625.92
583.449	22737.33
583.809	22890.99
584.169	23120.14
584.529	23275.39
584.889	23559
585.249	23741.59
585.609	23828.82
585.969	24091.64
586.329	24261.81
586.688	24437.85
587.048	24727.1
587.408	24707.67
587.768	25091.16
588.127	25246.64
588.487	25472.62
588.846	25846.17
589.206	25857.24
589.565	26133.17
589.925	26402.77
590.284	26604.12
590.643	26710.78
591.003	27194.16
591.362	27377.43
591.721	27491.78
592.08	27746.69
592.44	28077.07
592.799	28245.88
593.158	28426.67
593.517	28751.86
593.876	28986.43
594.235	29115.01
594.593	29380.09
594.952	29668.67
595.311	29752.51
595.67	30005.61
596.029	30316.11
596.387	30572.83
596.746	30825.93
597.104	30943.66
597.463	31165.35
597.822	31386.36
598.18	31435.18
598.538	31701.16
598.897	32210.98
599.255	31953.35
599.613	32767.34
599.972	32598.54
600.33	32884.4
600.688	32973.21
601.046	33300.89
601.404	33583.14
601.762	33597.83
602.12	34092.06
602.478	34014.32
602.836	34391.48
603.194	34201.21
603.552	34616.34
603.91	34512.61
604.268	34912.82
604.625	35114.4
604.983	35105.14
605.341	35196.66
605.698	35591.68
606.056	35721.17
606.413	35848.17
606.771	36049.74
607.128	36357.08
607.485	36222.17
607.843	36318.66
608.2	36622.61
608.557	36935.6
608.914	36850.85
609.272	37252.2
609.629	37439.31
609.986	37629.36
610.343	37469.59
610.7	37887.66
611.057	37944.38
611.414	38125.85
611.771	38345.96
612.127	38567.64
612.484	38491.94
612.841	38675.44
613.198	38836.79
613.554	38854.42
613.911	39151.81
614.267	39109.55
614.624	39271.81
614.98	39548.64
615.337	39666.82
615.693	39573.95
616.05	39723.32
616.406	39931.68
616.762	39884.67
617.118	39891.23
617.475	40034.72
617.831	40230.88
618.187	40307.49
618.543	40388.39
618.899	40624.31
619.255	40556.97
619.611	40661.83
619.967	40945.21
620.323	40850.75
620.678	40640.13
621.034	40829.28
621.39	40947.92
621.746	40899.11
622.101	41392.88
622.457	41133
622.812	41329.83
623.168	41518.75
623.523	41448.02
623.879	41638.75
624.234	41480.79
624.589	41590.84
624.945	41840.78
625.3	41893.43
625.655	41796.71
626.01	41822.02
626.365	41820.89
626.72	41917.16
627.075	41963.49
627.43	41968.46
627.785	42035.8
628.14	42012.75
628.495	42049.81
628.85	42014.33
629.205	42016.82
629.559	42283.93
629.914	41959.42
630.269	42168.45
630.623	42143.82
630.978	41994.45
631.332	42329.13
631.687	42327.09
632.041	42117.16
632.396	42198.51
632.75	42091.85
633.104	42267.21
633.459	42100.21
633.813	42176.59
634.167	41963.71
634.521	42229.47
634.875	42150.15
635.229	42331.16
635.583	42077.16
635.937	42125.29
636.291	42083.71
636.645	42062.24
636.999	42201.22
637.352	42271.73
637.706	41881.46
638.06	42220.43
638.413	42160.09
638.767	41943.37
639.121	42008.01
639.474	41739.54
639.828	41851.17
640.181	42030.83
640.534	42007.1
640.888	41906.54
641.241	41782.93
641.594	41932.08
641.947	41848.01
642.301	41729.82
642.654	41846.2
643.007	41850.5
643.36	41870.83
643.713	41701.8
644.066	41878.74
644.419	41624.96
644.771	41330.74
645.124	40932.55
645.477	41026.56
645.83	40695.5
646.182	40693.46
646.535	40688.04
646.888	40646.46
647.24	40541.83
647.593	40757.64
647.945	40639.91
648.298	40491.44
648.65	40395.84
649.002	40332.57
649.355	40392
649.707	40356.52
650.059	40643.07
650.411	41112.89
650.763	41166.45
651.115	41373.22
651.467	41217.07
651.819	41297.97
652.171	41293.67
652.523	41155.37
652.875	41153.34
653.227	41013.46
653.578	41376.16
653.93	41183.39
654.282	41115.15
654.633	40918.77
654.985	40928.71
655.337	40914.02
655.688	41052.1
656.039	41240.12
656.391	40910.63
656.742	41005.77
657.094	40890.07
657.445	41140.91
657.796	41009.39
658.147	40933.46
658.498	40948.37
658.849	41025.43
659.2	41046.67
659.551	40856.17
659.902	41123.74
660.253	40941.37
660.604	41025.66
660.955	40889.16
661.306	40959.9
661.656	40857.75
662.007	40934.81
662.358	41046.9
662.708	40941.37
663.059	40906.34
663.409	40621.15
663.76	41008.03
664.11	40894.81
664.461	40902.95
664.811	40964.87
665.161	40898.43
665.511	40791.09
665.862	40745.89
666.212	40950.63
666.562	40772.33
666.912	40794.03
667.262	40632.9
667.612	40864.98
667.962	40669.96
668.312	40671.32
668.662	40781.15
669.011	40708.38
669.361	40665.22
669.711	40601.26
670.06	40538.67
670.41	40486.92
670.76	40551.09
671.109	40620.25
671.459	40414.83
671.808	40628.61
672.157	40660.7
672.507	40399.91
672.856	40385.68
673.205	40521.49
673.554	40577.08
673.904	40464.09
674.253	40767.36
674.602	40593.35
674.951	39931
675.3	39823.43
675.649	40384.55
675.998	40402.85
676.346	40398.56
676.695	40461.15
677.044	40001.28
677.393	40246.02
677.741	40218.67
678.09	40265.23
678.438	40028.17
678.787	40233.59
679.135	40219.13
679.484	39963.77
679.832	40176.19
680.181	39898.91
680.529	40046.93
680.877	39851.45
681.225	39846.48
681.573	40022.07
681.922	39738.91
682.27	39656.66
682.618	39757.67
682.966	39659.14
683.314	39689.2
683.661	39553.15
684.009	39348.19
684.357	39461.63
684.705	39231.58
685.053	39421.41
685.4	39270
685.748	39055.54
686.095	39156.33
686.443	39042.43
686.79	39039.72
687.138	39084.69
687.485	39117.46
687.832	38868.65
688.18	38967.41
688.527	38664.36
688.874	38690.35
689.221	38639.73
689.568	38407.87
689.915	38463.47
690.262	38484.71
690.609	38226.41
690.956	38144.38
691.303	38275.67
691.65	37903.48
691.997	38044.72
692.344	37877.94
692.69	37701.45
693.037	37701.45
693.383	37479.31
693.73	37587.78
694.077	37425.08
694.423	37396.38
694.769	37155.7
695.116	37249.94
695.462	37149.38
695.808	37016.5
696.155	37103.73
696.501	36801.81
696.847	36804.3
697.193	36655.83
697.539	36711.2
697.885	36473.46
698.231	36362.05
698.577	36367.25
698.923	36325.9
699.269	36106.69
699.614	36023.98
699.96	35875.51
700.306	35948.73
700.651	35771.33
700.997	35637.33
701.342	35663.77
701.688	35662.41
702.033	35536.31
702.379	35618.8
702.724	35351.46
703.069	35458.57
703.415	35125.25
703.76	35032.37
704.105	35009.55
704.45	35083.44
704.795	34825.6
705.14	34701.98
705.485	34619.5
705.83	34448.2
706.175	34471.71
706.52	34472.84
706.865	34328.43
707.209	34316.91
707.554	34299.73
707.899	34248.21
708.243	34014.77
708.588	34005.28
708.932	33675.12
709.277	33789.69
709.621	33784.04
709.966	33582.46
710.31	33666.3
710.654	33502.69
710.998	33493.2
711.342	33576.36
711.687	33361
712.031	33269.25
712.375	33173.44
712.719	33061.8
713.063	33027.45
713.407	33219.76
713.75	32911.75
714.094	33023.84
714.438	32783.62
714.782	32796.5
715.125	32653.45
715.469	32819.55
715.812	32521.7
716.156	32426.79
716.499	32537.29
716.843	32493.91
717.186	32406.9
717.53	32404.42
717.873	32314.48
718.216	32348.6
718.559	31936.41
718.902	31919.01
719.246	32189.96
719.589	31999.68
719.932	31821.61
720.275	31836.75
720.617	31733.7
720.96	31731.21
721.303	31716.52
721.646	31669.52
721.989	31548.85
722.331	31622.52
722.674	31547.26
723.016	31503.42
723.359	31391.56
723.701	31408.51
724.044	31296.42
724.386	31090.33
724.729	31212.13
725.071	31101.4
725.413	31214.39
725.755	31034.96
726.097	30951.57
726.439	30841.97
726.782	30804.01
727.124	30971.69
727.465	30747.28
727.807	30748.64
728.149	30608.53
728.491	30674.74
728.833	30766.49
729.175	30583.9
729.516	30482.88
729.858	30583
730.199	30449.89
730.541	30463.9
730.882	30382.77
731.224	30341.19
731.565	30262.55
731.906	30260.97
732.248	30263.68
732.589	30062.56
732.93	30039.51
733.271	30075.44
733.612	30053.07
733.953	30055.55
734.294	29921.77
734.635	29683.36
734.976	29898.49
735.317	29648.56
735.658	29712.28
735.999	29817.14
736.339	29707.76
736.68	29798.16
737.021	29638.61
737.361	29409.69
737.702	29723.58
738.042	29345.06
738.383	29479.75
738.723	29504.38
739.063	29355.68
739.404	29405.4
739.744	29258.06
740.084	29246.76
740.424	29239.3
740.764	29152.3
741.104	29241.11
741.444	29096.71
741.784	29021.45
742.124	29022.81
742.464	28979.2
742.804	28894.23
743.143	28834.79
743.483	28785.08
743.823	28789.14
744.162	28718.64
744.502	28669.37
744.841	28551.18
745.181	28705.53
745.52	28577.85
745.86	28578.53
746.199	28523.39
746.538	28479.32
746.877	28484.75
747.216	28384.18
747.556	28459.21
747.895	28337.86
748.234	28109.39
748.573	28291.76
748.911	28100.57
749.25	28071.65
749.589	27995.49
749.928	28032.55
750.267	28142.16
750.605	27956.17
750.944	27796.4
751.283	27741.26
751.621	27907.36
751.96	27623.53
752.298	27803.18
752.636	27755.5
752.975	27609.74
753.313	27565
753.651	27648.38
753.989	27501.49
754.327	27394.15
754.666	27262.4
755.004	27281.61
755.342	27241.61
755.679	27238.45
756.017	27104.89
756.355	27089.3
756.693	27071
757.031	27082.75
757.368	26870.78
757.706	26849.31
758.044	26754.85
758.381	26825.13
758.719	26681.63
759.056	26768.41
759.394	26652.48
759.731	26413.61
760.068	26313.73
760.405	26272.37
760.743	26285.26
761.08	26320.06
761.417	25990.35
761.754	26078.71
762.091	25981.53
762.428	25894.08
762.765	25669.9
763.102	25864.93
763.438	25654.31
763.775	25567.53
764.112	25599.85
764.449	25564.82
764.785	25501.77
765.122	25320.53
765.458	25122.12
765.795	25180.65
766.131	25119.64
766.467	24989.92
766.804	24890.49
767.14	24929.81
767.476	24853.88
767.812	24655.92
768.148	24823.15
768.485	24637.84
768.821	24334.57
769.157	24325.08
769.492	24245.08
769.828	24209.38
770.164	24174.35
770.5	24032.21
770.836	24017.97
771.171	23914.47
771.507	23697.98
771.842	23705.89
772.178	23567.81
772.513	23602.84
772.849	23522.62
773.184	23380.7
773.519	23314.71
773.855	23288.5
774.19	23131.44
774.525	23105.68
774.86	23097.54
775.195	22999.47
775.53	22839.02
775.865	22862.52
776.2	22665.92
776.535	22566.48
776.87	22494.17
777.205	22462.53
777.539	22351.57
777.874	22416.88
778.209	22162.65
778.543	22114.07
778.878	22028.42
779.212	21920.4
779.547	21791.36
779.881	21937.12
780.215	21621.2
780.55	21826.16
780.884	21644.25
781.218	21550.92
781.552	21549.79
781.886	21326.06
782.22	21271.83
782.554	21260.75
782.888	21061.44
783.222	21037.03
783.556	20744.16
783.889	20778.96
784.223	20650.6
784.557	20622.58
784.89	20702.35
785.224	20492.87
785.557	20448.35
785.891	20410.38
786.224	20424.84
786.558	20300.33
786.891	20254.23
787.224	20100.56
787.557	20070.28
787.891	19945.99
788.224	19922.94
788.557	19930.85
788.89	19799.78
789.223	19894.01
789.556	19680.01
789.888	19612.21
790.221	19517.3
790.554	19388.94
790.887	19541.48
791.219	19397.3
791.552	19221.03
791.884	19160.02
792.217	19180.58
792.549	19034.82
792.882	18976.29
793.214	18851.78
793.546	18908.5
793.879	18798.22
794.211	18629.64
794.543	18729.97
794.875	18697.66
795.207	18684.1
795.539	18468.96
795.871	18527.04
796.203	18347.16
796.535	18244.79
796.867	18321.17
797.198	18193.72
797.53	18107.62
797.862	18054.51
798.193	18111.23
798.525	17890.22
798.856	18035.3
799.188	17754.86
799.519	17653.84
799.85	17587.63
800.182	17714.86
800.513	17652.49
800.844	17456.79
801.175	17544.69
801.506	17464.47
801.837	17394.19
802.168	17394.42
802.499	17353.74
802.83	17239.39
803.161	17155.33
803.491	17218.15
803.822	17212.5
804.153	17090.69
804.483	16950.59
804.814	16953.3
805.145	16887.08
805.475	16914.43
805.805	16796.69
806.136	16810.02
806.466	16782.91
806.796	16746.07
807.126	16571.39
807.457	16604.83
807.787	16567.54
808.117	16547.88
808.447	16428.11
808.777	16472.18
809.107	16338.17
809.436	16434.44
809.766	16270.15
810.096	16252.3
810.426	16139.08
810.755	16144.5
811.085	16078.74
811.414	16045.07
811.744	15975.47
812.073	15970.72
812.403	15936.83
812.732	15834
813.061	15793.1
813.39	15763.72
813.719	15634.24
814.049	15678.08
814.378	15744.06
814.707	15679.43
815.036	15614.8
815.365	15421.36
815.693	15391.53
816.022	15366.22
816.351	15402.38
816.68	15331.42
817.008	15329.61
817.337	15262.72
817.665	15203.29
817.994	15224.3
818.322	15240.12
818.651	15043.97
818.979	15002.39
819.307	15037.19
819.636	14990.86
819.964	14935.5
820.292	14902.96
820.62	14959.9
820.948	14956.29
821.276	14916.74
821.604	14861.6
821.932	14965.33
822.259	14956.29
822.587	14831.55
822.915	14839.68
823.243	14880.81
823.57	14809.85
823.898	14813.92
824.225	14752
824.553	14701.38
824.88	14796.07
825.207	14770.98
825.535	14791.77
825.862	14786.12
826.189	14794.48
826.516	14797.2
826.843	14841.71
827.17	14808.95
827.497	14851.88
827.824	14850.75
828.151	14825.67
828.478	14750.42
828.805	14901.83
829.131	14787.25
829.458	14749.51
829.785	14694.83
830.111	14708.16
830.438	14761.94
830.764	14812.11
831.09	14762.85
831.417	14708.16
831.743	14759.68
832.069	14750.87
832.395	14707.25
832.722	14765.11
833.048	14612.79
833.374	14688.72
833.7	14553.13
834.026	14654.83
834.351	14715.39
834.677	14640.82
835.003	14662.96
835.329	14626.8
835.654	14641.95
835.98	14600.14
836.306	14590.65
836.631	14449.63
836.956	14509.29
837.282	14503.87
837.607	14406.92
837.932	14373.93
838.258	14376.87
838.583	14436.08
838.908	14341.16
839.233	14282.63
839.558	14319.02
839.883	14120.6
840.208	14156.99
840.533	14197.89
840.858	14121.96
841.182	14177.55
841.507	14118.8
841.832	14072.24
842.156	14002.19
842.481	13980.95
842.805	14057.1
843.13	13971.91
843.454	13919.48
843.778	13896.65
844.103	13848.52
844.427	13784.79
844.751	13846.49
845.075	13727.17
845.399	13792.02
845.723	13662.08
846.047	13703.21
846.371	13622.31
846.695	13562.88
847.019	13444.91
847.343	13391.58
847.666	13405.14
847.99	13247.41
848.313	13273.39
848.637	13170.12
848.96	13255.99
849.284	13218.48
849.607	13078.37
849.931	12964.7
850.254	12939.62
850.577	12801.77
850.9	12761.54
851.223	12708.66
851.546	12686.52
851.869	12620.53
852.192	12633.41
852.515	12556.35
852.838	12470.03
853.161	12479.97
853.483	12386.64
853.806	12361.33
854.129	12350.48
854.451	12243.82
854.774	12266.64
855.096	12210.6
855.419	12180.09
855.741	12156.81
856.063	12005.4
856.385	11985.74
856.708	12044.73
857.03	11973.54
857.352	11988.23
857.674	11853.09
857.996	11908.01
858.318	11834.56
858.64	11813.77
858.961	11806.09
859.283	11646.32
859.605	11620.33
859.926	11679.54
860.248	11607.45
860.57	11615.13
860.891	11611.06
861.212	11557.73
861.534	11516.83
861.855	11466.44
862.176	11475.48
862.498	11451.75
862.819	11492.88
863.14	11389.38
863.461	11424.18
863.782	11386.21
864.103	11370.62
864.424	11330.39
864.745	11389.38
865.065	11275.03
865.386	11161.59
865.707	11237.52
866.027	11219.66
866.348	11204.3
866.668	11252.88
866.989	11156.61
867.309	11083.85
867.63	11140.57
867.95	11080.01
868.27	11040.01
868.59	11056.05
868.91	11015.15
869.23	11013.34
869.55	10960.01
869.87	11052.89
870.19	10971.99
870.51	10983.51
870.83	11044.98
871.15	10952.55
871.469	10851.31
871.789	10934.25
872.109	10880.24
872.428	10857.19
872.748	10908.94
873.067	10794.36
873.386	10812.89
873.706	10730.41
874.025	10725.21
874.344	10753.69
874.663	10745.1
874.982	10709.39
875.301	10707.36
875.62	10666.68
875.939	10647.93
876.258	10609.74
876.577	10601.37
876.896	10640.24
877.214	10604.09
877.533	10574.93
877.852	10562.96
878.17	10571.32
878.489	10500.59
878.807	10513.01
879.125	10456.07
879.444	10527.03
879.762	10412.68
880.08	10420.81
880.398	10395.5
880.716	10440.7
881.034	10354.83
881.352	10364.77
881.67	10358.22
881.988	10310.99
882.306	10237.54
882.624	10200.48
882.941	10226.02
883.259	10161.39
883.577	10192.8
883.894	10121.61
884.212	10121.84
884.529	10134.95
884.846	10103.99
885.164	10113.7
885.481	10061.73
885.798	10003.42
886.115	9971.11
886.432	9983.08
886.75	9939.47
887.067	9961.16
887.383	9853.14
887.7	10002.75
888.017	9915.06
888.334	9856.76
888.651	9825.35
888.967	9840.04
889.284	9741.74
889.6	9694.5
889.917	9643.43
890.233	9687.95
890.55	9594.17
890.866	9641.63
891.182	9588.52
891.498	9559.37
891.815	9489.76
892.131	9482.99
892.447	9498.35
892.763	9475.53
893.079	9428.98
893.395	9454.06
893.71	9380.16
894.026	9375.42
894.342	9329.09
894.657	9263.33
894.973	9248.87
895.289	9236.21
895.604	9160.06
895.92	9129.55
896.235	9119.83
896.55	9126.61
896.865	9040.06
897.181	8975.43
897.496	9026.05
897.811	8906.73
898.126	8917.12
898.441	8848.88
898.756	8902.66
899.071	8869.89
899.386	8787.41
899.7	8750.12
900.015	8699.5
900.33	8644.59
900.644	8659.96
900.959	8725.26
901.273	8657.02
901.588	8633.52
901.902	8536.57
902.216	8639.84
902.531	8519.17
902.845	8487.76
903.159	8443.69
903.473	8396.01
903.787	8397.82
904.101	8325.73
904.415	8361.43
904.729	8320.98
905.042	8275.79
905.356	8217.93
905.67	8170.48
905.984	8235.33
906.297	8205.73
906.611	8127.77
906.924	8113.08
907.237	8062.01
907.551	8059.52
907.864	8054.77
908.177	8001.67
908.491	7977.26
908.804	7883.71
909.117	7845.06
909.43	7884.84
909.743	7846.42
910.056	7781.79
910.368	7725.52
910.681	7726.2
910.994	7653.88
911.307	7638.29
911.619	7608.23
911.932	7560.55
912.244	7556.48
912.557	7566.2
912.869	7518.52
913.181	7419.31
913.494	7456.15
913.806	7387.45
914.118	7337.96
914.43	7324.85
914.742	7296.38
915.054	7289.37
915.366	7228.58
915.678	7227
915.99	7207.56
916.302	7173.67
916.613	7094.12
916.925	7106.55
917.236	7050.28
917.548	7055.48
917.859	7049.15
918.171	6969.15
918.482	6958.76
918.794	6874.01
919.105	6871.08
919.416	6845.77
919.727	6829.5
920.038	6813.45
920.349	6723.51
920.66	6724.19
920.971	6715.15
921.282	6711.76
921.593	6654.81
921.903	6588.82
922.214	6556.51
922.525	6553.57
922.835	6528.03
923.146	6541.82
923.456	6478.32
923.767	6473.12
924.077	6500.46
924.387	6454.14
924.697	6416.85
925.008	6373.24
925.318	6318.77
925.628	6285.56
925.938	6311.54
926.248	6223.41
926.558	6239.45
926.867	6228.61
927.177	6196.52
927.487	6147.48
927.796	6127.82
928.106	6078.78
928.416	6125.56
928.725	6079.91
929.034	6019.35
929.344	6034.04
929.653	5952.91
929.962	5956.07
930.271	5865.68
930.581	5831.33
930.89	5835.85
931.199	5835.85
931.508	5853.48
931.817	5841.27
932.125	5796.98
932.434	5741.39
932.743	5688.06
933.051	5644.89
933.36	5681.05
933.669	5655.52
933.977	5649.19
934.286	5568.29
934.594	5592.01
934.902	5547.04
935.21	5528.06
935.519	5556.31
935.827	5475.63
936.135	5466.59
936.443	5373.71
936.751	5377.78
937.059	5384.79
937.367	5381.4
937.674	5367.84
937.982	5336.2
938.29	5278.8
938.597	5285.13
938.905	5278.35
939.213	5215.53
939.52	5206.04
939.827	5169.2
940.135	5190.44
940.442	5141.86
940.749	5138.92
941.056	5099.6
941.363	5022.31
941.67	5047.4
941.977	4982.31
942.284	4987.28
942.591	4957
942.898	4961.52
943.205	4975.08
943.511	4926.04
943.818	4891.47
944.125	4862.99
944.431	4845.82
944.738	4857.8
945.044	4825.93
945.35	4827.29
945.657	4765.37
945.963	4775.76
946.269	4720.62
946.575	4714.52
946.881	4682.89
947.187	4700.29
947.493	4629.78
947.799	4645.15
948.105	4618.71
948.41	4583
948.716	4630.01
949.022	4559.5
949.327	4558.37
949.633	4493.74
949.938	4492.38
950.244	4470.01
950.549	4440.86
950.854	4467.07
951.16	4394.53
951.465	4385.49
951.77	4358.6
952.075	4336
952.38	4352.05
952.685	4341.43
952.99	4288.55
953.294	4281.09
953.599	4243.57
953.904	4256.91
954.209	4212.84
954.513	4228.66
954.818	4207.42
955.122	4157.25
955.426	4156.8
955.731	4155.22
956.035	4140.07
956.339	4127.42
956.643	4086.29
956.948	4038.83
957.252	4017.82
957.556	4018.72
957.86	3997.48
958.163	4009.46
958.467	3949.57
958.771	3930.36
959.075	3978.95
959.378	3898.95
959.682	3915.67
959.985	3870.03
960.289	3868.9
960.592	3879.06
960.896	3834.32
961.199	3802.23
961.502	3784.83
961.805	3781.44
962.108	3757.03
962.411	3760.88
962.714	3733.08
963.017	3713.19
963.32	3710.26
963.623	3683.36
963.926	3654.66
964.228	3658.28
964.531	3676.81
964.833	3628.45
965.136	3573.54
965.438	3598.62
965.741	3581.45
966.043	3558.17
966.345	3571.5
966.648	3542.8
966.95	3531.73
967.252	3531.96
967.554	3468.23
967.856	3482.01
968.158	3481.56
968.46	3465.52
968.761	3447.89
969.063	3453.31
969.365	3419.87
969.666	3380.55
969.968	3333.54
970.269	3358.85
970.571	3299.42
970.872	3350.72
971.174	3317.95
971.475	3319.98
971.776	3293.54
972.077	3248.12
972.378	3271.17
972.679	3249.93
972.98	3216.03
973.281	3207.67
973.582	3202.25
973.883	3220.32
974.183	3168.57
974.484	3177.61
974.785	3111.4
975.085	3135.13
975.386	3140.33
975.686	3079.31
975.986	3109.37
976.287	3115.24
976.587	3052.87
976.887	3029.37
977.187	3051.29
977.487	3056.94
977.787	3001.12
978.087	2999.31
978.387	2994.34
978.687	2958.18
978.987	2952.08
979.286	2940.11
979.586	2950.28
979.885	2907.11
980.185	2897.62
980.484	2852.42
980.784	2858.3
981.083	2849.26
981.382	2870.28
981.682	2867.11
981.981	2830.28
982.28	2821.92
982.579	2788.47
982.878	2782.37
983.177	2740.34
983.475	2760
983.774	2738.08
984.073	2727
984.372	2684.29
984.67	2724.29
984.969	2705.54
985.267	2708.93
985.566	2689.72
985.864	2644.75
986.162	2654.01
986.461	2654.92
986.759	2627.57
987.057	2593.9
987.355	2608.59
987.653	2617.63
987.951	2587.12
988.249	2554.13
988.547	2560.68
988.844	2520.91
989.142	2556.61
989.44	2531.76
989.737	2522.04
990.035	2507.8
990.332	2488.82
990.63	2465.09
990.927	2492.66
991.224	2452.44
991.521	2448.82
991.819	2441.59
992.116	2398.2
992.413	2414.47
992.71	2372.44
993.006	2390.29
993.303	2380.8
993.6	2373.57
993.897	2376.05
994.193	2350.07
994.49	2314.36
994.787	2284.3
995.083	2319.33
995.379	2307.35
995.676	2303.74
995.972	2303.06
996.268	2252.67
996.565	2245.66
996.861	2244.76
997.157	2220.8
997.453	2220.13
997.749	2224.64
998.044	2226.23
998.34	2181.03
998.636	2134.48
998.932	2154.36
999.227	2161.14
999.523	2163.18
999.818	2123.4
1000.114	2139.68
1000.409	2092.67
1000.704	2078.43
1001	2072.11
1001.295	2096.51
1001.59	2093.35
1001.885	2054.71
1002.18	2070.3
1002.475	2042.28
1002.77	2026.01
1003.065	2000.02
1003.359	2019.23
1003.654	1993.24
1003.949	1968.83
1004.243	1985.56
1004.538	1997.08
1004.832	1974.71
1005.127	1947.14
1005.421	1908.95
1005.715	1908.5
1006.009	1937.19
1006.304	1895.61
1006.598	1874.37
1006.892	1863.75
1007.186	1868.5
1007.48	1858.1
1007.773	1882.51
1008.067	1833.47
1008.361	1814.71
1008.655	1822.17
1008.948	1812.68
1009.242	1787.59
1009.535	1774.94
1009.829	1757.09
1010.122	1752.79
1010.415	1730.42
1010.708	1749.18
1011.001	1747.82
1011.295	1745.79
1011.588	1720.93
1011.881	1710.99
1012.173	1695.85
1012.466	1664.89
1012.759	1649.74
1013.052	1688.61
1013.344	1666.92
1013.637	1650.42
1013.93	1647.71
1014.222	1644.32
1014.514	1642.51
1014.807	1613.81
1015.099	1611.78
1015.391	1595.28
1015.683	1579.01
1015.976	1589.63
1016.268	1572.68
1016.56	1534.72
1016.851	1544.44
1017.143	1528.17
1017.435	1506.7
1017.727	1508.51
1018.018	1498.34
1018.31	1496.08
1018.602	1479.81
1018.893	1489.52
1019.185	1474.83
1019.476	1447.04
1019.767	1473.03
1020.058	1458.11
1020.35	1446.36
1020.641	1410.88
1020.932	1421.5
1021.223	1404.55
1021.514	1384.67
1021.804	1405.23
1022.095	1374.72
1022.386	1374.72
1022.677	1362.52
1022.967	1334.95
1023.258	1347.61
1023.548	1333.37
1023.839	1315.97
1024.129	1294.05
1024.419	1289.75
1024.709	1286.36
1025	1266.93
1025.29	1256.08
1025.58	1266.25
1025.87	1257.44
1026.16	1214.05
1026.449	1251.79
1026.739	1237.55
1027.029	1230.32
1027.319	1238.23
1027.608	1208.63
1027.898	1193.03
1028.187	1209.76
1028.477	1193.03
1028.766	1191.68
1029.055	1193.26
1029.344	1172.7
1029.634	1188.97
1029.923	1149.87
1030.212	1145.13
1030.501	1125.01
1030.79	1145.8
1031.078	1120.49
1031.367	1127.95
1031.656	1125.46
1031.945	1111.45
1032.233	1097.67
1032.522	1098.12
1032.81	1088.18
1033.099	1060.16
1033.387	1083.21
1033.675	1061.96
1033.963	1054.73
1034.251	1049.53
1034.54	1032.59
1034.828	988.97
1035.116	1019.48
1035.403	998.91
1035.691	1008.18
1035.979	1024
1036.267	1006.82
1036.554	998.69
1036.842	998.91
1037.129	972.47
1037.417	962.31
1037.704	946.03
1037.992	972.47
1038.279	940.84
1038.566	961.63
1038.853	961.63
1039.14	961.63
