Data from hue_350_FLMS001491_23.txt Node
Date: Mon Feb 06 15:37:47 GMT 2017
User: dcchb
Spectrometer: FLMS00149
Trigger mode: 0
Integration Time (sec): 2.000000E-2
Scans to average: 10
Electric dark correction enabled: true
Nonlinearity correction enabled: false
Boxcar width: 0
XAxis mode: Wavelengths
Number of Pixels in Spectrum: 2048
>>>>>Begin Spectral Data<<<<<
341.393	-4.97
341.776	-4.97
342.16	-4.97
342.543	-63.73
342.927	-77.96
343.31	-79.55
343.693	-82.03
344.077	-56.5
344.46	-49.94
344.843	-48.36
345.226	-47
345.61	-34.35
345.993	-18.3
346.376	-5.2
346.759	18.98
347.142	33.9
347.525	44.07
347.908	52.2
348.291	72.31
348.674	94.69
349.057	105.08
349.44	139.21
349.823	150.5
350.206	130.84
350.588	192.76
350.971	199.54
351.354	221.92
351.737	233.67
352.119	244.51
352.502	257.62
352.884	267.11
353.267	262.59
353.65	301.69
354.032	286.09
354.414	303.72
354.797	316.38
355.179	340.1
355.562	314.12
355.944	297.62
356.326	316.83
356.709	357.28
357.091	342.82
357.473	328.35
357.855	350.5
358.238	355.7
358.62	350.5
359.002	339.88
359.384	325.87
359.766	343.95
360.148	357.05
360.53	346.66
360.912	342.82
361.294	340.56
361.676	322.03
362.057	320.44
362.439	332.87
362.821	339.65
363.203	326.77
363.584	322.25
363.966	309.37
364.348	325.87
364.729	306.43
365.111	305.98
365.493	337.84
365.874	320.9
366.256	308.47
366.637	314.57
367.019	312.99
367.4	330.39
367.781	295.81
368.163	307.79
368.544	308.47
368.925	300.78
369.306	294.68
369.688	313.21
370.069	325.87
370.45	290.61
370.831	340.56
371.212	303.95
371.593	301.24
371.974	314.57
372.355	303.95
372.736	304.85
373.117	309.37
373.498	310.5
373.879	312.31
374.26	298.98
374.641	311.86
375.021	311.4
375.402	309.14
375.783	318.64
376.163	319.54
376.544	296.04
376.925	309.14
377.305	334.68
377.686	301.69
378.066	305.98
378.447	319.54
378.827	308.92
379.208	333.1
379.588	318.64
379.968	334.45
380.349	329.48
380.729	329.71
381.109	327.45
381.489	323.61
381.87	332.65
382.25	316.83
382.63	336.49
383.01	336.49
383.39	332.42
383.77	330.39
384.15	337.39
384.53	327.9
384.91	337.39
385.29	354.11
385.67	353.89
386.049	346.21
386.429	351.4
386.809	356.15
387.189	359.99
387.568	339.2
387.948	359.09
388.328	337.17
388.707	364.96
389.087	342.59
389.466	349.37
389.846	346.88
390.225	363.38
390.605	353.44
390.984	362.93
391.363	356.15
391.743	344.85
392.122	362.02
392.501	350.95
392.881	377.17
393.26	345.3
393.639	360.89
394.018	374.68
394.397	370.16
394.776	359.99
395.155	375.36
395.534	377.84
395.913	371.74
396.292	387.79
396.671	364.74
397.05	355.92
397.429	365.19
397.808	366.77
398.186	373.1
398.565	384.85
398.944	369.48
399.323	381.01
399.701	371.29
400.08	377.17
400.458	379.88
400.837	382.81
401.215	393.66
401.594	388.01
401.972	389.82
402.351	391.85
402.729	384.4
403.107	390.27
403.486	404.51
403.864	378.52
404.242	388.46
404.62	404.96
404.999	406.99
405.377	433.21
405.755	395.24
406.133	395.92
406.511	432.76
406.889	433.43
407.267	434.56
407.645	401.8
408.023	401.57
408.401	421.46
408.779	434.34
409.156	427.56
409.534	429.37
409.912	440.44
410.29	450.16
410.667	457.62
411.045	458.52
411.422	458.52
411.8	455.36
412.178	432.31
412.555	470.27
412.933	450.84
413.31	457.16
413.687	451.74
414.065	452.87
414.442	458.74
414.819	461.68
415.197	477.73
415.574	481.34
415.951	452.42
416.328	477.73
416.705	478.41
417.082	483.38
417.46	495.81
417.837	508.01
418.214	504.39
418.591	489.25
418.967	503.49
419.344	499.2
419.721	504.39
420.098	530.38
420.475	507.33
420.852	511.85
421.228	514.56
421.605	534.9
421.982	539.42
422.358	547.33
422.735	545.07
423.111	550.72
423.488	543.49
423.864	566.54
424.241	544.17
424.617	555.24
424.994	533.77
425.37	557.27
425.746	530.83
426.123	553.21
426.499	581.68
426.875	592.07
427.251	583.26
427.627	594.79
428.003	602.47
428.379	583.49
428.756	611.74
429.132	612.41
429.507	611.74
429.883	613.54
430.259	606.31
430.635	632.75
431.011	623.26
431.387	636.14
431.763	654.9
432.138	639.98
432.514	624.16
432.89	646.54
433.265	660.32
433.641	680.89
434.016	656.93
434.392	676.37
434.767	682.69
435.143	673.43
435.518	684.73
435.894	701.22
436.269	731.96
436.644	724.95
437.02	724.95
437.395	726.53
437.77	736.25
438.145	735.12
438.52	742.13
438.895	744.39
439.271	747.1
439.646	743.26
440.021	764.95
440.395	761.79
440.77	776.48
441.145	768.79
441.52	759.98
441.895	765.63
442.27	802.46
442.645	780.09
443.019	798.4
443.394	811.73
443.769	804.5
444.143	767.21
444.518	823.03
444.892	787.1
445.267	825.74
445.641	800.2
446.016	841.79
446.39	818.96
446.764	826.64
447.139	829.58
447.513	838.4
447.887	853.31
448.262	828
448.636	843.82
449.01	847.89
449.384	858.28
449.758	849.47
450.132	865.74
450.506	888.56
450.88	874.1
451.254	887.66
451.628	865.97
452.002	888.79
452.376	930.82
452.75	899.19
453.123	922.46
453.497	912.07
453.871	919.3
454.244	933.99
454.618	961.56
454.992	961.78
455.365	957.04
455.739	968.79
456.112	960.2
456.486	977.15
456.859	993.65
457.232	1011.72
457.606	1030.26
457.979	1013.76
458.352	1014.21
458.725	1023.48
459.099	1056.7
459.472	1048.56
459.845	1069.12
460.218	1055.34
460.591	1088.33
460.964	1068.45
461.337	1101.44
461.71	1111.84
462.083	1116.81
462.456	1115.9
462.829	1149.8
463.201	1136.47
463.574	1152.29
463.947	1161.78
464.32	1188.22
464.692	1205.84
465.065	1195.67
465.438	1196.58
465.81	1178.73
466.183	1235.67
466.555	1259.18
466.928	1238.61
467.3	1244.49
467.672	1286.52
468.045	1302.79
468.417	1321.77
468.789	1311.83
469.161	1335.11
469.534	1359.29
469.906	1362
470.278	1376.01
470.65	1407.19
471.022	1429.34
471.394	1453.07
471.766	1461.2
472.138	1471.15
472.51	1488.32
472.882	1535.33
473.253	1517.02
473.625	1568.77
473.997	1587.53
474.369	1623.91
474.74	1627.53
475.112	1685.83
475.484	1669.11
475.855	1681.76
476.227	1704.59
476.598	1738.94
476.97	1784.13
477.341	1792.95
477.713	1828.88
478.084	1863.68
478.455	1905.49
478.827	1924.24
479.198	1962.66
479.569	1924.47
479.94	1998.59
480.311	2053.28
480.682	2074.3
481.053	2105.93
481.424	2166.72
481.795	2181.86
482.166	2222.31
482.537	2251.24
482.908	2284.46
483.279	2296.89
483.65	2370.79
484.021	2392.93
484.391	2411.24
484.762	2446.04
485.133	2482.65
485.503	2479.48
485.874	2584.11
486.244	2602.19
486.615	2683.55
486.985	2668.18
487.356	2709.31
487.726	2758.57
488.097	2820.72
488.467	2816.2
488.837	2842.86
489.207	2900.26
489.578	2907.27
489.948	2967.83
490.318	3001.95
490.688	3027.94
491.058	3058.22
491.428	3133.7
491.798	3165.11
492.168	3195.17
492.538	3233.59
492.908	3238.33
493.278	3346.8
493.648	3318.1
494.017	3366.24
494.387	3430.87
494.757	3433.13
495.126	3462.73
495.496	3471.32
495.866	3532.79
496.235	3552
496.605	3567.82
496.974	3612.11
497.344	3598.32
497.713	3656.85
498.082	3656.4
498.452	3681.03
498.821	3735.27
499.19	3769.17
499.559	3808.71
499.928	3745.44
500.298	3828.83
500.667	3897.98
501.036	3850.52
501.405	3854.81
501.774	3873.57
502.143	3947.24
502.512	3979.33
502.88	3969.61
503.249	3942.95
503.618	4008.48
503.987	3985.88
504.356	4060.01
504.724	4094.81
505.093	4106.11
505.462	4101.59
505.83	4111.3
506.199	4170.51
506.567	4232.88
506.936	4171.19
507.304	4260.23
507.672	4253
508.041	4284.18
508.409	4281.24
508.777	4270.62
509.145	4315.37
509.514	4350.17
509.882	4347.23
510.25	4393.78
510.618	4366.89
510.986	4395.82
511.354	4466.32
511.722	4457.74
512.09	4490.96
512.458	4484.63
512.826	4517.17
513.193	4499.09
513.561	4524.4
513.929	4569.82
514.297	4600.11
514.664	4626.77
515.032	4643.95
515.4	4648.92
515.767	4664.28
516.135	4721.91
516.502	4670.61
516.869	4742.7
517.237	4702.02
517.604	4732.53
517.972	4792.19
518.339	4746.09
518.706	4836.26
519.073	4821.57
519.44	4841
519.808	4873.32
520.175	4849.14
520.542	4894.33
520.909	4912.87
521.276	4939.76
521.643	4940.66
522.009	4931.4
522.376	4991.51
522.743	5050.26
523.11	5082.58
523.477	5060.43
523.843	5086.19
524.21	5132.97
524.577	5200.09
524.943	5233.76
525.31	5191.05
525.676	5237.15
526.043	5290.71
526.409	5270.82
526.776	5316.92
527.142	5382.23
527.508	5352.4
527.874	5444.6
528.241	5483.47
528.607	5424.26
528.973	5526.63
529.339	5471.49
529.705	5496.8
530.071	5621.77
530.437	5616.58
530.803	5579.97
531.169	5623.81
531.535	5615.67
531.901	5639.17
532.267	5656.8
532.632	5754.65
532.998	5705.16
533.364	5803.24
533.73	5767.31
534.095	5898.83
534.461	5864.7
534.826	5873.74
535.192	5928.43
535.557	5958.71
535.923	5998.94
536.288	5996
536.653	6036.68
537.019	6020.18
537.384	6081.65
537.749	6059.5
538.114	6046.85
538.479	6063.8
538.845	6156
539.21	6168.88
539.575	6192.61
539.94	6193.51
540.305	6225.15
540.67	6262.43
541.034	6253.17
541.399	6331.36
541.764	6258.59
542.129	6373.17
542.494	6383.33
542.858	6412.49
543.223	6385.82
543.587	6463.78
543.952	6446.61
544.316	6507.4
544.681	6481.64
545.045	6525.25
545.41	6592.82
545.774	6592.82
546.138	6591.69
546.503	6635.31
546.867	6658.36
547.231	6680.73
547.595	6703.33
547.959	6724.57
548.324	6750.56
548.688	6817.45
549.052	6776.54
549.416	6811.35
549.779	6799.82
550.143	6857.22
550.507	6865.58
550.871	6908.29
551.235	6881.85
551.599	7016.09
551.962	7002.75
552.326	7001.62
552.689	7047.05
553.053	6991.68
553.417	7106.03
553.78	7117.78
554.143	7103.32
554.507	7139.02
554.87	7142.64
555.234	7214.5
555.597	7170.43
555.96	7190.32
556.323	7213.37
556.686	7231.9
557.05	7278.68
557.413	7297.44
557.776	7341.05
558.139	7375.63
558.502	7403.42
558.865	7419.69
559.228	7453.82
559.59	7426.92
559.953	7531.33
560.316	7547.15
560.679	7583.98
561.041	7602.06
561.404	7595.96
561.767	7657.65
562.129	7670.53
562.492	7708.05
562.854	7713.47
563.217	7724.77
563.579	7759.8
563.941	7749.85
564.304	7818.55
564.666	7855.39
565.028	7879.11
565.39	7819.68
565.753	7999.79
566.115	7927.48
566.477	7996.63
566.839	8022.16
567.201	8039.34
567.563	8089.96
567.925	8125.66
568.287	8115.49
568.648	8170.63
569.01	8229.39
569.372	8280.23
569.734	8232.33
570.095	8258.77
570.457	8281.14
570.819	8378.08
571.18	8358.88
571.542	8424.19
571.903	8503.28
572.265	8528.14
572.626	8570.62
572.987	8588.02
573.349	8658.3
573.71	8707.57
574.071	8695.14
574.432	8764.06
574.794	8855.36
575.155	8865.76
575.516	8923.16
575.877	8964.96
576.238	9035.24
576.599	9178.06
576.96	9202.47
577.32	9201.11
577.681	9300.55
578.042	9402.01
578.403	9460.77
578.763	9504.83
579.124	9630.93
579.485	9757.48
579.845	9804.71
580.206	9895.33
580.566	9999.51
580.927	10095.1
581.287	10234.08
581.648	10313.18
582.008	10482.66
582.368	10630.45
582.728	10705.48
583.089	10880.62
583.449	11062.53
583.809	11161.29
584.169	11316.54
584.529	11448.51
584.889	11765.11
585.249	11827.26
585.609	11883.76
585.969	12175.95
586.329	12375.72
586.688	12503.4
587.048	12702.49
587.408	12872.43
587.768	13092.09
588.127	13383.38
588.487	13547.21
588.846	13903.36
589.206	13930.03
589.565	14191.49
589.925	14454.76
590.284	14714.42
590.643	15011.36
591.003	15289.99
591.362	15578.57
591.721	15770.88
592.08	16017.21
592.44	16337.88
592.799	16510.53
593.158	16770.86
593.517	17048.82
593.876	17346.66
594.235	17611.74
594.593	17944.16
594.952	18196.81
595.311	18502.34
595.67	18773.29
596.029	19178.25
596.387	19426.61
596.746	19702.76
597.104	19955.63
597.463	20113.37
597.822	20580.93
598.18	20769.17
598.538	21021.14
598.897	21364.18
599.255	21474.92
599.613	22161.68
599.972	22189.02
600.33	22525.74
600.688	22692.74
601.046	23047.08
601.404	23353.28
601.762	23577.46
602.12	24078.46
602.478	24160.95
602.836	24473.71
603.194	24544.89
603.552	24838.22
603.91	25015.39
604.268	25520.01
604.625	25536.96
604.983	25940.33
605.341	25972.65
605.698	26276.15
606.056	26653.99
606.413	26910.03
606.771	27174.2
607.128	27404.48
607.485	27553.17
607.843	27781.64
608.2	28215.53
608.557	28319.93
608.914	28472.47
609.272	28749.3
609.629	29050.08
609.986	29378.89
610.343	29589.05
610.7	29881.47
611.057	29854.81
611.414	30136.16
611.771	30198.53
612.127	30608.91
612.484	30657.95
612.841	30939.3
613.198	31056.81
613.554	31190.14
613.911	31447.53
614.267	31732.72
614.624	31735.89
614.98	31890.69
615.337	32220.85
615.693	32358.25
616.05	32344.01
616.406	32772.92
616.762	32747.16
617.118	32938.57
617.475	33031.9
617.831	33268.28
618.187	33406.81
618.543	33545.78
618.899	33795.5
619.255	33911.42
619.611	34005.43
619.967	34203.39
620.323	34402.71
620.678	34312.54
621.034	34468.02
621.39	34578.98
621.746	34530.62
622.101	35176.48
622.457	34876.37
622.812	35133.09
623.168	35204.27
623.523	35397.26
623.879	35449.24
624.234	35375.79
624.589	35562.91
624.945	35468.45
625.3	35647.2
625.655	35765.16
626.01	35891.26
626.365	35847.42
626.72	35918.6
627.075	35986.85
627.43	36074.76
627.785	35977.81
628.14	36168.77
628.495	36305.49
628.85	36167.64
629.205	36205.38
629.559	36435.65
629.914	36288.76
630.269	36467.06
630.623	36363.11
630.978	36320.85
631.332	36541.86
631.687	36653.5
632.041	36429.32
632.396	36731.24
632.75	36576.67
633.104	36724.01
633.459	36628.19
633.813	36565.37
634.167	36598.13
634.521	36553.16
634.875	36671.13
635.229	36758.13
635.583	36476.1
635.937	36669.77
636.291	36619.15
636.645	36641.97
636.999	36734.18
637.352	36795.19
637.706	36516.78
638.06	36819.14
638.413	36765.59
638.767	36554.29
639.121	36820.27
639.474	36665.7
639.828	36505.48
640.181	36777.56
640.534	36674.06
640.888	36622.09
641.241	36508.64
641.594	36639.71
641.947	36683.33
642.301	36659.6
642.654	36608.08
643.007	36671.8
643.36	36643.1
643.713	36450.79
644.066	36689.66
644.419	36491.47
644.771	36244.02
645.124	36004.93
645.477	35976.23
645.83	35729
646.182	35534.88
646.535	35518.84
646.888	35436.36
647.24	35439.75
647.593	35559.97
647.945	35564.71
648.298	35407.88
648.65	35327.66
649.002	35400.43
649.355	35432.97
649.707	35331.5
650.059	35500.76
650.411	35929.22
650.763	35924.03
651.115	36326.28
651.467	36323.79
651.819	36262.55
652.171	36157.69
652.523	36126.96
652.875	36046.28
653.227	36021.43
653.578	36323.11
653.93	36092.84
654.282	36048.09
654.633	35842.67
654.985	36019.84
655.337	36018.71
655.688	36137.13
656.039	36085.83
656.391	35769.23
656.742	35877.47
657.094	35891.94
657.445	35994.99
657.796	36007.87
658.147	36043.57
658.498	35901.65
658.849	35987.3
659.2	35952.73
659.551	35768.33
659.902	35903.01
660.253	35875.67
660.604	35995.44
660.955	35738.27
661.306	35788.21
661.656	35802.22
662.007	35710.93
662.358	35847.87
662.708	35768.1
663.059	35705.95
663.409	35664.6
663.76	35812.17
664.11	35663.92
664.461	35968.32
664.811	35758.83
665.161	35846.74
665.511	35565.17
665.862	35739.63
666.212	35842.67
666.562	35811.49
666.912	35661.21
667.262	35664.82
667.612	35762.22
667.962	35879.73
668.312	35728.78
668.662	35883.35
669.011	35685.84
669.361	35637.48
669.711	35752.73
670.06	35578.05
670.41	35623.02
670.76	35611.04
671.109	35703.92
671.459	35689.46
671.808	35516.58
672.157	35588.44
672.507	35281.11
672.856	35379.41
673.205	35503.02
673.554	35590.02
673.904	35476.36
674.253	35563.58
674.602	35546.18
674.951	35032.3
675.3	34852.64
675.649	35505.06
675.998	35314.78
676.346	35362.46
676.695	35365.17
677.044	35129.25
677.393	35322.24
677.741	35301.67
678.09	35218.28
678.438	35245.17
678.787	35199.98
679.135	35324.95
679.484	34905.97
679.832	35163.37
680.181	34922.47
680.529	35102.35
680.877	35034.79
681.225	34840.21
681.573	35157.95
681.922	34892.42
682.27	34674.12
682.618	34816.71
682.966	34803.83
683.314	34841.34
683.661	34655.13
684.009	34616.72
684.357	34555.93
684.705	34377.4
685.053	34497.4
685.4	34409.94
685.748	34311.19
686.095	34130.63
686.443	34115.04
686.79	34020.57
687.138	34254.47
687.485	34120.91
687.832	33986
688.18	34036.62
688.527	33847.7
688.874	33931.99
689.221	33816.74
689.568	33765.67
689.915	33620.36
690.262	33767.02
690.609	33516.18
690.956	33339.91
691.303	33401.16
691.65	33292.01
691.997	33288.62
692.344	32990.77
692.69	32970.66
693.037	33013.14
693.383	32839.81
693.73	32920.26
694.077	32695.19
694.423	32747.39
694.769	32593.27
695.116	32587.84
695.462	32444.8
695.808	32326.61
696.155	32446.6
696.501	32189.89
696.847	32243.22
697.193	31990.12
697.539	32073.28
697.885	31829.9
698.231	31763.91
698.577	31694.08
698.923	31752.84
699.269	31545.61
699.614	31425.16
699.96	31445.27
700.306	31408.21
700.651	31166.19
700.997	31334.09
701.342	31011.61
701.688	31028.79
702.033	30979.07
702.379	30998.05
702.724	30717.84
703.069	30842.13
703.415	30576.6
703.76	30526.65
704.105	30642.58
704.45	30499.09
704.795	30233.56
705.14	30293.21
705.485	30311.52
705.83	30128.47
706.175	30178.42
706.52	29963.51
706.865	29938.42
707.209	29976.39
707.554	29842.38
707.899	29807.8
708.243	29698.43
708.588	29680.35
708.932	29463.63
709.277	29541.14
709.621	29511.54
709.966	29286.24
710.31	29388.83
710.654	29070.65
710.998	29253.02
711.342	29144.32
711.687	29112.91
712.031	28921.27
712.375	28895.96
712.719	29007.82
713.063	28762.41
713.407	28877.88
713.75	28682.41
714.094	28658.46
714.438	28568.29
714.782	28599.25
715.125	28412.59
715.469	28460.49
715.812	28437.9
716.156	28190.45
716.499	28234.29
716.843	28215.98
717.186	28083.78
717.53	28296.21
717.873	28132.37
718.216	28119.94
718.559	27911.58
718.902	27828.65
719.246	27948.64
719.589	27727.41
719.932	27667.97
720.275	27684.7
720.617	27695.09
720.96	27458.94
721.303	27586.85
721.646	27587.75
721.989	27448.54
722.331	27437.7
722.674	27406.96
723.016	27427.08
723.359	27334.2
723.701	27298.27
724.044	27178.95
724.386	27027.31
724.729	27108.67
725.071	27005.62
725.413	27054.88
725.755	27011.95
726.097	26949.57
726.439	26864.6
726.782	26839.75
727.124	26885.17
727.465	26791.16
727.807	26714.1
728.149	26700.31
728.491	26630.71
728.833	26779.41
729.175	26548.45
729.516	26547.32
729.858	26530.6
730.199	26585.74
730.541	26416.93
730.882	26429.81
731.224	26532.18
731.565	26029.37
731.906	26337.16
732.248	26220.78
732.589	26102.82
732.93	26119.77
733.271	26061.91
733.612	26099.88
733.953	26144.62
734.294	26004.97
734.635	25878.64
734.976	26031.86
735.317	25855.37
735.658	25787.57
735.999	25877.96
736.339	25759.32
736.68	25856.72
737.021	25658.53
737.361	25644.07
737.702	25800.9
738.042	25655.37
738.383	25623.96
738.723	25644.98
739.063	25458.31
739.404	25527.69
739.744	25473.91
740.084	25370.63
740.424	25398.43
740.764	25355.27
741.104	25427.58
741.444	25271.43
741.784	25221.26
742.124	25248.15
742.464	25240.92
742.804	25173.8
743.143	25058.78
743.483	25145.55
743.823	24997.76
744.162	25019.68
744.502	25051.09
744.841	24837.99
745.181	25009.06
745.52	24847.48
745.86	24908.72
746.199	24811.33
746.538	24752.12
746.877	24833.02
747.216	24724.32
747.556	24719.12
747.895	24639.58
748.234	24514.61
748.573	24479.13
748.911	24493.14
749.25	24458.11
749.589	24346.25
749.928	24395.29
750.267	24502.63
750.605	24339.92
750.944	24282.98
751.283	24217.22
751.621	24346.48
751.96	24119.82
752.298	24214.96
752.636	24153.04
752.975	23957.34
753.313	23927.96
753.651	24060.84
753.989	23977.9
754.327	23820.84
754.666	23819.94
755.004	23801.18
755.342	23861.29
755.679	23777.23
756.017	23583.33
756.355	23589.66
756.693	23641.64
757.031	23537.23
757.368	23426.73
757.706	23347.63
758.044	23308.54
758.381	23306.96
758.719	23260.41
759.056	23261.76
759.394	23148.54
759.731	22986.29
760.068	23046.85
760.405	22838.27
760.743	22835.78
761.08	22868.78
761.417	22705.39
761.754	22760.76
762.091	22568.67
762.428	22556.92
762.765	22530.03
763.102	22422.01
763.438	22339.07
763.775	22262.24
764.112	22265.86
764.449	22304.72
764.785	22203.71
765.122	22083.94
765.458	21868.13
765.795	21925.98
766.131	21978.41
766.467	21799.2
766.804	21802.82
767.14	21620.22
767.476	21597.17
767.812	21554.69
768.148	21617.28
768.485	21489.83
768.821	21312.66
769.157	21316.28
769.492	21247.58
769.828	21105.43
770.164	21049.39
770.5	21016.85
770.836	20918.55
771.171	20862.73
771.507	20746.57
771.842	20657.76
772.178	20661.15
772.513	20591.55
772.849	20538.44
773.184	20356.07
773.519	20335.74
773.855	20280.14
774.19	20231.33
774.525	20099.81
774.86	20177.32
775.195	20061.17
775.53	20021.62
775.865	19895.97
776.2	19744.57
776.535	19670.67
776.87	19614.17
777.205	19514.52
777.539	19524.91
777.874	19563.78
778.209	19354.52
778.543	19198.37
778.878	19246.27
779.212	19152.26
779.547	19060.97
779.881	19144.13
780.215	19008.54
780.55	19036.56
780.884	18756.34
781.218	18789.56
781.552	18645.16
781.886	18645.16
782.22	18505.73
782.554	18481.77
782.888	18291.72
783.222	18384.15
783.556	18210.14
783.889	18140.54
784.223	18128.34
784.557	18064.84
784.89	18083.59
785.224	17896.48
785.557	17829.36
785.891	17701.23
786.224	17724.28
786.558	17691.29
786.891	17527
787.224	17452.42
787.557	17530.16
787.891	17458.75
788.224	17381.01
788.557	17337.85
788.89	17351.18
789.223	17225.54
789.556	17136.05
789.888	17096.95
790.221	16984.64
790.554	16920.46
790.887	16973.79
791.219	16894.92
791.552	16850.4
791.884	16781.03
792.217	16815.15
792.549	16727.47
792.882	16568.83
793.214	16494.26
793.546	16414.26
793.879	16295.62
794.211	16321.83
794.543	16328.16
794.875	16257.2
795.207	16317.99
795.539	16142.63
795.871	16122.51
796.203	16098.79
796.535	16036.87
796.867	15898.34
797.198	15893.37
797.53	15801.84
797.862	15794.16
798.193	15755.07
798.525	15632.13
798.856	15734.05
799.188	15554.39
799.519	15464.9
799.85	15438.92
800.182	15440.05
800.513	15343.55
800.844	15221.52
801.175	15339.71
801.506	15273.27
801.837	15189.21
802.168	15159.6
802.499	15092.94
802.83	14932.94
803.161	14955.31
803.491	14940.4
803.822	14924.58
804.153	14830.57
804.483	14720.52
804.814	14765.94
805.145	14666.73
805.475	14723.91
805.805	14650.91
806.136	14559.84
806.466	14523.69
806.796	14508.77
807.126	14439.17
807.457	14420.19
807.787	14381.99
808.117	14310.36
808.447	14270.59
808.777	14316.91
809.107	14240.53
809.436	14165.05
809.766	14253.86
810.096	14174.77
810.426	14060.42
810.755	14075.56
811.085	14067.88
811.414	14032.4
811.744	13949.92
812.073	13888.22
812.403	13913.31
812.732	13755.12
813.061	13810.26
813.39	13721.22
813.719	13687.1
814.049	13793.99
814.378	13707.89
814.707	13528.01
815.036	13670.15
815.365	13509.93
815.693	13347.22
816.022	13419.08
816.351	13407.56
816.68	13298.18
817.008	13368.69
817.337	13249.37
817.665	13276.94
817.994	13242.59
818.322	13192.42
818.651	13150.16
818.979	13138.41
819.307	13157.62
819.636	13115.59
819.964	13005.53
820.292	13080.79
820.62	13105.87
820.948	12954.24
821.276	13088.24
821.604	12962.82
821.932	12969.83
822.259	12935.48
822.587	12907.46
822.915	12913.33
823.243	12966.89
823.57	12932.54
823.898	13031.07
824.225	12917.63
824.553	12849.15
824.88	12841.47
825.207	12974.8
825.535	12889.83
825.862	12914.01
826.189	12904.07
826.516	12863.62
826.843	12918.53
827.17	12986.1
827.497	12929.6
827.824	12929.83
828.151	12939.77
828.478	12871.07
828.805	12942.03
829.131	12862.49
829.458	12854.58
829.785	12760.34
830.111	12824.75
830.438	12817.29
830.764	12987.23
831.09	12876.95
831.417	12781.36
831.743	12922.15
832.069	12863.84
832.395	12762.15
832.722	12784.07
833.048	12814.58
833.374	12812.77
833.7	12704.98
834.026	12692.32
834.351	12774.81
834.677	12717.18
835.003	12811.19
835.329	12728.25
835.654	12673.11
835.98	12625.43
836.306	12677.86
836.631	12631.08
836.956	12632.66
837.282	12623.4
837.607	12603.51
837.932	12571.65
838.258	12520.8
838.583	12468.82
838.908	12440.12
839.233	12524.19
839.558	12402.84
839.883	12480.58
840.208	12360.13
840.533	12384.53
840.858	12377.75
841.182	12409.62
841.507	12333.91
841.832	12222.28
842.156	12169.85
842.481	12196.52
842.805	12207.14
843.13	12226.8
843.454	12169.17
843.778	12092.11
844.103	12079.91
844.427	12077.42
844.751	12116.52
845.075	12033.36
845.399	12019.8
845.723	11924.88
846.047	11968.72
846.371	11833.81
846.695	11797.43
847.019	11719.47
847.343	11634.72
847.666	11557.21
847.99	11592.01
848.313	11616.87
848.637	11484.67
848.96	11514.5
849.284	11440.15
849.607	11398.8
849.931	11279.25
850.254	11241.96
850.577	11231.34
850.9	11139.14
851.223	11183.21
851.546	11056.21
851.869	10994.29
852.192	11084.68
852.515	10998.58
852.838	10882.65
853.161	10913.84
853.483	10827.29
853.806	10798.13
854.129	10777.12
854.451	10710.23
854.774	10696.22
855.096	10687.85
855.419	10654.64
855.741	10598.59
856.063	10532.6
856.385	10553.62
856.708	10488.54
857.03	10473.85
857.352	10461.65
857.674	10352.72
857.996	10397.24
858.318	10343.46
858.64	10315.21
858.961	10328.32
859.283	10227.3
859.605	10209.45
859.926	10210.58
860.248	10122.45
860.57	10176.68
860.891	10196.12
861.212	10059.4
861.534	10064.14
861.855	10057.59
862.176	10077.93
862.498	10026.18
862.819	10005.39
863.14	9947.31
863.461	9951.83
863.782	9985.27
864.103	9933.98
864.424	9885.84
864.745	9910.25
865.065	9945.5
865.386	9793.64
865.707	9874.32
866.027	9769.69
866.348	9736.02
866.668	9832.28
866.989	9733.08
867.309	9707.09
867.63	9710.03
867.95	9731.95
868.27	9677.94
868.59	9676.36
868.91	9695.11
869.23	9631.61
869.55	9651.95
869.87	9661.67
870.19	9607.21
870.51	9608.33
870.83	9552.74
871.15	9549.13
871.469	9525.85
871.789	9573.76
872.109	9530.14
872.428	9438.17
872.748	9421.67
873.067	9496.02
873.386	9469.13
873.706	9357.27
874.025	9390.71
874.344	9361.34
874.663	9417.15
874.982	9281.11
875.301	9374.67
875.62	9336.25
875.939	9230.04
876.258	9304.16
876.577	9207.67
876.896	9258.29
877.214	9173.77
877.533	9260.77
877.852	9232.53
878.17	9238.18
878.489	9188.91
878.807	9151.85
879.125	9158.86
879.444	9166.09
879.762	9136.93
880.08	9130.16
880.398	9078.63
880.716	9120.66
881.034	9130.83
881.352	9050.16
881.67	9053.32
881.988	9045.64
882.306	8930.84
882.624	8996.6
882.941	8995.7
883.259	8856.49
883.577	8908.69
883.894	8841.35
884.212	8821.01
884.529	8860.78
884.846	8838.86
885.164	8765.42
885.481	8718.64
885.798	8755.02
886.115	8685.87
886.432	8691.3
886.75	8672.99
887.067	8747.34
887.383	8587.34
887.7	8668.02
888.017	8563.84
888.334	8582.6
888.651	8560.45
888.967	8548.48
889.284	8556.84
889.6	8469.38
889.917	8479.33
890.233	8435.94
890.55	8378.08
890.866	8353.23
891.182	8383.96
891.498	8400.46
891.815	8380.34
892.131	8313.23
892.447	8314.81
892.763	8229.84
893.079	8207.92
893.395	8192.78
893.71	8201.82
894.026	8092.67
894.342	8163.18
894.657	8020.81
894.973	8084.08
895.289	8062.61
895.604	8089.05
895.92	7998.66
896.235	7929.06
896.55	7943.75
896.865	7956.17
897.181	7853.8
897.496	7887.48
897.811	7886.12
898.126	7890.19
898.441	7760.7
898.756	7803.41
899.071	7729.97
899.386	7663.08
899.7	7653.36
900.015	7622.17
900.33	7622.62
900.644	7560.71
900.959	7571.55
901.273	7599.8
901.588	7491.33
901.902	7432.35
902.216	7443.87
902.531	7454.95
902.845	7443.19
903.159	7386.02
903.473	7359.35
903.787	7315.29
904.101	7265.35
904.415	7261.73
904.729	7283.2
905.042	7190.32
905.356	7167.72
905.67	7205.01
905.984	7145.12
906.297	7158
906.611	7094.73
906.924	7079.59
907.237	7072.81
907.551	6981.29
907.864	7003.88
908.177	6977.44
908.491	6973.83
908.804	6901.74
909.117	6864.23
909.43	6902.87
909.743	6791.91
910.056	6812.25
910.368	6768.64
910.681	6742.2
910.994	6698.81
911.307	6713.27
911.619	6662.65
911.932	6653.61
912.244	6596.66
912.557	6630.11
912.869	6515.31
913.181	6540.39
913.494	6510.34
913.806	6476.44
914.118	6458.14
914.43	6374.3
914.742	6423.33
915.054	6377.91
915.366	6348.31
915.678	6313.73
915.99	6274.64
916.302	6211.14
916.613	6205.71
916.925	6214.3
917.236	6202.1
917.548	6174.98
917.859	6156.45
918.171	6092.95
918.482	6125.71
918.794	6049.33
919.105	6048.43
919.416	5976.11
919.727	5987.41
920.038	5993.06
920.349	5947.64
920.66	5895.21
920.971	5903.35
921.282	5837.36
921.593	5824.93
921.903	5811.37
922.214	5745.84
922.525	5785.61
922.835	5752.62
923.146	5737.7
923.456	5639.4
923.767	5661.77
924.077	5643.02
924.387	5657.48
924.697	5632.17
925.008	5589.46
925.318	5556.24
925.628	5556.24
925.938	5485.51
926.248	5464.49
926.558	5456.35
926.867	5441.66
927.177	5406.19
927.487	5377.71
927.796	5364.38
928.106	5374.1
928.416	5354.89
928.725	5301.1
929.034	5263.59
929.344	5306.75
929.653	5225.85
929.962	5209.58
930.271	5188.56
930.581	5151.73
930.89	5132.07
931.199	5132.75
931.508	5088.23
931.817	5087.32
932.125	5093.88
932.434	5023.37
932.743	5012.98
933.051	4961.45
933.36	4935.24
933.669	4949.7
933.977	4919.87
934.286	4898.18
934.594	4818.18
934.902	4862.02
935.21	4845.52
935.519	4880.1
935.827	4806.2
936.135	4844.62
936.443	4775.47
936.751	4787.22
937.059	4709.48
937.367	4688.01
937.674	4693.66
937.982	4700.89
938.29	4690.05
938.597	4590.39
938.905	4608.92
939.213	4594.68
939.52	4564.85
939.827	4578.18
940.135	4555.59
940.442	4560.56
940.749	4502.71
941.056	4475.14
941.363	4460.67
941.67	4472.88
941.977	4422.03
942.284	4419.54
942.591	4403.5
942.898	4407.34
943.205	4338.42
943.511	4333.22
943.818	4319.21
944.125	4286.44
944.431	4267.68
944.738	4268.59
945.044	4253.9
945.35	4215.48
945.657	4197.4
945.963	4162.38
946.269	4165.31
946.575	4206.22
946.881	4140
947.187	4108.82
947.493	4129.38
947.799	4063.4
948.105	4069.27
948.41	4060.68
948.716	4012.1
949.022	4024.53
949.327	3997.18
949.633	3970.97
949.938	3927.58
950.244	3928.48
950.549	3896.17
950.854	3871.76
951.16	3857.3
951.465	3859.11
951.77	3866.79
952.075	3814.59
952.38	3825.89
952.685	3802.84
952.99	3756.96
953.294	3785.66
953.599	3713.35
953.904	3715.83
954.209	3702.28
954.513	3691.2
954.818	3696.17
955.122	3682.39
955.426	3644.2
955.731	3674.71
956.035	3627.02
956.339	3619.57
956.643	3606.23
956.948	3558.1
957.252	3560.58
957.556	3497.76
957.86	3531.66
958.163	3530.53
958.467	3519.23
958.771	3500.92
959.075	3456.18
959.378	3436.29
959.682	3461.15
959.985	3459.57
960.289	3418.44
960.592	3422.96
960.896	3381.15
961.199	3320.36
961.502	3345.9
961.805	3322.17
962.108	3326.24
962.411	3299.35
962.714	3312.91
963.017	3269.07
963.32	3236.98
963.623	3253.7
963.926	3229.29
964.228	3208.73
964.531	3212.12
964.833	3221.16
965.136	3223.87
965.438	3172.57
965.741	3179.58
966.043	3157.88
966.345	3155.4
966.648	3132.12
966.95	3076.08
967.252	3063.42
967.554	3088.73
967.856	3035.63
968.158	3019.13
968.46	3017.32
968.761	3031.56
969.063	3026.14
969.365	3014.61
969.666	3015.97
969.968	2979.58
970.269	2953.82
970.571	2954.27
970.872	2939.13
971.174	2896.87
971.475	2885.57
971.776	2876.76
972.077	2830.21
972.378	2894.61
972.679	2884.67
972.98	2849.42
973.281	2834.95
973.582	2868.4
973.883	2802.64
974.183	2821.85
974.484	2775.52
974.785	2764
975.085	2779.81
975.386	2764
975.686	2745.69
975.986	2721.06
976.287	2748.4
976.587	2684
976.887	2683.77
977.187	2693.71
977.487	2685.58
977.787	2662.3
978.087	2638.35
978.387	2618.91
978.687	2623.21
978.987	2608.97
979.286	2632.7
979.586	2608.29
979.885	2589.99
980.185	2572.81
980.484	2534.62
980.784	2547.96
981.083	2533.27
981.382	2527.84
981.682	2502.31
981.981	2481.29
982.28	2497.56
982.579	2449.88
982.878	2468.64
983.177	2440.61
983.475	2464.57
983.774	2439.03
984.073	2442.87
984.372	2437.9
984.67	2419.37
984.969	2383.21
985.267	2412.14
985.566	2382.54
985.864	2383.67
986.162	2348.64
986.461	2321.07
986.759	2332.14
987.057	2329.2
987.355	2324.68
987.653	2302.31
987.951	2251.01
988.249	2303.44
988.547	2263.67
988.844	2269.09
989.142	2251.47
989.44	2259.15
989.737	2250.56
990.035	2222.31
990.332	2234.07
990.63	2224.8
990.927	2197.68
991.224	2184.35
991.521	2182.77
991.819	2157.46
992.116	2164.91
992.413	2165.59
992.71	2099.38
993.006	2119.49
993.303	2109.55
993.6	2102.32
993.897	2117.23
994.193	2075.65
994.49	2065.71
994.787	2071.13
995.083	2089.44
995.379	2050.34
995.676	2052.6
995.972	2034.97
996.268	2023.68
996.565	2002.21
996.861	2002.66
997.157	1997.01
997.453	1982.32
997.749	1983.9
998.044	1934.19
998.34	1951.81
998.636	1944.58
998.932	1935.99
999.227	1932.6
999.523	1925.83
999.818	1895.77
1000.114	1918.14
1000.409	1885.37
1000.704	1892.61
1001	1875.88
1001.295	1837.92
1001.59	1826.39
1001.885	1861.42
1002.18	1820.74
1002.475	1805.15
1002.77	1784.13
1003.065	1788.88
1003.359	1796.11
1003.654	1791.37
1003.949	1773.74
1004.243	1763.12
1004.538	1764.25
1004.832	1728.77
1005.127	1726.73
1005.421	1734.87
1005.715	1697.58
1006.009	1714.76
1006.304	1688.32
1006.598	1692.84
1006.892	1664.14
1007.186	1669.33
1007.48	1664.14
1007.773	1647.19
1008.067	1635.66
1008.361	1653.52
1008.655	1620.97
1008.948	1618.71
1009.242	1620.97
1009.535	1592.27
1009.829	1567.19
1010.122	1572.16
1010.415	1580.52
1010.708	1557.25
1011.001	1542.78
1011.295	1547.08
1011.588	1531.71
1011.881	1517.93
1012.173	1515.67
1012.466	1490.13
1012.759	1509.34
1013.052	1499.17
1013.344	1510.24
1013.637	1472.28
1013.93	1453.97
1014.222	1456.23
1014.514	1447.19
1014.807	1439.06
1015.099	1420.75
1015.391	1439.96
1015.683	1423.92
1015.976	1416.91
1016.268	1418.04
1016.56	1397.7
1016.851	1395.9
1017.143	1384.14
1017.435	1352.96
1017.727	1360.19
1018.018	1356.35
1018.31	1361.55
1018.602	1350.92
1018.893	1313.64
1019.185	1277.48
1019.476	1293.53
1019.767	1301.66
1020.058	1304.6
1020.35	1296.46
1020.641	1283.58
1020.932	1298.95
1021.223	1270.25
1021.514	1254.66
1021.804	1240.87
1022.095	1235.67
1022.386	1234.77
1022.677	1218.95
1022.967	1216.47
1023.258	1198.16
1023.548	1201.1
1023.839	1204.26
1024.129	1203.36
1024.419	1172.4
1024.709	1163.59
1025	1138.95
1025.29	1140.31
1025.58	1149.57
1025.87	1149.57
1026.16	1143.47
1026.449	1151.83
1026.739	1118.16
1027.029	1126.07
1027.319	1092.4
1027.608	1110.25
1027.898	1088.11
1028.187	1097.37
1028.477	1091.95
1028.766	1069.58
1029.055	1062.12
1029.344	1040.42
1029.634	1038.84
1029.923	1049.92
1030.212	1036.58
1030.501	1038.16
1030.79	1012.85
1031.078	1040.65
1031.367	1020.99
1031.656	1001.78
1031.945	999.52
1032.233	997.49
1032.522	996.36
1032.81	974.66
1033.099	987.09
1033.387	993.42
1033.675	967.66
1033.963	981.22
1034.251	959.75
1034.54	947.55
1034.828	939.18
1035.116	952.52
1035.403	926.3
1035.691	923.59
1035.979	933.53
1036.267	922.69
1036.554	898.51
1036.842	923.82
1037.129	889.24
1037.417	879.3
1037.704	901.45
1037.992	880.88
1038.279	882.46
1038.566	891.95
1038.853	891.95
1039.14	891.95
