Data from hue_270_FLMS001491_00027.txt Node
Date: Tue Feb 07 15:56:58 GMT 2017
User: dcchb
Spectrometer: FLMS00149
Trigger mode: 0
Integration Time (sec): 2.000000E-2
Scans to average: 10
Electric dark correction enabled: true
Nonlinearity correction enabled: false
Boxcar width: 0
XAxis mode: Wavelengths
Number of Pixels in Spectrum: 2048
>>>>>Begin Spectral Data<<<<<
341.393	0.75
341.776	0.75
342.16	0.75
342.543	-61.62
342.927	-58.68
343.31	-67.95
343.693	-57.55
344.077	-56.2
344.46	-58.91
344.843	-48.52
345.226	-34.96
345.61	-38.35
345.993	-14.62
346.376	-7.84
346.759	-7.39
347.142	37.58
347.525	31.26
347.908	46.62
348.291	63.12
348.674	99.73
349.057	113.97
349.44	141.31
349.823	129.56
350.206	160.97
350.588	193.96
350.971	224.92
351.354	243.23
351.737	238.03
352.119	251.59
352.502	266.73
352.884	282.78
353.267	302.21
353.65	296.33
354.032	308.31
354.414	298.59
354.797	313.96
355.179	325.03
355.562	318.25
355.944	310.57
356.326	328.65
356.709	324.58
357.091	331.36
357.473	328.88
357.855	357.8
358.238	324.36
358.62	333.4
359.002	345.37
359.384	334.75
359.766	336.11
360.148	334.53
360.53	331.59
360.912	327.07
361.294	331.14
361.676	348.76
362.057	326.84
362.439	331.81
362.821	318.93
363.203	336.11
363.584	329.33
363.966	326.84
364.348	331.36
364.729	330.23
365.111	310.8
365.493	320.74
365.874	330.91
366.256	311.02
366.637	302.89
367.019	323.45
367.4	315.09
367.781	315.77
368.163	317.58
368.544	319.84
368.925	321.19
369.306	343.79
369.688	322.32
370.069	311.25
370.45	326.39
370.831	313.28
371.212	328.42
371.593	306.05
371.974	312.83
372.355	335.88
372.736	327.29
373.117	323.9
373.498	321.42
373.879	315.09
374.26	323.23
374.641	317.35
375.021	315.09
375.402	330.01
375.783	308.09
376.163	341.3
376.544	335.2
376.925	339.95
377.305	340.17
377.686	317.58
378.066	332.27
378.447	344.69
378.827	314.19
379.208	325.26
379.588	341.98
379.968	339.72
380.349	334.3
380.729	330.01
381.109	332.94
381.489	324.58
381.87	332.04
382.25	344.69
382.63	342.66
383.01	353.73
383.39	341.98
383.77	357.35
384.15	361.64
384.53	361.87
384.91	342.21
385.29	348.99
385.67	345.37
386.049	365.48
386.429	361.87
386.809	382.21
387.189	363.45
387.568	370.68
387.948	366.84
388.328	353.96
388.707	360.97
389.087	384.69
389.466	357.8
389.846	360.29
390.225	390.57
390.605	365.94
390.984	370
391.363	376.78
391.743	384.02
392.122	391.47
392.501	385.6
392.881	406.61
393.26	384.24
393.639	386.28
394.018	387.41
394.397	398.25
394.776	402.32
395.155	375.2
395.534	379.72
395.913	417.69
396.292	416.1
396.671	400.74
397.05	400.96
397.429	408.65
397.808	405.94
398.186	422.66
398.565	405.71
398.944	413.85
399.323	428.53
399.701	408.2
400.08	429.66
400.458	439.38
400.837	418.59
401.215	450.91
401.594	436.44
401.972	415.43
402.351	440.74
402.729	445.93
403.107	444.8
403.486	439.61
403.864	447.29
404.242	464.47
404.62	461.98
404.999	475.54
405.377	468.98
405.755	495.42
406.133	473.73
406.511	471.24
406.889	492.71
407.267	488.65
407.645	487.06
408.023	497.23
408.401	496.55
408.779	487.06
409.156	512.37
409.534	520.06
409.912	512.6
410.29	523.67
410.667	533.39
411.045	533.62
411.422	539.04
411.8	572.71
412.178	548.53
412.555	557.34
412.933	565.93
413.31	581.3
413.687	593.28
414.065	599.15
414.442	612.71
414.819	632.6
415.197	623.56
415.574	624.46
415.951	623.11
416.328	639.38
416.705	635.99
417.082	673.73
417.46	635.99
417.837	665.14
418.214	662.2
418.591	676.89
418.967	691.13
419.344	682.09
419.721	697.23
420.098	704.91
420.475	704.46
420.852	717.34
421.228	730.67
421.605	742.65
421.982	743.1
422.358	768.41
422.735	773.38
423.111	756.89
423.488	796.66
423.864	787.62
424.241	794.85
424.617	809.31
424.994	813.16
425.37	826.04
425.746	829.88
426.123	837.56
426.499	849.77
426.875	884.57
427.251	877.79
427.627	874.85
428.003	922.76
428.379	915.75
428.756	935.19
429.132	951.46
429.507	951.68
429.883	976.77
430.259	967.05
430.635	1000.72
431.011	991.46
431.387	1029.65
431.763	1016.54
432.138	1026.03
432.514	1050.21
432.89	1075.52
433.265	1091.57
433.641	1114.84
434.016	1115.97
434.392	1137.89
434.767	1162.07
435.143	1167.72
435.518	1198.91
435.894	1191
436.269	1219.02
436.644	1214.28
437.02	1230.77
437.395	1271
437.77	1269.64
438.145	1301.96
438.52	1309.87
438.895	1318
439.271	1357.32
439.646	1374.5
440.021	1384.67
440.395	1384.44
440.77	1407.49
441.145	1406.59
441.52	1423.08
441.895	1398.23
442.27	1440.48
442.645	1439.13
443.019	1454.95
443.394	1492.46
443.769	1502.63
444.143	1506.7
444.518	1506.02
444.892	1519.35
445.267	1532.46
445.641	1547.37
446.016	1563.42
446.39	1573.81
446.764	1546.02
447.139	1558.67
447.513	1580.14
447.887	1598.45
448.262	1617.2
448.636	1612.91
449.01	1621.04
449.384	1638.45
449.758	1654.72
450.132	1678.22
450.506	1688.84
450.88	1686.81
451.254	1700.36
451.628	1718.67
452.002	1764.09
452.376	1707.6
452.75	1762.96
453.123	1770.19
453.497	1775.17
453.871	1792.11
454.244	1810.19
454.618	1859
454.992	1842.06
455.365	1860.36
455.739	1908.95
456.112	1886.8
456.486	1938.55
456.859	1947.59
457.232	1993.46
457.606	1963.18
457.979	1980.58
458.352	1996.85
458.725	2002.73
459.099	2048.15
459.472	2118.21
459.845	2116.4
460.218	2098.32
460.591	2134.03
460.964	2106.91
461.337	2164.08
461.71	2207.47
462.083	2225.1
462.456	2230.07
462.829	2258.54
463.201	2291.99
463.574	2271.88
463.947	2284.3
464.32	2390.29
464.692	2362.27
465.065	2392.78
465.438	2404.3
465.81	2442.04
466.183	2450.85
466.555	2525.2
466.928	2490.4
467.3	2509.84
467.672	2541.92
468.045	2575.37
468.417	2612.21
468.789	2600.45
469.161	2640.68
469.534	2717.29
469.906	2742.6
470.278	2716.84
470.65	2797.51
471.022	2811.52
471.394	2850.39
471.766	2879.09
472.138	2923.61
472.51	2972.65
472.882	2956.6
473.253	2981.01
473.625	3044.74
473.997	3103.72
474.369	3114.11
474.74	3123.15
475.112	3186.2
475.484	3202.25
475.855	3214.22
476.227	3306.88
476.598	3370.83
476.97	3369.93
477.341	3438.62
477.713	3496.48
478.084	3513.2
478.455	3541.67
478.827	3600.43
479.198	3706.19
479.569	3715.68
479.94	3777.6
480.311	3781.89
480.682	3874.32
481.053	3900.53
481.424	3950.93
481.795	3976.92
482.166	4038.83
482.537	4074.09
482.908	4160.87
483.279	4177.14
483.65	4239.73
484.021	4365.15
484.391	4340.97
484.762	4361.31
485.133	4398.15
485.503	4493.51
485.874	4531.7
486.244	4576
486.615	4621.64
486.985	4661.87
487.356	4777.57
487.726	4813.28
488.097	4848.53
488.467	4874.52
488.837	4954.74
489.207	5007.17
489.578	5052.37
489.948	5049.66
490.318	5127.85
490.688	5186.37
491.058	5230.89
491.428	5285.58
491.798	5293.49
492.168	5333.49
492.538	5415.07
492.908	5429.31
493.278	5537.33
493.648	5487.84
494.017	5575.29
494.387	5611.22
494.757	5642.86
495.126	5743.87
495.496	5712.24
495.866	5760.6
496.235	5794.95
496.605	5839.47
496.974	5869.52
497.344	5891.22
497.713	5933.47
498.082	5905.68
498.452	5967.15
498.821	6059.12
499.19	6051.66
499.559	6073.81
499.928	6133.47
500.298	6103.19
500.667	6159
501.036	6149.51
501.405	6198.55
501.774	6217.99
502.143	6298.44
502.512	6229.96
502.88	6382.05
503.249	6258.66
503.618	6318.55
503.987	6356.51
504.356	6384.76
504.724	6444.65
505.093	6429.05
505.462	6420.01
505.83	6512.67
506.199	6522.61
506.567	6513.12
506.936	6569.62
507.304	6576.39
507.672	6637.41
508.041	6633.57
508.409	6707.92
508.777	6748.82
509.145	6728.93
509.514	6710.63
509.882	6723.51
510.25	6800.8
510.618	6778.65
510.986	6764.86
511.354	6871.53
511.722	6817.74
512.09	6925.09
512.458	6923.96
512.826	6968.7
513.193	6960.34
513.561	6943.84
513.929	7025.87
514.297	7020.68
514.664	7069.49
515.032	7077.62
515.4	7104.74
515.767	7110.17
516.135	7088.25
516.502	7089.38
516.869	7201.69
517.237	7183.38
517.604	7154.01
517.972	7181.58
518.339	7261.12
518.706	7171.86
519.073	7218.86
519.44	7274
519.808	7267.68
520.175	7346.77
520.542	7373.21
520.909	7386.32
521.276	7343.83
521.643	7444.62
522.009	7415.02
522.376	7477.39
522.743	7453.21
523.11	7528.91
523.477	7623.15
523.843	7623.6
524.21	7647.78
524.577	7613.2
524.943	7696.14
525.31	7712.86
525.676	7710.38
526.043	7790.6
526.409	7790.37
526.776	7824.95
527.142	7847.1
527.508	7876.02
527.874	7871.73
528.241	7975.68
528.607	7951.5
528.973	7965.06
529.339	7973.65
529.705	8015.45
530.071	8068.11
530.437	8086.19
530.803	8091.38
531.169	8064.72
531.535	8087.54
531.901	8110.37
532.267	8085.06
532.632	8223.81
532.998	8207.31
533.364	8243.7
533.73	8271.72
534.095	8277.59
534.461	8303.58
534.826	8222.23
535.192	8346.29
535.557	8357.36
535.923	8318.5
536.288	8306.29
536.653	8371.6
537.019	8332.96
537.384	8351.04
537.749	8380.87
538.114	8377.03
538.479	8422.67
538.845	8449.34
539.21	8414.76
539.575	8472.84
539.94	8392.39
540.305	8495.89
540.67	8488.89
541.034	8475.33
541.399	8556.46
541.764	8482.79
542.129	8553.52
542.494	8546.29
542.858	8544.48
543.223	8580.41
543.587	8587.19
543.952	8566.85
544.316	8618.15
544.681	8616.79
545.045	8610.69
545.41	8627.41
545.774	8661.09
546.138	8704.93
546.503	8621.76
546.867	8645.27
547.231	8699.95
547.595	8728.2
547.959	8706.96
548.324	8737.47
548.688	8749.67
549.052	8713.97
549.416	8754.87
549.779	8779.05
550.143	8805.04
550.507	8780.86
550.871	8795.77
551.235	8818.37
551.599	8886.16
551.962	8876.22
552.326	8819.27
552.689	8934.52
553.053	8926.16
553.417	8877.58
553.78	8995.77
554.143	8994.64
554.507	8948.08
554.87	8963.22
555.234	9071.24
555.597	8981.98
555.96	9101.3
556.323	9103.79
556.686	9030.79
557.05	9138.36
557.413	9118.93
557.776	9110.57
558.139	9207.96
558.502	9217.91
558.865	9203.22
559.228	9279.83
559.59	9233.95
559.953	9233.95
560.316	9355.98
560.679	9351.01
561.041	9350.33
561.404	9413.83
561.767	9518.92
562.129	9444.79
562.492	9512.81
562.854	9459.03
563.217	9494.51
563.579	9534.51
563.941	9598.46
564.304	9684.11
564.666	9666.03
565.028	9710.78
565.39	9723.66
565.753	9763.43
566.115	9756.42
566.477	9835.97
566.839	9804.33
567.201	9884.78
567.563	9874.61
567.925	9971.11
568.287	9953.26
568.648	10009.98
569.01	10045
569.372	10072.8
569.734	10002.52
570.095	10222.4
570.457	10129.3
570.819	10180.59
571.18	10184.89
571.542	10213.36
571.903	10338.78
572.265	10319.35
572.626	10298.33
572.987	10293.59
573.349	10419.23
573.71	10420.59
574.071	10471.43
574.432	10534.48
574.794	10678.66
575.155	10538.78
575.516	10635.72
575.877	10626.91
576.238	10707.13
576.599	10690.86
576.96	10691.31
577.32	10753.69
577.681	10743.29
578.042	10856.73
578.403	10874.13
578.763	10902.61
579.124	10835.72
579.485	10939.67
579.845	10955.49
580.206	10929.5
580.566	11026
580.927	11073
581.287	11105.99
581.648	11100.34
582.008	11146.9
582.368	11181.47
582.728	11193.67
583.089	11237.06
583.449	11220.79
583.809	11221.02
584.169	11337.63
584.529	11272.32
584.889	11401.35
585.249	11246.1
585.609	11349.6
585.969	11467.11
586.329	11335.82
586.688	11506.66
587.048	11459.66
587.408	11475.7
587.768	11534.91
588.127	11491.29
588.487	11572.87
588.846	11599.09
589.206	11598.41
589.565	11594.34
589.925	11646.77
590.284	11627.11
590.643	11719.08
591.003	11741.23
591.362	11834.11
591.721	11746.2
592.08	11865.07
592.44	11867.1
592.799	11766.31
593.158	11797.73
593.517	11826.88
593.876	11908.46
594.235	11932.86
594.593	11928.34
594.952	12005.18
595.311	11934.67
595.67	11962.69
596.029	12023.03
596.387	12061.9
596.746	12101.22
597.104	12044.73
597.463	12029.13
597.822	12116.81
598.18	12029.58
598.538	12079.98
598.897	12188.9
599.255	12059.64
599.613	12269.35
599.972	12176.25
600.33	12192.07
600.688	12185.96
601.046	12216.92
601.404	12263.03
601.762	12260.54
602.12	12327.2
602.478	12339.18
602.836	12345.73
603.194	12270.26
603.552	12299.63
603.91	12260.09
604.268	12437.26
604.625	12292.18
604.983	12425.28
605.341	12251.05
605.698	12348.22
606.056	12448.1
606.413	12364.94
606.771	12393.87
607.128	12430.03
607.485	12475.9
607.843	12437.03
608.2	12518.39
608.557	12573.75
608.914	12462.34
609.272	12511.15
609.629	12599.29
609.986	12618.27
610.343	12524.49
610.7	12672.28
611.057	12618.72
611.414	12675.44
611.771	12632.96
612.127	12703.47
612.484	12710.7
612.841	12760.87
613.198	12662.56
613.554	12713.63
613.911	12767.64
614.267	12765.16
614.624	12694.65
614.98	12802.67
615.337	12733.75
615.693	12828.66
616.05	12799.28
616.406	12910.47
616.762	12766.97
617.118	12704.14
617.475	12825.95
617.831	12912.95
618.187	12932.16
618.543	12903.69
618.899	12921.54
619.255	12881.77
619.611	12883.57
619.967	12959.28
620.323	12936.45
620.678	12881.77
621.034	12900.97
621.39	12901.88
621.746	12897.58
622.101	13039.95
622.457	12859.17
622.812	12943.91
623.168	12943.46
623.523	12967.41
623.879	12979.62
624.234	12903.01
624.589	12903.69
624.945	12924.93
625.3	12943.23
625.655	13011.48
626.01	12958.37
626.365	12975.77
626.72	12888.09
627.075	12929.45
627.43	12956.57
627.785	12992.72
628.14	12960.41
628.495	12936.91
628.85	12988.43
629.205	12891.94
629.559	12949.56
629.914	12914.08
630.269	12928.09
630.623	12890.13
630.978	12892.84
631.332	12892.84
631.687	12903.46
632.041	12810.58
632.396	12868.66
632.75	12726.74
633.104	12831.6
633.459	12844.03
633.813	12769.68
634.167	12766.97
634.521	12822.11
634.875	12751.15
635.229	12748.21
635.583	12679.51
635.937	12744.14
636.291	12636.12
636.645	12671.83
636.999	12673.18
637.352	12658.04
637.706	12563.81
638.06	12565.84
638.413	12603.58
638.767	12643.58
639.121	12604.26
639.474	12470.7
639.828	12544.15
640.181	12549.35
640.534	12552.28
640.888	12485.17
641.241	12471.61
641.594	12451.95
641.947	12460.99
642.301	12439.52
642.654	12505.73
643.007	12433.19
643.36	12437.26
643.713	12359.07
644.066	12451.04
644.419	12354.77
644.771	12319.52
645.124	12202.24
645.477	12193.87
645.83	12143.48
646.182	12077.04
646.535	12050.38
646.888	12019.42
647.24	11972.86
647.593	12046.53
647.945	12012.41
648.298	11974.9
648.65	11924.28
649.002	11817.84
649.355	12055.12
649.707	11936.93
650.059	12059.19
650.411	12164.95
650.763	12169.24
651.115	12258.96
651.467	12243.36
651.819	12244.27
652.171	12202.69
652.523	12162.46
652.875	12188.22
653.227	12147.32
653.578	12235.68
653.93	12163.59
654.282	12148.9
654.633	12078.85
654.985	12159.3
655.337	12174.67
655.688	12155.23
656.039	12235.23
656.391	12071.62
656.742	12121.79
657.094	12057.61
657.445	12202.91
657.796	12120.66
658.147	12087.66
658.498	12123.37
658.849	12187.09
659.2	12214.89
659.551	12133.76
659.902	12209.47
660.253	12184.83
660.604	12166.76
660.955	12162.91
661.306	12123.82
661.656	12146.64
662.007	12159.75
662.358	12166.76
662.708	12160.2
663.059	12158.62
663.409	12077.72
663.76	12167.21
664.11	12225.51
664.461	12158.17
664.811	12235.91
665.161	12221.67
665.511	12159.3
665.862	12196.36
666.212	12189.81
666.562	12193.87
666.912	12143.93
667.262	12163.14
667.612	12170.6
667.962	12130.37
668.312	12184.83
668.662	12266.64
669.011	12126.98
669.361	12187.77
669.711	12199.3
670.06	12160.43
670.41	12156.36
670.76	12179.64
671.109	12165.85
671.459	12126.31
671.808	12071.84
672.157	12160.88
672.507	12050.15
672.856	12050.83
673.205	12118.62
673.554	12072.97
673.904	12044.5
674.253	12114.55
674.602	12009.02
674.951	11901.9
675.3	11774.22
675.649	11944.84
675.998	12052.86
676.346	11989.36
676.695	12004.73
677.044	11876.37
677.393	11915.92
677.741	11979.19
678.09	11936.93
678.438	11931.51
678.787	11933.09
679.135	11944.62
679.484	11853.32
679.832	11875.24
680.181	11757.05
680.529	11870.94
680.877	11698.29
681.225	11750.27
681.573	11827.33
681.922	11706.66
682.27	11686.99
682.618	11661.68
682.966	11628.92
683.314	11658.3
683.661	11719.31
684.009	11523.16
684.357	11574.91
684.705	11557.28
685.053	11588.92
685.4	11484.06
685.748	11531.29
686.095	11395.93
686.443	11469.37
686.79	11438.64
687.138	11395.7
687.485	11463.5
687.832	11437.28
688.18	11395.25
688.527	11362.48
688.874	11383.05
689.221	11213.34
689.568	11202.04
689.915	11223.96
690.262	11191.64
690.609	11104.64
690.956	11077.29
691.303	11023.51
691.65	10984.87
691.997	11064.19
692.344	10962.04
692.69	10870.75
693.037	10921.59
693.383	10805.21
693.73	10899.9
694.077	10747.81
694.423	10796.85
694.769	10766.34
695.116	10682.95
695.462	10655.84
695.808	10682.5
696.155	10699.9
696.501	10598.89
696.847	10579.23
697.193	10465.56
697.539	10489.96
697.885	10418.55
698.231	10407.93
698.577	10349.63
698.923	10370.19
699.269	10282.51
699.614	10275.73
699.96	10230.99
700.306	10225.34
700.651	10090.2
700.997	10071.9
701.342	10127.71
701.688	10063.08
702.033	10037.77
702.379	9932.46
702.724	9987.15
703.069	9989.19
703.415	9852.92
703.76	9884.56
704.105	9823.77
704.45	9826.7
704.795	9749.87
705.14	9749.64
705.485	9723.66
705.83	9622.42
706.175	9708.29
706.52	9595.52
706.865	9654.05
707.209	9566.82
707.554	9595.52
707.899	9638.69
708.243	9495.87
708.588	9490.67
708.932	9479.82
709.277	9440.5
709.621	9464.68
709.966	9319.83
710.31	9378.58
710.654	9306.94
710.998	9347.85
711.342	9365.47
711.687	9288.64
712.031	9266.04
712.375	9174.74
712.719	9210.9
713.063	9238.47
713.407	9211.35
713.75	9203.9
714.094	9206.61
714.438	9157.57
714.782	9112.37
715.125	9101.07
715.469	9116.44
715.812	9038.25
716.156	9059.04
716.499	9038.93
716.843	9022.21
717.186	9053.84
717.53	9008.42
717.873	8969.1
718.216	8943.34
718.559	8961.87
718.902	8956.45
719.246	8955.32
719.589	8874.19
719.932	8863.34
720.275	8847.52
720.617	8893.62
720.96	8868.31
721.303	8875.32
721.646	8844.58
721.989	8764.36
722.331	8870.35
722.674	8744.7
723.016	8786.51
723.359	8760.74
723.701	8720.52
724.044	8732.04
724.386	8707.19
724.729	8725.26
725.071	8657.92
725.413	8647.98
725.755	8663.35
726.097	8710.12
726.439	8593.52
726.782	8663.8
727.124	8658.15
727.465	8589.45
727.807	8692.72
728.149	8576.34
728.491	8647.75
728.833	8627.64
729.175	8607.3
729.516	8602.1
729.858	8586.29
730.199	8537.47
730.541	8580.41
730.882	8563.46
731.224	8570.69
731.565	8489.79
731.906	8587.87
732.248	8621.31
732.589	8454.31
732.93	8473.29
733.271	8484.59
733.612	8533.18
733.953	8529.11
734.294	8428.55
734.635	8500.86
734.976	8529.79
735.317	8478.27
735.658	8497.7
735.999	8494.08
736.339	8489.56
736.68	8554.87
737.021	8437.59
737.361	8408.89
737.702	8543.57
738.042	8539.28
738.383	8505.61
738.723	8519.17
739.063	8494.31
739.404	8528.89
739.744	8523.91
740.084	8581.09
740.424	8496.12
740.764	8553.07
741.104	8593.74
741.444	8489.34
741.784	8506.29
742.124	8600.52
742.464	8544.48
742.804	8589
743.143	8617.02
743.483	8629.67
743.823	8583.57
744.162	8614.08
744.502	8649.56
744.841	8656.11
745.181	8704.25
745.52	8705.15
745.86	8711.03
746.199	8799.61
746.538	8768.2
746.877	8823.79
747.216	8875.77
747.556	8820.4
747.895	8925.94
748.234	8940.4
748.573	9007.07
748.911	9049.1
749.25	9051.58
749.589	9111.02
749.928	9188.3
750.267	9184.24
750.605	9283.44
750.944	9388.3
751.283	9450.9
751.621	9516.2
751.96	9598.24
752.298	9599.82
752.636	9679.82
752.975	9802.52
753.313	9805.01
753.651	9985.57
753.989	9957.32
754.327	10094.72
754.666	10233.02
755.004	10322.51
755.342	10492.22
755.679	10515.27
756.017	10597.98
756.355	10744.65
756.693	10825.32
757.031	11004.3
757.368	11030.06
757.706	11205.2
758.044	11390.51
758.381	11481.8
758.719	11599.99
759.056	11717.95
759.394	11904.84
759.731	11941
760.068	12182.58
760.405	12240.43
760.743	12399.07
761.08	12602.23
761.417	12692.17
761.754	12800.41
762.091	13032.95
762.428	13063.91
762.765	13226.84
763.102	13451.92
763.438	13547.74
763.775	13617.79
764.112	13853.94
764.449	14098.46
764.785	14175.52
765.122	14298
765.458	14368.05
765.795	14501.84
766.131	14652.79
766.467	14761.72
766.804	14900.24
767.14	15022.05
767.476	15141.59
767.812	15211.87
768.148	15416.16
768.485	15523.28
768.821	15579.77
769.157	15756.72
769.492	15872.42
769.828	15980.22
770.164	16025.86
770.5	16135.92
770.836	16195.8
771.171	16324.84
771.507	16443.03
771.842	16396.48
772.178	16564.38
772.513	16666.75
772.849	16815.45
773.184	16856.8
773.519	16996.91
773.855	16958.95
774.19	17065.38
774.525	17211.6
774.86	17194.65
775.195	17272.38
775.53	17296.56
775.865	17250.69
776.2	17339.5
776.535	17421.99
776.87	17438.71
777.205	17444.36
777.539	17520.06
777.874	17645.03
778.209	17537.46
778.543	17580.63
778.878	17606.84
779.212	17558.25
779.547	17574.52
779.881	17802.31
780.215	17720.96
780.55	17798.7
780.884	17753.28
781.218	17769.09
781.552	17864.46
781.886	17819.94
782.22	17753.28
782.554	17767.51
782.888	17658.14
783.222	17720.51
783.556	17680.96
783.889	17657.01
784.223	17629.66
784.557	17589.44
784.89	17716.89
785.224	17679.61
785.557	17631.02
785.891	17639.15
786.224	17668.76
786.558	17535.65
786.891	17528.65
787.224	17541.76
787.557	17567.74
787.891	17467.86
788.224	17578.37
788.557	17500.18
788.89	17544.02
789.223	17521.87
789.556	17461.53
789.888	17337.47
790.221	17342.21
790.554	17233.52
790.887	17283.23
791.219	17260.18
791.552	17248.2
791.884	17211.37
792.217	17188.32
792.549	17197.36
792.882	17053.86
793.214	17045.72
793.546	17127.08
793.879	17046.18
794.211	16861.1
794.543	16991.04
794.875	16986.97
795.207	16981.32
795.539	16890.7
795.871	16899.06
796.203	16813.64
796.535	16785.39
796.867	16761.66
797.198	16623.14
797.53	16678.05
797.862	16643.7
798.193	16604.61
798.525	16627.88
798.856	16599.41
799.188	16441.9
799.519	16333.43
799.85	16329.13
800.182	16344.5
800.513	16355.35
800.844	16141.12
801.175	16304.5
801.506	16344.95
801.837	16270.15
802.168	16181.11
802.499	16164.84
802.83	16077.16
803.161	16019.99
803.491	15974.11
803.822	16044.62
804.153	15978.63
804.483	15831.97
804.814	15733.44
805.145	15799.2
805.475	15853.89
805.805	15709.71
806.136	15738.64
806.466	15678.53
806.796	15664.29
807.126	15611.64
807.457	15551.3
807.787	15580.68
808.117	15476.95
808.447	15450.51
808.777	15528.48
809.107	15417.97
809.436	15386.11
809.766	15395.37
810.096	15334.58
810.426	15219.56
810.755	15257.75
811.085	15288.93
811.414	15206.9
811.744	15128.26
812.073	15047.81
812.403	15132.55
812.732	15022.95
813.061	15055.04
813.39	14985.67
813.719	14906.57
814.049	15050.52
814.378	14976.17
814.707	14990.86
815.036	14919.23
815.365	14790.87
815.693	14651.66
816.022	14758.55
816.351	14785.67
816.68	14664.09
817.008	14737.31
817.337	14533.47
817.665	14540.71
817.994	14567.82
818.322	14563.08
818.651	14486.7
818.979	14479.69
819.307	14539.35
819.636	14477.88
819.964	14419.8
820.292	14502.06
820.62	14426.58
820.948	14342.29
821.276	14439.24
821.604	14383.65
821.932	14415.96
822.259	14457.54
822.587	14399.01
822.915	14293.48
823.243	14452.12
823.57	14351.78
823.898	14369.41
824.225	14284.67
824.553	14328.06
824.88	14414.38
825.207	14408.51
825.535	14327.83
825.862	14487.37
826.189	14346.13
826.516	14502.74
826.843	14568.73
827.17	14446.7
827.497	14443.08
827.824	14450.76
828.151	14419.58
828.478	14416.19
828.805	14543.64
829.131	14465.9
829.458	14387.04
829.785	14356.08
830.111	14403.08
830.438	14438.34
830.764	14429.07
831.09	14410.31
831.417	14355.85
831.743	14439.46
832.069	14389.75
832.395	14388.17
832.722	14356.3
833.048	14340.03
833.374	14318.56
833.7	14361.5
834.026	14278.34
834.351	14377.09
834.677	14320.82
835.003	14328.06
835.329	14222.75
835.654	14296.64
835.98	14240.15
836.306	14298.9
836.631	14186.82
836.956	14214.16
837.282	14189.75
837.607	14160.15
837.932	14115.86
838.258	14111.11
838.583	14118.57
838.908	14049.19
839.233	14167.38
839.558	14097.78
839.883	13881.06
840.208	13940.27
840.533	13938.91
840.858	13977.56
841.182	13914.28
841.507	13906.6
841.832	13814.17
842.156	13797.45
842.481	13798.58
842.805	13761.97
843.13	13712.25
843.454	13728.07
843.778	13723.33
844.103	13581.63
844.427	13610.11
844.751	13607.17
845.075	13526.95
845.399	13471.58
845.723	13451.24
846.047	13468.19
846.371	13366.95
846.695	13304.81
847.019	13370.34
847.343	13206.5
847.666	13140.97
847.99	13026.17
848.313	13075.88
848.637	12916.34
848.96	12922.67
849.284	12928.54
849.607	12811.71
849.931	12850.35
850.254	12700.75
850.577	12622.79
850.9	12626.63
851.223	12602
851.546	12531.04
851.869	12472.29
852.192	12573.98
852.515	12360.42
852.838	12381.44
853.161	12327.66
853.483	12263.25
853.806	12181.67
854.129	12192.74
854.451	12132.86
854.774	12098.28
855.096	12059.87
855.419	12062.35
855.741	12074.1
856.063	12020.32
856.385	12004.05
856.708	11894.45
857.03	11821.45
857.352	11837.73
857.674	11777.61
857.996	11702.14
858.318	11743.49
858.64	11731.06
858.961	11630.05
859.283	11656.49
859.605	11567.68
859.926	11648.35
860.248	11558.41
860.57	11544.4
860.891	11479.77
861.212	11447
861.534	11388.25
861.855	11374.69
862.176	11436.83
862.498	11354.57
862.819	11327.23
863.14	11296.5
863.461	11279.55
863.782	11205.65
864.103	11204.07
864.424	11183.28
864.745	11134.69
865.065	11111.87
865.386	11094.47
865.707	11169.27
866.027	11137.86
866.348	11096.73
866.668	11085.88
866.989	11111.64
867.309	10994.81
867.63	11007.24
867.95	11008.82
868.27	10974.7
868.59	10976.05
868.91	10919.11
869.23	10886.56
869.55	10907.81
869.87	10875.49
870.19	10904.19
870.51	10781.93
870.83	10820.8
871.15	10818.32
871.469	10813.12
871.789	10786.91
872.109	10734.93
872.428	10691.77
872.748	10679.56
873.067	10765.89
873.386	10720.01
873.706	10720.24
874.025	10645.89
874.344	10584.2
874.663	10618.77
874.982	10635.27
875.301	10642.05
875.62	10545.56
875.939	10538.55
876.258	10608.38
876.577	10556.86
876.896	10554.82
877.214	10462.39
877.533	10482.96
877.852	10424.43
878.17	10469.17
878.489	10467.37
878.807	10534.26
879.125	10484.77
879.444	10381.72
879.762	10336.52
880.08	10381.27
880.398	10277.31
880.716	10332.23
881.034	10256.52
881.352	10266.92
881.67	10265.56
881.988	10290.87
882.306	10255.85
882.624	10131.56
882.941	10169.07
883.259	10098.34
883.577	10092.69
883.894	10072.35
884.212	10059.24
884.529	10101.05
884.846	9996.64
885.164	9953.03
885.481	9903.54
885.798	9971.11
886.115	9876.87
886.432	9860.6
886.75	9898.12
887.067	9876.2
887.383	9756.88
887.7	9813.6
888.017	9724.79
888.334	9749.19
888.651	9699.25
888.967	9727.05
889.284	9643.66
889.6	9621.96
889.917	9576.32
890.233	9539.25
890.55	9491.57
890.866	9495.19
891.182	9476.43
891.498	9408.18
891.815	9427.17
892.131	9440.05
892.447	9316.21
892.763	9325.93
893.079	9300.62
893.395	9242.54
893.71	9264.91
894.026	9247.74
894.342	9233.27
894.657	9177
894.973	9153.95
895.289	9090.23
895.604	9047.29
895.92	9044.58
896.235	9055.65
896.55	9014.75
896.865	8957.58
897.181	8939.72
897.496	8915.99
897.811	8887.52
898.126	8836.67
898.441	8802.1
898.756	8781.31
899.071	8683.68
899.386	8742.44
899.7	8655.89
900.015	8625.83
900.33	8580.86
900.644	8518.04
900.959	8592.61
901.273	8507.87
901.588	8484.37
901.902	8484.82
902.216	8428.78
902.531	8358.95
902.845	8390.58
903.159	8278.27
903.473	8278.5
903.787	8233.07
904.101	8186.97
904.415	8193.75
904.729	8194.88
905.042	8104.04
905.356	8147.43
905.67	8099.97
905.984	8070.37
906.297	8065.17
906.611	8015.23
906.924	7941.78
907.237	7913.53
907.551	7839.64
907.864	7843.48
908.177	7854.33
908.491	7807.77
908.804	7849.36
909.117	7702.69
909.43	7711.51
909.743	7692.07
910.056	7700.43
910.368	7700.89
910.681	7591.28
910.994	7606.42
911.307	7486.43
911.619	7418.63
911.932	7531.17
912.244	7429.03
912.557	7390.84
912.869	7408.24
913.181	7345.19
913.494	7364.85
913.806	7285.3
914.118	7264.51
914.43	7226.55
914.742	7249.6
915.054	7208.69
915.366	7104.52
915.678	7112.88
915.99	7087.34
916.302	7009.38
916.613	6975.03
916.925	7033.78
917.236	6973.9
917.548	6951.98
917.859	6917.63
918.171	6887.12
918.482	6852.55
918.794	6774.13
919.105	6801.47
919.416	6784.98
919.727	6720.12
920.038	6774.58
920.349	6672.89
920.66	6683.06
920.971	6620.01
921.282	6626.56
921.593	6564.19
921.903	6525.1
922.214	6528.94
922.525	6512.44
922.835	6497.07
923.146	6406.23
923.456	6385.67
923.767	6382.28
924.077	6394.48
924.387	6334.59
924.697	6293.92
925.008	6300.7
925.318	6260.92
925.628	6299.11
925.938	6192.45
926.248	6135.95
926.558	6168.5
926.867	6157.65
927.177	6127.14
927.487	6092.79
927.796	6075.62
928.106	5965.56
928.416	6012.34
928.725	5993.36
929.034	5936.86
929.344	5916.75
929.653	5949.07
929.962	5846.24
930.271	5847.15
930.581	5820.26
930.89	5843.76
931.199	5812.57
931.508	5799.24
931.817	5710.65
932.125	5709.53
932.434	5733.71
932.743	5655.97
933.051	5632.01
933.36	5606.02
933.669	5597.89
933.977	5582.3
934.286	5589.08
934.594	5573.71
934.902	5534.39
935.21	5507.5
935.519	5517.89
935.827	5461.17
936.135	5463.43
936.443	5425.24
936.751	5395.18
937.059	5369.65
937.367	5298.24
937.674	5307.95
937.982	5287.62
938.29	5303.43
938.597	5319.25
938.905	5187.96
939.213	5191.12
939.52	5177.11
939.827	5165.13
940.135	5102.76
940.442	5104.12
940.749	5060.5
941.056	5084.23
941.363	5003.33
941.67	5019.37
941.977	5009.66
942.284	4973.95
942.591	4927.62
942.898	4887.17
943.205	4910.45
943.511	4886.04
943.818	4868.64
944.125	4838.14
944.431	4798.81
944.738	4813.96
945.044	4804.92
945.35	4758.14
945.657	4766.5
945.963	4701.87
946.269	4737.57
946.575	4666.61
946.881	4640.85
947.187	4634.07
947.493	4581.65
947.799	4595.43
948.105	4625.71
948.41	4585.49
948.716	4586.84
949.022	4568.76
949.327	4535.77
949.633	4495.09
949.938	4457.35
950.244	4457.13
950.549	4457.58
950.854	4393.85
951.16	4349.56
951.465	4341.43
951.77	4383.23
952.075	4324.25
952.38	4334.19
952.685	4337.81
952.99	4286.96
953.294	4256.46
953.599	4289.45
953.904	4232.05
954.209	4217.59
954.513	4211.94
954.818	4196.57
955.122	4157.25
955.426	4167.87
955.731	4137.14
956.035	4122.67
956.339	4105.05
956.643	4133.3
956.948	4034.54
957.252	4034.54
957.556	4040.19
957.86	4036.35
958.163	3957.25
958.467	3994.99
958.771	3936.01
959.075	3912.06
959.378	3930.81
959.682	3916.35
959.985	3935.56
960.289	3864.15
960.592	3835.9
960.896	3825.28
961.199	3813.3
961.502	3800.2
961.805	3756.81
962.108	3759.07
962.411	3750.03
962.714	3731.95
963.017	3744.83
963.32	3712.06
963.623	3724.04
963.926	3685.62
964.228	3657.6
964.531	3655.34
964.833	3655.34
965.136	3600.2
965.438	3586.64
965.741	3578.06
966.043	3569.02
966.345	3530.83
966.648	3545.51
966.95	3520.43
967.252	3499.41
967.554	3492.63
967.856	3465.74
968.158	3436.14
968.46	3460.77
968.761	3437.49
969.063	3418.96
969.365	3416.7
969.666	3396.14
969.968	3359.76
970.269	3325.63
970.571	3339.42
970.872	3326.08
971.174	3328.12
971.475	3311.4
971.776	3299.64
972.077	3270.27
972.378	3233.21
972.679	3209.25
972.98	3229.36
973.281	3197.05
973.582	3213.55
973.883	3202.25
974.183	3209.7
974.484	3158.63
974.785	3159.99
975.085	3124.06
975.386	3136.26
975.686	3155.47
975.986	3095.13
976.287	3089.25
976.587	3069.14
976.887	3036.37
977.187	3044.96
977.487	3025.53
977.787	3024.17
978.087	2947.56
978.387	2984.85
978.687	3009.48
978.987	2972.42
979.286	2964.74
979.586	2927
979.885	2866.21
980.185	2912.08
980.484	2903.27
980.784	2901.01
981.083	2901.24
981.382	2875.48
981.682	2825.31
981.981	2860.11
982.28	2819.21
982.579	2778.08
982.878	2804.74
983.177	2745.08
983.475	2754.12
983.774	2777.17
984.073	2748.92
984.372	2707.12
984.67	2715.48
984.969	2660.57
985.267	2712.32
985.566	2641.13
985.864	2661.24
986.162	2683.39
986.461	2635.26
986.759	2643.62
987.057	2615.6
987.355	2592.32
987.653	2578.76
987.951	2545.99
988.249	2595.26
988.547	2552.55
988.844	2534.24
989.142	2535.15
989.44	2498.99
989.737	2501.47
990.035	2506.9
990.332	2488.82
990.63	2466.9
990.927	2466.67
991.224	2466.45
991.521	2430.74
991.819	2397.3
992.116	2428.03
992.413	2381.02
992.71	2400.23
993.006	2382.15
993.303	2392.1
993.6	2363.17
993.897	2320.24
994.193	2361.14
994.49	2333.34
994.787	2318.2
995.083	2292.67
995.379	2319.78
995.676	2265.1
995.972	2285.66
996.268	2245.44
996.565	2240.92
996.861	2232.78
997.157	2235.04
997.453	2201.37
997.749	2188.49
998.044	2179.22
998.34	2205.66
998.636	2181.03
998.932	2137.19
999.227	2134.7
999.523	2192.56
999.818	2134.7
1000.114	2082.05
1000.409	2100.13
1000.704	2095.38
1001	2090.19
1001.295	2072.33
1001.59	2056.97
1001.885	2076.17
1002.18	2048.83
1002.475	2027.14
1002.77	2030.3
1003.065	1988.72
1003.359	1977.65
1003.654	1985.33
1003.949	1972.9
1004.243	1945.56
1004.538	1922.73
1004.832	1973.35
1005.127	1898.33
1005.421	1940.13
1005.715	1876.86
1006.009	1931.32
1006.304	1868.5
1006.598	1863.07
1006.892	1873.47
1007.186	1869.63
1007.48	1856.07
1007.773	1819.23
1008.067	1818.55
1008.361	1826.24
1008.655	1792.34
1008.948	1767.93
1009.242	1807.48
1009.535	1793.7
1009.829	1756.86
1010.122	1769.52
1010.415	1735.39
1010.708	1716.41
1011.001	1725.22
1011.295	1711.89
1011.588	1713.02
1011.881	1703.08
1012.173	1702.62
1012.466	1650.87
1012.759	1657.88
1013.052	1653.36
1013.344	1642.74
1013.637	1639.8
1013.93	1637.54
1014.222	1605.68
1014.514	1603.42
1014.807	1599.35
1015.099	1606.36
1015.391	1585.34
1015.683	1583.76
1015.976	1554.61
1016.268	1533.14
1016.56	1541.05
1016.851	1521.61
1017.143	1560.26
1017.435	1502.63
1017.727	1516.64
1018.018	1485.23
1018.31	1478.68
1018.602	1491.56
1018.893	1449.52
1019.185	1470.99
1019.476	1450.2
1019.767	1434.38
1020.058	1423.54
1020.35	1419.47
1020.641	1377.89
1020.932	1393.48
1021.223	1395.29
1021.514	1375.85
1021.804	1370.66
1022.095	1358.68
1022.386	1366.36
1022.677	1341.05
1022.967	1330.21
1023.258	1340.83
1023.548	1362.52
1023.839	1314.16
1024.129	1304.67
1024.419	1295.63
1024.709	1283.88
1025	1290.43
1025.29	1251.34
1025.58	1267.16
1025.87	1280.04
1026.16	1245.69
1026.449	1231
1026.739	1221.51
1027.029	1214.28
1027.319	1243.43
1027.608	1202.75
1027.898	1198.68
1028.187	1205.01
1028.477	1178.12
1028.766	1198.01
1029.055	1185.58
1029.344	1176.31
1029.634	1164.79
1029.923	1157.1
1030.212	1137.67
1030.501	1131.57
1030.79	1140.15
1031.078	1126.59
1031.367	1097.89
1031.656	1082.75
1031.945	1085.01
1032.233	1085.92
1032.522	1083.88
1032.81	1075.97
1033.099	1092.02
1033.387	1051.79
1033.675	1036.43
1033.963	1054.51
1034.251	1056.77
1034.54	1047.5
1034.828	1036.88
1035.116	1013.38
1035.403	1026.71
1035.691	1034.39
1035.979	1024.22
1036.267	973.83
1036.554	1004.79
1036.842	974.06
1037.129	975.41
1037.417	979.93
1037.704	966.82
1037.992	960.72
1038.279	969.76
1038.566	941.51
1038.853	941.51
1039.14	941.51
