Data from hue_00_FLMS001491_58.txt Node
Date: Mon Feb 06 15:29:55 GMT 2017
User: dcchb
Spectrometer: FLMS00149
Trigger mode: 0
Integration Time (sec): 2.000000E-2
Scans to average: 10
Electric dark correction enabled: true
Nonlinearity correction enabled: false
Boxcar width: 0
XAxis mode: Wavelengths
Number of Pixels in Spectrum: 2048
>>>>>Begin Spectral Data<<<<<
341.393	1.85
341.776	1.85
342.16	1.85
342.543	-49.22
342.927	-70.69
343.31	-63.46
343.693	-54.19
344.077	-53.06
344.46	-53.06
344.843	-46.51
345.226	-55.1
345.61	-15.55
345.993	-27.53
346.376	-16.23
346.759	-10.35
347.142	33.04
347.525	35.97
347.908	35.97
348.291	74.39
348.674	90.66
349.057	125.01
349.44	122.3
349.823	125.01
350.206	175.18
350.588	220.6
350.971	205.91
351.354	208.17
351.737	222.41
352.119	242.52
352.502	278.23
352.884	280.04
353.267	297.21
353.65	285.23
354.032	288.62
354.414	306.7
354.797	317.55
355.179	318.68
355.562	317.1
355.944	321.84
356.326	334.5
356.709	318.68
357.091	319.36
357.473	352.35
357.855	350.99
358.238	327.04
358.62	346.02
359.002	344.44
359.384	346.93
359.766	330.66
360.148	331.11
360.53	335.63
360.912	332.01
361.294	339.92
361.676	326.59
362.057	319.13
362.439	337.43
362.821	320.26
363.203	314.61
363.584	300.15
363.966	332.91
364.348	293.37
364.729	326.59
365.111	313.71
365.493	308.28
365.874	302.86
366.256	319.58
366.637	298.11
367.019	315.74
367.4	301.5
367.781	306.25
368.163	330.2
368.544	306.93
368.925	294.5
369.306	336.08
369.688	309.19
370.069	316.19
370.45	292.01
370.831	310.54
371.212	320.71
371.593	313.93
371.974	327.27
372.355	309.86
372.736	299.92
373.117	288.4
373.498	308.28
373.879	316.19
374.26	307.38
374.641	316.64
375.021	313.25
375.402	290.66
375.783	308.51
376.163	316.19
376.544	331.56
376.925	327.94
377.305	319.81
377.686	310.32
378.066	326.59
378.447	329.75
378.827	332.24
379.208	312.58
379.588	337.43
379.968	329.98
380.349	344.67
380.729	330.2
381.109	329.3
381.489	330.2
381.87	330.88
382.25	312.58
382.63	341.5
383.01	338.11
383.39	355.74
383.77	316.19
384.15	351.9
384.53	355.74
384.91	357.55
385.29	331.11
385.67	329.75
386.049	350.09
386.429	331.11
386.809	355.06
387.189	342.18
387.568	346.02
387.948	343.76
388.328	352.35
388.707	348.28
389.087	361.84
389.466	349.86
389.846	342.86
390.225	350.77
390.605	357.32
390.984	368.62
391.363	341.05
391.743	353.03
392.122	346.93
392.501	358.9
392.881	372.24
393.26	346.7
393.639	358.68
394.018	381.05
394.397	352.12
394.776	370.43
395.155	373.59
395.534	373.82
395.913	361.39
396.292	391.22
396.671	371.11
397.05	354.61
397.429	383.54
397.808	376.08
398.186	348.28
398.565	372.01
398.944	374.72
399.323	360.48
399.701	365.68
400.08	368.39
400.458	388.51
400.837	398.22
401.215	377.43
401.594	381.5
401.972	366.59
402.351	400.48
402.729	378.11
403.107	386.25
403.486	403.65
403.864	402.52
404.242	391.22
404.62	388.96
404.999	389.86
405.377	415.17
405.755	403.87
406.133	421.95
406.511	395.74
406.889	412.69
407.267	417.43
407.645	412.46
408.023	409.3
408.401	405.68
408.779	392.12
409.156	425.12
409.534	428.28
409.912	417.21
410.29	433.7
410.667	424.66
411.045	431.67
411.422	432.12
411.8	430.99
412.178	438.67
412.555	471.22
412.933	448.84
413.31	453.14
413.687	431.9
414.065	440.93
414.442	472.57
414.819	469.41
415.197	456.08
415.574	461.27
415.951	455.85
416.328	469.18
416.705	494.72
417.082	492.01
417.46	479.35
417.837	455.4
418.214	458.34
418.591	486.13
418.967	496.53
419.344	489.75
419.721	489.97
420.098	485.68
420.475	495.4
420.852	478.67
421.228	516.19
421.605	492.91
421.982	514.15
422.358	491.33
422.735	515.06
423.111	520.48
423.488	514.38
423.864	511.89
424.241	512.8
424.617	523.64
424.994	517.32
425.37	509.63
425.746	542.85
426.123	530.88
426.499	530.2
426.875	561.16
427.251	560.25
427.627	550.99
428.003	546.92
428.379	580.14
428.756	560.93
429.132	540.82
429.507	536.07
429.883	573.59
430.259	583.08
430.635	581.5
431.011	598.67
431.387	579.24
431.763	604.55
432.138	596.86
432.514	598.22
432.89	601.16
433.265	638.9
433.641	640.25
434.016	624.66
434.392	626.69
434.767	637.31
435.143	638.22
435.518	623.98
435.894	631.21
436.269	646.35
436.644	645.22
437.02	635.73
437.395	649.52
437.77	671.66
438.145	652.91
438.52	661.27
438.895	671.66
439.271	695.62
439.646	708.72
440.021	703.53
440.395	703.98
440.77	680.02
441.145	698.33
441.52	708.95
441.895	703.07
442.27	695.84
442.645	704.88
443.019	734.03
443.394	729.29
443.769	735.62
444.143	735.84
444.518	736.52
444.892	751.89
445.267	730.64
445.641	742.85
446.016	753.47
446.39	748.72
446.764	747.82
447.139	748.27
447.513	771.55
447.887	750.53
448.262	765.67
448.636	765.22
449.01	786.46
449.384	768.38
449.758	801.15
450.132	780.81
450.506	772.45
450.88	798.89
451.254	809.51
451.628	808.83
452.002	804.32
452.376	825.11
452.75	807.03
453.123	806.57
453.497	825.78
453.871	848.61
454.244	823.52
454.618	851.77
454.992	842.73
455.365	849.29
455.739	833.47
456.112	862.62
456.486	873.69
456.859	860.36
457.232	874.6
457.606	902.39
457.979	896.29
458.352	892.22
458.725	928.61
459.099	945.33
459.472	939.23
459.845	978.1
460.218	944.42
460.591	942.84
460.964	947.59
461.337	976.06
461.71	969.96
462.083	1019.45
462.456	1003.86
462.829	984.42
463.201	998.21
463.574	1024.42
463.947	1035.5
464.32	1057.42
464.692	1064.65
465.065	1052.67
465.438	1084.76
465.81	1085.21
466.183	1104.19
466.555	1144.19
466.928	1135.15
467.3	1134.48
467.672	1158.66
468.045	1156.17
468.417	1161.82
468.789	1182.16
469.161	1202.72
469.534	1186.68
469.906	1220.12
470.278	1218.32
470.65	1271.42
471.022	1256.28
471.394	1287.92
471.766	1317.97
472.138	1306.45
472.51	1328.14
472.882	1390.51
473.253	1357.97
473.625	1398.88
473.997	1442.26
474.369	1425.77
474.74	1435.48
475.112	1453.56
475.484	1471.42
475.855	1519.32
476.227	1519.55
476.598	1571.53
476.97	1558.19
477.341	1604.75
477.713	1630.96
478.084	1639.55
478.455	1694.91
478.827	1690.85
479.198	1766.1
479.569	1760.67
479.94	1772.88
480.311	1800.45
480.682	1850.16
481.053	1889.26
481.424	1953.66
481.795	1918.18
482.166	1956.6
482.537	2005.64
482.908	2071.63
483.279	2062.14
483.65	2091.51
484.021	2105.3
484.391	2155.24
484.762	2162.7
485.133	2171.96
485.503	2248.57
485.874	2319.08
486.244	2305.29
486.615	2348.46
486.985	2368.79
487.356	2439.98
487.726	2424.84
488.097	2491.73
488.467	2506.42
488.837	2587.77
489.207	2624.15
489.578	2628
489.948	2697.82
490.318	2750.03
490.688	2752.74
491.058	2797.26
491.428	2846.97
491.798	2841.32
492.168	2903.47
492.538	2930.81
492.908	2924.26
493.278	3016.91
493.648	3036.35
494.017	3017.14
494.387	3087.64
494.757	3121.54
495.126	3120.19
495.496	3140.98
495.866	3141.88
496.235	3196.57
496.605	3231.37
496.974	3227.98
497.344	3307.3
497.713	3281.54
498.082	3310.69
498.452	3352.27
498.821	3410.8
499.19	3401.31
499.559	3414.19
499.928	3434.3
500.298	3487.18
500.667	3519.5
501.036	3499.16
501.405	3557.69
501.774	3563.79
502.143	3574.64
502.512	3558.37
502.88	3628.87
503.249	3618.7
503.618	3645.37
503.987	3693.73
504.356	3719.04
504.724	3725.82
505.093	3715.2
505.462	3740.73
505.83	3778.7
506.199	3790
506.567	3837.23
506.936	3814.41
507.304	3846.72
507.672	3887.62
508.041	3904.35
508.409	3905.7
508.777	3908.87
509.145	3960.16
509.514	3969.43
509.882	3975.76
510.25	3985.7
510.618	4019.82
510.986	4022.31
511.354	4051.91
511.722	4132.36
512.09	4065.92
512.458	4081.07
512.826	4125.81
513.193	4139.14
513.561	4138.01
513.929	4179.14
514.297	4191.12
514.664	4186.15
515.032	4224.34
515.4	4222.3
515.767	4229.54
516.135	4279.48
516.502	4227.28
516.869	4287.16
517.237	4353.83
517.604	4320.61
517.972	4356.76
518.339	4375.97
518.706	4342.53
519.073	4404.67
519.44	4392.24
519.808	4419.59
520.175	4433.37
520.542	4476.31
520.909	4472.69
521.276	4500.94
521.643	4500.49
522.009	4525.35
522.376	4518.12
522.743	4563.99
523.11	4625.68
523.477	4628.85
523.843	4648.28
524.21	4657.32
524.577	4713.82
524.943	4719.01
525.31	4773.7
525.676	4727.6
526.043	4826.36
526.409	4827.26
526.776	4875.39
527.142	4863.42
527.508	4925.34
527.874	4921.49
528.241	4961.72
528.607	5004.43
528.973	4981.61
529.339	5002.4
529.705	5020.02
530.071	5071.1
530.437	5060.93
530.803	5105.44
531.169	5142.28
531.535	5109.29
531.901	5149.74
532.267	5181.6
532.632	5219.57
532.998	5208.04
533.364	5230.64
533.73	5272.67
534.095	5260.02
534.461	5366.23
534.826	5429.73
535.192	5402.61
535.557	5402.16
535.923	5437.87
536.288	5439
536.653	5420.69
537.019	5498.88
537.384	5467.7
537.749	5476.06
538.114	5525.09
538.479	5507.69
538.845	5578.43
539.21	5541.14
539.575	5585.66
539.94	5627.24
540.305	5632.66
540.67	5674.7
541.034	5679.22
541.399	5685.77
541.764	5711.98
542.129	5689.61
542.494	5773.68
542.858	5814.13
543.223	5815.48
543.587	5882.37
543.952	5832.88
544.316	5936.16
544.681	5910.62
545.045	5924.63
545.41	5951.52
545.774	5934.8
546.138	6028.13
546.503	6030.17
546.867	6027.91
547.231	6130.95
547.595	6048.7
547.959	6102.71
548.324	6118.75
548.688	6091.86
549.052	6146.55
549.416	6144.51
549.779	6140.9
550.143	6162.37
550.507	6306.77
550.871	6312.42
551.235	6250.73
551.599	6390.38
551.962	6322.59
552.326	6367.56
552.689	6441.91
553.053	6421.34
553.417	6373.89
553.78	6431.96
554.143	6425.41
554.507	6460.66
554.87	6511.28
555.234	6563.03
555.597	6562.36
555.96	6535.92
556.323	6579.98
556.686	6577.5
557.05	6603.94
557.413	6661.34
557.776	6629.02
558.139	6693.43
558.502	6714.22
558.865	6696.36
559.228	6779.07
559.59	6819.98
559.953	6819.75
560.316	6868.56
560.679	6835.34
561.041	6868.56
561.404	6894.1
561.767	6942.01
562.129	6936.58
562.492	6952.4
562.854	6982.91
563.217	7017.26
563.579	7005.28
563.941	7047.09
564.304	7146.52
564.666	7101.78
565.028	7101.32
565.39	7085.28
565.753	7166.63
566.115	7207.76
566.477	7273.3
566.839	7211.38
567.201	7320.08
567.563	7284.6
567.925	7382.67
568.287	7343.8
568.648	7359.62
569.01	7403.01
569.372	7476
569.734	7501.54
570.095	7501.31
570.457	7506.06
570.819	7578.6
571.18	7547.41
571.542	7576.57
571.903	7658.37
572.265	7638.94
572.626	7755.77
572.987	7724.36
573.349	7824.47
573.71	7857.46
574.071	7907.18
574.432	7980.62
574.794	8044.8
575.155	8031.47
575.516	8094.07
575.877	8165.93
576.238	8218.58
576.599	8288.86
576.96	8325.47
577.32	8357.34
577.681	8447.5
578.042	8539.03
578.403	8574.28
578.763	8670.1
579.124	8775.63
579.485	8835.74
579.845	8945.8
580.206	9041.16
580.566	9143.76
580.927	9183.76
581.287	9349.4
581.648	9460.36
582.008	9572.22
582.368	9716.85
582.728	9800.46
583.089	9927.24
583.449	10018.99
583.809	10228.25
584.169	10281.58
584.529	10451.97
584.889	10686.09
585.249	10837.95
585.609	10954.1
585.969	11191.61
586.329	11371.27
586.688	11505.73
587.048	11745.27
587.408	11921.08
587.768	12096.67
588.127	12324.24
588.487	12543.44
588.846	12814.17
589.206	13015.07
589.565	13146.36
589.925	13389.97
590.284	13598.1
590.643	13859.11
591.003	14089.62
591.362	14434.01
591.721	14618.87
592.08	14818.86
592.44	15149.7
592.799	15417.72
593.158	15666.75
593.517	15945.16
593.876	16163.69
594.235	16394.41
594.593	16774.29
594.952	16946.26
595.311	17225.35
595.67	17525.46
596.029	17988.5
596.387	18256.96
596.746	18454.7
597.104	18753.45
597.463	18990.5
597.822	19266.2
598.18	19623.26
598.538	19731.73
598.897	20108.67
599.255	20200.19
599.613	20751.36
599.972	20916.55
600.33	21150.22
600.688	21411
601.046	21829.75
601.404	22187.26
601.762	22310.42
602.12	22692.55
602.478	22874.92
602.836	23141.58
603.194	23284.85
603.552	23591.96
603.91	23791.28
604.268	24172.51
604.625	24277.6
604.983	24623.12
605.341	24795.1
605.698	25245.03
606.056	25358.02
606.413	25613.61
606.771	25843.2
607.128	26129.98
607.485	26279.35
607.843	26526.8
608.2	26874.14
608.557	27174.02
608.914	27182.15
609.272	27630.05
609.629	27766.77
609.986	28075.91
610.343	28226.64
610.7	28465.06
611.057	28583.25
611.414	28736.91
611.771	28924.93
612.127	29166.51
612.484	29377.12
612.841	29637.23
613.198	29653.95
613.554	29926.04
613.911	30107.5
614.267	30465.91
614.624	30490.99
614.98	30587.49
615.337	30946.35
615.693	31001.71
616.05	30988.61
616.406	31442.38
616.762	31357.64
617.118	31612.32
617.475	31765.08
617.831	31836.95
618.187	31956.94
618.543	32093.44
618.899	32442.13
619.255	32456.82
619.611	32607.55
619.967	32881.44
620.323	32906.75
620.678	32967.09
621.034	32997.59
621.39	33204.59
621.746	33199.17
622.101	33554.41
622.457	33439.84
622.812	33711.47
623.168	33767.52
623.523	33748.53
623.879	33979.71
624.234	33853.16
624.589	34048.41
624.945	34251.57
625.3	34216.32
625.655	34253.15
626.01	34338.57
626.365	34312.81
626.72	34535.86
627.075	34589.64
627.43	34576.31
627.785	34650.2
628.14	34696.08
628.495	34907.15
628.85	34874.83
629.205	34602.3
629.559	35005.22
629.914	34912.8
630.269	34988.5
630.623	35029.18
630.978	34919.8
631.332	35187.59
631.687	35251.54
632.041	35163.86
632.396	35256.97
632.75	35175.16
633.104	35325.67
633.459	35138.78
633.813	35159.34
634.167	35132.68
634.521	35128.61
634.875	35364.54
635.229	35261.71
635.583	35127.03
635.937	35262.84
636.291	35234.14
636.645	35230.53
636.999	35048.61
637.352	35364.31
637.706	35203.86
638.06	35400.24
638.413	35160.93
638.767	35255.16
639.121	35333.8
639.474	34999.57
639.828	35035.28
640.181	35124.54
640.534	35272.11
640.888	35240.92
641.241	34902.18
641.594	35079.12
641.947	35218.78
642.301	35122.73
642.654	35169.06
643.007	35206.8
643.36	35270.53
643.713	35122.51
644.066	35155.05
644.419	35093.13
644.771	34723.88
645.124	34502.41
645.477	34532.69
645.83	34279.14
646.182	34079.37
646.535	34066.04
646.888	34142.2
647.24	33853.39
647.593	34150.56
647.945	34031.01
648.298	33953.73
648.65	33928.87
649.002	33792.37
649.355	34027.4
649.707	33934.74
650.059	34054.97
650.411	34422.41
650.763	34489.08
651.115	34705.34
651.467	34769.07
651.819	34763.42
652.171	34499.47
652.523	34680.94
652.875	34599.58
653.227	34459.02
653.578	34777.21
653.93	34687.27
654.282	34470.1
654.633	34500.6
654.985	34620.38
655.337	34613.6
655.688	34496.08
656.039	34636.19
656.391	34453.37
656.742	34458.57
657.094	34358.24
657.445	34634.39
657.796	34440.94
658.147	34390.78
658.498	34330.89
658.849	34589.64
659.2	34392.13
659.551	34445.92
659.902	34555.97
660.253	34491.56
660.604	34503.09
660.955	34400.49
661.306	34478.91
661.656	34258.35
662.007	34390.55
662.358	34232.59
662.708	34413.37
663.059	34379.7
663.409	34103.78
663.76	34312.13
664.11	34278.46
664.461	34387.61
664.811	34343.32
665.161	34286.15
665.511	34127.28
665.862	34319.37
666.212	34306.03
666.562	34443.2
666.912	34465.8
667.262	34218.35
667.612	34247.73
667.962	34327.95
668.312	34212.02
668.662	34301.29
669.011	34225.81
669.361	34202.08
669.711	34252.48
670.06	34182.42
670.41	34108.75
670.76	34118.24
671.109	34274.17
671.459	33892.26
671.808	34095.19
672.157	34147.62
672.507	33861.98
672.856	33977.68
673.205	34081.18
673.554	34070.33
673.904	33993.05
674.253	34170.22
674.602	34109.65
674.951	33579.95
675.3	33379.05
675.649	33984.01
675.998	33767.06
676.346	33920.51
676.695	34040.96
677.044	33779.27
677.393	33813.16
677.741	33809.1
678.09	33761.87
678.438	33715.99
678.787	33794.18
679.135	33779.27
679.484	33444.81
679.832	33489.56
680.181	33381.99
680.529	33539.27
680.877	33482.33
681.225	33378.83
681.573	33576.79
681.922	33403.68
682.27	33283.91
682.618	33362.55
682.966	33271.03
683.314	33278.94
683.661	33212.95
684.009	32960.31
684.357	33042.11
684.705	32865.84
685.053	32891.38
685.4	32899.74
685.748	32589.47
686.095	32885.73
686.443	32626.3
686.79	32702.46
687.138	32680.99
687.485	32775.9
687.832	32506.08
688.18	32524.16
688.527	32454.56
688.874	32383.15
689.221	32447.78
689.568	32215.01
689.915	32165.75
690.262	32179.76
690.609	32031.29
690.956	31972.76
691.303	31921.24
691.65	31795.36
691.997	31765.76
692.344	31638.31
692.69	31595.14
693.037	31598.99
693.383	31272.44
693.73	31455.94
694.077	31269.95
694.423	31246.45
694.769	31181.37
695.116	31157.42
695.462	30954.26
695.808	30987.02
696.155	31095.04
696.501	30820.25
696.847	30790.42
697.193	30517.88
697.539	30660.71
697.885	30454.61
698.231	30351.33
698.577	30370.09
698.923	30433.37
699.269	30116.99
699.614	30055.07
699.96	29985.47
700.306	30041.51
700.651	29933.94
700.997	29837
701.342	29778.02
701.688	29598.59
702.033	29534.63
702.379	29632.71
702.724	29434.97
703.069	29587.06
703.415	29202.21
703.76	29203.57
704.105	29183
704.45	29075.66
704.795	29058.49
705.14	28919.73
705.485	28856.01
705.83	28866.18
706.175	28891.26
706.52	28615.11
706.865	28671.83
707.209	28573.08
707.554	28498.05
707.899	28535.11
708.243	28410.37
708.588	28388.45
708.932	28222.35
709.277	28261.22
709.621	28169.92
709.966	28025.52
710.31	28095.35
710.654	27839.99
710.998	27893.55
711.342	27990.04
711.687	27793.44
712.031	27758.63
712.375	27604.97
712.719	27653.55
713.063	27626.66
713.407	27658.98
713.75	27519.54
714.094	27581.92
714.438	27383.96
714.782	27297.63
715.125	27251.53
715.469	27218.76
715.812	27124.07
716.156	27022.16
716.499	26912.56
716.843	27015.6
717.186	27002.72
717.53	26946.68
717.873	27007.47
718.216	26835.72
718.559	26729.06
718.902	26592.56
719.246	26640.47
719.589	26587.37
719.932	26462.85
720.275	26473.92
720.617	26493.58
720.96	26362.74
721.303	26392.57
721.646	26264.89
721.989	26095.63
722.331	26334.49
722.674	26220.6
723.016	26232.12
723.359	26079.58
723.701	26101.95
724.044	25917.1
724.386	25888.85
724.729	25966.59
725.071	25839.81
725.413	25821.96
725.755	25816.76
726.097	25742.19
726.439	25608.18
726.782	25614.06
727.124	25762.98
727.465	25540.39
727.807	25519.37
728.149	25536.55
728.491	25366.16
728.833	25560.73
729.175	25332.03
729.516	25332.03
729.858	25321.86
730.199	25444.57
730.541	25295.87
730.882	25169.78
731.224	25362.09
731.565	25153.51
731.906	25144.01
732.248	25084.58
732.589	25021.98
732.93	25024.7
733.271	24932.27
733.612	24861.54
733.953	24976.33
734.294	24811.14
734.635	24757.58
734.976	24800.52
735.317	24733.4
735.658	24659.06
735.999	24640.3
736.339	24630.36
736.68	24722.1
737.021	24459.06
737.361	24443.69
737.702	24635.1
738.042	24501.77
738.383	24473.98
738.723	24516.46
739.063	24376.58
739.404	24310.59
739.744	24287.54
740.084	24233.76
740.424	24215.68
740.764	24240.99
741.104	24309.23
741.444	24208.45
741.784	24041.22
742.124	24093.19
742.464	24075.57
742.804	24054.78
743.143	24015.91
743.483	24021.56
743.823	23838.29
744.162	23884.16
744.502	23840.09
744.841	23778.17
745.181	23944.27
745.52	23721
745.86	23782.24
746.199	23713.32
746.538	23685.07
746.877	23686.65
747.216	23759.42
747.556	23624.96
747.895	23639.42
748.234	23577.95
748.573	23452.76
748.911	23340.22
749.25	23500.67
749.589	23377.73
749.928	23321.24
750.267	23441.91
750.605	23391.74
750.944	23272.65
751.283	23207.34
751.621	23302.03
751.96	23026.33
752.298	23112.43
752.636	23027.46
752.975	22943.62
753.313	22965.09
753.651	22995.37
753.989	22855.94
754.327	22874.92
754.666	22715.6
755.004	22736.85
755.342	22769.16
755.679	22671.54
756.017	22528.49
756.355	22608.94
756.693	22470.64
757.031	22468.83
757.368	22382.96
757.706	22268.61
758.044	22249.63
758.381	22299.12
758.719	22248.27
759.056	22205.11
759.394	22058.9
759.731	21924.21
760.068	22065
760.405	21920.14
760.743	21914.72
761.08	21930.54
761.417	21760.15
761.754	21868.39
762.091	21699.58
762.428	21571.9
762.765	21549.08
763.102	21488.29
763.438	21464.56
763.775	21330.1
764.112	21372.59
764.449	21328.97
764.785	21218.69
765.122	21133.72
765.458	21034.74
765.795	20963.11
766.131	20887.85
766.467	20957.68
766.804	20745.71
767.14	20681.76
767.476	20710.23
767.812	20640.63
768.148	20609.44
768.485	20452.39
768.821	20393.86
769.157	20394.99
769.492	20294.42
769.828	20307.76
770.164	20104.37
770.5	20091.72
770.836	20132.85
771.171	19779.41
771.507	19901.21
771.842	19780.99
772.178	19753.65
772.513	19680.88
772.849	19585.29
773.184	19541.68
773.519	19605.63
773.855	19439.53
774.19	19339.42
774.525	19386.88
774.86	19201.8
775.195	19219.88
775.53	19103.04
775.865	19021.01
776.2	18892.43
776.535	18781.02
776.87	18798.19
777.205	18804.52
777.539	18662.38
777.874	18643.62
778.209	18612.66
778.543	18537.63
778.878	18427.13
779.212	18371.54
779.547	18249.73
779.881	18249.96
780.215	18043.18
780.55	18188.26
780.884	17967.48
781.218	18037.99
781.552	17979.23
781.886	17887.26
782.22	17853.36
782.554	17698.56
782.888	17630.09
783.222	17508.96
783.556	17540.82
783.889	17459.47
784.223	17266.26
784.557	17246.59
784.89	17296.31
785.224	17226.03
785.557	17041.4
785.891	17022.65
786.224	17019.93
786.558	16970.44
786.891	16776.78
787.224	16778.58
787.557	16777.91
787.891	16726.61
788.224	16624.46
788.557	16737.23
788.89	16690.22
789.223	16534.75
789.556	16464.69
789.888	16406.16
790.221	16357.35
790.554	16237.13
790.887	16194.64
791.219	16198.94
791.552	16155.78
791.884	16044.14
792.217	16033.75
792.549	16010.24
792.882	15830.81
793.214	15707.65
793.546	15815.45
793.879	15669.01
794.211	15550.59
794.543	15606.64
794.875	15535.68
795.207	15647.31
795.539	15465.17
795.871	15467.88
796.203	15287.78
796.535	15318.06
796.867	15176.82
797.198	15157.16
797.53	15221.34
797.862	15074.45
798.193	15079.19
798.525	15018.86
798.856	15027.22
799.188	14840.1
799.519	14822.25
799.85	14775.02
800.182	14772.31
800.513	14725.98
800.844	14601.01
801.175	14696.83
801.506	14653.22
801.837	14604.63
802.168	14543.61
802.499	14392.66
802.83	14437.4
803.161	14382.72
803.491	14318.76
803.822	14278.09
804.153	14259.78
804.483	14107.47
804.814	14143.17
805.145	14075.15
805.475	14111.76
805.805	13976.85
806.136	14071.08
806.466	13936.63
806.796	13927.13
807.126	13805.1
807.457	13810.53
807.787	13805.56
808.117	13749.51
808.447	13655.5
808.777	13650.53
809.107	13649.63
809.436	13649.63
809.766	13622.28
810.096	13570.98
810.426	13500.48
810.755	13544.09
811.085	13457.77
811.414	13487.37
811.744	13295.06
812.073	13321.73
812.403	13289.18
812.732	13154.95
813.061	13200.37
813.39	13147.49
813.719	13101.62
814.049	13212.12
814.378	13091.68
814.707	13029.98
815.036	13092.81
815.365	12966.26
815.693	12863.66
816.022	12903.43
816.351	12861.4
816.68	12769.2
817.008	12866.14
817.337	12714.51
817.665	12624.12
817.994	12709.54
818.322	12671.35
818.651	12704.12
818.979	12560.84
819.307	12640.39
819.636	12527.62
819.964	12468.64
820.292	12525.36
820.62	12552.03
820.948	12543.22
821.276	12540.96
821.604	12392.48
821.932	12515.87
822.259	12475.42
822.587	12392.94
822.915	12395.87
823.243	12465.48
823.57	12406.72
823.898	12430.22
824.225	12348.19
824.553	12348.42
824.88	12314.07
825.207	12383.9
825.535	12377.12
825.862	12440.17
826.189	12373.28
826.516	12383.9
826.843	12463.9
827.17	12383.67
827.497	12450.34
827.824	12447.4
828.151	12423.9
828.478	12357.68
828.805	12448.75
829.131	12326.95
829.458	12358.36
829.785	12344.8
830.111	12358.14
830.438	12464.57
830.764	12410.11
831.09	12371.92
831.417	12348.19
831.743	12306.84
832.069	12394.52
832.395	12255.31
832.722	12314.75
833.048	12263
833.374	12282.21
833.7	12182.09
834.026	12193.62
834.351	12222.77
834.677	12204.69
835.003	12218.93
835.329	12177.58
835.654	12153.17
835.98	12144.13
836.306	12104.13
836.631	12101.42
836.956	12102.1
837.282	12119.72
837.607	12077.24
837.932	11943.68
838.258	12034.53
838.583	12009.22
838.908	11892.16
839.233	11943.46
839.558	11860.52
839.883	11889.9
840.208	11856.23
840.533	11878.6
840.858	11852.39
841.182	11842.44
841.507	11834.31
841.832	11739.17
842.156	11653.3
842.481	11739.62
842.805	11744.59
843.13	11646.74
843.454	11637.25
843.778	11585.27
844.103	11570.13
844.427	11555.9
844.751	11653.07
845.075	11486.29
845.399	11434.77
845.723	11395
846.047	11383.02
846.371	11345.28
846.695	11418.73
847.019	11272.74
847.343	11212.63
847.666	11150.71
847.99	11118.62
848.313	11116.59
848.637	11050.83
848.96	11051.5
849.284	11021.22
849.607	10985.06
849.931	10924.73
850.254	10810.15
850.577	10750.49
850.9	10702.13
851.223	10709.82
851.546	10644.96
851.869	10551.4
852.192	10678.18
852.515	10606.54
852.838	10484.51
853.161	10456.72
853.483	10481.8
853.806	10320.22
854.129	10326.32
854.451	10332.88
854.774	10291.07
855.096	10256.27
855.419	10178.76
855.741	10144.18
856.063	10133.11
856.385	10155.93
856.708	10078.87
857.03	10067.12
857.352	10024.86
857.674	10005.43
857.996	9927.46
858.318	9923.62
858.64	9889.5
858.961	9907.13
859.283	9861.25
859.605	9824.64
859.926	9752.78
860.248	9732.89
860.57	9720.69
860.891	9707.81
861.212	9722.27
861.534	9644.08
861.855	9624.2
862.176	9679.11
862.498	9570.19
862.819	9600.92
863.14	9586.23
863.461	9540.58
863.782	9510.75
864.103	9548.94
864.424	9482.96
864.745	9549.62
865.065	9454.03
865.386	9404.77
865.707	9460.58
866.027	9449.51
866.348	9407.93
866.668	9406.35
866.989	9330.42
867.309	9264.21
867.63	9355.05
867.95	9338.55
868.27	9299.23
868.59	9307.82
868.91	9303.07
869.23	9243.64
869.55	9183.53
869.87	9202.96
870.19	9195.28
870.51	9286.13
870.83	9268.5
871.15	9097.2
871.469	9117.09
871.789	9172.46
872.109	9121.38
872.428	9082.97
872.748	9076.64
873.067	9089.75
873.386	9063.53
873.706	9132.68
874.025	8952.58
874.344	8997.09
874.663	8990.54
874.982	8974.5
875.301	8915.51
875.62	8972.91
875.939	8925.91
876.258	8910.77
876.577	8874.61
876.896	8882.52
877.214	8842.52
877.533	8867.38
877.852	8840.71
878.17	8809.08
878.489	8798.68
878.807	8846.82
879.125	8747.83
879.444	8834.61
879.762	8741.73
880.08	8771.56
880.398	8749.42
880.716	8759.36
881.034	8708.06
881.352	8710.55
881.67	8663.32
881.988	8629.87
882.306	8654.73
882.624	8618.35
882.941	8595.97
883.259	8563.88
883.577	8525.02
883.894	8553.26
884.212	8498.12
884.529	8454.28
884.846	8429.65
885.164	8475.98
885.481	8448.41
885.798	8427.84
886.115	8395.75
886.432	8417
886.75	8262.42
887.067	8298.13
887.383	8327.96
887.7	8328.18
888.017	8277.34
888.334	8273.95
888.651	8226.27
888.967	8242.76
889.284	8177
889.6	8222.2
889.917	8046.61
890.233	8152.37
890.55	8105.59
890.866	8079.38
891.182	8054.07
891.498	8063.11
891.815	8033.28
892.131	7967.52
892.447	7963
892.763	7959.83
893.079	7882.32
893.395	7910.34
893.71	7878.93
894.026	7872.15
894.342	7836.9
894.657	7806.39
894.973	7719.39
895.289	7756.67
895.604	7726.39
895.92	7652.72
896.235	7615.21
896.55	7659.28
896.865	7639.39
897.181	7580.41
897.496	7598.26
897.811	7502.22
898.126	7503.12
898.441	7438.72
898.756	7489.79
899.071	7377.02
899.386	7441.2
899.7	7343.58
900.015	7303.81
900.33	7284.37
900.644	7316.23
900.959	7289.79
901.273	7300.19
901.588	7261.77
901.902	7124.6
902.216	7136.13
902.531	7147.65
902.845	7109.01
903.159	7069.46
903.473	7031.27
903.787	7040.31
904.101	7009.8
904.415	7018.84
904.729	6975.68
905.042	6920.76
905.356	6965.06
905.67	6891.61
905.984	6938.39
906.297	6887.54
906.611	6741.56
906.924	6781.11
907.237	6770.71
907.551	6723.93
907.864	6693.88
908.177	6692.07
908.491	6677.38
908.804	6667.89
909.117	6624.73
909.43	6565.75
909.743	6560.32
910.056	6553.99
910.368	6500.21
910.681	6461.57
910.994	6477.84
911.307	6436.48
911.619	6370.72
911.932	6378.41
912.244	6343.6
912.557	6342.7
912.869	6222.03
913.181	6277.84
913.494	6252.31
913.806	6194.46
914.118	6224.96
914.43	6213.89
914.742	6148.36
915.054	6109.94
915.366	6072.43
915.678	6072.2
915.99	6052.54
916.302	5991.07
916.613	5977.06
916.925	5986.78
917.236	5928.25
917.548	5898.64
917.859	5886.44
918.171	5882.6
918.482	5878.53
918.794	5841.02
919.105	5796.05
919.416	5767.35
919.727	5752.89
920.038	5756.28
920.349	5709.95
920.66	5688.71
920.971	5671.98
921.282	5598.31
921.593	5586.56
921.903	5595.38
922.214	5531.87
922.525	5495.94
922.835	5552.21
923.146	5423.4
923.456	5439.9
923.767	5414.14
924.077	5421.14
924.387	5441.71
924.697	5370.97
925.008	5360.58
925.318	5348.15
925.628	5369.84
925.938	5334.14
926.248	5276.97
926.558	5271.09
926.867	5230.41
927.177	5183.41
927.487	5165.33
927.796	5199.91
928.106	5156.29
928.416	5108.38
928.725	5070.64
929.034	5109.74
929.344	5067.93
929.653	5058.44
929.962	4987.71
930.271	5007.59
930.581	5012.79
930.89	4936.18
931.199	4931.21
931.508	4902.06
931.817	4933.47
932.125	4878.78
932.434	4870.42
932.743	4780.03
933.051	4837.43
933.36	4786.81
933.669	4758.34
933.977	4718.79
934.286	4731.44
934.594	4677.43
934.902	4678.56
935.21	4693.93
935.519	4652.35
935.827	4625.68
936.135	4643.08
936.443	4536.19
936.751	4553.82
937.059	4545.46
937.367	4528.96
937.674	4505.46
937.982	4481.96
938.29	4531.22
938.597	4492.81
938.905	4429.98
939.213	4394.28
939.52	4375.52
939.827	4360.61
940.135	4387.05
940.442	4359.02
940.749	4329.87
941.056	4296.88
941.363	4301.62
941.67	4287.16
941.977	4255.07
942.284	4235.41
942.591	4204
942.898	4215.52
943.205	4198.12
943.511	4145.7
943.818	4142.08
944.125	4128.07
944.431	4090.56
944.738	4096.66
945.044	4111.35
945.35	4091.91
945.657	4041.74
945.963	4014.17
946.269	4004.91
946.575	4008.52
946.881	3994.29
947.187	3927.62
947.493	3928.75
947.799	3944.35
948.105	3926.49
948.41	3911.8
948.716	3896.89
949.022	3915.42
949.327	3847.4
949.633	3834.07
949.938	3823.22
950.244	3834.74
950.549	3769.43
950.854	3751.13
951.16	3788.64
951.465	3758.14
951.77	3701.87
952.075	3719.04
952.38	3707.06
952.685	3676.56
952.99	3662.32
953.294	3660.06
953.599	3580.74
953.904	3597.46
954.209	3540.74
954.513	3586.84
954.818	3592.26
955.122	3516.79
955.426	3568.99
955.731	3482.89
956.035	3506.39
956.339	3467.3
956.643	3460.52
956.948	3453.28
957.252	3460.52
957.556	3430.46
957.86	3436.56
958.163	3413.06
958.467	3388.65
958.771	3370.12
959.075	3357.92
959.378	3325.83
959.682	3308.43
959.985	3361.54
960.289	3326.73
960.592	3304.81
960.896	3241.77
961.199	3247.87
961.502	3261.43
961.805	3225.95
962.108	3241.99
962.411	3206.96
962.714	3153.18
963.017	3161.77
963.32	3174.2
963.623	3134.88
963.926	3117.02
964.228	3138.49
964.531	3148.66
964.833	3108.44
965.136	3052.17
965.438	3077.7
965.741	3038.83
966.043	3007.19
966.345	3041.77
966.648	3056.91
966.95	3010.81
967.252	2971.94
967.554	2981.43
967.856	2981.21
968.158	2933.52
968.46	2930.81
968.761	2933.07
969.063	2898.5
969.365	2914.09
969.666	2869.12
969.968	2859.18
970.269	2884.94
970.571	2816.01
970.872	2838.61
971.174	2859.18
971.475	2846.3
971.776	2830.93
972.077	2783.47
972.378	2771.72
972.679	2779.63
972.98	2766.07
973.281	2736.92
973.582	2755.45
973.883	2735.34
974.183	2719.74
974.484	2715.45
974.785	2684.49
975.085	2673.64
975.386	2681.1
975.686	2666.19
975.986	2702.57
976.287	2631.39
976.587	2616.7
976.887	2651.27
977.187	2609.24
977.487	2603.36
977.787	2576.92
978.087	2548
978.387	2520.88
978.687	2556.36
978.987	2529.47
979.286	2495.8
979.586	2519.3
979.885	2439.53
980.185	2478.17
980.484	2462.12
980.784	2459.86
981.083	2467.77
981.382	2465.06
981.682	2422.8
981.981	2410.15
982.28	2427.55
982.579	2429.13
982.878	2424.61
983.177	2363.82
983.475	2350.72
983.774	2375.8
984.073	2352.52
984.372	2367.89
984.67	2329.02
984.969	2328.57
985.267	2293.32
985.566	2313.43
985.864	2299.64
986.162	2295.35
986.461	2270.49
986.759	2267.78
987.057	2236.37
987.355	2230.27
987.653	2255.12
987.951	2248.12
988.249	2212.19
988.547	2179.87
988.844	2197.27
989.142	2179.19
989.44	2142.13
989.737	2181
990.035	2130.61
990.332	2143.49
990.63	2138.07
990.927	2133.09
991.224	2126.54
991.521	2130.83
991.819	2101
992.116	2070.5
992.413	2070.72
992.71	2086.32
993.006	2044.51
993.303	2046.99
993.6	2063.26
993.897	2044.96
994.193	2000.22
994.49	2018.29
994.787	2013.77
995.083	1995.47
995.379	1972.42
995.676	1976.26
995.972	1956.6
996.268	1975.81
996.565	1942.14
996.861	1941.91
997.157	1929.26
997.453	1938.07
997.749	1937.62
998.044	1904.85
998.34	1867.34
998.636	1889.03
998.932	1908.47
999.227	1859.43
999.523	1867.56
999.818	1855.36
1000.114	1820.33
1000.409	1835.25
1000.704	1833.21
1001	1818.3
1001.295	1820.33
1001.59	1817.85
1001.885	1765.87
1002.18	1773.78
1002.475	1767.45
1002.77	1752.31
1003.065	1737.4
1003.359	1744.18
1003.654	1743.05
1003.949	1701.47
1004.243	1731.07
1004.538	1708.7
1004.832	1693.56
1005.127	1684.07
1005.421	1687.46
1005.715	1674.57
1006.009	1647.46
1006.304	1638.87
1006.598	1637.06
1006.892	1670.96
1007.186	1611.07
1007.48	1617.17
1007.773	1557.29
1008.067	1571.75
1008.361	1568.14
1008.655	1569.94
1008.948	1547.12
1009.242	1588.93
1009.535	1586.44
1009.829	1565.65
1010.122	1530.85
1010.415	1528.14
1010.708	1508.03
1011.001	1524.3
1011.295	1482.49
1011.588	1491.3
1011.881	1447.91
1012.173	1482.26
1012.466	1470.06
1012.759	1466.22
1013.052	1436.61
1013.344	1437.52
1013.637	1433.23
1013.93	1421.25
1014.222	1413.79
1014.514	1421.7
1014.807	1421.47
1015.099	1403.17
1015.391	1402.04
1015.683	1381.02
1015.976	1392.55
1016.268	1396.39
1016.56	1350.06
1016.851	1339.44
1017.143	1341.48
1017.435	1350.52
1017.727	1308.71
1018.018	1326.79
1018.31	1320.91
1018.602	1309.84
1018.893	1323.17
1019.185	1280.46
1019.476	1268.48
1019.767	1269.39
1020.058	1265.77
1020.35	1240.91
1020.641	1239.78
1020.932	1250.18
1021.223	1229.39
1021.514	1220.8
1021.804	1207.24
1022.095	1214.02
1022.386	1187.36
1022.677	1195.49
1022.967	1204.08
1023.258	1162.5
1023.548	1181.03
1023.839	1156.4
1024.129	1138.77
1024.419	1167.02
1024.709	1134.48
1025	1099.22
1025.29	1144.19
1025.58	1113.23
1025.87	1108.26
1026.16	1120.24
1026.449	1126.34
1026.739	1105.32
1027.029	1094.25
1027.319	1089.73
1027.608	1065.33
1027.898	1079.11
1028.187	1064.2
1028.477	1053.35
1028.766	1042.5
1029.055	1025.33
1029.344	1018.55
1029.634	1035.27
1029.923	1040.69
1030.212	1020.58
1030.501	1011.09
1030.79	1040.69
1031.078	983.97
1031.367	1006.57
1031.656	972.67
1031.945	979.68
1032.233	1002.28
1032.522	970.19
1032.81	962.5
1033.099	956.85
1033.387	969.51
1033.675	953.01
1033.963	939.68
1034.251	929.28
1034.54	906.69
1034.828	932
1035.116	929.51
1035.403	901.94
1035.691	899.68
1035.979	901.49
1036.267	913.24
1036.554	879.57
1036.842	911.66
1037.129	892.45
1037.417	869.85
1037.704	885.22
1037.992	852
1038.279	835.27
1038.566	846.57
1038.853	846.57
1039.14	846.57
