Data from hue_100_FLMS001491_00027.txt Node
Date: Tue Feb 07 17:02:56 GMT 2017
User: dcchb
Spectrometer: FLMS00149
Trigger mode: 0
Integration Time (sec): 2.000000E-2
Scans to average: 10
Electric dark correction enabled: true
Nonlinearity correction enabled: false
Boxcar width: 0
XAxis mode: Wavelengths
Number of Pixels in Spectrum: 2048
>>>>>Begin Spectral Data<<<<<
341.393	-11.24
341.776	-11.24
342.16	-11.24
342.543	-49.21
342.927	-63.9
343.31	-74.74
343.693	-90.34
344.077	-57.8
344.46	-70.45
344.843	-55.99
345.226	-30.45
345.61	-39.49
345.993	-26.16
346.376	-5.59
346.759	29.89
347.142	30.56
347.525	35.08
347.908	54.52
348.291	86.38
348.674	103.78
349.057	110.79
349.44	120.05
349.823	154.85
350.206	154.18
350.588	183.33
350.971	228.98
351.354	259.26
351.737	256.09
352.119	246.15
352.502	260.84
352.884	292.03
353.267	293.61
353.65	298.81
354.032	297.45
354.414	306.26
354.797	338.8
355.179	333.16
355.562	326.38
355.944	330.67
356.326	334.96
356.709	325.92
357.091	337.9
357.473	347.62
357.855	326.83
358.238	339.26
358.62	329.31
359.002	342.42
359.384	346.94
359.766	342.19
360.148	326.6
360.53	332.03
360.912	349.43
361.294	352.14
361.676	347.84
362.057	361.85
362.439	319.82
362.821	369.99
363.203	331.35
363.584	324.79
363.966	304.23
364.348	326.6
364.729	345.13
365.111	314.4
365.493	312.14
365.874	331.57
366.256	320.27
366.637	305.36
367.019	339.93
367.4	325.02
367.781	330.22
368.163	325.02
368.544	332.93
368.925	318.01
369.306	331.12
369.688	328.18
370.069	330.22
370.45	337.22
370.831	310.1
371.212	310.78
371.593	317.79
371.974	310.78
372.355	312.82
372.736	315.98
373.117	318.01
373.498	322.76
373.879	298.13
374.26	308.97
374.641	305.81
375.021	325.25
375.402	322.76
375.783	318.69
376.163	343.32
376.544	332.03
376.925	347.17
377.305	327.51
377.686	342.65
378.066	348.07
378.447	345.58
378.827	329.09
379.208	350.1
379.588	366.37
379.968	348.75
380.349	333.16
380.729	340.39
381.109	347.39
381.489	347.39
381.87	344.23
382.25	354.4
382.63	355.53
383.01	367.96
383.39	344.23
383.77	349.43
384.15	370.67
384.53	339.26
384.91	363.44
385.29	362.76
385.67	369.99
386.049	370.22
386.429	362.76
386.809	364.57
387.189	369.54
387.568	353.95
387.948	367.28
388.328	358.01
388.707	362.98
389.087	360.27
389.466	356.43
389.846	368.86
390.225	408.18
390.605	385.58
390.984	384.45
391.363	367.96
391.743	380.16
392.122	395.53
392.501	394.4
392.881	400.72
393.26	379.03
393.639	391.91
394.018	396.66
394.397	402.08
394.776	402.98
395.155	397.56
395.534	386.04
395.913	401.85
396.292	390.33
396.671	411.8
397.05	412.93
397.429	410.44
397.808	414.96
398.186	407.05
398.565	403.89
398.944	405.02
399.323	431.23
399.701	412.48
400.08	411.57
400.458	417.67
400.837	449.31
401.215	430.33
401.594	430.78
401.972	428.97
402.351	419.25
402.729	449.99
403.107	442.53
403.486	446.82
403.864	436.2
404.242	447.95
404.62	439.59
404.999	460.84
405.377	455.19
405.755	443.89
406.133	458.12
406.511	446.37
406.889	455.19
407.267	474.39
407.645	483.21
408.023	458.58
408.401	457.9
408.779	476.2
409.156	456.99
409.534	485.92
409.912	480.72
410.29	470.78
410.667	491.79
411.045	497.67
411.422	501.96
411.8	519.59
412.178	534.73
412.555	522.3
412.933	515.98
413.31	522.98
413.687	532.25
414.065	559.59
414.442	513.26
414.819	538.35
415.197	531.34
415.574	523.66
415.951	547.84
416.328	544.22
416.705	537.44
417.082	562.75
417.46	555.07
417.837	573.37
418.214	573.37
418.591	564.11
418.967	562.98
419.344	570.44
419.721	592.36
420.098	574.96
420.475	593.71
420.852	584.22
421.228	598.68
421.605	598.68
421.982	597.33
422.358	625.58
422.735	601.62
423.111	607.05
423.488	618.8
423.864	615.86
424.241	639.81
424.617	636.42
424.994	644.11
425.37	635.29
425.746	646.59
426.123	648.18
426.499	644.56
426.875	671.9
427.251	672.81
427.627	671.68
428.003	700.6
428.379	676.2
428.756	702.41
429.132	683.65
429.507	705.57
429.883	708.06
430.259	708.06
430.635	721.85
431.011	724.11
431.387	738.57
431.763	747.83
432.138	723.65
432.514	756.65
432.89	760.94
433.265	771.11
433.641	797.55
434.016	776.53
434.392	784.89
434.767	795.06
435.143	810.2
435.518	821.28
435.894	838.23
436.269	814.05
436.644	827.15
437.02	826.02
437.395	835.29
437.77	833.71
438.145	895.4
438.52	862.18
438.895	879.81
439.271	862.86
439.646	864.67
440.021	887.26
440.395	923.65
440.77	892.01
441.145	915.96
441.52	915.96
441.895	914.38
442.27	935.63
442.645	941.05
443.019	947.38
443.394	955.06
443.769	939.24
444.143	919.81
444.518	984.89
444.892	971.1
445.267	971.1
445.641	972.46
446.016	998.9
446.39	1002.97
446.764	978.56
447.139	1007.26
447.513	1025.34
447.887	1023.76
448.262	1032.35
448.636	1014.72
449.01	1037.32
449.384	1054.49
449.758	1035.28
450.132	1058.56
450.506	1071.67
450.88	1062.18
451.254	1096.75
451.628	1086.36
452.002	1103.08
452.376	1118.9
452.75	1146.47
453.123	1135.39
453.497	1149.86
453.871	1158.44
454.244	1184.21
454.618	1187.82
454.992	1180.14
455.365	1210.42
455.739	1213.58
456.112	1233.24
456.486	1235.73
456.859	1249.74
457.232	1301.49
457.606	1287.93
457.979	1299.91
458.352	1324.09
458.725	1329.97
459.099	1337.42
459.472	1398.44
459.845	1386.23
460.218	1400.7
460.591	1408.16
460.964	1452.45
461.337	1431.88
461.71	1474.82
462.083	1491.54
462.456	1484.54
462.829	1487.7
463.201	1536.06
463.574	1579
463.947	1585.78
464.32	1600.47
464.692	1671.2
465.065	1675.27
465.438	1651.31
465.81	1684.08
466.183	1714.14
466.555	1759.33
466.928	1768.37
467.3	1788.71
467.672	1816.96
468.045	1844.08
468.417	1875.49
468.789	1880.23
469.161	1943.06
469.534	1964.98
469.906	1997.74
470.278	2030.29
470.65	2063.73
471.022	2106.22
471.394	2153.67
471.766	2187.34
472.138	2223.5
472.51	2259.43
472.882	2308.02
473.253	2354.12
473.625	2427.11
473.997	2504.4
474.369	2504.62
474.74	2566.09
475.112	2613.32
475.484	2681.79
475.855	2734.9
476.227	2770.61
476.598	2913.2
476.97	2926.76
477.341	3026.64
477.713	3073.2
478.084	3109.35
478.455	3249.91
478.827	3336.01
479.198	3429.8
479.569	3451.49
479.94	3600.41
480.311	3637.47
480.682	3764.7
481.053	3893.51
481.424	3979.39
481.795	4025.04
482.166	4178.93
482.537	4236.1
482.908	4431.58
483.279	4472.03
483.65	4636.09
484.021	4799.48
484.391	4877.44
484.762	4990.43
485.133	5071.56
485.503	5208.51
485.874	5430.65
486.244	5431.1
486.615	5624.99
486.985	5766.68
487.356	5907.47
487.726	6103.62
488.097	6285.77
488.467	6334.35
488.837	6528.92
489.207	6681.01
489.578	6819.31
489.948	6946.54
490.318	7148.8
490.688	7227.66
491.058	7429.47
491.428	7594.43
491.798	7732.51
492.168	7970.24
492.538	8052.5
492.908	8235.55
493.278	8407.75
493.648	8464.92
494.017	8666.72
494.387	8827.4
494.757	8966.15
495.126	9169.98
495.496	9257.89
495.866	9349.64
496.235	9541.05
496.605	9698.78
496.974	9811.55
497.344	9947.37
497.713	10079.11
498.082	10229.62
498.452	10410.86
498.821	10470.74
499.19	10544.86
499.559	10736.27
499.928	10876.83
500.298	10993.21
500.667	11141.46
501.036	11176.03
501.405	11374.45
501.774	11354.33
502.143	11622.12
502.512	11653.54
502.88	11822.34
503.249	11796.81
503.618	11879.52
503.987	12074.32
504.356	12242.22
504.724	12311.15
505.093	12339.39
505.462	12466.4
505.83	12556.11
506.199	12615.54
506.567	12752.26
506.936	12801.53
507.304	13017.57
507.672	13088.3
508.041	13168.98
508.409	13323.32
508.777	13353.38
509.145	13470.66
509.514	13501.17
509.882	13636.08
510.25	13593.6
510.618	13728.06
510.986	13722.18
511.354	13902.97
511.722	14023.87
512.09	14206.24
512.458	14089.63
512.826	14201.49
513.193	14353.13
513.561	14240.36
513.929	14370.98
514.297	14499.34
514.664	14600.35
515.032	14577.53
515.4	14727.8
515.767	14831.76
516.135	14857.74
516.502	14792.89
516.869	14923.51
517.237	14978.19
517.604	14879.67
517.972	15110.62
518.339	15101.35
518.706	15147
519.073	15192.88
519.44	15248.02
519.808	15364.17
520.175	15357.17
520.542	15548.35
520.909	15584.96
521.276	15518.52
521.643	15681.45
522.009	15734.11
522.376	15705.41
522.743	15784.05
523.11	15918.06
523.477	15993.76
523.843	15993.99
524.21	16132.74
524.577	16205.96
524.943	16133.19
525.31	16285.73
525.676	16286.41
526.043	16295.9
526.409	16401.43
526.776	16444.37
527.142	16412.96
527.508	16522.11
527.874	16574.54
528.241	16548.32
528.607	16573.63
528.973	16654.53
529.339	16652.05
529.705	16743.12
530.071	16829.22
530.437	16842.55
530.803	16921.87
531.169	16889.33
531.535	16807.52
531.901	16757.58
532.267	16893.85
532.632	16867.41
532.998	16895.66
533.364	16897.69
533.73	16826.51
534.095	16975.66
534.461	16951.7
534.826	16876
535.192	16986.95
535.557	17083.68
535.923	16996.9
536.288	16824.02
536.653	16891.59
537.019	16893.85
537.384	16866.96
537.749	16922.78
538.114	16843
538.479	16841.65
538.845	16816.79
539.21	16683.23
539.575	16698.37
539.94	16716.91
540.305	16850.01
540.67	16664.03
541.034	16725.04
541.399	16686.62
541.764	16626.51
542.129	16676.45
542.494	16622.9
542.858	16638.26
543.223	16666.06
543.587	16654.31
543.952	16456.12
544.316	16487.76
544.681	16473.97
545.045	16435.1
545.41	16464.93
545.774	16418.83
546.138	16337.25
546.503	16341.1
546.867	16367.08
547.231	16304.26
547.595	16373.64
547.959	16260.65
548.324	16229.01
548.688	16200.08
549.052	16178.39
549.416	16218.84
549.779	16095.68
550.143	16111.27
550.507	16174.77
550.871	16059.97
551.235	16013.87
551.599	16113.98
551.962	16043.25
552.326	16054.32
552.689	16085.74
553.053	15914.67
553.417	15842.8
553.78	16074.89
554.143	15936.81
554.507	15925.29
554.87	15897.04
555.234	16013.42
555.597	15832.18
555.96	15895.68
556.323	15810.26
556.686	15827.21
557.05	16039.18
557.413	15897.94
557.776	15899.98
558.139	15938.62
558.502	15970.71
558.865	15860.2
559.228	15878.96
559.59	15909.24
559.953	15907.66
560.316	16030.82
560.679	16038.05
561.041	15992.4
561.404	15968.68
561.767	16033.31
562.129	15982.24
562.492	15972.07
562.854	15933.65
563.217	15895.23
563.579	16056.36
563.941	16041.44
564.304	16068.33
564.666	16108.33
565.028	16067.88
565.39	16111.05
565.753	16170.7
566.115	16205.28
566.477	16192.85
566.839	16151.72
567.201	16244.83
567.563	16246.63
567.925	16339.29
568.287	16259.74
568.648	16280.98
569.01	16400.08
569.372	16537.02
569.734	16371.15
570.095	16386.52
570.457	16481.88
570.819	16520.75
571.18	16434.88
571.542	16449.34
571.903	16474.2
572.265	16585.61
572.626	16534.99
572.987	16501.77
573.349	16581.77
573.71	16641.2
574.071	16633.52
574.432	16586.06
574.794	16627.64
575.155	16599.39
575.516	16533.63
575.877	16624.03
576.238	16618.15
576.599	16690.92
576.96	16682.1
577.32	16674.42
577.681	16794.19
578.042	16781.76
578.403	16785.83
578.763	16751.48
579.124	16766.85
579.485	16855.88
579.845	16810.69
580.206	16744.47
580.566	16696.57
580.927	16730.69
581.287	16850.23
581.648	16727.07
582.008	16745.38
582.368	16787.86
582.728	16758.71
583.089	16726.85
583.449	16733.85
583.809	16809.78
584.169	16800.97
584.529	16702.67
584.889	16702.89
585.249	16746.28
585.609	16627.42
585.969	16715.1
586.329	16657.7
586.688	16718.26
587.048	16634.42
587.408	16628.09
587.768	16644.36
588.127	16544.25
588.487	16566.85
588.846	16668.32
589.206	16569.79
589.565	16633.29
589.925	16554.2
590.284	16552.16
590.643	16496.12
591.003	16554.42
591.362	16564.14
591.721	16526.4
592.08	16524.59
592.44	16561.2
592.799	16568.21
593.158	16513.29
593.517	16499.51
593.876	16549.9
594.235	16450.92
594.593	16465.39
594.952	16539.73
595.311	16446.18
595.67	16478.72
596.029	16537.02
596.387	16522.56
596.746	16502.9
597.104	16412.28
597.463	16412.96
597.822	16503.58
598.18	16352.39
598.538	16350.36
598.897	16471.49
599.255	16340.42
599.613	16509.68
599.972	16370.47
600.33	16504.93
600.688	16366.18
601.046	16418.38
601.404	16543.8
601.762	16409.12
602.12	16539.06
602.478	16475.1
602.836	16542.9
603.194	16426.29
603.552	16432.62
603.91	16376.35
604.268	16401.66
604.625	16377.03
604.983	16482.56
605.341	16406.4
605.698	16542.9
606.056	16513.07
606.413	16500.41
606.771	16552.16
607.128	16522.56
607.485	16419.51
607.843	16477.82
608.2	16434.2
608.557	16675.32
608.914	16501.09
609.272	16640.75
609.629	16607.76
609.986	16664.25
610.343	16514.65
610.7	16581.54
611.057	16585.38
611.414	16569.79
611.771	16625.16
612.127	16741.76
612.484	16669.67
612.841	16734.31
613.198	16716.91
613.554	16647.08
613.911	16810.46
614.267	16741.99
614.624	16639.62
614.98	16704.02
615.337	16852.27
615.693	16820.41
616.05	16843
616.406	16864.92
616.762	16890.91
617.118	16714.42
617.475	16806.39
617.831	16861.76
618.187	16895.66
618.543	16907.86
618.899	16942.44
619.255	16909.67
619.611	16924.81
619.967	16996.9
620.323	16925.49
620.678	16928.42
621.034	16916
621.39	16887.52
621.746	16879.61
622.101	17031.93
622.457	16868.31
622.812	16975.43
623.168	17022.21
623.523	17024.92
623.879	17050.91
624.234	16899.27
624.589	16934.98
624.945	16940.63
625.3	17003.9
625.655	16939.27
626.01	16966.16
626.365	16933.4
626.72	17008.42
627.075	16953.06
627.43	16898.6
627.785	16866.51
628.14	17013.17
628.495	17024.92
628.85	16930.46
629.205	16791.25
629.559	17025.37
629.914	16778.82
630.269	16955.99
630.623	16912.38
630.978	16795.55
631.332	16848.43
631.687	16784.02
632.041	16850.91
632.396	16734.76
632.75	16735.21
633.104	16669
633.459	16651.82
633.813	16725.94
634.167	16656.57
634.521	16674.65
634.875	16645.72
635.229	16618.15
635.583	16531.83
635.937	16583.8
636.291	16560.98
636.645	16558.27
636.999	16530.47
637.352	16586.51
637.706	16501.77
638.06	16495.44
638.413	16431.94
638.767	16485.72
639.121	16436.46
639.474	16242.57
639.828	16377.93
640.181	16350.36
640.534	16403.47
640.888	16325.5
641.241	16280.31
641.594	16318.72
641.947	16316.46
642.301	16342.68
642.654	16308.33
643.007	16294.54
643.36	16353.3
643.713	16166.64
644.066	16249.57
644.419	16184.49
644.771	16065.85
645.124	16002.8
645.477	15976.36
645.83	15754.22
646.182	15852.97
646.535	15699.98
646.888	15754.22
647.24	15600.78
647.593	15685.52
647.945	15677.38
648.298	15667.67
648.65	15454.34
649.002	15448.46
649.355	15677.84
649.707	15715.12
650.059	15795.12
650.411	15930.26
650.763	15951.28
651.115	16052.52
651.467	16033.99
651.819	15978.85
652.171	16037.6
652.523	15953.31
652.875	15972.29
653.227	15901.56
653.578	16003.25
653.93	15975.23
654.282	15891.62
654.633	15954.21
654.985	15926.64
655.337	15966.42
655.688	16028.79
656.039	15964.61
656.391	15964.83
656.742	15938.17
657.094	15884.38
657.445	15997.6
657.796	16021.1
658.147	16005.06
658.498	15951.28
658.849	16074.21
659.2	16117.15
659.551	15987.66
659.902	16092.06
660.253	16108.56
660.604	16137.49
660.955	16007.09
661.306	15992.86
661.656	15961.67
662.007	16079.86
662.358	15987.88
662.708	15990.6
663.059	16036.25
663.409	15800.54
663.76	16043.7
664.11	16098.62
664.461	16024.49
664.811	16071.95
665.161	16061.56
665.511	16018.17
665.862	16063.59
666.212	16090.03
666.562	16022.23
666.912	16064.04
667.262	16168.22
667.612	16028.11
667.962	16008.9
668.312	16000.54
668.662	16111.95
669.011	16074.44
669.361	15987.21
669.711	15998.51
670.06	15976.36
670.41	15932.97
670.76	15890.26
671.109	15982.91
671.459	15929.13
671.808	15890.03
672.157	15978.39
672.507	15929.13
672.856	15900.88
673.205	15849.81
673.554	15991.5
673.904	15859.75
674.253	15967.77
674.602	15888.23
674.951	15636.03
675.3	15599.42
675.649	15799.64
675.998	15810.04
676.346	15732.98
676.695	15916.25
677.044	15695.46
677.393	15787.89
677.741	15845.29
678.09	15809.13
678.438	15806.19
678.787	15645.75
679.135	15648.46
679.484	15635.35
679.832	15612.98
680.181	15505.41
680.529	15593.09
680.877	15445.98
681.225	15513.09
681.573	15580.89
681.922	15432.19
682.27	15422.02
682.618	15409.14
682.966	15398.3
683.314	15357.17
683.661	15262.25
684.009	15256.6
684.357	15200.79
684.705	15256.6
685.053	15209.6
685.4	15144.29
685.748	15094.35
686.095	15119.21
686.443	15063.62
686.79	15009.38
687.138	15062.03
687.485	14947.91
687.832	14943.84
688.18	14928.48
688.527	14870.17
688.874	14824.3
689.221	14866.33
689.568	14707.92
689.915	14715.15
690.262	14690.52
690.609	14634.93
690.956	14599.9
691.303	14568.94
691.65	14503.18
691.997	14480.35
692.344	14380.24
692.69	14349.74
693.037	14333.92
693.383	14172.57
693.73	14261.15
694.077	14189.06
694.423	14159.01
694.769	14143.41
695.116	14119.23
695.462	14001.27
695.808	13916.53
696.155	13956.53
696.501	13794.5
696.847	13884.89
697.193	13732.8
697.539	13754.72
697.885	13613.03
698.231	13629.08
698.577	13637.44
698.923	13596.76
699.269	13509.31
699.614	13455.07
699.96	13372.81
700.306	13395.86
700.651	13298.46
700.997	13278.35
701.342	13269.54
701.688	13248.07
702.033	13220.27
702.379	13133.27
702.724	13047.85
703.069	13064.8
703.415	12922.88
703.76	12917.91
704.105	12890.57
704.45	12968.08
704.795	12827.97
705.14	12721.76
705.485	12740.06
705.83	12679.95
706.175	12548.88
706.52	12550.91
706.865	12577.13
707.209	12539.84
707.554	12511.37
707.899	12501.2
708.243	12496.45
708.588	12379.17
708.932	12178.27
709.277	12333.29
709.621	12307.53
709.966	12174.65
710.31	12132.84
710.654	12084.94
710.998	12113.18
711.342	12102.34
711.687	12010.59
712.031	12001.77
712.375	11957.93
712.719	11987.09
713.063	11991.61
713.407	11928.78
713.75	11862.34
714.094	11948.67
714.438	11734.89
714.782	11811.5
715.125	11740.31
715.469	11755.45
715.812	11702.12
716.156	11737.15
716.499	11619.19
716.843	11694.89
717.186	11648.11
717.53	11693.99
717.873	11627.32
718.216	11642.24
718.559	11595.01
718.902	11568.57
719.246	11603.82
719.589	11500.77
719.932	11522.01
720.275	11491.96
720.617	11527.44
720.96	11475.01
721.303	11487.89
721.646	11425.52
721.989	11396.14
722.331	11351.17
722.674	11373.54
723.016	11367.89
723.359	11371.28
723.701	11300.78
724.044	11265.75
724.386	11159.31
724.729	11317.05
725.071	11279.76
725.413	11248.57
725.755	11265.07
726.097	11223.49
726.439	11159.76
726.782	11146.2
727.124	11268.46
727.465	11134.45
727.807	11205.64
728.149	11157.05
728.491	11184.17
728.833	11181.01
729.175	11123.38
729.516	11120.67
729.858	11104.4
730.199	11181.46
730.541	11098.07
730.882	11148.24
731.224	11124.51
731.565	11041.8
731.906	11140.33
732.248	11109.59
732.589	11126.32
732.93	11032.99
733.271	11040.44
733.612	11047
733.953	11085.41
734.294	11024.17
734.635	11092.19
734.976	11091.97
735.317	11025.3
735.658	11080.44
735.999	11091.06
736.339	11056.94
736.68	11093.55
737.021	11112.08
737.361	11113.89
737.702	11131.06
738.042	11045.87
738.383	11106.43
738.723	11110.95
739.063	11092.19
739.404	11193.89
739.744	11125.87
740.084	11136.71
740.424	11099.43
740.764	11238.41
741.104	11181.68
741.444	11122.7
741.784	11190.04
742.124	11220.78
742.464	11295.58
742.804	11246.77
743.143	11241.12
743.483	11336.48
743.823	11165.19
744.162	11361.34
744.502	11301.91
744.841	11323.37
745.181	11378.97
745.52	11392.75
745.86	11525.18
746.199	11491.28
746.538	11530.6
746.877	11650.82
747.216	11673.65
747.556	11696.92
747.895	11762.69
748.234	11719.75
748.573	11911.61
748.911	11916.58
749.25	11949.35
749.589	11966.75
749.928	12081.55
750.267	12194.54
750.605	12237.7
750.944	12255.1
751.283	12322.9
751.621	12552.27
751.96	12531.7
752.298	12691.47
752.636	12815.76
752.975	12810.79
753.313	12927.63
753.651	13120.16
753.989	13055.31
754.327	13220.27
754.666	13334.4
755.004	13489.19
755.342	13592.47
755.679	13820.48
756.017	13959.69
756.355	14018.22
756.693	14116.97
757.031	14373.69
757.368	14436.06
757.706	14615.27
758.044	14711.99
758.381	14943.62
758.719	15083.28
759.056	15235.59
759.394	15395.58
759.731	15518.74
760.068	15687.55
760.405	15910.15
760.743	15917.38
761.08	16218.39
761.417	16312.17
761.754	16483.24
762.091	16590.13
762.428	16763.68
762.765	16981.3
763.102	17193.28
763.438	17279.83
763.775	17367.51
764.112	17706.03
764.449	17789.65
764.785	17892.02
765.122	17953.48
765.458	18126.59
765.795	18330.2
766.131	18410.87
766.467	18622.84
766.804	18762.28
767.14	18822.16
767.476	18957.07
767.812	19070.74
768.148	19312.77
768.485	19195.94
768.821	19372.65
769.157	19508.92
769.492	19609.48
769.828	19720.44
770.164	19729.93
770.5	19794.79
770.836	20001.56
771.171	20005.41
771.507	20144.61
771.842	20061.22
772.178	20293.76
772.513	20352.97
772.849	20420.31
773.184	20319.97
773.519	20532.17
773.855	20510.03
774.19	20566.52
774.525	20693.07
774.86	20634.54
775.195	20850.58
775.53	20806.74
775.865	20786.85
776.2	20815.1
776.535	20740.53
776.87	20856.23
777.205	20744.37
777.539	20839.96
777.874	20984.59
778.209	20870.24
778.543	20858.27
778.878	20931.26
779.212	20987.75
779.547	20818.27
779.881	21020.75
780.215	20856.01
780.55	21052.84
780.884	20982.1
781.218	20959.05
781.552	21053.06
781.886	20947.53
782.22	20885.84
782.554	20902.11
782.888	20831.15
783.222	20806.52
783.556	20764.71
783.889	20782.79
784.223	20647.2
784.557	20708.66
784.89	20669.57
785.224	20626.18
785.557	20579.4
785.891	20583.92
786.224	20602.23
786.558	20587.31
786.891	20502.57
787.224	20454.89
787.557	20417.6
787.891	20431.38
788.224	20436.13
788.557	20320.65
788.89	20392.29
789.223	20357.49
789.556	20301.22
789.888	20260.09
790.221	20143.71
790.554	20048.34
790.887	19992.53
791.219	20059.42
791.552	19946.2
791.884	19877.73
792.217	19974.22
792.549	19891.96
792.882	19691.52
793.214	19760.89
793.546	19836.6
793.879	19659.65
794.211	19626.43
794.543	19625.53
794.875	19591.41
795.207	19603.16
795.539	19575.59
795.871	19496.49
796.203	19394.35
796.535	19380.11
796.867	19273
797.198	19234.35
797.53	19251.75
797.862	19091.08
798.193	19164.07
798.525	19001.59
798.856	18967.92
799.188	18894.25
799.519	18837.98
799.85	18644.31
800.182	18780.35
800.513	18812.44
800.844	18671.66
801.175	18796.4
801.506	18709.17
801.837	18637.08
802.168	18457.65
802.499	18463.3
802.83	18536.07
803.161	18426.46
803.491	18435.96
803.822	18458.33
804.153	18309.63
804.483	18111.44
804.814	18096.08
805.145	18085.91
805.475	18090.43
805.805	18009.98
806.136	18014.05
806.466	18057.21
806.796	18018.34
807.126	17890.43
807.457	17797.33
807.787	17852.69
808.117	17718.91
808.447	17722.53
808.777	17683.21
809.107	17677.33
809.436	17562.98
809.766	17546.49
810.096	17514.17
810.426	17551.01
810.755	17455.87
811.085	17521.18
811.414	17352.37
811.744	17353.5
812.073	17313.5
812.403	17287.06
812.732	17076.22
813.061	17152.15
813.39	17043.45
813.719	17092.94
814.049	17074.41
814.378	17027.86
814.707	16980.63
815.036	16904.47
815.365	16881.42
815.693	16794.19
816.022	16783.12
816.351	16698.15
816.68	16724.36
817.008	16816.34
817.337	16640.75
817.665	16621.99
817.994	16535.67
818.322	16522.11
818.651	16427.65
818.979	16415.9
819.307	16564.59
819.636	16442.56
819.964	16386.07
820.292	16419.74
820.62	16391.26
820.948	16289.57
821.276	16347.88
821.604	16362.56
821.932	16339.06
822.259	16294.54
822.587	16219.52
822.915	16275.33
823.243	16380.64
823.57	16394.2
823.898	16297.48
824.225	16206.18
824.553	16211.38
824.88	16384.26
825.207	16305.84
825.535	16226.07
825.862	16312.17
826.189	16294.54
826.516	16372.28
826.843	16451.38
827.17	16343.81
827.497	16383.35
827.824	16383.81
828.151	16365.28
828.478	16415.67
828.805	16376.12
829.131	16359.85
829.458	16259.74
829.785	16239.63
830.111	16307.2
830.438	16438.04
830.764	16272.62
831.09	16352.85
831.417	16341.1
831.743	16334.09
832.069	16270.14
832.395	16236.01
832.722	16379.74
833.048	16342.23
833.374	16186.98
833.7	16161.44
834.026	16185.62
834.351	16208.67
834.677	16172.29
835.003	16129.8
835.329	16084.15
835.654	16162.34
835.98	16111.95
836.306	16100.2
836.631	16003.03
836.956	16194.21
837.282	16039.86
837.607	16009.58
837.932	15985.4
838.258	15985.85
838.583	15990.14
838.908	15852.52
839.233	15922.12
839.558	15845.06
839.883	15760.32
840.208	15717.16
840.533	15726.65
840.858	15819.53
841.182	15683.71
841.507	15766.2
841.832	15565.52
842.156	15586.09
842.481	15611.4
842.805	15575.92
843.13	15578.4
843.454	15527.33
843.778	15410.72
844.103	15461.57
844.427	15437.84
844.751	15392.19
845.075	15316.04
845.399	15257.51
845.723	15212.99
846.047	15219.77
846.371	15051.64
846.695	15060.23
847.019	14962.15
847.343	14904.52
847.666	14752.89
847.99	14727.58
848.313	14675.6
848.637	14731.42
848.96	14624.53
849.284	14592.89
849.607	14487.81
849.931	14433.8
850.254	14382.28
850.577	14246.24
850.9	14175.5
851.223	14295.27
851.546	14193.81
851.869	13999.91
852.192	14143.19
852.515	13962.4
852.838	13890.31
853.161	13795.17
853.483	13816.64
853.806	13782.52
854.129	13738.23
854.451	13666.14
854.774	13631.56
855.096	13670.43
855.419	13547.72
855.741	13533.26
856.063	13475.18
856.385	13437.67
856.708	13394.28
857.03	13323.77
857.352	13417.33
857.674	13323.55
857.996	13236.32
858.318	13171.24
858.64	13237
858.961	13180.73
859.283	13108.41
859.605	12982.54
859.926	13010.79
860.248	13000.62
860.57	12957
860.891	12943.44
861.212	12850.57
861.534	12787.74
861.855	12804.47
862.176	12888.98
862.498	12760.62
862.819	12851.7
863.14	12741.19
863.461	12713.39
863.782	12679.95
864.103	12663.45
864.424	12658.48
864.745	12701.64
865.065	12554.75
865.386	12527.18
865.707	12570.12
866.027	12464.59
866.348	12544.59
866.668	12494.87
866.989	12472.27
867.309	12316.57
867.63	12430.46
867.95	12447.86
868.27	12352.5
868.59	12397.02
868.91	12347.75
869.23	12280.19
869.55	12228.21
869.87	12254.65
870.19	12234.09
870.51	12238.83
870.83	12272.05
871.15	12030.7
871.469	12101.89
871.789	12147.31
872.109	12159.74
872.428	12051.72
872.748	12128.33
873.067	12106.86
873.386	12034.09
873.706	12058.5
874.025	12018.95
874.344	11962.23
874.663	11966.75
874.982	12030.25
875.301	11933.3
875.62	11858.05
875.939	11771.05
876.258	11881.55
876.577	11801.33
876.896	11811.95
877.214	11742.8
877.533	11795
877.852	11669.81
878.17	11751.84
878.489	11780.76
878.807	11670.48
879.125	11678.39
879.444	11675.91
879.762	11644.72
880.08	11587.32
880.398	11706.19
880.716	11628.23
881.034	11522.01
881.352	11541.67
881.67	11468
881.988	11558.4
882.306	11376.71
882.624	11498.51
882.941	11345.75
883.259	11332.64
883.577	11358.85
883.894	11258.07
884.212	11317.5
884.529	11313.88
884.846	11201.57
885.164	11284.96
885.481	11182.14
885.798	11192.98
886.115	11145.53
886.432	11188.24
886.75	11008.81
887.067	11120.22
887.383	10997.06
887.7	11030.27
888.017	11056.49
888.334	10962.25
888.651	10874.8
888.967	10870.73
889.284	10839.32
889.6	10811.07
889.917	10766.78
890.233	10770.85
890.55	10692.43
890.866	10697.4
891.182	10694.46
891.498	10671.87
891.815	10588.93
892.131	10541.93
892.447	10565.65
892.763	10559.55
893.079	10496.5
893.395	10462.61
893.71	10441.36
894.026	10383.29
894.342	10390.07
894.657	10257.41
894.973	10335.38
895.289	10275.72
895.604	10274.36
895.92	10151.88
896.235	10103.07
896.55	10092.67
896.865	10113.91
897.181	9980.81
897.496	10011.09
897.811	9978.1
898.126	9929.06
898.441	9913.92
898.756	9938.55
899.071	9810.87
899.386	9810.19
899.7	9741.04
900.015	9677.54
900.33	9685.9
900.644	9601.16
900.959	9641.84
901.273	9590.76
901.588	9621.27
901.902	9485.23
902.216	9490.2
902.531	9425.8
902.845	9445.46
903.159	9333.37
903.473	9345.57
903.787	9317.1
904.101	9238.23
904.415	9258.12
904.729	9181.74
905.042	9108.52
905.356	9110.55
905.67	9071
905.984	9074.62
906.297	9053.83
906.611	8961.85
906.924	8969.09
907.237	8913.04
907.551	8967.5
907.864	8904
908.177	8855.42
908.491	8809.77
908.804	8684.12
909.117	8676.44
909.43	8675.99
909.743	8588.53
910.056	8636.89
910.368	8561.19
910.681	8501.75
910.994	8587.4
911.307	8521.41
911.619	8450.91
911.932	8400.06
912.244	8406.62
912.557	8357.12
912.869	8310.12
913.181	8276
913.494	8257.01
913.806	8130.46
914.118	8157.58
914.43	8123.23
914.742	8140.18
915.054	8096.11
915.366	8085.04
915.678	7953.75
915.99	7959.4
916.302	7944.93
916.613	7878.27
916.925	7892.73
917.236	7823.35
917.548	7763.69
917.859	7798.27
918.171	7769.12
918.482	7653.19
918.794	7690.7
919.105	7665.17
919.416	7603.92
919.727	7614.55
920.038	7633.53
920.349	7518.5
920.66	7462.91
920.971	7429.69
921.282	7426.98
921.593	7435.34
921.903	7371.39
922.214	7335
922.525	7257.27
922.835	7204.84
923.146	7191.51
923.456	7203.26
923.767	7189.02
924.077	7200.55
924.387	7149.25
924.697	7054.56
925.008	7035.13
925.318	7005.52
925.628	7000.32
925.938	6951.96
926.248	6893.66
926.558	6884.85
926.867	6862.02
927.177	6849.82
927.487	6818.41
927.796	6814.57
928.106	6750.16
928.416	6721.01
928.725	6693.44
929.034	6639.88
929.344	6653.67
929.653	6645.31
929.962	6624.06
930.271	6549.94
930.581	6551.97
930.89	6520.34
931.199	6481.69
931.508	6461.81
931.817	6435.37
932.125	6437.63
932.434	6355.37
932.743	6370.28
933.051	6254.36
933.36	6281.93
933.669	6236.05
933.977	6224.3
934.286	6183.17
934.594	6175.49
934.902	6177.07
935.21	6131.42
935.519	6110.86
935.827	6095.49
936.135	6057.52
936.443	6064.98
936.751	5981.59
937.059	6022.5
937.367	5966
937.674	5954.25
937.982	5938.66
938.29	5829.51
938.597	5878.55
938.905	5815.95
939.213	5806.01
939.52	5732.11
939.827	5801.03
940.135	5766.23
940.442	5669.74
940.749	5689.85
941.056	5697.99
941.363	5664.31
941.67	5575.96
941.977	5575.96
942.284	5554.03
942.591	5511.32
942.898	5499.57
943.205	5531.66
943.511	5484.43
943.818	5450.76
944.125	5426.58
944.431	5427.71
944.738	5436.3
945.044	5356.07
945.35	5344.1
945.657	5280.82
945.963	5272.01
946.269	5272.91
946.575	5276.98
946.881	5226.81
947.187	5214.16
947.493	5169.86
947.799	5154.95
948.105	5132.8
948.41	5105.23
948.716	5147.27
949.022	5046.48
949.327	5037.44
949.633	5033.82
949.938	5027.72
950.244	4996.08
950.549	4961.51
950.854	4919.7
951.16	4914.28
951.465	4894.62
951.77	4915.41
952.075	4851.23
952.38	4842.19
952.685	4764.45
952.99	4781.4
953.294	4780.5
953.599	4739.59
953.904	4718.8
954.209	4679.03
954.513	4686.26
954.818	4635.19
955.122	4641.97
955.426	4585.47
955.731	4588.64
956.035	4576.89
956.339	4573.27
956.643	4586.6
956.948	4480.84
957.252	4491.92
957.556	4500.05
957.86	4483.33
958.163	4475.19
958.467	4463.22
958.771	4427.96
959.075	4397
959.378	4343.67
959.682	4336.21
959.985	4328.53
960.289	4274.52
960.592	4300.96
960.896	4305.48
961.199	4263.22
961.502	4255.54
961.805	4237.91
962.108	4217.57
962.411	4194.52
962.714	4157.91
963.017	4176.44
963.32	4158.14
963.623	4131.93
963.926	4084.24
964.228	4060.06
964.531	4076.79
964.833	4054.87
965.136	4005.37
965.438	4028.43
965.741	3985.26
966.043	3955.66
966.345	3919.28
966.648	3958.82
966.95	3926.96
967.252	3886.28
967.554	3883.57
967.856	3908.43
968.158	3858.94
968.46	3845.83
968.761	3784.14
969.063	3806.74
969.365	3733.52
969.666	3738.04
969.968	3731.94
970.269	3726.06
970.571	3739.39
970.872	3716.79
971.174	3658.04
971.475	3622.79
971.776	3687.87
972.077	3593.86
972.378	3638.6
972.679	3596.57
972.98	3562
973.281	3600.41
973.582	3554.31
973.883	3548.66
974.183	3520.42
974.484	3480.87
974.785	3485.16
975.085	3487.87
975.386	3484.03
975.686	3479.29
975.986	3460.3
976.287	3442.45
976.587	3376.69
976.887	3382.57
977.187	3415.79
977.487	3351.38
977.787	3341.44
978.087	3323.58
978.387	3337.14
978.687	3282
978.987	3281.55
979.286	3264.38
979.586	3246.52
979.885	3210.82
980.185	3226.19
980.484	3199.07
980.784	3190.26
981.083	3146.19
981.382	3155.68
981.682	3167.66
981.981	3122.01
982.28	3107.55
982.579	3104.38
982.878	3148.22
983.177	3100.77
983.475	3061.9
983.774	3050.15
984.073	3002.24
984.372	3018.96
984.67	3020.77
984.969	3024.16
985.267	3000.66
985.566	2971.05
985.864	2967.44
986.162	2980.77
986.461	2904.39
986.759	2905.74
987.057	2906.42
987.355	2863.26
987.653	2853.54
987.951	2895.57
988.249	2831.85
988.547	2864.16
988.844	2812.64
989.142	2838.63
989.44	2778.97
989.737	2798.4
990.035	2808.8
990.332	2774.45
990.63	2731.06
990.927	2719.76
991.224	2685.41
991.521	2698.29
991.819	2715.92
992.116	2676.82
992.413	2662.59
992.71	2632.98
993.006	2647.67
993.303	2635.47
993.6	2597.05
993.897	2584.62
994.193	2594.79
994.49	2582.36
994.787	2576.26
995.083	2562.7
995.379	2553.21
995.676	2520.89
995.972	2501.23
996.268	2487.22
996.565	2499.2
996.861	2490.61
997.157	2484.28
997.453	2461.23
997.749	2439.09
998.044	2421.24
998.34	2423.95
998.636	2405.64
998.932	2417.39
999.227	2382.82
999.523	2359.32
999.818	2357.73
1000.114	2322.26
1000.409	2324.97
1000.704	2317.51
1001	2313.67
1001.295	2274.8
1001.59	2287.23
1001.885	2282.93
1002.18	2255.36
1002.475	2237.06
1002.77	2231.64
1003.065	2215.37
1003.359	2228.25
1003.654	2196.61
1003.949	2167.46
1004.243	2167.91
1004.538	2156.84
1004.832	2167.23
1005.127	2140.79
1005.421	2099.44
1005.715	2107.8
1006.009	2126.1
1006.304	2078.87
1006.598	2094.69
1006.892	2044.52
1007.186	2042.71
1007.48	2046.78
1007.773	2036.84
1008.067	2027.8
1008.361	1980.8
1008.655	2012.88
1008.948	1979.89
1009.242	1979.21
1009.535	1971.98
1009.829	1972.89
1010.122	1914.13
1010.415	1931.08
1010.708	1899.22
1011.001	1895.83
1011.295	1882.04
1011.588	1871.42
1011.881	1885.43
1012.173	1832.32
1012.466	1827.35
1012.759	1822.83
1013.052	1825.77
1013.344	1797.98
1013.637	1837.97
1013.93	1788.71
1014.222	1760.69
1014.514	1770.18
1014.807	1733.57
1015.099	1763.85
1015.391	1744.42
1015.683	1734.25
1015.976	1722.5
1016.268	1677.75
1016.56	1710.97
1016.851	1712.55
1017.143	1667.58
1017.435	1677.75
1017.727	1657.87
1018.018	1680.01
1018.31	1636.4
1018.602	1640.47
1018.893	1624.42
1019.185	1635.27
1019.476	1611.77
1019.767	1567.7
1020.058	1581.03
1020.35	1557.76
1020.641	1563.86
1020.932	1546.91
1021.223	1523.86
1021.514	1514.82
1021.804	1516.63
1022.095	1504.2
1022.386	1518.21
1022.677	1457.19
1022.967	1495.16
1023.258	1447.48
1023.548	1445.44
1023.839	1445.44
1024.129	1434.82
1024.419	1420.58
1024.709	1443.63
1025	1389.85
1025.29	1385.56
1025.58	1377.65
1025.87	1384.43
1026.16	1365.44
1026.449	1342.17
1026.739	1362.28
1027.029	1335.61
1027.319	1319.34
1027.608	1317.76
1027.898	1327.48
1028.187	1307.37
1028.477	1287.25
1028.766	1305.78
1029.055	1279.12
1029.344	1259.91
1029.634	1247.48
1029.923	1229.18
1030.212	1252.68
1030.501	1208.84
1030.79	1242.74
1031.078	1186.69
1031.367	1219.91
1031.656	1198.67
1031.945	1226.92
1032.233	1193.47
1032.522	1205.9
1032.81	1177.43
1033.099	1171.33
1033.387	1166.35
1033.675	1157.99
1033.963	1139.91
1034.251	1128.39
1034.54	1140.82
1034.828	1127.71
1035.116	1112.12
1035.403	1111.89
1035.691	1082.51
1035.979	1099.46
1036.267	1082.06
1036.554	1096.75
1036.842	1077.09
1037.129	1049.29
1037.417	1048.84
1037.704	1056.75
1037.992	1036.41
1038.279	1037.54
1038.566	1015.62
1038.853	1015.62
1039.14	1015.62
