Data from hue_34_FLMS001491_00057.txt Node
Date: Tue Feb 07 17:25:50 GMT 2017
User: dcchb
Spectrometer: FLMS00149
Trigger mode: 0
Integration Time (sec): 2.000000E-2
Scans to average: 10
Electric dark correction enabled: true
Nonlinearity correction enabled: false
Boxcar width: 0
XAxis mode: Wavelengths
Number of Pixels in Spectrum: 2048
>>>>>Begin Spectral Data<<<<<
341.393	-22.13
341.776	-22.13
342.16	-22.13
342.543	-48.12
342.927	-66.42
343.31	-81.34
343.693	-75.92
344.077	-40.44
344.46	-46.54
344.843	-57.84
345.226	-52.64
345.61	-39.76
345.993	-6.77
346.376	-6.99
346.759	1.14
347.142	33.01
347.525	42.05
347.908	53.12
348.291	74.14
348.674	98.09
349.057	106.68
349.44	121.82
349.823	141.93
350.206	152.33
350.588	189.61
350.971	204.08
351.354	222.83
351.737	233.23
352.119	237.52
352.502	270.97
352.884	271.65
353.267	293.34
353.65	286.11
354.032	300.12
354.414	337.18
354.797	310.97
355.179	317.97
355.562	316.39
355.944	317.07
356.326	325.43
356.709	340.8
357.091	351.64
357.473	362.72
357.855	345.09
358.238	342.6
358.62	332.21
359.002	348.48
359.384	342.38
359.766	336.73
360.148	340.57
360.53	327.24
360.912	346.45
361.294	329.5
361.676	347.35
362.057	331.08
362.439	338.08
362.821	315.94
363.203	323.17
363.584	320.68
363.966	332.21
364.348	342.38
364.729	310.29
365.111	331.3
365.493	336.95
365.874	314.36
366.256	327.01
366.637	314.58
367.019	313.9
367.4	304.86
367.781	318.42
368.163	314.58
368.544	322.04
368.925	317.07
369.306	309.38
369.688	314.36
370.069	305.32
370.45	312.77
370.831	293.79
371.212	309.84
371.593	310.74
371.974	327.01
372.355	341.25
372.736	306.22
373.117	305.09
373.498	338.99
373.879	308.25
374.26	306.9
374.641	321.14
375.021	329.27
375.402	320.01
375.783	334.02
376.163	318.88
376.544	320.23
376.925	305.54
377.305	330.85
377.686	332.89
378.066	320.01
378.447	325.88
378.827	332.89
379.208	337.41
379.588	341.7
379.968	336.05
380.349	343.73
380.729	313.9
381.109	343.06
381.489	335.6
381.87	324.53
382.25	327.92
382.63	342.15
383.01	343.28
383.39	338.76
383.77	343.06
384.15	346.9
384.53	329.95
384.91	325.66
385.29	341.25
385.67	352.77
386.049	338.54
386.429	339.89
386.809	339.44
387.189	353.9
387.568	354.58
387.948	349.38
388.328	336.73
388.707	365.2
389.087	359.55
389.466	358.2
389.846	366.56
390.225	351.87
390.605	383.96
390.984	361.36
391.363	356.84
391.743	356.16
392.122	363.39
392.501	362.04
392.881	391.64
393.26	376.73
393.639	371.76
394.018	369.04
394.397	364.07
394.776	405.43
395.155	365.43
395.534	384.18
395.913	346.9
396.292	389.61
396.671	384.64
397.05	388.48
397.429	377.18
397.808	374.47
398.186	388.7
398.565	381.02
398.944	371.53
399.323	403.85
399.701	390.06
400.08	401.13
400.458	393
400.837	373.11
401.215	406.11
401.594	402.94
401.972	408.36
402.351	412.66
402.729	419.44
403.107	411.08
403.486	418.53
403.864	399.33
404.242	402.94
404.62	400.68
404.999	404.07
405.377	394.13
405.755	408.36
406.133	417.4
406.511	403.85
406.889	409.27
407.267	426.9
407.645	435.03
408.023	425.31
408.401	435.48
408.779	452.43
409.156	455.82
409.534	447.91
409.912	461.92
410.29	433.9
410.667	464.41
411.045	455.37
411.422	451.98
411.8	455.6
412.178	469.83
412.555	482.71
412.933	472.09
413.31	469.38
413.687	469.38
414.065	488.59
414.442	481.13
414.819	484.3
415.197	491.75
415.574	495.82
415.951	499.89
416.328	502.37
416.705	489.04
417.082	501.02
417.46	491.98
417.837	518.64
418.214	504.86
418.591	510.51
418.967	513.67
419.344	504.18
419.721	517.97
420.098	510.06
420.475	490.4
420.852	524.29
421.228	527.23
421.605	532.43
421.982	535.37
422.358	523.62
422.735	538.76
423.111	543.28
423.488	545.99
423.864	544.86
424.241	544.41
424.617	543.5
424.994	553.22
425.37	567
425.746	568.59
426.123	570.17
426.499	572.88
426.875	595.7
427.251	574.46
427.627	565.65
428.003	564.75
428.379	586.67
428.756	575.59
429.132	599.32
429.507	619.21
429.883	587.12
430.259	623.95
430.635	620.11
431.011	645.42
431.387	641.58
431.763	629.83
432.138	637.51
432.514	647.45
432.89	647
433.265	642.48
433.641	656.72
434.016	643.39
434.392	644.74
434.767	682.48
435.143	664.86
435.518	693.1
435.894	694.23
436.269	697.62
436.644	710.96
437.02	712.76
437.395	717.96
437.77	719.54
438.145	717.06
438.52	701.69
438.895	734.46
439.271	728.13
439.646	761.12
440.021	767.23
440.395	745.08
440.77	745.31
441.145	746.66
441.52	757.96
441.895	761.8
442.27	752.08
442.645	785.53
443.019	785.53
443.394	763.16
443.769	785.53
444.143	790.05
444.518	790.73
444.892	801.12
445.267	819.88
445.641	780.56
446.016	812.2
446.39	793.89
446.764	800.9
447.139	818.98
447.513	823.27
447.887	852.2
448.262	834.12
448.636	833.21
449.01	811.29
449.384	872.99
449.758	844.96
450.132	868.92
450.506	865.53
450.88	867.34
451.254	862.59
451.628	877.96
452.002	850.61
452.376	880.44
452.75	904.4
453.123	904.17
453.497	911.18
453.871	904.62
454.244	934
454.618	970.61
454.992	951.4
455.365	940.55
455.739	966.32
456.112	1001.34
456.486	987.78
456.859	979.88
457.232	987.78
457.606	1011.96
457.979	1013.77
458.352	1049.25
458.725	1062.36
459.099	1042.47
459.472	1066.65
459.845	1087.22
460.218	1094.67
460.591	1086.31
460.964	1089.48
461.337	1091.74
461.71	1097.84
462.083	1144.16
462.456	1152.98
462.829	1158.63
463.201	1181.68
463.574	1203.82
463.947	1208.34
464.32	1220.55
464.692	1242.69
465.065	1241.56
465.438	1273.2
465.81	1285.18
466.183	1297.16
466.555	1312.07
466.928	1309.13
467.3	1347.1
467.672	1319.98
468.045	1380.77
468.417	1395.46
468.789	1389.13
469.161	1446.76
469.534	1467.32
469.906	1465.06
470.278	1508.22
470.65	1542.8
471.022	1531.95
471.394	1558.39
471.766	1598.39
472.138	1592.29
472.51	1628.9
472.882	1656.92
473.253	1694.66
473.625	1732.62
473.997	1778.5
474.369	1794.32
474.74	1805.16
475.112	1842.23
475.484	1866.86
475.855	1904.82
476.227	1969.91
476.598	1999.96
476.97	2032.05
477.341	2092.16
477.713	2152.73
478.084	2143.23
478.455	2297.35
478.827	2276.56
479.198	2353.85
479.569	2376.9
479.94	2461.42
480.311	2507.29
480.682	2605.6
481.053	2604.01
481.424	2706.61
481.795	2752.71
482.166	2808.98
482.537	2859.83
482.908	2958.81
483.279	3016.88
483.65	3119.25
484.021	3168.97
484.391	3242.64
484.762	3327.16
485.133	3390.89
485.503	3394.05
485.874	3531.22
486.244	3571.45
486.615	3692.12
486.985	3765.34
487.356	3847.6
487.726	3935.28
488.097	4032
488.467	4111.32
488.837	4212.78
489.207	4314.7
489.578	4399.9
489.948	4463.4
490.318	4541.59
490.688	4584.3
491.058	4727.12
491.428	4766.44
491.798	4865.87
492.168	5034.46
492.538	5064.51
492.908	5160.1
493.278	5322.81
493.648	5313.77
494.017	5432.41
494.387	5505.18
494.757	5626.76
495.126	5651.39
495.496	5741.33
495.866	5812.74
496.235	5932.97
496.605	5987.43
496.974	6060.87
497.344	6107.65
497.713	6182.22
498.082	6248.66
498.452	6395.78
498.821	6450.92
499.19	6451.6
499.559	6541.99
499.928	6671.93
500.298	6641.2
500.667	6736.33
501.036	6798.03
501.405	6905.6
501.774	6937.91
502.143	7022.43
502.512	7050.45
502.88	7132.71
503.249	7232.59
503.618	7308.52
503.987	7333.38
504.356	7417.22
504.724	7464.45
505.093	7499.93
505.462	7575.63
505.83	7621.51
506.199	7704.44
506.567	7742.41
506.936	7784.89
507.304	7987.15
507.672	7986.47
508.041	8011.55
508.409	8114.38
508.777	8127.71
509.145	8238.44
509.514	8209.97
509.882	8302.62
510.25	8259.01
510.618	8380.13
510.986	8453.13
511.354	8542.16
511.722	8583.29
512.09	8686.79
512.458	8639.56
512.826	8703.97
513.193	8771.53
513.561	8856.96
513.929	8875.04
514.297	8978.08
514.664	8961.59
515.032	9023.28
515.4	9102.37
515.767	9193.9
516.135	9237.06
516.502	9144.41
516.869	9412.87
517.237	9340.79
517.604	9354.12
517.972	9410.39
518.339	9559.76
518.706	9448.58
519.073	9541.46
519.44	9612.64
519.808	9733.77
520.175	9699.65
520.542	9797.04
520.909	9895.8
521.276	9820.55
521.643	9953.2
522.009	10006.3
522.376	10133.53
522.743	10075.46
523.11	10213.08
523.477	10251.95
523.843	10434.54
524.21	10440.87
524.577	10514.09
524.943	10554.54
525.31	10623.69
525.676	10693.07
526.043	10730.81
526.409	10819.39
526.776	10887.86
527.142	10914.53
527.508	10998.14
527.874	11072.72
528.241	11097.58
528.607	11138.25
528.973	11247.85
529.339	11279.04
529.705	11386.61
530.071	11474.74
530.437	11436.78
530.803	11606.71
531.169	11589.09
531.535	11637.67
531.901	11715.64
532.267	11744.79
532.632	11870.44
532.998	11817.33
533.364	12000.38
533.73	11940.94
534.095	12134.38
534.461	12072.47
534.826	12181.84
535.192	12240.37
535.557	12300.93
535.923	12220.26
536.288	12368.05
536.653	12418.67
537.019	12325.34
537.384	12481.72
537.749	12533.24
538.114	12591.32
538.479	12578.21
538.845	12641.04
539.21	12611.66
539.575	12805.78
539.94	12811.43
540.305	12906.57
540.67	12843.07
541.034	12949.73
541.399	12999.22
541.764	13064.08
542.129	13128.03
542.494	13147.92
542.858	13161.25
543.223	13195.37
543.587	13247.35
543.952	13324.86
544.316	13391.07
544.681	13390.17
545.045	13458.87
545.41	13531.64
545.774	13630.62
546.138	13667.68
546.503	13625.19
546.867	13631.52
547.231	13812.08
547.595	13765.75
547.959	13933.66
548.324	13934.34
548.688	13944.28
549.052	13982.92
549.416	14092.3
549.779	14140.21
550.143	14071.73
550.507	14245.06
550.871	14282.58
551.235	14258.17
551.599	14394.21
551.962	14397.38
552.326	14433.53
552.689	14543.81
553.053	14455.45
553.417	14556.02
553.78	14713.75
554.143	14655
554.507	14700.19
554.87	14810.47
555.234	14939.51
555.597	14771.6
555.96	14906.06
556.323	14984.25
556.686	14946.51
557.05	15100.18
557.413	15074.19
557.776	15132.5
558.139	15236
558.502	15268.77
558.865	15228.09
559.228	15435.31
559.59	15393.51
559.953	15430.12
560.316	15594.63
560.679	15566.16
561.041	15719.6
561.404	15779.94
561.767	15832.37
562.129	15737.68
562.492	15955.3
562.854	15976.54
563.217	15928.41
563.579	16024
563.941	16103.77
564.304	16187.16
564.666	16271.68
565.028	16263.77
565.39	16251.79
565.753	16502.41
566.115	16459.47
566.477	16573.36
566.839	16618.56
567.201	16699.69
567.563	16739.46
567.925	16919.34
568.287	16849.97
568.648	16876.86
569.01	17051.54
569.372	17079.34
569.734	17072.11
570.095	17122.73
570.457	17336.06
570.819	17271.88
571.18	17322.95
571.542	17336.06
571.903	17364.3
572.265	17592.55
572.626	17598.65
572.987	17721.58
573.349	17732.88
573.71	17889.49
574.071	17943.5
574.432	18032.31
574.794	18249.93
575.155	18238.4
575.516	18310.72
575.877	18438.63
576.238	18409.7
576.599	18661.67
576.96	18690.37
577.32	18820.54
577.681	18942.79
578.042	19098.5
578.403	19231.15
578.763	19265.95
579.124	19386.62
579.485	19557.92
579.845	19704.13
580.206	19826.16
580.566	19957
580.927	20067.06
581.287	20286.26
581.648	20433.15
582.008	20629.98
582.368	20867.49
582.728	21065.9
583.089	21086.24
583.449	21259.12
583.809	21538.2
584.169	21786.11
584.529	21883.96
584.889	22084.41
585.249	22290.95
585.609	22366.88
585.969	22706.76
586.329	22924.38
586.688	23192.17
587.048	23368.67
587.408	23487.76
587.768	23733.4
588.127	23947.63
588.487	24085.71
588.846	24538.58
589.206	24652.93
589.565	24849.76
589.925	25158.9
590.284	25350.31
590.643	25589.4
591.003	25957.98
591.362	26246.33
591.721	26428.7
592.08	26589.37
592.44	26909.36
592.799	27239.75
593.158	27325.85
593.517	27549.35
593.876	27924.25
594.235	28067.75
594.593	28347.29
594.952	28687.4
595.311	28675.64
595.67	29104.56
596.029	29391.78
596.387	29684.66
596.746	29946.57
597.104	30078.09
597.463	30359.67
597.822	30664.29
598.18	30737.29
598.538	30972.53
598.897	31322.13
599.255	31234.67
599.613	31895.67
599.972	31932.73
600.33	32306.06
600.688	32322.1
601.046	32748.31
601.404	32867.4
601.762	33010.45
602.12	33394.16
602.478	33508.06
602.836	33806.36
603.194	33679.58
603.552	33970.87
603.91	34061.72
604.268	34436.85
604.625	34384.65
604.983	34668.26
605.341	34807.01
605.698	35114.57
606.056	35444.73
606.413	35538.06
606.771	35824.38
607.128	35910.26
607.485	35803.59
607.843	36107.54
608.2	36401.54
608.557	36601.76
608.914	36596.34
609.272	36962.21
609.629	37295.76
609.986	37239.26
610.343	37413.04
610.7	37745.46
611.057	37678.35
611.414	37853.03
611.771	37818.68
612.127	38254.6
612.484	38328.27
612.841	38685.55
613.198	38446.46
613.554	38723.97
613.911	38893.45
614.267	39102.94
614.624	39138.19
614.98	39132.54
615.337	39544.96
615.693	39521.01
616.05	39535.25
616.406	39794.67
616.762	39712.64
617.118	39947.66
617.475	39940.88
617.831	40118.06
618.187	40218.84
618.543	40367.77
618.899	40674.42
619.255	40477.37
619.611	40624.93
619.967	40776.34
620.323	40854.76
620.678	40792.61
621.034	40862.89
621.39	40951.03
621.746	40968.88
622.101	41405.71
622.457	41231.25
622.812	41434.4
623.168	41430.34
623.523	41581.75
623.879	41842.53
624.234	41534.97
624.589	41748.52
624.945	41633.04
625.3	42019.47
625.655	41851.12
626.01	41827.16
626.365	41982.87
626.72	42003.88
627.075	41927.5
627.43	42035.07
627.785	41921.85
628.14	42118.68
628.495	42244.33
628.85	42141.5
629.205	42127.27
629.559	42261.5
629.914	42222.18
630.269	42315.29
630.623	42125.91
630.978	42057.44
631.332	42264.89
631.687	42496.98
632.041	42271.22
632.396	42406.13
632.75	42144.67
633.104	42403.87
633.459	42347.38
633.813	42396.41
634.167	42311.67
634.521	42196.42
634.875	42328.39
635.229	42251.78
635.583	42084.56
635.937	42115.52
636.291	42104.67
636.645	42117.32
636.999	42146.25
637.352	42281.84
637.706	41948.52
638.06	42195.06
638.413	42155.29
638.767	41951.68
639.121	42176.31
639.474	41915.3
639.828	42021.06
640.181	41951.68
640.534	41985.58
640.888	41882.98
641.241	41665.81
641.594	41855.18
641.947	42023.32
642.301	41913.04
642.654	41942.64
643.007	41892.92
643.36	41775.41
643.713	41684.34
644.066	42028.51
644.419	41676.43
644.771	41466.95
645.124	41141.98
645.477	41066.73
645.83	40834.65
646.182	40825.61
646.535	40614.54
646.888	40628.32
647.24	40436.47
647.593	40724.14
647.945	40601.43
648.298	40369.8
648.65	40446.18
649.002	40267.66
649.355	40551.49
649.707	40461.55
650.059	40619.06
650.411	41113.74
650.763	41053.62
651.115	41412.94
651.467	41366.84
651.819	41384.24
652.171	41196.22
652.523	41269.44
652.875	41239.83
653.227	40991.93
653.578	41384.24
653.93	41261.3
654.282	41106.05
654.633	40955.55
654.985	40984.25
655.337	41071.7
655.688	41247.52
656.039	41333.84
656.391	40882.55
656.742	41047.3
657.094	41092.72
657.445	41142.89
657.796	40996.68
658.147	41042.1
658.498	41078.26
658.849	40876.45
659.2	40900.18
659.551	40900.86
659.902	41003
660.253	40971.82
660.604	40987.19
660.955	40658.83
661.306	40833.29
661.656	40681.66
662.007	40803.69
662.358	40698.38
662.708	40798.49
663.059	40730.24
663.409	40625.84
663.76	40768.43
664.11	40864.25
664.461	40935.89
664.811	40802.78
665.161	40661.09
665.511	40667.87
665.862	40720.3
666.212	40862.22
666.562	40887.07
666.912	40709.45
667.262	40567.31
667.612	40655.67
667.962	40749
668.312	40684.59
668.662	40841.2
669.011	40713.29
669.361	40717.59
669.711	40634.2
670.06	40673.52
670.41	40502.23
670.76	40556.91
671.109	40809.11
671.459	40603.01
671.808	40571.83
672.157	40664.71
672.507	40385.39
672.856	40419.52
673.205	40534.54
673.554	40640.08
673.904	40352.4
674.253	40670.58
674.602	40385.84
674.951	39968.45
675.3	39790.15
675.649	40340.87
675.998	40374.32
676.346	40425.84
676.695	40488.89
677.044	40254.77
677.393	40378.61
677.741	40337.48
678.09	40297.49
678.438	40168.45
678.787	40217.26
679.135	40243.02
679.484	39918.96
679.832	40102.24
680.181	39907.89
680.529	39934.78
680.877	39849.81
681.225	39875.35
681.573	40060.66
681.922	39812.3
682.27	39684.62
682.618	39678.29
682.966	39603.04
683.314	39676.03
683.661	39584.06
684.009	39245.31
684.357	39362.37
684.705	39309.04
685.053	39284.63
685.4	39310.62
685.748	39043.28
686.095	39127.12
686.443	38961.25
686.79	39041.93
687.138	39062.94
687.485	38956.5
687.832	38815.49
688.18	38858.2
688.527	38616.17
688.874	38581.6
689.221	38572.33
689.568	38569.4
689.915	38467.7
690.262	38403.07
690.609	38262.96
690.956	38128.73
691.303	38029.97
691.65	37934.61
691.997	37951.56
692.344	37663.43
692.69	37735.07
693.037	37678.8
693.383	37375.75
693.73	37439.26
694.077	37316.55
694.423	37225.25
694.769	37158.36
695.116	37120.17
695.462	37175.08
695.808	36983
696.155	37101.41
696.501	36719.27
696.847	36719.73
697.193	36558.83
697.539	36590.69
697.885	36432.28
698.231	36339.85
698.577	36277.93
698.923	36300.3
699.269	36040.87
699.614	35950.71
699.96	35943.48
700.306	35922.01
700.651	35781.45
700.997	35684.73
701.342	35520.66
701.688	35477.27
702.033	35476.14
702.379	35384.62
702.724	35308.69
703.069	35335.13
703.415	34927.01
703.76	34952.54
704.105	34964.29
704.45	34841.81
704.795	34639.78
705.14	34658.31
705.485	34577.18
705.83	34440.01
706.175	34504.87
706.52	34433.91
706.865	34383.06
707.209	34235.95
707.554	34139
707.899	34159.57
708.243	34008.39
708.588	33920.25
708.932	33819.69
709.277	33639.36
709.621	33788.28
709.966	33512.35
710.31	33620.37
710.654	33290.44
710.998	33398.23
711.342	33355.52
711.687	33284.34
712.031	33098.58
712.375	32936.55
712.719	32941.52
713.063	32995.08
713.407	33060.39
713.75	32890.22
714.094	32768.42
714.438	32675.31
714.782	32685.26
715.125	32636.67
715.469	32708.98
715.812	32490.69
716.156	32277.58
716.499	32394.64
716.843	32330.24
717.186	32166.85
717.53	32332.27
717.873	32262.22
718.216	32167.53
718.559	32019.74
718.902	31763.7
719.246	31985.39
719.589	31890.7
719.932	31775.9
720.275	31780.2
720.617	31637.15
720.96	31551.73
721.303	31586.3
721.646	31457.49
721.989	31333.43
722.331	31487.77
722.674	31354.44
723.016	31493.2
723.359	31325.07
723.701	31345.4
724.044	31182.25
724.386	31004.85
724.729	31083.04
725.071	31083.94
725.413	31033.1
725.755	31043.04
726.097	30946.77
726.439	30765.31
726.782	30741.8
727.124	31001.01
727.465	30780.22
727.807	30683.05
728.149	30619.32
728.491	30538.87
728.833	30686.21
729.175	30435.15
729.516	30391.98
729.858	30396.95
730.199	30391.53
730.541	30363.74
730.882	30243.74
731.224	30246
731.565	30175.04
731.906	30236.73
732.248	30198.77
732.589	30041.94
732.93	29796.52
733.271	29848.95
733.612	29795.16
733.953	29914.93
734.294	29770.76
734.635	29610.08
734.976	29871.77
735.317	29641.72
735.658	29652.79
735.999	29528.28
736.339	29462.29
736.68	29580.48
737.021	29535.51
737.361	29378.22
737.702	29492.35
738.042	29499.13
738.383	29406.7
738.723	29372.8
739.063	29248.28
739.404	29386.13
739.744	29129.87
740.084	29010.55
740.424	29135.52
740.764	29117.44
741.104	29147.72
741.444	29096.2
741.784	28875.64
742.124	28959.48
742.464	28793.16
742.804	28757
743.143	28889.42
743.483	28766.26
743.823	28674.51
744.162	28594.97
744.502	28681.29
744.841	28499.15
745.181	28718.81
745.52	28559.49
745.86	28514.07
746.199	28508.42
746.538	28484.69
746.877	28448.76
747.216	28402.21
747.556	28328.76
747.895	28282.43
748.234	28141.42
748.573	28185.71
748.911	28100.07
749.25	28104.59
749.589	28083.57
749.928	27981.88
750.267	28056
750.605	27868.21
750.944	27961.09
751.283	27676.8
751.621	27817.81
751.96	27762.45
752.298	27692.39
752.636	27672.51
752.975	27507.77
753.313	27384.6
753.651	27519.97
753.989	27279.52
754.327	27345.96
754.666	27150.94
755.004	27155.91
755.342	27223.25
755.679	27288.34
756.017	26998.4
756.355	27102.35
756.693	26965.86
757.031	27008.57
757.368	26802.25
757.706	26817.16
758.044	26649.93
758.381	26716.6
758.719	26578.75
759.056	26559.54
759.394	26498.53
759.731	26273
760.068	26308.25
760.405	26194.81
760.743	26143.06
761.08	26250.85
761.417	26036.39
761.754	25992.33
762.091	25990.07
762.428	25811.99
762.765	25666.91
763.102	25788.26
763.438	25616.74
763.775	25465.79
764.112	25574.26
764.449	25615.39
764.785	25320.48
765.122	25211.1
765.458	25101.05
765.795	25037.32
766.131	24951.45
766.467	25029.86
766.804	24906.7
767.14	24892.69
767.476	24815.18
767.812	24628.52
768.148	24536.54
768.485	24525.02
768.821	24445.25
769.157	24407.73
769.492	24246.16
769.828	24288.87
770.164	24110.57
770.5	23995.09
770.836	23974.52
771.171	23842.55
771.507	23673.74
771.842	23518.94
772.178	23591.03
772.513	23563.91
772.849	23474.65
773.184	23333.41
773.519	23397.14
773.855	23317.14
774.19	23114.89
774.525	23032.18
774.86	23110.37
775.195	23003.93
775.53	22892.07
775.865	22743.82
776.2	22679.42
776.535	22476.26
776.87	22389.93
777.205	22355.13
777.539	22305.19
777.874	22418.63
778.209	22072.88
778.543	22080.79
778.878	21869.27
779.212	22050.06
779.547	21910.62
779.881	21915.37
780.215	21684.87
780.55	21632.89
780.884	21573.23
781.218	21607.81
781.552	21507.02
781.886	21324.88
782.22	21382.28
782.554	21058.67
782.888	20998.78
783.222	20914.27
783.556	20815.74
783.889	20759.24
784.223	20718.57
784.557	20674.5
784.89	20737.77
785.224	20511.34
785.557	20412.81
785.891	20330.1
786.224	20314.28
786.558	20291.68
786.891	20113.16
787.224	19985.03
787.557	20001.3
787.891	19885.82
788.224	19941.64
788.557	19890.79
788.89	19758.82
789.223	19794.07
789.556	19656.9
789.888	19555.21
790.221	19475.89
790.554	19344.36
790.887	19447.41
791.219	19222.11
791.552	19319.73
791.884	19130.58
792.217	19009.01
792.549	19086.29
792.882	18843.36
793.214	18747.54
793.546	18865.05
793.879	18675.68
794.211	18564.5
794.543	18601.33
794.875	18602.69
795.207	18591.16
795.539	18504.84
795.871	18482.92
796.203	18311.4
796.535	18241.12
796.867	18204.51
797.198	18179.65
797.53	18105.75
797.862	18066.21
798.193	18070.27
798.525	17932.42
798.856	17899.43
799.188	17758.19
799.519	17669.83
799.85	17506.67
800.182	17652.21
800.513	17579.44
800.844	17438.43
801.175	17525.88
801.506	17465.77
801.837	17379.67
802.168	17412.21
802.499	17317.52
802.83	17229.62
803.161	17140.35
803.491	17112.78
803.822	17146.46
804.153	17016.06
804.483	16948.04
804.814	16899.68
805.145	16726.35
805.475	16699.24
805.805	16725.68
806.136	16730.42
806.466	16817.88
806.796	16670.76
807.126	16507.6
807.457	16529.97
807.787	16427.15
808.117	16400.94
808.447	16357.32
808.777	16358.68
809.107	16316.87
809.436	16199.14
809.766	16194.39
810.096	16129.76
810.426	16127.27
810.755	16085.01
811.085	16071
811.414	16038.01
811.744	15876.43
812.073	15928.63
812.403	15900.16
812.732	15749.43
813.061	15722.09
813.39	15700.84
813.719	15661.3
814.049	15733.61
814.378	15701.75
814.707	15590.11
815.036	15569.32
815.365	15559.83
815.693	15364.13
816.022	15408.2
816.351	15345.6
816.68	15191.03
817.008	15375.66
817.337	15180.18
817.665	15129.11
817.994	15185.6
818.322	15100.63
818.651	15022.67
818.979	14978.38
819.307	14991.71
819.636	14933.41
819.964	14852.05
820.292	14913.52
820.62	14929.34
820.948	14884.14
821.276	14952.62
821.604	14886.85
821.932	14906.51
822.259	14849.57
822.587	14860.19
822.915	14836.69
823.243	14792.62
823.57	14703.81
823.898	14837.59
824.225	14767.54
824.553	14740.42
824.88	14687.99
825.207	14768.67
825.535	14710.14
825.862	14820.64
826.189	14737.93
826.516	14810.02
826.843	14720.76
827.17	14715.33
827.497	14815.44
827.824	14752.17
828.151	14840.75
828.478	14778.61
828.805	14850.25
829.131	14717.14
829.458	14702
829.785	14622.91
830.111	14774.09
830.438	14796.46
830.764	14795.11
831.09	14818.61
831.417	14645.73
831.743	14687.54
832.069	14673.98
832.395	14633.08
832.722	14705.16
833.048	14607.77
833.374	14760.3
833.7	14595.79
834.026	14572.29
834.351	14602.57
834.677	14591.72
835.003	14506.53
835.329	14525.51
835.654	14528.67
835.98	14503.14
836.306	14420.65
836.631	14454.55
836.956	14488.67
837.282	14468.33
837.607	14461.1
837.932	14403.25
838.258	14341.56
838.583	14364.61
838.908	14280.32
839.233	14301.11
839.558	14236.93
839.883	14247.78
840.208	14073.09
840.533	14165.29
840.858	14207.55
841.182	14088.91
841.507	14182.24
841.832	14082.81
842.156	13979.99
842.481	14048.23
842.805	13968.23
843.13	13891.4
843.454	13923.26
843.778	13820.67
844.103	13825.64
844.427	13734.12
844.751	13820.44
845.075	13678.3
845.399	13684.85
845.723	13557.4
846.047	13618.64
846.371	13556.49
846.695	13522.14
847.019	13403.96
847.343	13367.57
847.666	13328.25
847.99	13247.12
848.313	13238.54
848.637	13179.55
848.96	13151.31
849.284	13147.24
849.607	12940.46
849.931	12931.43
850.254	12912.67
850.577	12837.87
850.9	12790.41
851.223	12745.22
851.546	12705.89
851.869	12632.22
852.192	12664.99
852.515	12538.89
852.838	12434.94
853.161	12505.45
853.483	12432.23
853.806	12421.38
854.129	12361.27
854.451	12232.01
854.774	12260.03
855.096	12185.91
855.419	12093.03
855.741	12156.98
856.063	11978.91
856.385	12097.78
856.708	11985.24
857.03	11936.65
857.352	11997.89
857.674	11940.49
857.996	11963.99
858.318	11797.9
858.64	11801.74
858.961	11792.7
859.283	11779.82
859.605	11660.5
859.926	11715.19
860.248	11575.75
860.57	11629.09
860.891	11587.05
861.212	11590.22
861.534	11490.33
861.855	11480.84
862.176	11501.18
862.498	11461.18
862.819	11441.07
863.14	11417.12
863.461	11370.79
863.782	11330.34
864.103	11451.24
864.424	11344.35
864.745	11345.25
865.065	11283.56
865.386	11232.49
865.707	11183.45
866.027	11260.28
866.348	11176.67
866.668	11109.55
866.989	11155.65
867.309	11043.11
867.63	11121.76
867.95	11148.42
868.27	11045.15
868.59	11008.54
868.91	11000.4
869.23	11002.66
869.55	10908.88
869.87	10972.38
870.19	10944.36
870.51	10958.82
870.83	10912.72
871.15	10837.02
871.469	10855.1
871.789	10923.12
872.109	10853.51
872.428	10779.62
872.748	10846.73
873.067	10841.99
873.386	10743.46
873.706	10737.58
874.025	10757.47
874.344	10666.17
874.663	10674.08
874.982	10656.01
875.301	10701.88
875.62	10681.09
875.939	10598.83
876.258	10574.65
876.577	10577.14
876.896	10576.91
877.214	10556.12
877.533	10591.6
877.852	10571.04
878.17	10567.19
878.489	10526.97
878.807	10521.77
879.125	10490.81
879.444	10493.75
879.762	10430.47
880.08	10432.96
880.398	10340.99
880.716	10336.24
881.034	10319.74
881.352	10342.79
881.67	10346.18
881.988	10384.15
882.306	10290.37
882.624	10234.55
882.941	10212.4
883.259	10155.45
883.577	10162.91
883.894	10107.09
884.212	10134.44
884.529	10096.02
884.846	10093.31
885.164	10043.37
885.481	10034.55
885.798	9983.03
886.115	9902.58
886.432	9981.9
886.75	9922.47
887.067	9947.78
887.383	9846.08
887.7	9855.8
888.017	9837.72
888.334	9820.77
888.651	9715.46
888.967	9742.81
889.284	9704.17
889.6	9709.59
889.917	9605.19
890.233	9659.2
890.55	9675.01
890.866	9582.59
891.182	9552.98
891.498	9561.8
891.815	9518.63
892.131	9470.73
892.447	9500.78
892.763	9477.28
893.079	9428.69
893.395	9359.99
893.71	9316.83
894.026	9335.36
894.342	9306.21
894.657	9206.78
894.973	9167.91
895.289	9177.17
895.604	9199.55
895.92	9072.77
896.235	9094.92
896.55	9089.04
896.865	9056.27
897.181	8969.04
897.496	9003.39
897.811	8932.21
898.126	8941.7
898.441	8869.16
898.756	8875.94
899.071	8801.14
899.386	8792.1
899.7	8786
900.015	8760.01
900.33	8638.21
900.644	8675.49
900.959	8664.42
901.273	8613.12
901.588	8558.21
901.902	8527.93
902.216	8473.24
902.531	8458.55
902.845	8486.8
903.159	8376.74
903.473	8367.48
903.787	8408.15
904.101	8371.55
904.415	8353.92
904.729	8284.32
905.042	8239.57
905.356	8250.19
905.67	8165.9
905.984	8222.17
906.297	8224.2
906.611	8073.93
906.924	8103.3
907.237	8037.99
907.551	8027.6
907.864	7921.39
908.177	8042.97
908.491	7968.84
908.804	7847.94
909.117	7840.49
909.43	7812.92
909.743	7767.04
910.056	7767.27
910.368	7685.91
910.681	7693.82
910.994	7589.19
911.307	7612.47
911.619	7587.61
911.932	7598.46
912.244	7498.8
912.557	7499.48
912.869	7424.23
913.181	7426.03
913.494	7422.42
913.806	7385.58
914.118	7328.63
914.43	7300.39
914.742	7300.84
915.054	7234.63
915.366	7218.36
915.678	7196.89
915.99	7115.76
916.302	7136.55
916.613	7105.82
916.925	7080.05
917.236	7012.26
917.548	7025.82
917.859	7015.87
918.171	6947.85
918.482	6907.86
918.794	6904.01
919.105	6849.33
919.416	6813.85
919.727	6796.45
920.038	6759.61
920.349	6808.65
920.66	6702.89
920.971	6720.06
921.282	6617.69
921.593	6625.15
921.903	6575.66
922.214	6565.49
922.525	6601.87
922.835	6540.86
923.146	6489.34
923.456	6509.9
923.767	6468.54
924.077	6431.94
924.387	6419.73
924.697	6357.36
925.008	6364.82
925.318	6336.12
925.628	6310.58
925.938	6276.01
926.248	6174.77
926.558	6264.26
926.867	6223.35
927.177	6139.74
927.487	6124.6
927.796	6103.58
928.106	6105.84
928.416	6073.98
928.725	6005.96
929.034	6013.64
929.344	5978.84
929.653	6033.75
929.962	5920.54
930.271	5859.52
930.581	5856.58
930.89	5877.83
931.199	5828.34
931.508	5805.06
931.817	5754.67
932.125	5794.66
932.434	5755.57
932.743	5679.19
933.051	5688.45
933.36	5626.76
933.669	5620.43
933.977	5580.21
934.286	5600.77
934.594	5544.73
934.902	5497.27
935.21	5493.2
935.519	5525.74
935.827	5530.26
936.135	5448.23
936.443	5407.1
936.751	5402.36
937.059	5372.53
937.367	5302.93
937.674	5353.32
937.982	5331.4
938.29	5300.21
938.597	5252.98
938.905	5237.16
939.213	5165.75
939.52	5191.74
939.827	5169.6
940.135	5122.59
940.442	5098.64
940.749	5103.83
941.056	5077.17
941.363	5036.49
941.67	5027.9
941.977	5006.89
942.284	5005.53
942.591	4957.17
942.898	4979.54
943.205	4886.89
943.511	4907
943.818	4915.82
944.125	4847.12
944.431	4850.73
944.738	4798.98
945.044	4773.67
945.35	4779.55
945.657	4749.95
945.963	4746.33
946.269	4691.64
946.575	4665.88
946.881	4633.34
947.187	4658.42
947.493	4611.19
947.799	4615.26
948.105	4615.71
948.41	4552.66
948.716	4565.09
949.022	4556.96
949.327	4501.36
949.633	4502.72
949.938	4479.67
950.244	4475.38
950.549	4441.93
950.854	4398.09
951.16	4388.83
951.465	4391.09
951.77	4381.59
952.075	4319.67
952.38	4350.86
952.685	4289.84
952.99	4312.9
953.294	4242.16
953.599	4276.06
953.904	4252.78
954.209	4239.45
954.513	4188.83
954.818	4162.39
955.122	4149.74
955.426	4117.42
955.731	4155.84
956.035	4092.79
956.339	4059.12
956.643	4058.66
956.948	4078.78
957.252	4032.68
957.556	4043.98
957.86	3957.65
958.163	4021.38
958.467	3976.18
958.771	3916.75
959.075	3952
959.378	3884.21
959.682	3857.99
959.985	3867.26
960.289	3901.61
960.592	3860.7
960.896	3810.99
961.199	3854.83
961.502	3847.14
961.805	3769.18
962.108	3754.49
962.411	3744.32
962.714	3707.04
963.017	3746.36
963.32	3718.33
963.623	3677.21
963.926	3685.57
964.228	3665.23
964.531	3667.71
964.833	3668.62
965.136	3599.92
965.438	3566.25
965.741	3569.86
966.043	3508.85
966.345	3534.84
966.648	3531.9
966.95	3530.99
967.252	3519.47
967.554	3484.89
967.856	3482.63
968.158	3452.13
968.46	3423.88
968.761	3419.59
969.063	3382.75
969.365	3367.84
969.666	3392.47
969.968	3341.62
970.269	3345.01
970.571	3319.47
970.872	3321.73
971.174	3311.11
971.475	3292.36
971.776	3298.23
972.077	3247.61
972.378	3222.3
972.679	3262.53
972.98	3233.15
973.281	3182.76
973.582	3216.2
973.883	3185.02
974.183	3149.76
974.484	3163.77
974.785	3133.04
975.085	3147.95
975.386	3133.72
975.686	3090.78
975.986	3071.57
976.287	3077.45
976.587	3062.08
976.887	3020.73
977.187	3026.15
977.487	3014.62
977.787	3015.53
978.087	2990.22
978.387	2987.96
978.687	2962.87
978.987	2966.26
979.286	2912.03
979.586	2924.23
979.885	2916.32
980.185	2894.63
980.484	2882.88
980.784	2841.52
981.083	2797.23
981.382	2853.27
981.682	2841.07
981.981	2817.79
982.28	2787.51
982.579	2771.01
982.878	2824.57
983.177	2750.9
983.475	2728.76
983.774	2708.42
984.073	2738.93
984.372	2710.68
984.67	2683.11
984.969	2690.11
985.267	2691.24
985.566	2689.21
985.864	2659.38
986.162	2671.81
986.461	2617.12
986.759	2640.17
987.057	2599.49
987.355	2555.65
987.653	2578.25
987.951	2573.73
988.249	2580.74
988.547	2563.34
988.844	2561.08
989.142	2551.36
989.44	2504.36
989.737	2480.4
990.035	2526.28
990.332	2499.84
990.63	2493.28
990.927	2480.4
991.224	2464.58
991.521	2483.11
991.819	2419.39
992.116	2404.7
992.413	2420.29
992.71	2395.43
993.006	2422.78
993.303	2406.96
993.6	2377.8
993.897	2373.29
994.193	2336.22
994.49	2351.14
994.787	2302.55
995.083	2295.1
995.379	2324.92
995.676	2300.07
995.972	2264.14
996.268	2254.19
996.565	2229.33
996.861	2229.11
997.157	2269.56
997.453	2176
997.749	2214.65
998.044	2179.17
998.34	2205.61
998.636	2124.03
998.932	2161.31
999.227	2135.1
999.523	2166.74
999.818	2142.1
1000.114	2130.58
1000.409	2118.6
1000.704	2093.74
1001	2088.09
1001.295	2104.59
1001.59	2071.82
1001.885	2073.63
1002.18	2043.58
1002.475	2047.19
1002.77	2046.29
1003.065	2030.02
1003.359	2022.79
1003.654	2002.22
1003.949	1976.01
1004.243	1968.32
1004.538	1950.7
1004.832	1950.92
1005.127	1968.1
1005.421	1921.09
1005.715	1909.12
1006.009	1919.74
1006.304	1912.51
1006.598	1863.92
1006.892	1893.52
1007.186	1872.06
1007.48	1854.43
1007.773	1833.19
1008.067	1829.34
1008.361	1816.92
1008.655	1811.04
1008.948	1790.93
1009.242	1774.66
1009.535	1767.65
1009.829	1790.7
1010.122	1774.66
1010.415	1775.11
1010.708	1751.61
1011.001	1703.47
1011.295	1708.67
1011.588	1694.66
1011.881	1696.01
1012.173	1685.17
1012.466	1684.94
1012.759	1654.66
1013.052	1660.99
1013.344	1679.07
1013.637	1642.23
1013.93	1618.95
1014.222	1627.32
1014.514	1635
1014.807	1619.41
1015.099	1571.05
1015.391	1623.93
1015.683	1604.72
1015.976	1534.44
1016.268	1549.58
1016.56	1552.52
1016.851	1530.6
1017.143	1525.17
1017.435	1489.01
1017.727	1522.69
1018.018	1497.38
1018.31	1488.11
1018.602	1434.1
1018.893	1473.2
1019.185	1476.36
1019.476	1443.82
1019.767	1429.58
1020.058	1447.43
1020.35	1435.46
1020.641	1396.36
1020.932	1397.04
1021.223	1398.4
1021.514	1362.01
1021.804	1363.37
1022.095	1385.06
1022.386	1346.87
1022.677	1365.18
1022.967	1338.51
1023.258	1310.49
1023.548	1309.36
1023.839	1302.8
1024.129	1310.49
1024.419	1320.43
1024.709	1290.38
1025	1269.13
1025.29	1263.48
1025.58	1273.65
1025.87	1242.69
1026.16	1244.05
1026.449	1253.77
1026.739	1245.41
1027.029	1224.16
1027.319	1242.24
1027.608	1216.25
1027.898	1226.2
1028.187	1186.65
1028.477	1186.2
1028.766	1188.46
1029.055	1182.36
1029.344	1162.02
1029.634	1156.82
1029.923	1136.48
1030.212	1138.06
1030.501	1149.36
1030.79	1106.65
1031.078	1131.51
1031.367	1109.82
1031.656	1104.17
1031.945	1099.19
1032.233	1094.9
1032.522	1081.57
1032.81	1053.55
1033.099	1069.82
1033.387	1062.59
1033.675	1071.4
1033.963	1060.1
1034.251	1070.49
1034.54	1053.55
1034.828	1039.76
1035.116	1036.15
1035.403	1047.9
1035.691	1024.85
1035.979	1022.81
1036.267	985.98
1036.554	982.59
1036.842	997.73
1037.129	998.86
1037.417	957.05
1037.704	975.13
1037.992	981.01
1038.279	934.45
1038.566	943.72
1038.853	943.72
1039.14	943.72
