Data from hue_220_FLMS001491_00094.txt Node
Date: Tue Feb 07 16:40:11 GMT 2017
User: dcchb
Spectrometer: FLMS00149
Trigger mode: 0
Integration Time (sec): 2.000000E-2
Scans to average: 10
Electric dark correction enabled: true
Nonlinearity correction enabled: false
Boxcar width: 0
XAxis mode: Wavelengths
Number of Pixels in Spectrum: 2048
>>>>>Begin Spectral Data<<<<<
341.393	-13.09
341.776	-13.09
342.16	-13.09
342.543	-58.52
342.927	-64.39
343.31	-78.18
343.693	-64.16
344.077	-74.56
344.46	-49.25
344.843	-64.84
345.226	-50.38
345.61	-29.36
345.993	-21.68
346.376	15.83
346.759	5.89
347.142	44.76
347.525	52.89
347.908	44.76
348.291	84.98
348.674	82.27
349.057	101.03
349.44	110.52
349.823	156.17
350.206	175.38
350.588	212.66
350.971	202.72
351.354	221.7
351.737	221.03
352.119	251.08
352.502	259.67
352.884	253.11
353.267	272.32
353.65	294.02
354.032	306.9
354.414	304.41
354.797	300.35
355.179	333.11
355.562	323.62
355.944	313.68
356.326	322.72
356.709	318.65
357.091	325.43
357.473	313.45
357.855	321.59
358.238	340.12
358.62	339.67
359.002	329.95
359.384	334.02
359.766	322.04
360.148	347.35
360.53	334.92
360.912	339.44
361.294	338.54
361.676	329.5
362.057	345.32
362.439	319.55
362.821	327.24
363.203	334.92
363.584	331.3
363.966	327.01
364.348	320.23
364.729	298.31
365.111	337.18
365.493	305.54
365.874	290.85
366.256	313.9
366.637	301.25
367.019	318.65
367.4	333.79
367.781	314.81
368.163	321.36
368.544	340.57
368.925	323.17
369.306	337.86
369.688	286.79
370.069	311.87
370.45	321.81
370.831	315.03
371.212	300.57
371.593	291.98
371.974	314.58
372.355	311.64
372.736	303.06
373.117	297.41
373.498	323.85
373.879	328.82
374.26	324.75
374.641	297.18
375.021	299.89
375.402	331.53
375.783	310.97
376.163	313.23
376.544	300.12
376.925	332.66
377.305	312.55
377.686	326.56
378.066	331.76
378.447	311.87
378.827	327.01
379.208	322.49
379.588	341.25
379.968	324.53
380.349	335.82
380.729	336.95
381.109	331.98
381.489	338.99
381.87	326.79
382.25	332.66
382.63	342.38
383.01	350.29
383.39	333.11
383.77	325.88
384.15	326.56
384.53	343.73
384.91	335.6
385.29	353
385.67	351.42
386.049	358.2
386.429	322.27
386.809	359.55
387.189	352.1
387.568	332.43
387.948	356.61
388.328	355.03
388.707	362.72
389.087	363.62
389.466	341.02
389.846	375.6
390.225	366.78
390.605	352.77
390.984	372.66
391.363	376.05
391.743	339.44
392.122	356.84
392.501	375.82
392.881	378.54
393.26	377.63
393.639	374.02
394.018	367.91
394.397	377.41
394.776	373.34
395.155	382.38
395.534	380.34
395.913	398.87
396.292	385.31
396.671	380.8
397.05	386.9
397.429	405.2
397.808	394.13
398.186	405.65
398.565	407.69
398.944	396.84
399.323	414.24
399.701	397.97
400.08	400.68
400.458	411.3
400.837	422.38
401.215	399.33
401.594	407.24
401.972	444.3
402.351	429.61
402.729	423.73
403.107	421.47
403.486	430.29
403.864	440.91
404.242	433.22
404.62	444.97
404.999	447.46
405.377	439.1
405.755	458.76
406.133	454.47
406.511	468.02
406.889	459.89
407.267	475.48
407.645	485.88
408.023	469.83
408.401	476.61
408.779	460.79
409.156	472.32
409.534	501.24
409.912	498.53
410.29	524.52
410.667	521.58
411.045	531.3
411.422	532.2
411.8	531.75
412.178	549.15
412.555	546.89
412.933	567
413.31	572.88
413.687	581.24
414.065	601.81
414.442	598.19
414.819	615.14
415.197	589.6
415.574	614.01
415.951	617.63
416.328	640.9
416.705	644.74
417.082	652.88
417.46	644.74
417.837	657.85
418.214	659.21
418.591	675.48
418.967	676.15
419.344	687.23
419.721	687.91
420.098	701.24
420.475	721.58
420.852	735.59
421.228	736.72
421.605	755.47
421.982	750.73
422.358	789.15
422.735	804.96
423.111	792.76
423.488	786.89
423.864	811.74
424.241	824.17
424.617	862.59
424.994	841.57
425.37	868.24
425.746	884.28
426.123	893.1
426.499	895.81
426.875	904.85
427.251	924.96
427.627	927
428.003	934.45
428.379	974.23
428.756	950.5
429.132	998.18
429.507	995.02
429.883	1019.2
430.259	1036.6
430.635	1011.96
431.011	1033.89
431.387	1077.05
431.763	1086.99
432.138	1083.38
432.514	1099.87
432.89	1102.13
433.265	1148.46
433.641	1145.97
434.016	1147.1
434.392	1203.6
434.767	1231.17
435.143	1235.91
435.518	1276.14
435.894	1298.06
436.269	1307.32
436.644	1308
437.02	1333.76
437.395	1353.2
437.77	1356.36
438.145	1406.53
438.52	1430.94
438.895	1442.46
439.271	1470.03
439.646	1486.3
440.021	1516.81
440.395	1538.28
440.77	1513.87
441.145	1545.96
441.52	1604.94
441.895	1565.62
442.27	1591.61
442.645	1608.56
443.019	1628.67
443.394	1613.31
443.769	1656.69
444.143	1646.98
444.518	1704.38
444.892	1677.03
445.267	1701.66
445.641	1742.57
446.016	1758.16
446.39	1754.09
446.764	1773.98
447.139	1774.2
447.513	1829.8
447.887	1800.87
448.262	1789.12
448.636	1817.37
449.01	1850.36
449.384	1850.59
449.758	1849.23
450.132	1902.11
450.506	1908.21
450.88	1938.04
451.254	1894.88
451.628	1930.81
452.002	1951.83
452.376	1953.64
452.75	2011.94
453.123	1989.57
453.497	2036.12
453.871	2076.57
454.244	2084.25
454.618	2127.87
454.992	2119.51
455.365	2089.68
455.739	2218.03
456.112	2207.64
456.486	2195.21
456.859	2247.41
457.232	2237.02
457.606	2231.37
457.979	2296.68
458.352	2321.99
458.725	2358.14
459.099	2366.73
459.472	2406.73
459.845	2446.05
460.218	2416.45
460.591	2508.42
460.964	2467.97
461.337	2529.44
461.71	2540.29
462.083	2574.41
462.456	2618.02
462.829	2636.78
463.201	2662.54
463.574	2677.91
463.947	2665.48
464.32	2753.39
464.692	2764.46
465.065	2768.3
465.438	2794.97
465.81	2831.58
466.183	2865.48
466.555	2912.03
466.928	2948.86
467.3	2957.22
467.672	3008.97
468.045	3033.38
468.417	3053.04
468.789	3085.58
469.161	3079.93
469.534	3115.41
469.906	3225.01
470.278	3224.11
470.65	3273.6
471.022	3311.34
471.394	3343.66
471.766	3393.6
472.138	3427.95
472.51	3500.49
472.882	3535.06
473.253	3575.29
473.625	3577.32
473.997	3678.79
474.369	3682.63
474.74	3716.53
475.112	3812.57
475.484	3874.26
475.855	3881.27
476.227	3918.1
476.598	4001.26
476.97	4014.6
477.341	4086.69
477.713	4174.37
478.084	4153.35
478.455	4301.82
478.827	4328.49
479.198	4414.36
479.569	4416.85
479.94	4523.51
480.311	4586.11
480.682	4656.61
481.053	4699.1
481.424	4794.01
481.795	4838.3
482.166	4887.57
482.537	4965.53
482.908	4985.65
483.279	5044.85
483.65	5129.82
484.021	5223.61
484.391	5280.1
484.762	5301.12
485.133	5347.67
485.503	5453.43
485.874	5485.97
486.244	5515.35
486.615	5656.36
486.985	5669.02
487.356	5806.19
487.726	5775.46
488.097	5864.49
488.467	5866.53
488.837	6041.21
489.207	6120.31
489.578	6144.94
489.948	6177.03
490.318	6255.22
490.688	6270.36
491.058	6323.01
491.428	6392.61
491.798	6477.36
492.168	6546.06
492.538	6578.6
492.908	6568.88
493.278	6719.61
493.648	6724.58
494.017	6743.34
494.387	6822.43
494.757	6882.09
495.126	6934.97
495.496	6965.48
495.866	6964.12
496.235	7007.51
496.605	7089.32
496.974	7114.4
497.344	7166.38
497.713	7154.63
498.082	7244.34
498.452	7265.59
498.821	7288.18
499.19	7301.52
499.559	7450.67
499.928	7391.01
500.298	7428.29
500.667	7417.9
501.036	7367.28
501.405	7521.62
501.774	7493.15
502.143	7536.99
502.512	7572.47
502.88	7591.45
503.249	7577.67
503.618	7680.49
503.987	7638.01
504.356	7710.32
504.724	7685.69
505.093	7742.86
505.462	7792.13
505.83	7771.34
506.199	7815.18
506.567	7959.8
506.936	7847.27
507.304	7949.41
507.672	7958
508.041	7990.09
508.409	7976.98
508.777	8018.11
509.145	8067.82
509.514	8041.16
509.882	8066.92
510.25	8044.77
510.618	8127.48
510.986	8059.69
511.354	8109.63
511.722	8152.57
512.09	8145.79
512.458	8235.05
512.826	8254.94
513.193	8237.09
513.561	8253.81
513.929	8240.93
514.297	8307.14
514.664	8337.87
515.032	8271.44
515.4	8348.27
515.767	8381.71
516.135	8335.61
516.502	8260.14
516.869	8391.21
517.237	8420.13
517.604	8322.06
517.972	8390.3
518.339	8351.88
518.706	8333.35
519.073	8401.15
519.44	8416.29
519.808	8423.07
520.175	8403.63
520.542	8554.59
520.909	8499
521.276	8461.71
521.643	8532.45
522.009	8444.99
522.376	8539.9
522.743	8501.94
523.11	8612.44
523.477	8594.59
523.843	8617.19
524.21	8648.37
524.577	8653.35
524.943	8608.6
525.31	8664.65
525.676	8712.55
526.043	8680.46
526.409	8747.35
526.776	8769.95
527.142	8687.7
527.508	8721.37
527.874	8771.08
528.241	8814.02
528.607	8822.38
528.973	8759.56
529.339	8692.44
529.705	8796.62
530.071	8736.28
530.437	8823.28
530.803	8816.28
531.169	8781.93
531.535	8737.41
531.901	8755.49
532.267	8767.47
532.632	8825.54
532.998	8765.89
533.364	8797.52
533.73	8729.73
534.095	8770.4
534.461	8727.02
534.826	8700.35
535.192	8735.6
535.557	8745.77
535.923	8756.62
536.288	8756.17
536.653	8675.72
537.019	8663.06
537.384	8666.9
537.749	8666
538.114	8603.86
538.479	8609.73
538.845	8618.77
539.21	8572.9
539.575	8552.56
539.94	8571.31
540.305	8532.22
540.67	8497.87
541.034	8552.11
541.399	8520.69
541.764	8570.18
542.129	8496.06
542.494	8491.54
542.858	8486.12
543.223	8441.37
543.587	8489.51
543.952	8426.69
544.316	8295.62
544.681	8374.03
545.045	8340.59
545.41	8405.89
545.774	8360.25
546.138	8280.47
546.503	8315.05
546.867	8261.72
547.231	8345.78
547.595	8344.43
547.959	8269.63
548.324	8237.09
548.688	8199.12
549.052	8208.84
549.416	8183.08
549.779	8216.75
550.143	8185.56
550.507	8141.95
550.871	8071.21
551.235	8101.5
551.599	8142.85
551.962	8117.99
552.326	8060.14
552.689	8079.12
553.053	7978.79
553.417	8058.11
553.78	8070.08
554.143	8031.44
554.507	8028.73
554.87	8051.33
555.234	8069.63
555.597	8024.66
555.96	7973.82
556.323	8030.76
556.686	7958.45
557.05	8009.07
557.413	7939.01
557.776	8085.23
558.139	7985.57
558.502	8012.91
558.865	7935.62
559.228	7964.55
559.59	7946.02
559.953	7994.61
560.316	8029.86
560.679	8003.42
561.041	8010.2
561.404	8021.27
561.767	8039.12
562.129	7958.45
562.492	7997.54
562.854	7977.88
563.217	7953.48
563.579	8009.75
563.941	8059.69
564.304	8034.61
564.666	8131.1
565.028	8118.67
565.39	8120.03
565.753	8050.2
566.115	8150.31
566.477	8185.79
566.839	8139.46
567.201	8176.3
567.563	8101.5
567.925	8208.84
568.287	8217.43
568.648	8174.71
569.01	8192.12
569.372	8242.06
569.734	8196.41
570.095	8188.5
570.457	8264.43
570.819	8312.79
571.18	8239.35
571.542	8280.02
571.903	8296.29
572.265	8337.2
572.626	8314.15
572.987	8336.74
573.349	8348.72
573.71	8364.99
574.071	8431.43
574.432	8435.27
574.794	8480.02
575.155	8409.51
575.516	8407.7
575.877	8476.85
576.238	8490.64
576.599	8557.98
576.96	8541.71
577.32	8610.64
577.681	8580.58
578.042	8604.53
578.403	8545.55
578.763	8574.93
579.124	8613.35
579.485	8597.98
579.845	8623.74
580.206	8644.98
580.566	8657.19
580.927	8683.4
581.287	8734.93
581.648	8745.32
582.008	8762.95
582.368	8729.5
582.728	8795.04
583.089	8813.57
583.449	8736.51
583.809	8768.15
584.169	8723.17
584.529	8748.03
584.889	8815.38
585.249	8881.81
585.609	8763.17
585.969	8890.63
586.329	8840.01
586.688	8862.38
587.048	8872.32
587.408	8868.03
587.768	8868.03
588.127	8902.38
588.487	8937.63
588.846	8980.57
589.206	8983.28
589.565	8936.73
589.925	8960.23
590.284	8947.12
590.643	9000.46
591.003	8971.98
591.362	9066.22
591.721	9030.96
592.08	9075.48
592.44	9127.23
592.799	9036.84
593.158	9026.22
593.517	9087.91
593.876	9083.84
594.235	9149.38
594.593	9043.17
594.952	9138.53
595.311	9065.99
595.67	9154.8
596.029	9151.19
596.387	9190.73
596.746	9234.57
597.104	9144.63
597.463	9197.51
597.822	9194.8
598.18	9151.41
598.538	9112.09
598.897	9242.71
599.255	9121.81
599.613	9243.84
599.972	9255.82
600.33	9219.66
600.688	9166.33
601.046	9251.75
601.404	9289.71
601.762	9210.62
602.12	9314.35
602.478	9251.3
602.836	9274.35
603.194	9276.38
603.552	9277.96
603.91	9231.86
604.268	9277.06
604.625	9255.14
604.983	9265.08
605.341	9198.87
605.698	9287.45
606.056	9275.25
606.413	9316.83
606.771	9365.64
607.128	9313.89
607.485	9323.84
607.843	9311.41
608.2	9398.41
608.557	9402.03
608.914	9371.07
609.272	9380.56
609.629	9418.52
609.986	9451.74
610.343	9325.87
610.7	9455.58
611.057	9368.81
611.414	9390.5
611.771	9412.65
612.127	9500.1
612.484	9475.25
612.841	9468.47
613.198	9454.23
613.554	9469.82
613.911	9496.04
614.267	9556.37
614.624	9493.1
614.98	9482.02
615.337	9579.65
615.693	9543.72
616.05	9521.57
616.406	9580.78
616.762	9534.68
617.118	9553.44
617.475	9523.61
617.831	9602.25
618.187	9671.62
618.543	9598.41
618.899	9649.25
619.255	9617.84
619.611	9599.31
619.967	9680.44
620.323	9644.28
620.678	9621.68
621.034	9613.09
621.39	9611.51
621.746	9640.89
622.101	9696.48
622.457	9653.77
622.812	9606.09
623.168	9712.53
623.523	9675.24
623.879	9743.26
624.234	9630.72
624.589	9682.02
624.945	9711.62
625.3	9646.99
625.655	9570.61
626.01	9660.55
626.365	9629.82
626.72	9624.17
627.075	9609.7
627.43	9573.55
627.785	9655.81
628.14	9574.23
628.495	9617.16
628.85	9607.9
629.205	9586.88
629.559	9649.25
629.914	9548.01
630.269	9587.78
630.623	9608.8
630.978	9518.63
631.332	9563.83
631.687	9661.46
632.041	9466.88
632.396	9590.72
632.75	9524.28
633.104	9533.77
633.459	9446.77
633.813	9427.11
634.167	9450.61
634.521	9440.9
634.875	9463.04
635.229	9446.77
635.583	9396.38
635.937	9391.18
636.291	9390.28
636.645	9416.26
636.999	9361.58
637.352	9388.69
637.706	9331.07
638.06	9384.17
638.413	9371.29
638.767	9286.55
639.121	9313.67
639.474	9176.5
639.828	9266.89
640.181	9227.12
640.534	9232.54
640.888	9216.04
641.241	9202.26
641.594	9229.6
641.947	9259.43
642.301	9214.69
642.654	9265.99
643.007	9246.1
643.36	9207.68
643.713	9165.42
644.066	9234.57
644.419	9171.75
644.771	9053.11
645.124	9102.37
645.477	9008.36
645.83	8948.93
646.182	8948.25
646.535	8917.52
646.888	8934.02
647.24	8901.93
647.593	8921.14
647.945	8913
648.298	8910.51
648.65	8863.74
649.002	8838.2
649.355	8882.72
649.707	8914.58
650.059	8959.1
650.411	9033.22
650.763	9044.97
651.115	9095.59
651.467	9081.58
651.819	9084.3
652.171	9073
652.523	9041.81
652.875	9068.48
653.227	9057.63
653.578	9083.39
653.93	9041.13
654.282	9051.98
654.633	9014.01
654.985	9040.91
655.337	9058.76
655.688	9096.05
656.039	9093.56
656.391	8969.72
656.742	8975.82
657.094	9068.02
657.445	9122.26
657.796	9058.53
658.147	9023.51
658.498	9083.39
658.849	9011.75
659.2	9118.42
659.551	9096.72
659.902	9051.08
660.253	9080
660.604	9085.42
660.955	8973.34
661.306	9107.12
661.656	9063.05
662.007	9040.45
662.358	9154.35
662.708	9142.15
663.059	9092.2
663.409	9029.61
663.76	9115.48
664.11	9145.54
664.461	9132.43
664.811	9159.32
665.161	9119.55
665.511	9166.78
665.862	9096.5
666.212	9161.81
666.562	9153.45
666.912	9108.02
667.262	9099.66
667.612	9143.28
667.962	9122.94
668.312	9111.64
668.662	9179.43
669.011	9070.51
669.361	9120
669.711	9101.47
670.06	9049.95
670.41	9031.19
670.76	9094.69
671.109	9103.96
671.459	9102.6
671.808	9084.52
672.157	9118.19
672.507	9028.93
672.856	9030.96
673.205	9008.14
673.554	9007.23
673.904	8978.54
674.253	9073.45
674.602	9050.4
674.951	8917.07
675.3	8888.14
675.649	9042.49
675.998	9040
676.346	9076.84
676.695	9031.64
677.044	8929.27
677.393	8970.85
677.741	8952.32
678.09	8969.5
678.438	8911.87
678.787	8922.94
679.135	8927.69
679.484	8907.12
679.832	8941.47
680.181	8862.61
680.529	8884.98
680.877	8811.76
681.225	8827.35
681.573	8846.79
681.922	8762.95
682.27	8719.56
682.618	8755.94
682.966	8768.6
683.314	8749.39
683.661	8756.85
684.009	8702.84
684.357	8661.93
684.705	8646.11
685.053	8650.86
685.4	8619.22
685.748	8581.03
686.095	8578.09
686.443	8574.25
686.79	8573.57
687.138	8538.77
687.485	8520.02
687.832	8531.77
688.18	8498.32
688.527	8472.11
688.874	8445.44
689.221	8397.31
689.568	8346.01
689.915	8381.94
690.262	8325.22
690.609	8302.39
690.956	8265.11
691.303	8293.58
691.65	8265.33
691.997	8191.21
692.344	8127.26
692.69	8148.5
693.037	8127.03
693.383	8075.28
693.73	8122.29
694.077	8028.05
694.423	8011.33
694.769	8018.79
695.116	7903.99
695.462	7949.86
695.808	7859.92
696.155	7891.78
696.501	7850.2
696.847	7867.15
697.193	7760.71
697.539	7858.11
697.885	7765.01
698.231	7726.14
698.577	7707.16
698.923	7658.12
699.269	7633.71
699.614	7556.2
699.96	7605.69
700.306	7570.21
700.651	7551.45
700.997	7504.45
701.342	7464.22
701.688	7386.94
702.033	7352.36
702.379	7407.28
702.724	7405.24
703.069	7363.44
703.415	7289.54
703.76	7291.12
704.105	7319.37
704.45	7242.76
704.795	7220.16
705.14	7134.06
705.485	7126.61
705.83	7132.71
706.175	7249.54
706.52	7092.48
706.865	7156.21
707.209	7128.87
707.554	7079.15
707.899	7030.56
708.243	7049.55
708.588	7047.96
708.932	7040.06
709.277	6944.92
709.621	7006.61
709.966	6888.42
710.31	6955.99
710.654	6871.47
710.998	6901.3
711.342	6904.01
711.687	6867.4
712.031	6857.91
712.375	6817.46
712.719	6782.66
713.063	6779.04
713.407	6847.52
713.75	6762.55
714.094	6728.65
714.438	6704.02
714.782	6745.6
715.125	6664.47
715.469	6728.42
715.812	6656.34
716.156	6657.01
716.499	6659.73
716.843	6645.04
717.186	6562.78
717.53	6622.89
717.873	6607.98
718.216	6650.23
718.559	6624.25
718.902	6532.27
719.246	6540.86
719.589	6611.82
719.932	6534.76
720.275	6534.31
720.617	6545.15
720.96	6527.53
721.303	6523.01
721.646	6519.39
721.989	6519.84
722.331	6490.46
722.674	6469.9
723.016	6542.67
723.359	6485.04
723.701	6480.07
724.044	6469.9
724.386	6441.43
724.729	6471.93
725.071	6430.35
725.413	6473.06
725.755	6382.9
726.097	6379.51
726.439	6358.49
726.782	6414.76
727.124	6396.46
727.465	6399.17
727.807	6435.78
728.149	6387.42
728.491	6356.01
728.833	6371.37
729.175	6356.01
729.516	6385.83
729.858	6373.18
730.199	6320.53
730.541	6391.48
730.882	6404.82
731.224	6434.42
731.565	6347.42
731.906	6349.45
732.248	6360.98
732.589	6385.61
732.93	6344.71
733.271	6315.33
733.612	6306.06
733.953	6357.14
734.294	6332.28
734.635	6336.34
734.976	6338.38
735.317	6296.57
735.658	6357.81
735.999	6343.12
736.339	6342.22
736.68	6360.75
737.021	6387.64
737.361	6348.77
737.702	6407.76
738.042	6387.42
738.383	6392.16
738.723	6381.32
739.063	6391.03
739.404	6452.95
739.744	6427.64
740.084	6376.57
740.424	6418.15
740.764	6414.31
741.104	6420.64
741.444	6462.44
741.784	6400.52
742.124	6458.6
742.464	6491.37
742.804	6481.2
743.143	6555.1
743.483	6558.26
743.823	6511.48
744.162	6585.83
744.502	6638.71
744.841	6599.84
745.181	6692.72
745.52	6670.35
745.86	6661.99
746.199	6724.58
746.538	6800.74
746.877	6822.66
747.216	6904.01
747.556	6877.57
747.895	6927.74
748.234	6942.43
748.573	6982.2
748.911	7033.05
749.25	7101.97
749.589	7142.88
749.928	7179.03
750.267	7271.01
750.605	7331.12
750.944	7414.51
751.283	7485.02
751.621	7537.44
751.96	7536.99
752.298	7660.15
752.636	7760.94
752.975	7803.2
753.313	7937.21
753.651	8021.72
753.989	8047.94
754.327	8181.27
754.666	8290.42
755.004	8421.04
755.342	8526.57
755.679	8604.99
756.017	8731.76
756.355	8853.57
756.693	8972.89
757.031	9100.11
757.368	9213.33
757.706	9407.22
758.044	9501.01
758.381	9681.57
758.719	9795.69
759.056	9934.89
759.394	10043.14
759.731	10256.24
760.068	10388.22
760.405	10486.07
760.743	10633.86
761.08	10833.18
761.417	10999.72
761.754	11195.65
762.091	11320.62
762.428	11475.64
762.765	11571.69
763.102	11784.11
763.438	11923.99
763.775	12093.93
764.112	12272.23
764.449	12522.17
764.785	12537.99
765.122	12755.84
765.458	12934.36
765.795	12997.64
766.131	13208.48
766.467	13389.94
766.804	13500.68
767.14	13536.38
767.476	13790.39
767.812	13850.05
768.148	14054.56
768.485	14184.27
768.821	14244.84
769.157	14378.39
769.492	14571.16
769.828	14697.93
770.164	14650.02
770.5	14815.22
770.836	14928.44
771.171	15075.1
771.507	15203.68
771.842	15250.91
772.178	15374.3
772.513	15548.53
772.849	15609.55
773.184	15605.03
773.519	15747.62
773.855	15837.34
774.19	15925.92
774.525	15945.13
774.86	16123.88
775.195	16205.24
775.53	16189.64
775.865	16291.79
776.2	16290.43
776.535	16240.27
776.87	16340.83
777.205	16460.82
777.539	16507.15
777.874	16552.8
778.209	16528.39
778.543	16576.53
778.878	16613.59
779.212	16740.14
779.547	16677.09
779.881	16858.78
780.215	16702.63
780.55	16868.05
780.884	16798.44
781.218	16770.19
781.552	16858.33
781.886	16863.75
782.22	16830.31
782.554	16835.73
782.888	16771.55
783.222	16747.82
783.556	16794.83
783.889	16796.41
784.223	16766.8
784.557	16741.27
784.89	16841.38
785.224	16755.28
785.557	16754.6
785.891	16746.01
786.224	16750.99
786.558	16756.41
786.891	16722.96
787.224	16642.51
787.557	16690.2
787.891	16703.08
788.224	16793.47
788.557	16725.68
788.89	16711.21
789.223	16716.18
789.556	16667.6
789.888	16577.66
790.221	16590.76
790.554	16474.38
790.887	16549.86
791.219	16493.59
791.552	16461.5
791.884	16449.07
792.217	16416.98
792.549	16315.29
792.882	16380.83
793.214	16330.43
793.546	16346.03
793.879	16210.66
794.211	16270.32
794.543	16260.83
794.875	16219.93
795.207	16192.58
795.539	16171.34
795.871	16217.67
796.203	16027.62
796.535	16059.25
796.867	16059.03
797.198	15940.61
797.53	15902.65
797.862	15897.68
798.193	15951.46
798.525	15890.22
798.856	15904
799.188	15742.88
799.519	15706.49
799.85	15635.99
800.182	15566.61
800.513	15618.81
800.844	15576.55
801.175	15633.28
801.506	15650.68
801.837	15552.83
802.168	15453.85
802.499	15535.88
802.83	15497.91
803.161	15341.98
803.491	15346.96
803.822	15305.83
804.153	15293.62
804.483	15171.37
804.814	15190.8
805.145	15215.89
805.475	15193.29
805.805	15124.81
806.136	15111.48
806.466	15157.81
806.796	15024.03
807.126	14897.7
807.457	14952.39
807.787	14936.12
808.117	14875.33
808.447	14857.25
808.777	14934.99
809.107	14823.81
809.436	14728.67
809.766	14804.14
810.096	14667.43
810.426	14660.19
810.755	14733.19
811.085	14655
811.414	14622.45
811.744	14528.22
812.073	14441.89
812.403	14506.3
812.732	14447.77
813.061	14474.66
813.39	14385.17
813.719	14312.63
814.049	14446.19
814.378	14379.3
814.707	14289.13
815.036	14331.16
815.365	14229.92
815.693	14193.31
816.022	14193.31
816.351	14195.8
816.68	14079.87
817.008	14085.75
817.337	14046.65
817.665	14004.84
817.994	14067.89
818.322	13939.31
818.651	13948.35
818.979	13940.66
819.307	14053.66
819.636	14009.59
819.964	13840.55
820.292	13895.92
820.62	13897.05
820.948	13843.27
821.276	13952.64
821.604	13821.12
821.932	13914.22
822.259	13935.69
822.587	13841.23
822.915	13812.98
823.243	13877.62
823.57	13813.21
823.898	13820.22
824.225	13816.15
824.553	13803.04
824.88	13757.84
825.207	13881.46
825.535	13806.43
825.862	13893.43
826.189	13810.5
826.516	13888.91
826.843	13859.76
827.17	13910.38
827.497	13913.32
827.824	13893.89
828.151	13895.69
828.478	13918.07
828.805	13907.45
829.131	13816.15
829.458	13932.98
829.785	13792.42
830.111	13855.47
830.438	13934.34
830.764	13854.57
831.09	13911.06
831.417	13816.6
831.743	13864.28
832.069	13873.55
832.395	13838.52
832.722	13868.35
833.048	13816.6
833.374	13836.03
833.7	13751.29
834.026	13690.28
834.351	13839.2
834.677	13854.57
835.003	13768.01
835.329	13733.66
835.654	13710.61
835.98	13677.39
836.306	13668.36
836.631	13672.87
836.956	13673.55
837.282	13657.51
837.607	13611.86
837.932	13580
838.258	13629.94
838.583	13617.06
838.908	13618.87
839.233	13483.95
839.558	13513.56
839.883	13406.22
840.208	13477.63
840.533	13403.73
840.858	13431.07
841.182	13388.81
841.507	13382.26
841.832	13275.37
842.156	13362.83
842.481	13216.62
842.805	13282.15
843.13	13316.95
843.454	13265.43
843.778	13167.8
844.103	13110.4
844.427	13117.86
844.751	13095.26
845.075	13067.24
845.399	12993.57
845.723	12909.73
846.047	12988.15
846.371	12834.03
846.695	12901.37
847.019	12807.59
847.343	12576.41
847.666	12685.33
847.99	12631.55
848.313	12619.12
848.637	12601.94
848.96	12544.54
849.284	12538.67
849.607	12387.71
849.931	12322.4
850.254	12262.06
850.577	12229.75
850.9	12114.95
851.223	12159.69
851.546	12083.99
851.869	12023.43
852.192	12046.03
852.515	11909.31
852.838	11936.65
853.161	11807.61
853.483	11868.18
853.806	11836.77
854.129	11818.69
854.451	11741.17
854.774	11619.14
855.096	11630.67
855.419	11596.77
855.741	11486.49
856.063	11543.44
856.385	11490.33
856.708	11419.83
857.03	11376.21
857.352	11418.02
857.674	11400.62
857.996	11295.08
858.318	11205.37
858.64	11274.07
858.961	11204.47
859.283	11176.44
859.605	11120.85
859.926	11211.02
860.248	11161.08
860.57	11030.68
860.891	11119.27
861.212	10999.72
861.534	10979.16
861.855	10926.05
862.176	11032.94
862.498	11003.34
862.819	10970.35
863.14	10888.77
863.461	10941.87
863.782	10822.55
864.103	10896.9
864.424	10774.42
864.745	10865.94
865.065	10771.03
865.386	10668.89
865.707	10733.74
866.027	10764.25
866.348	10636.57
866.668	10707.08
866.989	10682.9
867.309	10615.78
867.63	10647.19
867.95	10554.31
868.27	10497.37
868.59	10551.15
868.91	10532.39
869.23	10519.29
869.55	10435.67
869.87	10552.05
870.19	10471.6
870.51	10505.5
870.83	10475.22
871.15	10392.51
871.469	10437.03
871.789	10434.09
872.109	10446.97
872.428	10296.47
872.748	10371.49
873.067	10376.24
873.386	10397.71
873.706	10288.56
874.025	10293.98
874.344	10256.92
874.663	10214.21
874.982	10199.29
875.301	10236.13
875.62	10200.2
875.939	10280.2
876.258	10192.06
876.577	10152.74
876.896	10135.11
877.214	10058.73
877.533	10146.87
877.852	10086.98
878.17	10121.78
878.489	10056.02
878.807	10055.79
879.125	10017.15
879.444	10007.89
879.762	9968.34
880.08	9962.92
880.398	9935.12
880.716	9982.8
881.034	9925.18
881.352	9905.97
881.67	9865.74
881.988	9867.55
882.306	9859.19
882.624	9845.63
882.941	9793.65
883.259	9726.09
883.577	9766.99
883.894	9781.45
884.212	9708.69
884.529	9682.47
884.846	9726.99
885.164	9700.78
885.481	9629.14
885.798	9623.72
886.115	9568.8
886.432	9557.95
886.75	9547.56
887.067	9577.16
887.383	9499.43
887.7	9489.03
888.017	9475.7
888.334	9451.74
888.651	9429.82
888.967	9419.2
889.284	9346.89
889.6	9320.22
889.917	9344.18
890.233	9292.2
890.55	9280.67
890.866	9187.57
891.182	9133.11
891.498	9089.49
891.815	9121.81
892.131	9138.08
892.447	9043.84
892.763	9005.65
893.079	9014.01
893.395	8939.67
893.71	8928.37
894.026	8927.01
894.342	8974.47
894.657	8825.32
894.973	8834.81
895.289	8817.64
895.604	8821.93
895.92	8708.94
896.235	8734.25
896.55	8714.59
896.865	8627.13
897.181	8663.74
897.496	8595.27
897.811	8548.26
898.126	8592.33
898.441	8471.2
898.756	8461.49
899.071	8426.46
899.386	8471.66
899.7	8366.35
900.015	8342.62
900.33	8261.72
900.644	8288.16
900.959	8278.89
901.273	8249.29
901.588	8266.92
901.902	8214.49
902.216	8116.86
902.531	8163.64
902.845	8109.86
903.159	8012.23
903.473	8015.4
903.787	8035.06
904.101	7921.61
904.415	7967.71
904.729	7900.6
905.042	7861.5
905.356	7835.06
905.67	7766.59
905.984	7829.41
906.297	7808.62
906.611	7681.85
906.924	7720.72
907.237	7647.04
907.551	7635.52
907.864	7602.07
908.177	7560.27
908.491	7619.25
908.804	7459.03
909.117	7510.33
909.43	7416.09
909.743	7330.67
910.056	7359.14
910.368	7338.13
910.681	7289.54
910.994	7294.51
911.307	7268.3
911.619	7250.67
911.932	7250.44
912.244	7160.73
912.557	7174.74
912.869	7083.67
913.181	7047.74
913.494	7077.12
913.806	7010.23
914.118	7005.25
914.43	6984.46
914.742	6951.02
915.054	6912.37
915.366	6875.31
915.678	6877.8
915.99	6876.9
916.302	6819.04
916.613	6764.58
916.925	6729.1
917.236	6734.98
917.548	6703.11
917.859	6689.1
918.171	6654.98
918.482	6641.2
918.794	6611.14
919.105	6601.87
919.416	6536.79
919.727	6518.26
920.038	6478.94
920.349	6469
920.66	6453.86
920.971	6464.48
921.282	6393.97
921.593	6365.5
921.903	6283.46
922.214	6302.9
922.525	6234.43
922.835	6204.37
923.146	6231.94
923.456	6244.14
923.767	6257.48
924.077	6188.33
924.387	6137.25
924.697	6098.16
925.008	6110.59
925.318	6038.73
925.628	6026.3
925.938	6093.64
926.248	6018.39
926.558	5944.49
926.867	5995.34
927.177	5906.3
927.487	5860.43
927.796	5807.77
928.106	5875.57
928.416	5820.65
928.725	5748.79
929.034	5734.33
929.344	5772.52
929.653	5715.57
929.962	5709.24
930.271	5684.61
930.581	5688.68
930.89	5625.85
931.199	5624.5
931.508	5595.12
931.817	5530.72
932.125	5559.64
932.434	5538.4
932.743	5478.06
933.051	5473.32
933.36	5397.84
933.669	5367.78
933.977	5388.35
934.286	5377.05
934.594	5435.35
934.902	5362.13
935.21	5330.5
935.519	5304.06
935.827	5267.45
936.135	5246.2
936.443	5242.59
936.751	5234
937.059	5160.33
937.367	5188.35
937.674	5197.84
937.982	5118.98
938.29	5026.32
938.597	5117.39
938.905	5027.9
939.213	5010.73
939.52	5003.05
939.827	5028.13
940.135	4966.66
940.442	4972.09
940.749	4932.31
941.056	4925.99
941.363	4907.68
941.67	4834.24
941.977	4894.35
942.284	4839.43
942.591	4772.54
942.898	4810.06
943.205	4794.46
943.511	4729.83
943.818	4688.25
944.125	4662.04
944.431	4667.01
944.738	4666.33
945.044	4648.71
945.35	4636.73
945.657	4555.15
945.963	4563.28
946.269	4555.37
946.575	4574.13
946.881	4549.73
947.187	4523.06
947.493	4540.91
947.799	4455.49
948.105	4458.43
948.41	4386.79
948.716	4441.03
949.022	4353.35
949.327	4405.1
949.633	4326.91
949.938	4368.49
950.244	4354.02
950.549	4293.91
950.854	4297.3
951.16	4254.37
951.465	4244.65
951.77	4214.37
952.075	4191.99
952.38	4158.1
952.685	4156.29
952.99	4155.84
953.294	4154.93
953.599	4118.78
953.904	4113.13
954.209	4037.65
954.513	4058.89
954.818	4064.99
955.122	4035.16
955.426	4016.63
955.731	4034.94
956.035	3961.27
956.339	3959.01
956.643	3976.18
956.948	3942.06
957.252	3895.96
957.556	3915.62
957.86	3889.4
958.163	3869.29
958.467	3856.41
958.771	3817.77
959.075	3808.95
959.378	3815.73
959.682	3765.79
959.985	3762.18
960.289	3737.77
960.592	3736.64
960.896	3745.23
961.199	3702.29
961.502	3674.27
961.805	3686.02
962.108	3658
962.411	3634.49
962.714	3625.46
963.017	3635.85
963.32	3617.09
963.623	3589.75
963.926	3609.18
964.228	3549.75
964.531	3552.69
964.833	3555.63
965.136	3492.8
965.438	3500.71
965.741	3456.87
966.043	3487.38
966.345	3443.99
966.648	3419.81
966.95	3428.85
967.252	3373.26
967.554	3394.95
967.856	3385.01
968.158	3368.06
968.46	3340.04
968.761	3344.11
969.063	3353.15
969.365	3318.34
969.666	3291.23
969.968	3271.11
970.269	3255.52
970.571	3225.69
970.872	3223.88
971.174	3247.84
971.475	3168.07
971.776	3198.57
972.077	3199.93
972.378	3144.11
972.679	3130.33
972.98	3147.73
973.281	3106.37
973.582	3086.26
973.883	3092.59
974.183	3069.76
974.484	3097.33
974.785	3068.63
975.085	3032.93
975.386	3031.57
975.686	3009.2
975.986	2989.77
976.287	2985.7
976.587	2959.71
976.887	2935.08
977.187	2937.34
977.487	2927.62
977.787	2915.64
978.087	2936.66
978.387	2875.42
978.687	2893.5
978.987	2873.61
979.286	2818.02
979.586	2849.88
979.885	2843.56
980.185	2806.04
980.484	2799.49
980.784	2830.22
981.083	2788.87
981.382	2782.31
981.682	2767.17
981.981	2745.03
982.28	2735.99
982.579	2718.36
982.878	2704.8
983.177	2740.51
983.475	2698.25
983.774	2669.32
984.073	2673.39
984.372	2654.41
984.67	2596.33
984.969	2623
985.267	2627.29
985.566	2606.27
985.864	2619.15
986.162	2575.09
986.461	2571.47
986.759	2556.11
987.057	2526.73
987.355	2527.18
987.653	2501.64
987.951	2493.51
988.249	2510
988.547	2482.21
988.844	2478.37
989.142	2475.88
989.44	2443.34
989.737	2418.03
990.035	2423.23
990.332	2411.02
990.63	2392.49
990.927	2375.54
991.224	2410.12
991.521	2331.48
991.819	2338.48
992.116	2345.26
992.413	2334.64
992.71	2348.2
993.006	2333.51
993.303	2292.16
993.6	2293.74
993.897	2286.51
994.193	2295.77
994.49	2260.52
994.787	2287.41
995.083	2236.79
995.379	2233.85
995.676	2213.06
995.972	2190.69
996.268	2197.24
996.565	2174.65
996.861	2205.83
997.157	2137.59
997.453	2141.2
997.749	2180.3
998.044	2106.63
998.34	2116.57
998.636	2118.15
998.932	2097.13
999.227	2094.2
999.523	2087.64
999.818	2089.9
1000.114	2072.05
1000.409	2031.6
1000.704	2057.81
1001	2037.7
1001.295	2033.86
1001.59	2034.54
1001.885	2017.59
1002.18	2000.64
1002.475	2002.67
1002.77	2019.85
1003.065	1970.58
1003.359	1927.42
1003.654	1939.85
1003.949	1919.96
1004.243	1907.53
1004.538	1933.3
1004.832	1909.79
1005.127	1884.48
1005.421	1875.67
1005.715	1857.37
1006.009	1865.05
1006.304	1849.46
1006.598	1822.34
1006.892	1820.53
1007.186	1783.47
1007.48	1794.77
1007.773	1819.63
1008.067	1768.78
1008.361	1770.59
1008.655	1758.84
1008.948	1750.7
1009.242	1742.34
1009.535	1745.28
1009.829	1710.03
1010.122	1696.69
1010.415	1722.45
1010.708	1669.12
1011.001	1674.32
1011.295	1683.81
1011.588	1651.95
1011.881	1658.05
1012.173	1654.66
1012.466	1632.97
1012.759	1645.17
1013.052	1626.86
1013.344	1597.03
1013.637	1591.84
1013.93	1584.15
1014.222	1601.33
1014.514	1553.65
1014.807	1564.94
1015.099	1563.59
1015.391	1570.14
1015.683	1540.99
1015.976	1505.96
1016.268	1522.23
1016.56	1504.16
1016.851	1516.58
1017.143	1506.64
1017.435	1468.68
1017.727	1458.73
1018.018	1470.71
1018.31	1439.07
1018.602	1465.06
1018.893	1466.64
1019.185	1458.73
1019.476	1419.86
1019.767	1414.89
1020.058	1398.85
1020.35	1414.89
1020.641	1402.24
1020.932	1380.99
1021.223	1352.52
1021.514	1367.89
1021.804	1340.77
1022.095	1314.33
1022.386	1342.58
1022.677	1322.47
1022.967	1310.04
1023.258	1320.43
1023.548	1286.53
1023.839	1302.35
1024.129	1282.24
1024.419	1261.22
1024.709	1265.29
1025	1261.45
1025.29	1248.34
1025.58	1229.13
1025.87	1209.93
1026.16	1233.2
1026.449	1211.06
1026.739	1212.64
1027.029	1204.05
1027.319	1179.42
1027.608	1168.8
1027.898	1184.16
1028.187	1172.86
1028.477	1158.18
1028.766	1129.02
1029.055	1178.06
1029.344	1149.14
1029.634	1130.83
1029.923	1114.34
1030.212	1128.12
1030.501	1112.08
1030.79	1124.5
1031.078	1114.11
1031.367	1094.22
1031.656	1074.11
1031.945	1044.96
1032.233	1077.05
1032.522	1054.68
1032.81	1054.45
1033.099	1060.33
1033.387	1042.02
1033.675	1056.71
1033.963	1034.56
1034.251	1000.21
1034.54	1028.91
1034.828	1011.29
1035.116	992.08
1035.403	998.63
1035.691	1000.67
1035.979	995.24
1036.267	983.94
1036.554	993.21
1036.842	965.64
1037.129	968.8
1037.417	944.62
1037.704	915.47
1037.992	937.62
1038.279	950.05
1038.566	958.63
1038.853	958.63
1039.14	958.63
