Data from hue_130_FLMS001491_00018.txt Node
Date: Tue Feb 07 16:57:15 GMT 2017
User: dcchb
Spectrometer: FLMS00149
Trigger mode: 0
Integration Time (sec): 2.000000E-2
Scans to average: 10
Electric dark correction enabled: true
Nonlinearity correction enabled: false
Boxcar width: 0
XAxis mode: Wavelengths
Number of Pixels in Spectrum: 2048
>>>>>Begin Spectral Data<<<<<
341.393	-18.95
341.776	-18.95
342.16	-18.95
342.543	-72.51
342.927	-80.2
343.31	-68.44
343.693	-64.38
344.077	-80.42
344.46	-72.74
344.843	-58.5
345.226	-39.52
345.61	-30.48
345.993	-33.64
346.376	-10.59
346.759	12.01
347.142	35.51
347.525	57.43
347.908	60.37
348.291	70.53
348.674	115.28
349.057	107.6
349.44	137.88
349.823	126.58
350.206	155.73
350.588	200.93
350.971	216.07
351.354	213.81
351.737	239.34
352.119	261.94
352.502	261.72
352.884	285.67
353.267	289.06
353.65	281.15
354.032	301.94
354.414	293.13
354.797	305.78
355.179	330.19
355.562	321.6
355.944	328.61
356.326	329.74
356.709	345.78
357.091	327.48
357.473	331.77
357.855	334.71
358.238	325.67
358.62	350.3
359.002	341.26
359.384	347.36
359.766	337.19
360.148	340.13
360.53	326.35
360.912	333.8
361.294	329.06
361.676	313.47
362.057	329.29
362.439	337.87
362.821	327.03
363.203	308.27
363.584	326.35
363.966	339.68
364.348	308.72
364.729	335.61
365.111	308.27
365.493	328.16
365.874	311.43
366.256	339.45
366.637	305.78
367.019	294.03
367.4	315.5
367.781	307.14
368.163	331.09
368.544	297.87
368.925	301.94
369.306	325.9
369.688	315.5
370.069	309.17
370.45	314.82
370.831	312.79
371.212	355.5
371.593	324.99
371.974	329.51
372.355	318.89
372.736	309.85
373.117	297.42
373.498	324.99
373.879	315.73
374.26	322.28
374.641	319.79
375.021	324.09
375.402	321.83
375.783	332
376.163	338.32
376.544	313.92
376.925	320.7
377.305	340.81
377.686	312.79
378.066	332.9
378.447	322.05
378.827	339
379.208	325.22
379.588	329.06
379.968	357.08
380.349	352.79
380.729	332.9
381.109	321.83
381.489	344.65
381.87	336.74
382.25	346.01
382.63	342.84
383.01	347.14
383.39	352.11
383.77	351.88
384.15	346.91
384.53	358.44
384.91	356.63
385.29	340.58
385.67	367.02
386.049	365.67
386.429	360.02
386.809	353.47
387.189	327.93
387.568	347.36
387.948	366.12
388.328	374.03
388.707	355.95
389.087	366.12
389.466	376.74
389.846	378.55
390.225	354.82
390.605	369.74
390.984	353.24
391.363	368.61
391.743	375.16
392.122	368.61
392.501	355.27
392.881	376.74
393.26	355.73
393.639	392.11
394.018	370.41
394.397	368.61
394.776	372.22
395.155	383.07
395.534	391.43
395.913	388.04
396.292	375.84
396.671	372.67
397.05	390.75
397.429	367.7
397.808	384.88
398.186	385.78
398.565	393.01
398.944	404.99
399.323	401.15
399.701	388.72
400.08	387.14
400.458	397.08
400.837	413.58
401.215	395.5
401.594	402.28
401.972	399.11
402.351	416.97
402.729	423.97
403.107	418.32
403.486	421.49
403.864	397.31
404.242	440.02
404.62	416.06
404.999	419
405.377	411.09
405.755	432.33
406.133	433.24
406.511	443.18
406.889	417.42
407.267	419
407.645	441.82
408.023	434.82
408.401	456.97
408.779	455.84
409.156	463.52
409.534	456.97
409.912	452.9
410.29	457.64
410.667	454.25
411.045	454.48
411.422	463.29
411.8	443.18
412.178	467.13
412.555	459
412.933	474.82
413.31	489.28
413.687	490.18
414.065	476.63
414.442	514.82
414.819	500.13
415.197	476.63
415.574	499.45
415.951	487.47
416.328	521.6
416.705	508.72
417.082	473.01
417.46	506.23
417.837	488.83
418.214	512.56
418.591	507.36
418.967	510.98
419.344	509.39
419.721	523.86
420.098	513.46
420.475	507.81
420.852	514.82
421.228	546.23
421.605	551.65
421.982	529.51
422.358	522.27
422.735	536.51
423.111	558.88
423.488	567.02
423.864	556.17
424.241	553.91
424.617	575.38
424.994	550.97
425.37	568.83
425.746	581.93
426.123	572.44
426.499	602.5
426.875	594.81
427.251	587.36
427.627	606.34
428.003	611.99
428.379	598.88
428.756	630.97
429.132	599.56
429.507	618.32
429.883	624.42
430.259	640.46
430.635	634.36
431.011	626
431.387	617.64
431.763	655.6
432.138	666.23
432.514	658.77
432.89	683.85
433.265	666.68
433.641	663.74
434.016	701.93
434.392	684.3
434.767	682.95
435.143	686.56
435.518	709.84
435.894	697.41
436.269	713
436.644	709.16
437.02	724.98
437.395	742.61
437.77	759.1
438.145	767.01
438.52	752.1
438.895	754.81
439.271	753
439.646	766.56
440.021	789.39
440.395	769.95
440.77	777.63
441.145	787.35
441.52	787.13
441.895	800.69
442.27	797.52
442.645	791.65
443.019	814.92
443.394	802.04
443.769	818.54
444.143	820.57
444.518	813.57
444.892	833
445.267	821.02
445.641	851.08
446.016	835.71
446.39	863.51
446.764	844.98
447.139	847.01
447.513	882.49
447.887	870.29
448.262	879.1
448.636	871.87
449.01	881.36
449.384	915.71
449.758	895.15
450.132	909.16
450.506	900.34
450.88	911.42
451.254	928.37
451.628	951.64
452.002	954.58
452.376	962.71
452.75	958.65
453.123	963.39
453.497	953.9
453.871	983.28
454.244	1001.36
454.618	997.29
454.992	1002.49
455.365	1014.46
455.739	1058.76
456.112	1061.47
456.486	1069.6
456.859	1054.01
457.232	1085.65
457.606	1103.5
457.979	1110.96
458.352	1118.64
458.725	1127.91
459.099	1154.57
459.472	1143.05
459.845	1169.26
460.218	1181.92
460.591	1174.01
460.964	1211.3
461.337	1209.94
461.71	1215.82
462.083	1207.68
462.456	1291.07
462.829	1250.84
463.201	1328.35
463.574	1283.38
463.947	1319.99
464.32	1333.33
464.692	1352.08
465.065	1382.14
465.438	1387.11
465.81	1380.56
466.183	1398.64
466.555	1450.61
466.928	1481.8
467.3	1485.19
467.672	1467.79
468.045	1529.93
468.417	1549.37
468.789	1580.55
469.161	1604.28
469.534	1659.42
469.906	1658.74
470.278	1690.15
470.65	1697.16
471.022	1764.95
471.394	1781.9
471.766	1785.97
472.138	1847.89
472.51	1879.98
472.882	1938.73
473.253	1957.94
473.625	1970.37
473.997	2035.45
474.369	2065.06
474.74	2108.45
475.112	2146.64
475.484	2213.76
475.855	2247.88
476.227	2305.96
476.598	2403.35
476.97	2424.82
477.341	2462.34
477.713	2559.96
478.084	2590.02
478.455	2696.23
478.827	2761.54
479.198	2810.58
479.569	2903.68
479.94	2997.46
480.311	3028.2
480.682	3143.67
481.053	3232.71
481.424	3305.7
481.795	3418.47
482.166	3467.28
482.537	3606.49
482.908	3655.07
483.279	3782.3
483.65	3871.79
484.021	4001.28
484.391	4077.66
484.762	4161.27
485.133	4252.12
485.503	4365.79
485.874	4513.36
486.244	4572.11
486.615	4696.4
486.985	4846.68
487.356	4975.49
487.726	5091.65
488.097	5285.09
488.467	5282.15
488.837	5461.81
489.207	5644.63
489.578	5732.08
489.948	5832.87
490.318	5992.87
490.688	6125.06
491.058	6248.45
491.428	6382.91
491.798	6503.13
492.168	6704.71
492.538	6793.52
492.908	7006.85
493.278	7085.27
493.648	7193.06
494.017	7340.63
494.387	7445.48
494.757	7557.8
495.126	7696.55
495.496	7798.69
495.866	7955.98
496.235	8152.36
496.605	8283.2
496.974	8298.34
497.344	8458.56
497.713	8528.62
498.082	8680.7
498.452	8822.85
498.821	8843.64
499.19	8977.42
499.559	9102.84
499.928	9221.03
500.298	9306.9
500.667	9483.62
501.036	9475.49
501.405	9576.05
501.774	9662.37
502.143	9795.93
502.512	9844.97
502.88	10017.17
503.249	10005.64
503.618	10195.92
503.987	10218.74
504.356	10292.19
504.724	10353.88
505.093	10433.2
505.462	10510.03
505.83	10619.18
506.199	10705.51
506.567	10854.66
506.936	10887.65
507.304	11024.82
507.672	11084.03
508.041	11173.29
508.409	11220.3
508.777	11351.14
509.145	11394.76
509.514	11390.46
509.882	11495.32
510.25	11487.41
510.618	11516.79
510.986	11611.25
511.354	11738.7
511.722	11810.79
512.09	11939.83
512.458	11913.16
512.826	11942.31
513.193	12000.16
513.561	12026.15
513.929	12115.19
514.297	12220.72
514.664	12312.47
515.032	12295.07
515.4	12402.41
515.767	12373.94
516.135	12516.08
516.502	12380.27
516.869	12515.63
517.237	12479.47
517.604	12511.34
517.972	12666.59
518.339	12641.73
518.706	12697.55
519.073	12665.46
519.44	12795.4
519.808	12851.67
520.175	12802.18
520.542	12991.1
520.909	13040.36
521.276	12932.12
521.643	13083.75
522.009	13050.08
522.376	13109.97
522.743	13172.11
523.11	13179.57
523.477	13223.86
523.843	13245.56
524.21	13306.12
524.577	13411.43
524.943	13414.36
525.31	13427.7
525.676	13586.34
526.043	13553.34
526.409	13535.27
526.776	13613.46
527.142	13632.21
527.508	13647.35
527.874	13683.06
528.241	13685.09
528.607	13634.25
528.973	13747.92
529.339	13725.77
529.705	13793.79
530.071	13780.91
530.437	13832.88
530.803	13774.13
531.169	13792.21
531.535	13717.86
531.901	13721.7
532.267	13764.86
532.632	13789.72
532.998	13781.81
533.364	13828.14
533.73	13796.05
534.095	13823.39
534.461	13791.98
534.826	13838.99
535.192	13843.73
535.557	13837.63
535.923	13755.82
536.288	13711.08
536.653	13756.73
537.019	13616.85
537.384	13667.69
537.749	13637.86
538.114	13658.2
538.479	13594.93
538.845	13539.11
539.21	13452.56
539.575	13515.61
539.94	13476.96
540.305	13473.12
540.67	13486.91
541.034	13412.78
541.399	13521.25
541.764	13403.29
542.129	13374.37
542.494	13384.76
542.858	13334.59
543.223	13300.24
543.587	13310.19
543.952	13274.03
544.316	13186.12
544.681	13132.11
545.045	13190.64
545.41	13160.13
545.774	13110.42
546.138	13050.53
546.503	13077.42
546.867	12925.79
547.231	13013.7
547.595	12966.02
547.959	13020.7
548.324	12915.85
548.688	12947.48
549.052	12907.49
549.416	12804.66
549.779	12855.06
550.143	12816.64
550.507	12788.17
550.871	12747.94
551.235	12701.84
551.599	12690.09
551.962	12688.28
552.326	12668.62
552.689	12709.07
553.053	12632.46
553.417	12501.85
553.78	12711.33
554.143	12504.78
554.507	12495.74
554.87	12536.65
555.234	12628.4
555.597	12534.84
555.96	12531
556.323	12539.36
556.686	12392.24
557.05	12533.94
557.413	12448.29
557.776	12459.81
558.139	12462.3
558.502	12470.66
558.865	12403.54
559.228	12401.28
559.59	12416.2
559.953	12432.92
560.316	12505.91
560.679	12388.18
561.041	12492.81
561.404	12483.99
561.767	12576.19
562.129	12398.35
562.492	12486.93
562.854	12447.61
563.217	12458.01
563.579	12451.68
563.941	12516.31
564.304	12597.89
564.666	12570.55
565.028	12513.15
565.39	12542.07
565.753	12604.89
566.115	12627.04
566.477	12656.42
566.839	12615.29
567.201	12703.65
567.563	12634.27
567.925	12639.92
568.287	12615.29
568.648	12664.33
569.01	12690.77
569.372	12786.13
569.734	12697.32
570.095	12794.49
570.457	12781.61
570.819	12694.84
571.18	12710.43
571.542	12803.08
571.903	12817.54
572.265	12831.33
572.626	12817.54
572.987	12850.09
573.349	12796.08
573.71	12923.3
574.071	12851.89
574.432	12895.28
574.794	13000.59
575.155	12941.61
575.516	12884.44
575.877	12918.56
576.238	12948.84
576.599	12967.37
576.96	12945.68
577.32	12997.43
577.681	12965.79
578.042	12917.2
578.403	12962.63
578.763	12981.83
579.124	12923.76
579.485	13041.95
579.845	13068.61
580.206	12894.15
580.566	12950.42
580.927	12949.52
581.287	12959.46
581.648	12947.26
582.008	12977.09
582.368	12981.83
582.728	12946.81
583.089	12992.23
583.449	12940.48
583.809	12952
584.169	12928.28
584.529	12880.14
584.889	12982.51
585.249	12888.28
585.609	12813.25
585.969	13018.67
586.329	12879.92
586.688	12929.86
587.048	12898.67
587.408	12849.86
587.768	12871.78
588.127	12833.59
588.487	12879.24
588.846	12977.77
589.206	12719.69
589.565	12713.14
589.925	12787.71
590.284	12768.51
590.643	12776.87
591.003	12885.11
591.362	12848.96
591.721	12786.13
592.08	12802.86
592.44	12870.65
592.799	12822.74
593.158	12759.01
593.517	12758.79
593.876	12818.45
594.235	12670.43
594.593	12671.11
594.952	12705.68
595.311	12712.46
595.67	12757.21
596.029	12770.99
596.387	12699.13
596.746	12804.21
597.104	12760.14
597.463	12720.6
597.822	12696.64
598.18	12710.88
598.538	12713.59
598.897	12756.3
599.255	12654.84
599.613	12825.91
599.972	12709.52
600.33	12764.21
600.688	12659.81
601.046	12703.2
601.404	12788.84
601.762	12669.53
602.12	12732.57
602.478	12710.43
602.836	12688.51
603.194	12687.38
603.552	12686.7
603.91	12682.63
604.268	12721.95
604.625	12683.76
604.983	12690.99
605.341	12641.05
605.698	12686.47
606.056	12729.86
606.413	12778.9
606.771	12693.25
607.128	12683.76
607.485	12683.08
607.843	12666.81
608.2	12795.85
608.557	12754.95
608.914	12758.79
609.272	12846.7
609.629	12786.13
609.986	12913.81
610.343	12758.56
610.7	12897.09
611.057	12868.16
611.414	12795.17
611.771	12849.63
612.127	12871.55
612.484	12890.99
612.841	12901.38
613.198	12775.96
613.554	12774.16
613.911	12944.55
614.267	12960.82
614.624	12881.27
614.98	12912.46
615.337	12969.86
615.693	13023.87
616.05	12985.22
616.406	13022.74
616.762	13016.18
617.118	13024.32
617.475	13034.49
617.831	13048.95
618.187	13048.95
618.543	12986.81
618.899	13161.94
619.255	13073.81
619.611	12978.44
619.967	13100.25
620.323	13056.18
620.678	13116.07
621.034	13010.76
621.39	13002.62
621.746	13052.79
622.101	13166.91
622.457	13090.08
622.812	13118.55
623.168	13151.55
623.523	13137.76
623.879	13162.39
624.234	13056.18
624.589	13146.12
624.945	13091.66
625.3	13141.6
625.655	13176.18
626.01	13039.69
626.365	13171.21
626.72	13090.98
627.075	13092.79
627.43	13134.6
627.785	12989.07
628.14	13125.78
628.495	13117.42
628.85	13055.28
629.205	13013.02
629.559	13092.79
629.914	13106.12
630.269	13016.64
630.623	13063.19
630.978	13065.67
631.332	13026.13
631.687	13045.79
632.041	12926.92
632.396	12950.2
632.75	12929.41
633.104	12960.82
633.459	12904.55
633.813	12867.71
634.167	12886.92
634.521	12842.18
634.875	12906.81
635.229	12819.8
635.583	12841.27
635.937	12821.16
636.291	12859.58
636.645	12816.87
636.999	12724.21
637.352	12768.96
637.706	12675.85
638.06	12692.8
638.413	12689.86
638.767	12679.02
639.121	12749.75
639.474	12658.68
639.828	12582.52
640.181	12687.38
640.534	12654.16
640.888	12610.09
641.241	12580.26
641.594	12567.38
641.947	12618.45
642.301	12673.37
642.654	12644.22
643.007	12585.46
643.36	12593.82
643.713	12476.99
644.066	12558.12
644.419	12522.86
644.771	12450.77
645.124	12420.04
645.477	12308.18
645.83	12273.6
646.182	12190.67
646.535	12125.13
646.888	12179.82
647.24	12081.74
647.593	12192.7
647.945	12159.93
648.298	12089.88
648.65	12047.4
649.002	12059.15
649.355	12141.4
649.707	12091.46
650.059	12143.21
650.411	12276.54
650.763	12295.52
651.115	12400.38
651.467	12346.14
651.819	12324.22
652.171	12465.92
652.523	12368.29
652.875	12321.96
653.227	12304.56
653.578	12366.93
653.93	12364
654.282	12371
654.633	12380.27
654.985	12308.63
655.337	12322.42
655.688	12413.49
656.039	12395.86
656.391	12314.28
656.742	12382.75
657.094	12351.12
657.445	12356.31
657.796	12419.81
658.147	12378.69
658.498	12297.56
658.849	12437.44
659.2	12369.19
659.551	12348.63
659.902	12404.9
660.253	12365.58
660.604	12391.34
660.955	12291.46
661.306	12391.34
661.656	12404
662.007	12405.35
662.358	12372.58
662.708	12408.74
663.059	12453.03
663.409	12321.51
663.76	12493.94
664.11	12441.96
664.461	12459.14
664.811	12419.36
665.161	12391.34
665.511	12391.34
665.862	12491.68
666.212	12490.32
666.562	12445.12
666.912	12414.39
667.262	12422.07
667.612	12463.2
667.962	12383.66
668.312	12469.3
668.662	12442.86
669.011	12391.34
669.361	12433.83
669.711	12360.61
670.06	12401.96
670.41	12350.44
670.76	12370.32
671.109	12360.61
671.459	12412.36
671.808	12282.64
672.157	12333.26
672.507	12291.91
672.856	12329.42
673.205	12358.8
673.554	12307.73
673.904	12288.29
674.253	12348.86
674.602	12300.04
674.951	12157.67
675.3	12094.85
675.649	12248.07
675.998	12272.25
676.346	12244
676.695	12313.15
677.044	12216.2
677.393	12165.36
677.741	12175.98
678.09	12249.65
678.438	12178.69
678.787	12153.38
679.135	12218.24
679.484	12054.17
679.832	12058.02
680.181	12003.78
680.529	12055.3
680.877	12057.11
681.225	12056.43
681.573	12027.51
681.922	11918.13
682.27	11960.62
682.618	11931.69
682.966	11877
683.314	11915.42
683.661	11825.25
684.009	11739.61
684.357	11718.82
684.705	11776.22
685.053	11794.29
685.4	11718.59
685.748	11647.86
686.095	11673.85
686.443	11651.02
686.79	11637.24
687.138	11663.9
687.485	11680.85
687.832	11579.38
688.18	11536.9
688.527	11484.7
688.874	11481.76
689.221	11498.93
689.568	11446.05
689.915	11455.32
690.262	11362.22
690.609	11403.34
690.956	11275.44
691.303	11245.83
691.65	11307.98
691.997	11212.16
692.344	11139.62
692.69	11160.64
693.037	11110.7
693.383	11064.37
693.73	10989.57
694.077	10951.15
694.423	10916.35
694.769	10877.26
695.116	10909.35
695.462	10893.08
695.808	10809.46
696.155	10894.88
696.501	10712.74
696.847	10741.67
697.193	10625.29
697.539	10690.37
697.885	10655.57
698.231	10602.24
698.577	10544.61
698.923	10483.82
699.269	10504.84
699.614	10404.05
699.96	10365.63
700.306	10491.28
700.651	10344.62
700.997	10308.46
701.342	10281.34
701.688	10207.44
702.033	10223.94
702.379	10207.67
702.724	10140.78
703.069	10138.07
703.415	10052.42
703.76	10119.31
704.105	10050.16
704.45	9976.04
704.795	9901.69
705.14	9950.5
705.485	9881.8
705.83	9846.77
706.175	9862.82
706.52	9792.09
706.865	9764.74
707.209	9797.51
707.554	9636.84
707.899	9753.67
708.243	9633.67
708.588	9625.99
708.932	9623.28
709.277	9557.74
709.621	9522.26
709.966	9536.27
710.31	9559.1
710.654	9430.97
710.998	9397.75
711.342	9450.63
711.687	9330.4
712.031	9338.31
712.375	9274.36
712.719	9324.53
713.063	9334.02
713.407	9273
713.75	9236.62
714.094	9235.94
714.438	9237.3
714.782	9224.64
715.125	9179
715.469	9179.9
715.812	9185.32
716.156	9067.59
716.499	9096.74
716.843	9109.62
717.186	9050.64
717.53	9111.2
717.873	9107.36
718.216	9090.18
718.559	9040.69
718.902	8965.44
719.246	9023.07
719.589	9013.58
719.932	8894.48
720.275	8952.79
720.617	8947.59
720.96	8932.9
721.303	8913.24
721.646	8888.61
721.989	8882.28
722.331	8929.96
722.674	8817.65
723.016	8866.91
723.359	8837.08
723.701	8909.62
724.044	8852.9
724.386	8816.07
724.729	8819.68
725.071	8803.19
725.413	8821.27
725.755	8752.79
726.097	8768.84
726.439	8715.05
726.782	8676.86
727.124	8808.61
727.465	8797.31
727.807	8746.46
728.149	8723.19
728.491	8744.43
728.833	8759.12
729.175	8699.91
729.516	8696.07
729.858	8726.35
730.199	8723.64
730.541	8655.39
730.882	8747.82
731.224	8681.83
731.565	8655.85
731.906	8688.61
732.248	8764.77
732.589	8603.42
732.93	8647.48
733.271	8579.01
733.612	8671.21
733.953	8615.62
734.294	8700.59
734.635	8661.72
734.976	8692.91
735.317	8604.32
735.658	8633.7
735.999	8592.12
736.339	8659.01
736.68	8687.26
737.021	8726.8
737.361	8658.33
737.702	8710.31
738.042	8684.77
738.383	8676.41
738.723	8608.16
739.063	8704.66
739.404	8732.68
739.744	8719.8
740.084	8669.4
740.424	8752.57
740.764	8725
741.104	8745.34
741.444	8721.15
741.784	8805.45
742.124	8825.33
742.464	8753.47
742.804	8774.26
743.143	8856.97
743.483	8846.12
743.823	8860.59
744.162	8827.82
744.502	8910.3
744.841	8890.64
745.181	8918.89
745.52	8982.62
745.86	9069.85
746.199	9051.32
746.538	9104.2
746.877	9155.95
747.216	9206.79
747.556	9219.45
747.895	9228.49
748.234	9364.75
748.573	9330.18
748.911	9471.42
749.25	9499.67
749.589	9510.06
749.928	9600.23
750.267	9606.78
750.605	9769.49
750.944	9740.56
751.283	9844.97
751.621	9920.67
751.96	10030.27
752.298	10133.1
752.636	10190.04
752.975	10286.99
753.313	10362.69
753.651	10495.35
753.989	10597.94
754.327	10630.71
754.666	10751.61
755.004	10941.44
755.342	11056.46
755.679	11050.59
756.017	11185.04
756.355	11398.15
756.693	11440.63
757.031	11613.51
757.368	11745.03
757.706	11913.16
758.044	12045.14
758.381	12185.02
758.719	12329.87
759.056	12606.25
759.394	12656.19
759.731	12733.7
760.068	12901.16
760.405	13048.05
760.743	13195.39
761.08	13471.31
761.417	13598.99
761.754	13687.58
762.091	13787.01
762.428	14006.21
762.765	14064.52
763.102	14312.42
763.438	14394.9
763.775	14554.9
764.112	14756.02
764.449	14894.33
764.785	15083.93
765.122	15152.17
765.458	15287.08
765.795	15456.8
766.131	15593.06
766.467	15714.87
766.804	15834.64
767.14	15891.14
767.476	16115.31
767.812	16186.5
768.148	16344.46
768.485	16328.64
768.821	16454.96
769.157	16671
769.492	16854.73
769.828	16828.74
770.164	16906.93
770.5	17062.63
770.836	17146.02
771.171	17114.83
771.507	17282.29
771.842	17352.11
772.178	17461.72
772.513	17505.1
772.849	17648.6
773.184	17636.85
773.519	17765.89
773.855	17848.6
774.19	17807.24
774.525	17856.28
774.86	18019.22
775.195	18113
775.53	18015.6
775.865	18040.91
776.2	18017.86
776.535	18015.37
776.87	18139.44
777.205	18208.14
777.539	18236.16
777.874	18275.93
778.209	18224.86
778.543	18226.22
778.878	18233.45
779.212	18270.06
779.547	18325.87
779.881	18460.79
780.215	18223.05
780.55	18422.59
780.884	18344.18
781.218	18282.49
781.552	18435.02
781.886	18380.34
782.22	18343.95
782.554	18298.3
782.888	18260.34
783.222	18193.67
783.556	18281.58
783.889	18235.03
784.223	18109.16
784.557	18148.93
784.89	18247.23
785.224	18146.22
785.557	18082.49
785.891	18159.78
786.224	18238.87
786.558	18077.07
786.891	18059.21
787.224	17960.01
787.557	17908.03
787.891	17937.41
788.224	17946.9
788.557	17976.5
788.89	17853.57
789.223	17936.05
789.556	17877.3
789.888	17812.44
790.221	17799.79
790.554	17670.98
790.887	17677.98
791.219	17637.76
791.552	17607.02
791.884	17544.43
792.217	17598.44
792.549	17594.82
792.882	17451.55
793.214	17454.94
793.546	17489.51
793.879	17380.59
794.211	17299.91
794.543	17350.76
794.875	17327.71
795.207	17403.86
795.539	17294.26
795.871	17242.96
796.203	17252.91
796.535	17046.13
796.867	17059.92
797.198	16987.38
797.53	17117.32
797.862	16868.74
798.193	16906.25
798.525	16782.86
798.856	16894.5
799.188	16710.1
799.519	16704
799.85	16674.17
800.182	16687.5
800.513	16587.61
800.844	16604.11
801.175	16579.71
801.506	16545.36
801.837	16498.8
802.168	16388.07
802.499	16411.57
802.83	16285.02
803.161	16372.03
803.491	16272.37
803.822	16356.89
804.153	16225.36
804.483	16075.99
804.814	16047.06
805.145	16064.92
805.475	16082.77
805.805	16030.57
806.136	15994.41
806.466	15949.67
806.796	15920.06
807.126	15850.91
807.457	15862.89
807.787	15853.62
808.117	15819.05
808.447	15654.31
808.777	15767.3
809.107	15652.27
809.436	15652.27
809.766	15585.38
810.096	15586.29
810.426	15554.42
810.755	15454.31
811.085	15447.98
811.414	15442.79
811.744	15312.62
812.073	15371.38
812.403	15289.8
812.732	15306.97
813.061	15276.91
813.39	15142.45
813.719	15158.5
814.049	15251.6
814.378	15097.48
814.707	15039.86
815.036	15157.82
815.365	15078.5
815.693	14865.17
816.022	15000.99
816.351	14935
816.68	14826.31
817.008	14885.06
817.337	14770.04
817.665	14742.69
817.994	14826.53
818.322	14770.94
818.651	14737.49
818.979	14621.56
819.307	14806.87
819.636	14682.58
819.964	14624.73
820.292	14703.6
820.62	14645.29
820.948	14599.87
821.276	14555.8
821.604	14603.49
821.932	14585.86
822.259	14562.81
822.587	14536.37
822.915	14512.64
823.243	14616.37
823.57	14537.95
823.898	14539.08
824.225	14453.43
824.553	14412.53
824.88	14521.91
825.207	14558.29
825.535	14435.13
825.862	14551.96
826.189	14452.98
826.516	14562.81
826.843	14544.73
827.17	14619.08
827.497	14535.24
827.824	14535.69
828.151	14514.67
828.478	14478.07
828.805	14602.13
829.131	14535.47
829.458	14608.46
829.785	14485.07
830.111	14560.32
830.438	14480.1
830.764	14578.18
831.09	14551.51
831.417	14508.57
831.743	14489.59
832.069	14516.48
832.395	14436.03
832.722	14531.4
833.048	14444.39
833.374	14509.7
833.7	14423.6
834.026	14499.76
834.351	14500.89
834.677	14428.8
835.003	14437.39
835.329	14431.97
835.654	14406.43
835.98	14366.88
836.306	14376.37
836.631	14311.52
836.956	14382.25
837.282	14278.75
837.607	14376.37
837.932	14196.94
838.258	14217.96
838.583	14212.76
838.908	14105.19
839.233	14325.08
839.558	14145.65
839.883	14056.16
840.208	14060.22
840.533	14138.19
840.858	14048.02
841.182	14041.69
841.507	14034.01
841.832	13942.26
842.156	13930.74
842.481	13967.57
842.805	13925.99
843.13	13872.43
843.454	13878.31
843.778	13731.42
844.103	13740.91
844.427	13733.23
844.751	13746.11
845.075	13683.96
845.399	13643.96
845.723	13500.01
846.047	13558.32
846.371	13354.03
846.695	13528.71
847.019	13424.31
847.343	13334.14
847.666	13197.42
847.99	13158.78
848.313	13152.9
848.637	13088.95
848.96	13113.58
849.284	13050.08
849.607	12968.95
849.931	12864.1
850.254	12928.28
850.577	12793.36
850.9	12694.84
851.223	12700.03
851.546	12658.9
851.869	12541.62
852.192	12658
852.515	12516.31
852.838	12458.46
853.161	12404.9
853.483	12436.76
853.806	12348.63
854.129	12322.87
854.451	12213.72
854.774	12186.6
855.096	12210.33
855.419	12105.7
855.741	12082.2
856.063	12085.81
856.385	11968.08
856.708	11897.57
857.03	11918.58
857.352	11982.99
857.674	11841.52
857.996	11853.73
858.318	11761.3
858.64	11837.01
858.961	11725.14
859.283	11705.26
859.605	11634.98
859.926	11673.62
860.248	11613.51
860.57	11519.05
860.891	11553.85
861.212	11427.52
861.534	11434.3
861.855	11447.41
862.176	11466.17
862.498	11508.65
862.819	11428.2
863.14	11352.95
863.461	11324.93
863.782	11343.91
864.103	11365.83
864.424	11301.65
864.745	11306.17
865.065	11215.1
865.386	11184.82
865.707	11174.2
866.027	11288.32
866.348	11129.45
866.668	11224.37
866.989	11138.94
867.309	11036.35
867.63	11071.83
867.95	11077.93
868.27	11056.01
868.59	11068.21
868.91	11070.92
869.23	10999.06
869.55	10975.11
869.87	11009.91
870.19	10957.93
870.51	10968.33
870.83	10989.12
871.15	10853.53
871.469	10880.65
871.789	10880.19
872.109	10851.72
872.428	10825.96
872.748	10879.06
873.067	10762.91
873.386	10805.17
873.706	10733.98
874.025	10647.43
874.344	10721.78
874.663	10687.66
874.982	10720.42
875.301	10630.71
875.62	10634.1
875.939	10641.1
876.258	10654.44
876.577	10611.05
876.896	10632.74
877.214	10595.68
877.533	10573.54
877.852	10573.99
878.17	10495.35
878.489	10514.33
878.807	10449.25
879.125	10451.5
879.444	10472.3
879.762	10411.96
880.08	10356.37
880.398	10369.25
880.716	10371.51
881.034	10347.33
881.352	10276.37
881.67	10308.01
881.988	10277.27
882.306	10237.05
882.624	10228.91
882.941	10181.46
883.259	10154.34
883.577	10171.74
883.894	10118.63
884.212	10094
884.529	10151.4
884.846	10109.37
885.164	10045.19
885.481	10035.7
885.798	10077.28
886.115	9950.28
886.432	9951.63
886.75	9950.05
887.067	9936.49
887.383	9856.72
887.7	9854.68
888.017	9777.62
888.334	9766.55
888.651	9813.1
888.967	9809.71
889.284	9755.03
889.6	9685.42
889.917	9627.57
890.233	9685.88
890.55	9611.53
890.866	9619.89
891.182	9580.34
891.498	9540.34
891.815	9479.55
892.131	9515.03
892.447	9421.48
892.763	9386.22
893.079	9364.98
893.395	9336.96
893.71	9346.68
894.026	9229.16
894.342	9336.96
894.657	9204.98
894.973	9224.19
895.289	9197.53
895.604	9143.97
895.92	9087.02
896.235	9078.21
896.55	9080.92
896.865	9060.81
897.181	8997.98
897.496	9016.29
897.811	8923.86
898.126	8897.87
898.441	8896.97
898.756	8865.78
899.071	8822.4
899.386	8837.08
899.7	8727.48
900.015	8703.3
900.33	8675.73
900.644	8627.6
900.959	8638.9
901.273	8585.79
901.588	8569.75
901.902	8520.71
902.216	8492.91
902.531	8505.34
902.845	8436.87
903.159	8400.94
903.473	8388.51
903.787	8314.16
904.101	8292.24
904.415	8264.9
904.729	8277.55
905.042	8227.16
905.356	8192.58
905.67	8134.5
905.984	8167.72
906.297	8081.17
906.611	8024.9
906.924	8057.67
907.237	8034.39
907.551	7999.14
907.864	7937.9
908.177	7953.94
908.491	7901.52
908.804	7814.06
909.117	7749.43
909.43	7772.48
909.743	7733.16
910.056	7715.98
910.368	7685.25
910.681	7591.69
910.994	7603.9
911.307	7593.95
911.619	7606.38
911.932	7477.12
912.244	7453.17
912.557	7413.62
912.869	7415.88
913.181	7439.83
913.494	7390.12
913.806	7330.01
914.118	7281.19
914.43	7290.91
914.742	7269.22
915.054	7220.4
915.366	7196.9
915.678	7139.05
915.99	7123.46
916.302	7083.68
916.613	7026.96
916.925	7059.96
917.236	7004.36
917.548	6939.73
917.859	6993.97
918.171	6907.19
918.482	6836.91
918.794	6862.22
919.105	6883.46
919.416	6812.5
919.727	6815.22
920.038	6803.01
920.349	6733.64
920.66	6735.44
920.971	6711.94
921.282	6654.77
921.593	6577.03
921.903	6607.31
922.214	6551.04
922.525	6526.18
922.835	6518.73
923.146	6470.37
923.456	6458.39
923.767	6443.7
924.077	6412.52
924.387	6408.22
924.697	6351.73
925.008	6324.16
925.318	6330.71
925.628	6342.91
925.938	6318.96
926.248	6229.69
926.558	6181.79
926.867	6212.07
927.177	6182.92
927.487	6134.1
927.796	6129.13
928.106	6112.86
928.416	6072.18
928.725	6009.81
929.034	5981.79
929.344	6021.11
929.653	5984.28
929.962	5946.99
930.271	5885.75
930.581	5878.07
930.89	5849.59
931.199	5800.33
931.508	5829.03
931.817	5819.54
932.125	5772.53
932.434	5760.33
932.743	5720.1
933.051	5681.23
933.36	5691.18
933.669	5621.12
933.977	5645.08
934.286	5633.33
934.594	5609.82
934.902	5528.24
935.21	5446.89
935.519	5496.15
935.827	5506.1
936.135	5426.55
936.443	5404.63
936.751	5410.73
937.059	5394.24
937.367	5351.98
937.674	5352.66
937.982	5356.95
938.29	5347.23
938.597	5278.53
938.905	5231.53
939.213	5259.32
939.52	5220.91
939.827	5230.85
940.135	5160.34
940.442	5148.14
940.749	5108.82
941.056	5068.14
941.363	5062.72
941.67	5083.28
941.977	5057.97
942.284	5028.14
942.591	4982.72
942.898	4999.9
943.205	4938.66
943.511	4908.15
943.818	4944.53
944.125	4845.55
944.431	4841.48
944.738	4900.69
945.044	4839.68
945.35	4787.02
945.657	4747.93
945.963	4752.45
946.269	4733.01
946.575	4769.62
946.881	4726.01
947.187	4677.65
947.493	4669.51
947.799	4678.55
948.105	4660.47
948.41	4562.62
948.716	4643.52
949.022	4569.4
949.327	4596.52
949.633	4496.63
949.938	4510.42
950.244	4505.45
950.549	4480.81
950.854	4443.08
951.16	4422.06
951.465	4416.41
951.77	4377.09
952.075	4407.14
952.38	4341.83
952.685	4339.12
952.99	4309.52
953.294	4293.02
953.599	4281.5
953.904	4268.39
954.209	4225.45
954.513	4194.49
954.818	4223.42
955.122	4217.32
955.426	4162.63
955.731	4133.25
956.035	4139.81
956.339	4180.03
956.643	4152.24
956.948	4105.23
957.252	4081.5
957.556	4063.42
957.86	4031.56
958.163	4023.88
958.467	3998.79
958.771	3990.21
959.075	3992.47
959.378	3946.37
959.682	3928.29
959.985	3874.5
960.289	3895.97
960.592	3862.75
960.896	3876.08
961.199	3912.24
961.502	3880.6
961.805	3812.58
962.108	3795.63
962.411	3755.86
962.714	3773.94
963.017	3749.08
963.32	3756.54
963.623	3711.57
963.926	3719.03
964.228	3682.64
964.531	3681.06
964.833	3686.71
965.136	3632.7
965.438	3640.16
965.741	3599.93
966.043	3561.29
966.345	3591.57
966.648	3533.27
966.95	3560.61
967.252	3522.87
967.554	3510.44
967.856	3488.98
968.158	3454.85
968.46	3481.07
968.761	3427.51
969.063	3452.82
969.365	3430.9
969.666	3453.27
969.968	3382.99
970.269	3352.48
970.571	3380.28
970.872	3351.35
971.174	3325.59
971.475	3350.45
971.776	3315.2
972.077	3313.84
972.378	3233.16
972.679	3273.84
972.98	3250.56
973.281	3270
973.582	3204.01
973.883	3220.96
974.183	3186.39
974.484	3160.62
974.785	3157.91
975.085	3121.53
975.386	3181.19
975.686	3136.67
975.986	3126.95
976.287	3147.29
976.587	3094.64
976.887	3069.78
977.187	3086.95
977.487	3075.88
977.787	3038.59
978.087	3011.7
978.387	2962.89
978.687	3013.06
978.987	2981.64
979.286	2937.35
979.586	2933.96
979.885	2969.89
980.185	2921.53
980.484	2921.99
980.784	2905.94
981.083	2835.89
981.382	2883.57
981.682	2872.72
981.981	2871.37
982.28	2846.28
982.579	2820.97
982.878	2812.84
983.177	2791.14
983.475	2794.08
983.774	2758.83
984.073	2746.62
984.372	2750.92
984.67	2732.61
984.969	2730.58
985.267	2700.52
985.566	2715.44
985.864	2685.16
986.162	2667.3
986.461	2681.77
986.759	2692.16
987.057	2612.84
987.355	2610.13
987.653	2597.47
987.951	2604.93
988.249	2559.96
988.547	2576.68
988.844	2581.2
989.142	2585.72
989.44	2532.39
989.737	2525.84
990.035	2554.99
990.332	2519.74
990.63	2464.14
990.927	2492.17
991.224	2503.24
991.521	2456.46
991.819	2442.9
992.116	2468.89
992.413	2406.29
992.71	2417.59
993.006	2406.74
993.303	2382.34
993.6	2417.59
993.897	2383.24
994.193	2345.28
994.49	2349.8
994.787	2310.25
995.083	2340.08
995.379	2317.26
995.676	2307.99
995.972	2278.61
996.268	2301.44
996.565	2265.05
996.861	2232.96
997.157	2216.47
997.453	2270.48
997.749	2234.55
998.044	2245.62
998.34	2231.61
998.636	2182.8
998.932	2167.88
999.227	2184.15
999.523	2150.48
999.818	2119.97
1000.114	2138.96
1000.409	2104.61
1000.704	2138.05
1001	2097.37
1001.295	2093.08
1001.59	2079.07
1001.885	2100.09
1002.18	2049.92
1002.475	2052.18
1002.77	2056.25
1003.065	2020.54
1003.359	2014.66
1003.654	2017.83
1003.949	1998.39
1004.243	1959.75
1004.538	1983.7
1004.832	1961.33
1005.127	1935.8
1005.421	1940.99
1005.715	1946.87
1006.009	1925.4
1006.304	1890.83
1006.598	1878.17
1006.892	1863.93
1007.186	1889.02
1007.48	1880.88
1007.773	1835.91
1008.067	1852.18
1008.361	1827.1
1008.655	1812.41
1008.948	1839.98
1009.242	1790.04
1009.535	1795.91
1009.829	1785.97
1010.122	1807.66
1010.415	1743.94
1010.708	1725.63
1011.001	1751.39
1011.295	1707.33
1011.588	1724.05
1011.881	1715.69
1012.173	1692.87
1012.466	1693.32
1012.759	1674.79
1013.052	1681.57
1013.344	1651.28
1013.637	1652.64
1013.93	1650.83
1014.222	1621.91
1014.514	1627.1
1014.807	1609.7
1015.099	1614.68
1015.391	1603.83
1015.683	1560.89
1015.976	1577.39
1016.268	1578.29
1016.56	1565.41
1016.851	1550.95
1017.143	1539.42
1017.435	1550.72
1017.727	1531.06
1018.018	1525.41
1018.31	1506.66
1018.602	1484.51
1018.893	1495.36
1019.185	1447.67
1019.476	1498.07
1019.767	1456.04
1020.058	1455.13
1020.35	1462.81
1020.641	1435.24
1020.932	1407
1021.223	1401.8
1021.514	1408.58
1021.804	1369.03
1022.095	1381.91
1022.386	1380.78
1022.677	1352.76
1022.967	1357.05
1023.258	1332.42
1023.548	1345.76
1023.839	1328.81
1024.129	1332.2
1024.419	1310.5
1024.709	1309.82
1025	1319.99
1025.29	1305.3
1025.58	1298.53
1025.87	1268.47
1026.16	1243.16
1026.449	1275.47
1026.739	1262.14
1027.029	1267.57
1027.319	1241.13
1027.608	1247.23
1027.898	1222.37
1028.187	1208.36
1028.477	1197.96
1028.766	1208.13
1029.055	1174.01
1029.344	1182.14
1029.634	1175.36
1029.923	1185.08
1030.212	1143.05
1030.501	1146.21
1030.79	1140.11
1031.078	1125.2
1031.367	1129.72
1031.656	1122.26
1031.945	1126.1
1032.233	1115.25
1032.522	1114.12
1032.81	1086.33
1033.099	1090.4
1033.387	1081.36
1033.675	1068.25
1033.963	1047.46
1034.251	1060.57
1034.54	1034.58
1034.828	1049.72
1035.116	1025.99
1035.403	1037.52
1035.691	1027.57
1035.979	1018.76
1036.267	1031.41
1036.554	1016.5
1036.842	989.38
1037.129	974.92
1037.417	974.01
1037.704	982.6
1037.992	978.08
1038.279	960.68
1038.566	962.94
1038.853	962.94
1039.14	962.94
