Data from hue_40_FLMS001491_65.txt Node
Date: Mon Feb 06 15:08:16 GMT 2017
User: dcchb
Spectrometer: FLMS00149
Trigger mode: 0
Integration Time (sec): 2.000000E-2
Scans to average: 10
Electric dark correction enabled: true
Nonlinearity correction enabled: false
Boxcar width: 0
XAxis mode: Wavelengths
Number of Pixels in Spectrum: 2048
>>>>>Begin Spectral Data<<<<<
341.393	-13.16
341.776	-13.16
342.16	-13.16
342.543	-64.46
342.927	-67.17
343.31	-64.69
343.693	-58.36
344.077	-50
344.46	-60.85
344.843	-53.39
345.226	-46.38
345.61	-43.45
345.993	-29.89
346.376	-10.9
346.759	19.15
347.142	16.44
347.525	54.18
347.908	60.73
348.291	67.51
348.674	94.86
349.057	105.03
349.44	125.82
349.823	132.14
350.206	178.47
350.588	198.58
350.971	194.97
351.354	235.64
351.737	247.39
352.119	259.6
352.502	253.95
352.884	281.74
353.267	272.93
353.65	288.75
354.032	293.95
354.414	283.33
354.797	325.58
355.179	304.34
355.562	334.17
355.944	341.63
356.326	314.51
356.709	343.44
357.091	347.5
357.473	347.5
357.855	326.26
358.238	323.32
358.62	356.32
359.002	342.08
359.384	334.4
359.766	340.95
360.148	335.75
360.53	326.71
360.912	332.82
361.294	329.88
361.676	343.66
362.057	324.91
362.439	319.94
362.821	332.14
363.203	326.49
363.584	355.19
363.966	320.16
364.348	307.51
364.729	307.05
365.111	327.39
365.493	317.68
365.874	317.68
366.256	320.39
366.637	339.6
367.019	331.01
367.4	331.23
367.781	302.53
368.163	342.99
368.544	301.86
368.925	327.17
369.306	288.3
369.688	298.24
370.069	313.83
370.45	314.74
370.831	327.17
371.212	307.96
371.593	322.42
371.974	332.59
372.355	326.04
372.736	329.43
373.117	313.38
373.498	346.6
373.879	339.14
374.26	340.95
374.641	315.19
375.021	320.61
375.402	324.23
375.783	325.81
376.163	332.14
376.544	345.02
376.925	330.78
377.305	327.84
377.686	307.73
378.066	324.45
378.447	340.5
378.827	317
379.208	324
379.588	344.34
379.968	326.71
380.349	325.81
380.729	340.73
381.109	369.43
381.489	335.08
381.87	335.98
382.25	341.86
382.63	353.38
383.01	347.73
383.39	355.19
383.77	355.19
384.15	349.54
384.53	342.31
384.91	332.59
385.29	356.54
385.67	352.25
386.049	356.77
386.429	365.58
386.809	356.54
387.189	362.19
387.568	376.88
387.948	345.92
388.328	364
388.707	371.01
389.087	370.56
389.466	378.01
389.846	363.1
390.225	369.88
390.605	366.94
390.984	380.27
391.363	369.2
391.743	386.15
392.122	366.04
392.501	371.46
392.881	385.24
393.26	388.18
393.639	391.57
394.018	393.15
394.397	387.05
394.776	383.21
395.155	386.6
395.534	392.7
395.913	388.18
396.292	379.82
396.671	384.11
397.05	405.36
397.429	400.61
397.808	406.26
398.186	406.03
398.565	409.65
398.944	406.03
399.323	390.44
399.701	402.87
400.08	409.2
400.458	424.57
400.837	409.88
401.215	414.4
401.594	421.18
401.972	409.65
402.351	419.14
402.729	409.65
403.107	408.75
403.486	418.24
403.864	429.99
404.242	418.01
404.62	431.57
404.999	438.8
405.377	434.28
405.755	453.72
406.133	429.31
406.511	448.52
406.889	426.15
407.267	448.52
407.645	453.04
408.023	474.06
408.401	455.52
408.779	439.93
409.156	463.89
409.534	472.47
409.912	472.93
410.29	465.69
410.667	485.13
411.045	483.77
411.422	479.48
411.8	484
412.178	458.24
412.555	502.3
412.933	489.2
413.31	490.55
413.687	480.83
414.065	510.21
414.442	508.86
414.819	513.15
415.197	530.1
415.574	495.98
415.951	527.39
416.328	516.54
416.705	534.84
417.082	512.92
417.46	530.78
417.837	525.81
418.214	526.03
418.591	550.89
418.967	539.59
419.344	548.18
419.721	549.76
420.098	539.36
420.475	572.81
420.852	573.71
421.228	556.09
421.605	557.44
421.982	546.14
422.358	566.93
422.735	564.67
423.111	591.34
423.488	579.36
423.864	583.21
424.241	599.48
424.617	601.06
424.994	603.32
425.37	607.84
425.746	610.32
426.123	616.88
426.499	631.79
426.875	611.68
427.251	629.31
427.627	633.6
428.003	653.71
428.379	642.41
428.756	638.34
429.132	650.32
429.507	653.49
429.883	658.01
430.259	664.78
430.635	667.04
431.011	681.06
431.387	700.04
431.763	688.51
432.138	691.9
432.514	714.95
432.89	709.08
433.265	711.56
433.641	725.57
434.016	735.07
434.392	732.13
434.767	729.42
435.143	751.56
435.518	754.5
435.894	741.62
436.269	752.47
436.644	776.87
437.02	771.22
437.395	764.44
437.77	761.28
438.145	781.62
438.52	805.35
438.895	827.04
439.271	806.7
439.646	818.91
440.021	816.87
440.395	806.7
440.77	800.37
441.145	829.07
441.52	840.83
441.895	868.85
442.27	846.7
442.645	860.71
443.019	854.38
443.394	870.66
443.769	851.22
444.143	852.8
444.518	876.76
444.892	875.17
445.267	894.16
445.641	868.85
446.016	882.86
446.39	887.15
446.764	917.21
447.139	911.33
447.513	898.22
447.887	928.28
448.262	920.82
448.636	900.26
449.01	931.9
449.384	945.91
449.758	961.5
450.132	944.78
450.506	947.26
450.88	971.22
451.254	963.99
451.628	973.48
452.002	1017.32
452.376	1012.57
452.75	995.85
453.123	1021.39
453.497	1068.16
453.871	1014.38
454.244	1037.2
454.618	1067.71
454.992	1067.49
455.365	1090.54
455.739	1099.35
456.112	1119.69
456.486	1106.81
456.859	1129.63
457.232	1114.04
457.606	1123.3
457.979	1159.91
458.352	1159.01
458.725	1175.05
459.099	1186.58
459.472	1218.67
459.845	1212.12
460.218	1231.1
460.591	1221.83
460.964	1247.59
461.337	1274.49
461.71	1318.78
462.083	1283.53
462.456	1319.23
462.829	1311.55
463.201	1339.8
463.574	1344.54
463.947	1361.26
464.32	1376.4
464.692	1396.06
465.065	1392.9
465.438	1439.23
465.81	1454.14
466.183	1500.47
466.555	1507.47
466.928	1499.79
467.3	1519
467.672	1570.98
468.045	1623.86
468.417	1582.95
468.789	1610.3
469.161	1642.16
469.534	1652.33
469.906	1699.11
470.278	1728.94
470.65	1751.76
471.022	1744.98
471.394	1823.85
471.766	1869.72
472.138	1886
472.51	1914.47
472.882	1943.4
473.253	1975.48
473.625	2021.59
473.997	2088.25
474.369	2104.75
474.74	2106.1
475.112	2157.17
475.484	2220.45
475.855	2239.21
476.227	2278.08
476.598	2357.17
476.97	2416.15
477.341	2467.9
477.713	2526.2
478.084	2565.53
478.455	2647.11
478.827	2677.84
479.198	2766.65
479.569	2807.55
479.94	2910.6
480.311	2938.17
480.682	3032.86
481.053	3081.9
481.424	3219.29
481.795	3234.21
482.166	3346.07
482.537	3437.14
482.908	3480.53
483.279	3584.71
483.65	3697.02
484.021	3787.64
484.391	3895.66
484.762	3974.75
485.133	4035.77
485.503	4136.78
485.874	4197.8
486.244	4267.18
486.615	4471.46
486.985	4516.66
487.356	4642.08
487.726	4694.51
488.097	4830.55
488.467	4952.36
488.837	5086.59
489.207	5196.64
489.578	5306.92
489.948	5446.35
490.318	5510.08
490.688	5640.02
491.058	5723.18
491.428	5848.83
491.798	6000.69
492.168	6114.81
492.538	6209.5
492.908	6335.82
493.278	6405.65
493.648	6504.86
494.017	6624.18
494.387	6739.2
494.757	6882.7
495.126	6979.87
495.496	7072.07
495.866	7119.98
496.235	7316.14
496.605	7397.94
496.974	7516.81
497.344	7601.55
497.713	7664.15
498.082	7796.8
498.452	7915.44
498.821	7972.16
499.19	8102.56
499.559	8220.52
499.928	8369.44
500.298	8422.55
500.667	8509.55
501.036	8589.32
501.405	8721.75
501.774	8686.04
502.143	8804.68
502.512	8926.71
502.88	8985.47
503.249	9134.62
503.618	9218.91
503.987	9305.91
504.356	9342.97
504.724	9439.24
505.093	9538.22
505.462	9646.02
505.83	9746.58
506.199	9777.09
506.567	9967.37
506.936	9942.51
507.304	10087.59
507.672	10115.38
508.041	10266.34
508.409	10359.45
508.777	10441.93
509.145	10555.37
509.514	10559.67
509.882	10685.54
510.25	10647.57
510.618	10883.05
510.986	10854.57
511.354	11013.44
511.722	11160.55
512.09	11239.42
512.458	11261.12
512.826	11333.2
513.193	11410.26
513.561	11397.38
513.929	11568.9
514.297	11626.98
514.664	11695.46
515.032	11835.34
515.4	11976.13
515.767	11895.45
516.135	12103.35
516.502	12003.92
516.869	12260.64
517.237	12325.72
517.604	12212.5
517.972	12411.82
518.339	12507.19
518.706	12465.38
519.073	12598.48
519.44	12780.4
519.808	12796.44
520.175	12821.08
520.542	13039.6
520.909	13074.85
521.276	13074.85
521.643	13236.88
522.009	13293.38
522.376	13361.63
522.743	13442.08
523.11	13626.48
523.477	13673.93
523.843	13708.28
524.21	13878
524.577	13935.17
524.943	14058.33
525.31	14163.19
525.676	14213.58
526.043	14404.76
526.409	14504.19
526.776	14559.79
527.142	14588.94
527.508	14718.43
527.874	14803.4
528.241	14903.73
528.607	14950.28
528.973	15065.76
529.339	15111.64
529.705	15241.35
530.071	15369.26
530.437	15399.99
530.803	15527.22
531.169	15535.35
531.535	15602.7
531.901	15609.93
532.267	15808.57
532.632	15903.25
532.998	15855.57
533.364	15988.22
533.73	15983.7
534.095	16205.85
534.461	16207.65
534.826	16250.82
535.192	16312.96
535.557	16466.86
535.923	16479.06
536.288	16596.8
536.653	16704.14
537.019	16664.14
537.384	16714.08
537.749	16836.11
538.114	16926.28
538.479	16942.77
538.845	17061.87
539.21	17116.56
539.575	17184.8
539.94	17194.52
540.305	17310
540.67	17301.18
541.034	17478.58
541.399	17461.86
541.764	17540.27
542.129	17569.65
542.494	17667.5
542.858	17779.36
543.223	17769.87
543.587	17856.88
543.952	17834.95
544.316	17924.44
544.681	17894.61
545.045	18069.75
545.41	18214.83
545.774	18173.93
546.138	18262.51
546.503	18301.84
546.867	18346.35
547.231	18514.71
547.595	18574.14
547.959	18538.44
548.324	18602.84
548.688	18747.7
549.052	18717.42
549.416	18825.21
549.779	18908.37
550.143	18929.84
550.507	19150.63
550.871	19136.62
551.235	19129.84
551.599	19185.88
551.962	19342.26
552.326	19370.73
552.689	19534.12
553.053	19384.97
553.417	19411.18
553.78	19648.69
554.143	19699.09
554.507	19745.19
554.87	19781.34
555.234	19923.04
555.597	19803.94
555.96	19957.38
556.323	20076.7
556.686	20056.37
557.05	20276.47
557.413	20259.75
557.776	20319.64
558.139	20460.87
558.502	20516.47
558.865	20605.5
559.228	20623.81
559.59	20749.23
559.953	20775.44
560.316	20936.34
560.679	20951.93
561.041	21137.69
561.404	21281.87
561.767	21410.68
562.129	21369.33
562.492	21549.66
562.854	21523.67
563.217	21455.42
563.579	21593.95
563.941	21760.05
564.304	21786.04
564.666	21919.59
565.028	21962.3
565.39	22074.39
565.753	22198.46
566.115	22279.58
566.477	22341.05
566.839	22356.64
567.201	22536.07
567.563	22528.16
567.925	22637.09
568.287	22663.53
568.648	22747.14
569.01	22935.16
569.372	23094.7
569.734	23025.78
570.095	23234.81
570.457	23266.45
570.819	23295.6
571.18	23401.14
571.542	23570.85
571.903	23587.12
572.265	23687.68
572.626	23719.77
572.987	23835.02
573.349	23998.86
573.71	24095.58
574.071	24292.64
574.432	24221.23
574.794	24466.19
575.155	24530.15
575.516	24570.6
575.877	24744.38
576.238	24674.1
576.599	24886.75
576.96	24986.18
577.32	25148.21
577.681	25233.86
578.042	25428.88
578.403	25432.5
578.763	25488.99
579.124	25581.64
579.485	25848.53
579.845	26065.7
580.206	26182.76
580.566	26281.96
580.927	26495.29
581.287	26568.06
581.648	26608.28
582.008	26892.57
582.368	27011.21
582.728	27155.84
583.089	27249.17
583.449	27411.65
583.809	27531.65
584.169	27820.91
584.529	27740.91
584.889	28128.47
585.249	28245.08
585.609	28252.76
585.969	28543.15
586.329	28580.89
586.688	28918.28
587.048	29062.23
587.408	29150.59
587.768	29284.15
588.127	29661.99
588.487	29667.41
588.846	30119.6
589.206	30086.16
589.565	30262.2
589.925	30521.17
590.284	30713.49
590.643	30817.89
591.003	31250.2
591.362	31188.28
591.721	31368.84
592.08	31650.18
592.44	31790.97
592.799	31951.87
593.158	32056.73
593.517	32317.06
593.876	32525.42
594.235	32666.2
594.593	32845.86
594.952	33095.8
595.311	33080.43
595.67	33409.01
596.029	33693.52
596.387	33818.94
596.746	34065.26
597.104	34048.99
597.463	34342.09
597.822	34394.75
598.18	34422.54
598.538	34575.98
598.897	35009.64
599.255	34815.07
599.613	35548.39
599.972	35380.71
600.33	35708.16
600.688	35694.82
601.046	35956.29
601.404	36155.83
601.762	36201.93
602.12	36388.37
602.478	36545.88
602.836	36826.09
603.194	36599.43
603.552	36888.01
603.91	36910.39
604.268	37268.12
604.625	37230.15
604.983	37375.46
605.341	37388.56
605.698	37625.62
606.056	37783.13
606.413	37848.21
606.771	38031.71
607.128	38079.17
607.485	38111.26
607.843	38227.64
608.2	38395.77
608.557	38803.44
608.914	38664.46
609.272	39040.95
609.629	39147.84
609.986	39216.54
610.343	39164.11
610.7	39504.44
611.057	39571.78
611.414	39542.41
611.771	39744.21
612.127	39833.7
612.484	39968.16
612.841	40198.21
613.198	40092.22
613.554	40199.11
613.911	40352.78
614.267	40371.31
614.624	40527.01
614.98	40564.3
615.337	40860.34
615.693	40815.37
616.05	40893.11
616.406	41059.43
616.762	41039.54
617.118	41199.09
617.475	41284.73
617.831	41424.17
618.187	41515.46
618.543	41641.79
618.899	41853.76
619.255	41837.04
619.611	41669.58
619.967	42013.98
620.323	42114.09
620.678	42070.02
621.034	41910.71
621.39	42159.29
621.746	41899.86
622.101	42512.95
622.457	42152.28
622.812	42268.21
623.168	42519.5
623.523	42464.82
623.879	42483.57
624.234	42366.06
624.589	42521.76
624.945	42585.94
625.3	42662.55
625.655	42640.18
626.01	42659.16
626.365	42721.08
626.72	42771.47
627.075	42788.65
627.43	42754.3
627.785	42716.79
628.14	42861.64
628.495	42842.66
628.85	42873.62
629.205	42749.1
629.559	43098.25
629.914	42890.34
630.269	42833.39
630.623	42746.84
630.978	42648.54
631.332	43009.21
631.687	43143.44
632.041	42921.53
632.396	43023.9
632.75	42823
633.104	43005.37
633.459	42529.9
633.813	42749.1
634.167	42757.46
634.521	42765.6
634.875	42757.92
635.229	42945.03
635.583	42778.03
635.937	42791.36
636.291	42674.3
636.645	42742.32
636.999	42582.78
637.352	42701.87
637.706	42538.94
638.06	42617.81
638.413	42621.42
638.767	42503.68
639.121	42517.24
639.474	42320.86
639.828	42495.55
640.181	42441.54
640.534	42423.23
640.888	42432.05
641.241	42265.95
641.594	42380.52
641.947	42346.17
642.301	42209.23
642.654	42345.27
643.007	42242
643.36	42153.19
643.713	42157.03
644.066	42421.88
644.419	42125.84
644.771	41814.21
645.124	41536.93
645.477	41423.49
645.83	41251.06
646.182	41170.84
646.535	41022.59
646.888	41137.62
647.24	40773.11
647.593	40988.7
647.945	41101.46
648.298	40859.66
648.65	40661.7
649.002	40711.42
649.355	40938.75
649.707	40704.41
650.059	40889.49
650.411	41396.37
650.763	41330.16
651.115	41777.83
651.467	41669.58
651.819	41605.63
652.171	41568.79
652.523	41506.42
652.875	41586.65
653.227	41364.28
653.578	41716.81
653.93	41563.14
654.282	41448.35
654.633	41230.5
654.985	41395.01
655.337	41336.26
655.688	41434.33
656.039	41636.59
656.391	41215.36
656.742	41129.71
657.094	41176.26
657.445	41402.47
657.796	41363.38
658.147	41223.94
658.498	41144.4
658.849	41261.01
659.2	41283.15
659.551	41021.46
659.902	41260.55
660.253	41198.41
660.604	41338.07
660.955	40967.23
661.306	41168.8
661.656	40990.05
662.007	41004.06
662.358	41081.35
662.708	40926.78
663.059	40864.86
663.409	40731.98
663.76	41089.26
664.11	41155.25
664.461	41104.4
664.811	40959.09
665.161	41162.7
665.511	40969.71
665.862	41107.79
666.212	41023.95
666.562	41049.49
666.912	40974.69
667.262	40972.88
667.612	40881.58
667.962	40960
668.312	40783.28
668.662	41073.21
669.011	40909.83
669.361	40922.71
669.711	40823.5
670.06	40800.45
670.41	40732.88
670.76	40785.76
671.109	40897.4
671.459	40725.88
671.808	40780.11
672.157	40964.74
672.507	40563.4
672.856	40606.56
673.205	40630.29
673.554	40739.66
673.904	40612.21
674.253	40845.2
674.602	40738.08
674.951	40131.32
675.3	39943.53
675.649	40645.43
675.998	40452.44
676.346	40488.82
676.695	40596.39
677.044	40375.15
677.393	40326.34
677.741	40570.63
678.09	40283.18
678.438	40251.77
678.787	40271.2
679.135	40360.24
679.484	40075.05
679.832	40251.54
680.181	40136.06
680.529	40160.7
680.877	40145.33
681.225	39963.64
681.573	40159.11
681.922	39949.4
682.27	39776.75
682.618	39736.3
682.966	39705.57
683.314	39782.4
683.661	39655.62
684.009	39483.43
684.357	39408.85
684.705	39278.46
685.053	39374.5
685.4	39389.64
685.748	39228.52
686.095	39122.08
686.443	38963.21
686.79	38979.48
687.138	39133.38
687.485	38981.29
687.832	39031.69
688.18	38949.65
688.527	38774.52
688.874	38765.25
689.221	38686.61
689.568	38660.85
689.915	38589.89
690.262	38513.96
690.609	38494.07
690.956	38303.34
691.303	38161.88
691.65	37975.22
691.997	38057.47
692.344	37827.88
692.69	37760.76
693.037	37859.96
693.383	37525.06
693.73	37749.69
694.077	37390.37
694.423	37456.13
694.769	37258.62
695.116	37260.43
695.462	37177.5
695.808	37149.02
696.155	37220.89
696.501	36898.18
696.847	36749.71
697.193	36556.95
697.539	36669.71
697.885	36414.35
698.231	36302.27
698.577	36333.45
698.923	36350.63
699.269	36136.39
699.614	35950.64
699.96	35876.51
700.306	35984.31
700.651	35770.3
700.997	35658.67
701.342	35630.87
701.688	35556.97
702.033	35471.33
702.379	35379.58
702.724	35386.81
703.069	35380.03
703.415	35023.43
703.76	34974.62
704.105	35069.76
704.45	34914.51
704.795	34740.27
705.14	34591.8
705.485	34578.92
705.83	34534.85
706.175	34612.82
706.52	34412.15
706.865	34366.05
707.209	34207.41
707.554	34171.7
707.899	34172.38
708.243	34030.69
708.588	34015.77
708.932	33692.16
709.277	33745.95
709.621	33773.29
709.966	33548.89
710.31	33672.05
710.654	33361.78
710.998	33373.08
711.342	33365.39
711.687	33335.79
712.031	33232.52
712.375	33113.42
712.719	33117.49
713.063	32996.36
713.407	33142.35
713.75	32926.76
714.094	32885.41
714.438	32751.85
714.782	32818.06
715.125	32619.2
715.469	32786.2
715.812	32545.08
716.156	32381.46
716.499	32368.13
716.843	32315.48
717.186	32271.86
717.53	32355.7
717.873	32249.27
718.216	32247.91
718.559	32105.31
718.902	31787.81
719.246	31980.8
719.589	31806.56
719.932	31722.73
720.275	31758.2
720.617	31711.43
720.96	31699
721.303	31637.08
721.646	31587.14
721.989	31532.22
722.331	31460.13
722.674	31398.44
723.016	31346.92
723.359	31299.46
723.701	31323.87
724.044	31016.08
724.386	30975.85
724.729	31161.38
725.071	31130.65
725.413	31013.14
725.755	30881.84
726.097	30918.45
726.439	30701.96
726.782	30711
727.124	31018.79
727.465	30665.8
727.807	30580.16
728.149	30503.77
728.491	30537.22
728.833	30493.15
729.175	30335.42
729.516	30369.31
729.858	30224.01
730.199	30382.65
730.541	30322.76
730.882	30289.09
731.224	30349.43
731.565	30131.13
731.906	30056.1
732.248	30037.35
732.589	29932.04
732.93	29778.37
733.271	29828.54
733.612	29923.45
733.953	29994.41
734.294	29727.52
734.635	29660.18
734.976	29836
735.317	29514.87
735.658	29519.39
735.999	29584.02
736.339	29537.02
736.68	29590.8
737.021	29443.46
737.361	29311.04
737.702	29533.86
738.042	29347.42
738.383	29256.58
738.723	29367.98
739.063	29275.11
739.404	29219.74
739.744	29065.62
740.084	29063.36
740.424	29165.05
740.764	29035.56
741.104	29135.9
741.444	28894.1
741.784	28805.74
742.124	28871.73
742.464	28824.72
742.804	28694.56
743.143	28676.93
743.483	28722.13
743.823	28578.18
744.162	28592.64
744.502	28592.64
744.841	28452.98
745.181	28589.93
745.52	28397.16
745.86	28383.6
746.199	28445.3
746.538	28303.38
746.877	28443.72
747.216	28259.54
747.556	28234.46
747.895	28175.02
748.234	28018.42
748.573	27887.35
748.911	28017.51
749.25	28041.01
749.589	27753.11
749.928	27885.54
750.267	27826.1
750.605	27754.24
750.944	27733.9
751.283	27642.38
751.621	27589.05
751.96	27436.28
752.298	27460.92
752.636	27469.5
752.975	27344.08
753.313	27219.34
753.651	27426.57
753.989	27235.61
754.327	27304.54
754.666	27027.03
755.004	27079.68
755.342	27031.32
755.679	27061.6
756.017	26902.29
756.355	26931.44
756.693	26806.47
757.031	26755.85
757.368	26480.6
757.706	26561.28
758.044	26453.71
758.381	26546.82
758.719	26390.89
759.056	26498
759.394	26273.83
759.731	26088.07
760.068	26205.58
760.405	26034.06
760.743	26069.99
761.08	26156.54
761.417	25921.52
761.754	25764.01
762.091	25709.55
762.428	25657.12
762.765	25402.44
763.102	25543.9
763.438	25487.86
763.775	25311.37
764.112	25321.99
764.449	25256.68
764.785	25181.43
765.122	25099.17
765.458	24958.61
765.795	24864.6
766.131	24844.94
766.467	24771.72
766.804	24598.62
767.14	24541.22
767.476	24513.2
767.812	24386.42
768.148	24451.28
768.485	24234.56
768.821	24121.8
769.157	24180.55
769.492	24072.08
769.828	24066.66
770.164	23748.47
770.5	23778.08
770.836	23725.2
771.171	23632.99
771.507	23567.69
771.842	23409.27
772.178	23384.41
772.513	23283.4
772.849	23228.03
773.184	23117.98
773.519	23167.92
773.855	22969.51
774.19	22857.87
774.525	22887.03
774.86	22854.03
775.195	22716.41
775.53	22664.21
775.865	22637.77
776.2	22357.55
776.535	22232.13
776.87	22238.23
777.205	22162.07
777.539	22176.08
777.874	22127.5
778.209	21930.89
778.543	21856.32
778.878	21757.34
779.212	21729.09
779.547	21593.95
779.881	21640.96
780.215	21444.8
780.55	21467.63
780.884	21363.68
781.218	21372.04
781.552	21262.44
781.886	21200.52
782.22	20957.81
782.554	20937.25
782.888	20860.86
783.222	20831.26
783.556	20594.2
783.889	20601.89
784.223	20499.74
784.557	20453.42
784.89	20388.56
785.224	20314.89
785.557	20126.19
785.891	20182.69
786.224	20182.92
786.558	20083.71
786.891	19938.63
787.224	19720.78
787.557	19753.55
787.891	19747.45
788.224	19690.95
788.557	19661.35
788.89	19667.67
789.223	19570.5
789.556	19442.82
789.888	19439.66
790.221	19209.16
790.554	19180
790.887	19195.82
791.219	19139.78
791.552	19107.46
791.884	18942.95
792.217	18834.25
792.549	18802.16
792.882	18687.36
793.214	18693.92
793.546	18690.53
793.879	18568.49
794.211	18445.56
794.543	18477.88
794.875	18306.58
795.207	18493.02
795.539	18298.22
795.871	18298.67
796.203	18186.36
796.535	18010.54
796.867	17918.79
797.198	17968.06
797.53	17925.12
797.862	17696.88
798.193	17801.28
798.525	17779.14
798.856	17771
799.188	17598.35
799.519	17474.74
799.85	17423.89
800.182	17497.56
800.513	17444.68
800.844	17369.88
801.175	17456.66
801.506	17277.91
801.837	17233.61
802.168	17120.62
802.499	17085.14
802.83	17111.58
803.161	16963.34
803.491	16943.45
803.822	16939.84
804.153	16822.78
804.483	16763.8
804.814	16690.13
805.145	16593.86
805.475	16658.04
805.805	16550.47
806.136	16537.36
806.466	16465.95
806.796	16437.25
807.126	16317.25
807.457	16318.61
807.787	16395.67
808.117	16218.05
808.447	16213.08
808.777	16279.29
809.107	16077.03
809.436	16069.8
809.766	16070.26
810.096	15968.79
810.426	15958.85
810.755	15984.83
811.085	15919.07
811.414	15841.33
811.744	15743.03
812.073	15851.05
812.403	15606.09
812.732	15634.33
813.061	15589.59
813.39	15482.47
813.719	15503.26
814.049	15557.27
814.378	15475.24
814.707	15410.16
815.036	15371.74
815.365	15279.77
815.693	15183.05
816.022	15297.85
816.351	15090.62
816.68	15032.32
817.008	15085.42
817.337	14998.19
817.665	14919.55
817.994	14970.4
818.322	15039.55
818.651	14851.98
818.979	14780.12
819.307	14945.77
819.636	14806.11
819.964	14751.42
820.292	14760.91
820.62	14788.03
820.948	14654.93
821.276	14769.95
821.604	14740.8
821.932	14725.43
822.259	14802.49
822.587	14697.18
822.915	14680.91
823.243	14684.98
823.57	14666
823.898	14678.2
824.225	14652.67
824.553	14563.4
824.88	14616.28
825.207	14619.9
825.535	14564.76
825.862	14581.03
826.189	14594.81
826.516	14595.04
826.843	14642.04
827.17	14590.97
827.497	14562.27
827.824	14616.06
828.151	14697.64
828.478	14624.64
828.805	14648.37
829.131	14589.84
829.458	14494.93
829.785	14473.01
830.111	14573.8
830.438	14621.93
830.764	14635.04
831.09	14602.95
831.417	14449.96
831.743	14524.31
832.069	14470.52
832.395	14470.75
832.722	14493.57
833.048	14425.33
833.374	14440.02
833.7	14451.09
834.026	14406.34
834.351	14496.51
834.677	14426.91
835.003	14430.07
835.329	14416.29
835.654	14332.67
835.98	14270.53
836.306	14313.92
836.631	14339
836.956	14405.44
837.282	14252.9
837.607	14237.76
837.932	14229.85
838.258	14204.99
838.583	14168.84
838.908	14119.35
839.233	14152.79
839.558	14179.46
839.883	14075.51
840.208	13926.36
840.533	13973.81
840.858	14013.13
841.182	13943.08
841.507	13948.5
841.832	13863.76
842.156	13828.05
842.481	13763.88
842.805	13882.29
843.13	13799.35
843.454	13746.7
843.778	13643.88
844.103	13647.72
844.427	13606.37
844.751	13647.95
845.075	13643.2
845.399	13642.07
845.723	13508.97
846.047	13425.81
846.371	13321.4
846.695	13407.73
847.019	13301.29
847.343	13195.53
847.666	13141.29
847.99	13178.81
848.313	13158.92
848.637	13067.62
848.96	12915.54
849.284	12986.04
849.607	12895.2
849.931	12821.3
850.254	12737.01
850.577	12670.8
850.9	12629.89
851.223	12619.05
851.546	12607.75
851.869	12496.34
852.192	12500.41
852.515	12419.96
852.838	12399.39
853.161	12353.97
853.483	12224.48
853.806	12249.56
854.129	12247.53
854.451	12173.41
854.774	12029.68
855.096	12007.76
855.419	12051.15
855.741	12018.61
856.063	11917.6
856.385	11896.35
856.708	11853.87
857.03	11824.94
857.352	11834.21
857.674	11751.27
857.996	11758.5
858.318	11688.22
858.64	11645.96
858.961	11667.21
859.283	11542.92
859.605	11564.61
859.926	11581.79
860.248	11513.77
860.57	11472.86
860.891	11507.21
861.212	11430.38
861.534	11373.66
861.855	11354.9
862.176	11351.28
862.498	11299.76
862.819	11347.22
863.14	11260.89
863.461	11290.27
863.782	11226.54
864.103	11219.54
864.424	11134.34
864.745	11208.69
865.065	11104.28
865.386	11174.79
865.707	11065.87
866.027	11106.09
866.348	11066.09
866.668	11105.64
866.989	11060.9
867.309	10933.67
867.63	10950.16
867.95	10998.52
868.27	10919.2
868.59	10991.97
868.91	10829.49
869.23	10926.66
869.55	10902.48
869.87	10930.28
870.19	10867.45
870.51	10878.3
870.83	10866.1
871.15	10687.35
871.469	10774.35
871.789	10789.49
872.109	10724.63
872.428	10690.96
872.748	10716.95
873.067	10746.78
873.386	10679.66
873.706	10666.33
874.025	10594.02
874.344	10597.63
874.663	10560.12
874.982	10609.83
875.301	10596.28
875.62	10510.18
875.939	10467.92
876.258	10475.83
876.577	10467.92
876.896	10434.02
877.214	10437.64
877.533	10408.48
877.852	10407.35
878.17	10466.79
878.489	10380.69
878.807	10359.67
879.125	10347.92
879.444	10308.15
879.762	10279.22
880.08	10344.53
880.398	10288.94
880.716	10288.94
881.034	10195.83
881.352	10239
881.67	10195.38
881.988	10226.12
882.306	10168.72
882.624	10164.87
882.941	10081.94
883.259	10037.87
883.577	10041.49
883.894	10045.78
884.212	10009.4
884.529	9968.27
884.846	9947.25
885.164	9939.34
885.481	9885.11
885.798	9919.91
886.115	9903.86
886.432	9872.9
886.75	9814.83
887.067	9794.26
887.383	9751.78
887.7	9825
888.017	9722.17
888.334	9710.2
888.651	9689.63
888.967	9674.72
889.284	9627.49
889.6	9565.57
889.917	9486.25
890.233	9582.29
890.55	9474.95
890.866	9434.27
891.182	9466.36
891.498	9415.29
891.815	9404.44
892.131	9346.59
892.447	9318.12
892.763	9292.58
893.079	9237.89
893.395	9237.21
893.71	9188.63
894.026	9233.83
894.342	9178.46
894.657	9095.98
894.973	9151.12
895.289	9088.97
895.604	9014.62
895.92	8949.76
896.235	8948.86
896.55	8975.75
896.865	8938.47
897.181	8946.15
897.496	8912.93
897.811	8820.5
898.126	8810.79
898.441	8815.98
898.756	8774.4
899.071	8802.42
899.386	8772.14
899.7	8649.89
900.015	8647.17
900.33	8630.68
900.644	8575.99
900.959	8559.72
901.273	8539.83
901.588	8514.52
901.902	8514.97
902.216	8389.78
902.531	8365.37
902.845	8331.25
903.159	8332.38
903.473	8289.9
903.787	8272.72
904.101	8252.83
904.415	8211.25
904.729	8209.45
905.042	8131.48
905.356	8062.78
905.67	8072.05
905.984	8119.73
906.297	8066.62
906.611	7995.89
906.924	8000.86
907.237	7977.13
907.551	7904.59
907.864	7827.31
908.177	7866.86
908.491	7830.7
908.804	7790.47
909.117	7736.24
909.43	7723.58
909.743	7706.63
910.056	7702.34
910.368	7636.35
910.681	7648.78
910.994	7583.02
911.307	7540.54
911.619	7441.1
911.932	7515.45
912.244	7401.56
912.557	7414.89
912.869	7362.01
913.181	7347.32
913.494	7373.08
913.806	7301.9
914.118	7293.31
914.43	7215.57
914.742	7235.91
915.054	7168.57
915.366	7151.17
915.678	7137.61
915.99	7072.75
916.302	7021.68
916.613	7044.5
916.925	6999.53
917.236	6944.39
917.548	6882.02
917.859	6960.66
918.171	6888.35
918.482	6839.31
918.794	6848.35
919.105	6781.01
919.416	6778.07
919.727	6808.58
920.038	6695.81
920.349	6696.94
920.66	6675.93
920.971	6669.37
921.282	6598.41
921.593	6540.79
921.903	6552.99
922.214	6566.32
922.525	6511.64
922.835	6491.07
923.146	6449.72
923.456	6425.54
923.767	6429.6
924.077	6383.5
924.387	6345.77
924.697	6304.41
925.008	6255.15
925.318	6288.37
925.628	6228.25
925.938	6221.02
926.248	6180.8
926.558	6189.61
926.867	6136.96
927.177	6065.09
927.487	6060.58
927.796	5998.2
928.106	6054.93
928.416	5998.88
928.725	5949.39
929.034	5914.82
929.344	5944.87
929.653	5951.43
929.962	5891.77
930.271	5861.71
930.581	5822.16
930.89	5827.36
931.199	5762.73
931.508	5751.2
931.817	5736.74
932.125	5705.56
932.434	5713.01
932.743	5633.92
933.051	5598.44
933.36	5635.73
933.669	5530.19
933.977	5491.32
934.286	5543.07
934.594	5526.13
934.902	5411.55
935.21	5433.7
935.519	5457.43
935.827	5431.21
936.135	5351.89
936.443	5303.53
936.751	5325.91
937.059	5323.65
937.367	5266.7
937.674	5288.62
937.982	5196.64
938.29	5223.31
938.597	5166.14
938.905	5171.56
939.213	5171.56
939.52	5102.41
939.827	5109.41
940.135	5113.03
940.442	5081.17
940.749	5112.13
941.056	5054.27
941.363	4965.69
941.67	4966.82
941.977	4928.63
942.284	4942.19
942.591	4894.05
942.898	4876.65
943.205	4894.5
943.511	4849.99
943.818	4794.62
944.125	4797.78
944.431	4795.52
944.738	4755.07
945.044	4731.57
945.35	4713.49
945.657	4696.54
945.963	4687.05
946.269	4693.61
946.575	4640.05
946.881	4583.1
947.187	4591.46
947.493	4616.77
947.799	4567.06
948.105	4546.49
948.41	4549.65
948.716	4528.19
949.022	4523.67
949.327	4506.94
949.633	4435.08
949.938	4418.58
950.244	4397.34
950.549	4394.63
950.854	4346.04
951.16	4354.41
951.465	4341.3
951.77	4298.81
952.075	4272.15
952.38	4255.88
952.685	4287.06
952.99	4236.22
953.294	4223.56
953.599	4210.45
953.904	4202.77
954.209	4170.91
954.513	4166.84
954.818	4133.85
955.122	4136.56
955.426	4100.63
955.731	4028.99
956.035	4076.9
956.339	4058.14
956.643	4018.59
956.948	4010.91
957.252	4005.49
957.556	3977.47
957.86	3974.08
958.163	3910.8
958.467	3925.04
958.771	3925.26
959.075	3922.55
959.378	3874.19
959.682	3848.66
959.985	3840.97
960.289	3814.76
960.592	3795.1
960.896	3809.79
961.199	3808.43
961.502	3769.11
961.805	3753.97
962.108	3705.83
962.411	3709.22
962.714	3673.07
963.017	3705.16
963.32	3647.31
963.623	3650.92
963.926	3643.01
964.228	3599.4
964.531	3613.18
964.833	3602.79
965.136	3575.89
965.438	3575.89
965.741	3528.44
966.043	3510.59
966.345	3549.45
966.648	3492.06
966.95	3496.12
967.252	3446.41
967.554	3467.87
967.856	3432.17
968.158	3378.16
968.46	3422.9
968.761	3378.39
969.063	3410.25
969.365	3345.39
969.666	3350.59
969.968	3343.58
970.269	3318.27
970.571	3298.61
970.872	3290.7
971.174	3237.15
971.475	3276.24
971.776	3256.81
972.077	3228.56
972.378	3241.21
972.679	3196.47
972.98	3211.84
973.281	3203.25
973.582	3142.01
973.883	3138.84
974.183	3126.87
974.484	3114.21
974.785	3054.33
975.085	3064.95
975.386	3101.78
975.686	3070.15
975.986	3030.15
976.287	3046.42
976.587	3007.55
976.887	2968.9
977.187	3023.14
977.487	2951.28
977.787	2972.29
978.087	2924.84
978.387	2953.54
978.687	2922.35
978.987	2905.4
979.286	2892.75
979.586	2877.61
979.885	2884.84
980.185	2901.34
980.484	2895.01
980.784	2848.68
981.083	2828.12
981.382	2808.01
981.682	2815.69
981.981	2805.97
982.28	2779.08
982.579	2743.37
982.878	2732.75
983.177	2722.81
983.475	2721.91
983.774	2721.91
984.073	2689.82
984.372	2673.09
984.67	2695.24
984.969	2690.95
985.267	2672.64
985.566	2657.95
985.864	2647.78
986.162	2658.4
986.461	2616.15
986.759	2591.06
987.057	2580.89
987.355	2568.01
987.653	2554
987.951	2579.54
988.249	2548.13
988.547	2551.29
988.844	2543.15
989.142	2519.65
989.44	2501.12
989.737	2527.11
990.035	2490.05
990.332	2463.61
990.63	2431.52
990.927	2430.61
991.224	2438.75
991.521	2440.78
991.819	2383.61
992.116	2405.53
992.413	2371.18
992.71	2374.8
993.006	2361.69
993.303	2335.02
993.6	2376.6
993.897	2330.5
994.193	2336.61
994.49	2315.36
994.787	2298.19
995.083	2257.06
995.379	2282.14
995.676	2278.75
995.972	2266.55
996.268	2254.12
996.565	2236.95
996.861	2210.51
997.157	2204.41
997.453	2217.06
997.749	2193.78
998.044	2172.32
998.34	2141.81
998.636	2178.19
998.932	2137.29
999.227	2111.3
999.523	2108.81
999.818	2119.21
1000.114	2080.79
1000.409	2082.6
1000.704	2086.44
1001	2054.35
1001.295	2030.85
1001.59	2067.23
1001.885	2041.7
1002.18	2038.31
1002.475	2009.83
1002.77	2000.34
1003.065	1995.6
1003.359	1981.81
1003.654	1988.59
1003.949	1947.01
1004.243	1971.42
1004.538	1942.49
1004.832	1931.87
1005.127	1909.27
1005.421	1919.67
1005.715	1931.87
1006.009	1904.75
1006.304	1893.23
1006.598	1852.32
1006.892	1843.96
1007.186	1839.67
1007.48	1845.09
1007.773	1833.79
1008.067	1819.78
1008.361	1799.67
1008.655	1763.74
1008.948	1770.29
1009.242	1765.09
1009.535	1767.35
1009.829	1760.8
1010.122	1728.26
1010.415	1720.35
1010.708	1725.55
1011.001	1718.77
1011.295	1729.39
1011.588	1696.85
1011.881	1679.67
1012.173	1683.97
1012.466	1637.41
1012.759	1667.92
1013.052	1667.7
1013.344	1650.3
1013.637	1648.49
1013.93	1635.15
1014.222	1615.04
1014.514	1619.79
1014.807	1612.78
1015.099	1576.4
1015.391	1575.72
1015.683	1559
1015.976	1564.2
1016.268	1522.16
1016.56	1527.81
1016.851	1547.93
1017.143	1517.19
1017.435	1507.7
1017.727	1502.73
1018.018	1476.29
1018.31	1480.36
1018.602	1473.13
1018.893	1448.72
1019.185	1502.28
1019.476	1444.88
1019.767	1455.95
1020.058	1423.63
1020.35	1417.76
1020.641	1402.84
1020.932	1382.28
1021.223	1389.51
1021.514	1389.96
1021.804	1399.45
1022.095	1353.13
1022.386	1343.64
1022.677	1366.46
1022.967	1338.67
1023.258	1310.64
1023.548	1301.15
1023.839	1287.37
1024.129	1307.48
1024.419	1295.05
1024.709	1257.09
1025	1286.92
1025.29	1265.45
1025.58	1249.85
1025.87	1264.32
1026.16	1256.41
1026.449	1228.84
1026.739	1239.23
1027.029	1213.7
1027.319	1210.99
1027.608	1192.91
1027.898	1204.21
1028.187	1187.71
1028.477	1199.23
1028.766	1159.91
1029.055	1170.08
1029.344	1170.99
1029.634	1149.74
1029.923	1127.82
1030.212	1154.49
1030.501	1123.08
1030.79	1113.36
1031.078	1106.81
1031.367	1115.62
1031.656	1091.21
1031.945	1107.71
1032.233	1057.99
1032.522	1095.96
1032.81	1071.33
1033.099	1051.44
1033.387	1075.85
1033.675	1063.64
1033.963	1030.65
1034.251	1044.89
1034.54	1031.55
1034.828	1029.52
1035.116	1010.99
1035.403	983.87
1035.691	1008.05
1035.979	1014.83
1036.267	1004.44
1036.554	1033.36
1036.842	985.23
1037.129	979.35
1037.417	985
1037.704	977.77
1037.992	947.26
1038.279	947.26
1038.566	948.85
1038.853	948.85
1039.14	948.85
