Data from hue_350_FLMS001491_60.txt Node
Date: Mon Feb 06 15:38:14 GMT 2017
User: dcchb
Spectrometer: FLMS00149
Trigger mode: 0
Integration Time (sec): 2.000000E-2
Scans to average: 10
Electric dark correction enabled: true
Nonlinearity correction enabled: false
Boxcar width: 0
XAxis mode: Wavelengths
Number of Pixels in Spectrum: 2048
>>>>>Begin Spectral Data<<<<<
341.393	3.12
341.776	3.12
342.16	3.12
342.543	-67.84
342.927	-69.87
343.31	-79.36
343.693	-50.89
344.077	-77.33
344.46	-57.67
344.843	-33.94
345.226	-51.79
345.61	-49.31
345.993	-16.54
346.376	-14.73
346.759	13.06
347.142	34.76
347.525	42.89
347.908	52.84
348.291	89.67
348.674	74.08
349.057	124.25
349.44	122.89
349.823	145.94
350.206	178.03
350.588	203.12
350.971	218.93
351.354	219.39
351.737	227.75
352.119	242.66
352.502	264.81
352.884	279.95
353.267	270.23
353.65	296.9
354.032	294.64
354.414	325.37
354.797	310.23
355.179	316.11
355.562	325.37
355.944	336.67
356.326	332.38
356.709	358.37
357.091	331.93
357.473	366.73
357.855	329.89
358.238	337.8
358.62	331.93
359.002	331.7
359.384	343.45
359.766	326.28
360.148	320.85
360.53	332.15
360.912	347.97
361.294	314.98
361.676	326.5
362.057	337.35
362.439	347.97
362.821	335.09
363.203	323.56
363.584	328.08
363.966	342.32
364.348	317.69
364.729	311.59
365.111	310.23
365.493	324.92
365.874	310.23
366.256	300.29
366.637	309.78
367.019	318.82
367.4	301.19
367.781	308.65
368.163	308.2
368.544	303.45
368.925	281.76
369.306	327.41
369.688	319.27
370.069	301.87
370.45	296.45
370.831	316.56
371.212	310.23
371.593	306.39
371.974	306.16
372.355	309.78
372.736	312.49
373.117	303.68
373.498	297.12
373.879	320.18
374.26	321.08
374.641	320.63
375.021	292.38
375.402	313.4
375.783	320.63
376.163	319.5
376.544	328.08
376.925	322.44
377.305	314.53
377.686	306.84
378.066	307.52
378.447	341.19
378.827	315.88
379.208	315.2
379.588	325.37
379.968	330.12
380.349	323.79
380.729	315.66
381.109	323.56
381.489	341.19
381.87	334.19
382.25	329.21
382.63	314.98
383.01	339.61
383.39	323.56
383.77	323.79
384.15	315.2
384.53	322.44
384.91	324.47
385.29	321.98
385.67	353.62
386.049	368.99
386.429	325.6
386.809	332.38
387.189	343.68
387.568	336.9
387.948	345.49
388.328	328.08
388.707	350.91
389.087	345.26
389.466	355.65
389.846	333.51
390.225	344.13
390.605	354.3
390.984	359.04
391.363	358.14
391.743	356.56
392.122	380.51
392.501	365.37
392.881	366.5
393.26	364.24
393.639	374.41
394.018	358.59
394.397	360.63
394.776	352.26
395.155	363.11
395.534	372.6
395.913	341.87
396.292	346.84
396.671	372.38
397.05	361.3
397.429	346.16
397.808	372.15
398.186	371.02
398.565	367.86
398.944	383
399.323	382.77
399.701	363.11
400.08	391.59
400.458	391.36
400.837	373.51
401.215	361.76
401.594	351.81
401.972	394.75
402.351	381.42
402.729	370.8
403.107	388.42
403.486	386.61
403.864	423.45
404.242	386.16
404.62	387.07
404.999	380.06
405.377	405.14
405.755	399.04
406.133	396.33
406.511	401.75
406.889	373.96
407.267	420.06
407.645	422.77
408.023	426.16
408.401	412.83
408.779	407.86
409.156	390.23
409.534	419.61
409.912	421.64
410.29	433.17
410.667	443.34
411.045	432.71
411.422	452.6
411.8	442.43
412.178	423.45
412.555	448.08
412.933	446.73
413.31	446.73
413.687	444.01
414.065	452.38
414.442	467.52
414.819	446.95
415.197	440.62
415.574	458.7
415.951	469.55
416.328	475.43
416.705	458.93
417.082	497.35
417.46	480.4
417.837	480.62
418.214	494.41
418.591	482.88
418.967	497.57
419.344	521.07
419.721	492.37
420.098	488.76
420.475	499.38
420.852	512.26
421.228	504.35
421.605	508.42
421.982	520.4
422.358	515.65
422.735	506.84
423.111	526.95
423.488	537.57
423.864	542.77
424.241	552.94
424.617	540.73
424.994	532.37
425.37	538.7
425.746	557.91
426.123	538.02
426.499	555.42
426.875	551.81
427.251	555.42
427.627	577.8
428.003	566.5
428.379	567.63
428.756	586.38
429.132	597.68
429.507	618.7
429.883	596.78
430.259	617.12
430.635	606.72
431.011	616.44
431.387	630
431.763	626.38
432.138	619.15
432.514	605.14
432.89	619.83
433.265	637
433.641	653.95
434.016	645.59
434.392	659.83
434.767	650.56
435.143	662.09
435.518	665.25
435.894	677.91
436.269	690.11
436.644	669.09
437.02	668.19
437.395	679.49
437.77	717
438.145	694.4
438.52	700.28
438.895	716.77
439.271	718.13
439.646	725.36
440.021	715.87
440.395	758.58
440.77	715.19
441.145	732.14
441.52	764.68
441.895	762.2
442.27	752.71
442.645	741.63
443.019	748.86
443.394	768.75
443.769	755.87
444.143	751.58
444.518	788.86
444.892	738.02
445.267	767.4
445.641	789.09
446.016	787.51
446.39	779.37
446.764	795.64
447.139	786.83
447.513	805.81
447.887	785.02
448.262	791.12
448.636	803.55
449.01	813.04
449.384	822.76
449.758	818.47
450.132	799.26
450.506	838.35
450.88	858.92
451.254	846.04
451.628	827.05
452.002	823.44
452.376	873.83
452.75	854.17
453.123	862.76
453.497	878.35
453.871	868.18
454.244	871.35
454.618	871.8
454.992	891.69
455.365	895.3
455.739	901.63
456.112	922.87
456.486	925.58
456.859	887.39
457.232	911.35
457.606	966.49
457.979	932.14
458.352	934.17
458.725	942.76
459.099	974.4
459.472	1001.97
459.845	984.11
460.218	977.56
460.591	993.38
460.964	1000.84
461.337	1036.54
461.71	1026.15
462.083	1028.86
462.456	1044.22
462.829	1032.7
463.201	1046.48
463.574	1069.53
463.947	1056.88
464.32	1090.32
464.692	1111.57
465.065	1112.7
465.438	1119.02
465.81	1133.04
466.183	1152.7
466.555	1149.76
466.928	1163.32
467.3	1161.51
467.672	1182.07
468.045	1208.06
468.417	1240.38
468.789	1207.38
469.161	1234.5
469.534	1243.31
469.906	1265.01
470.278	1286.03
470.65	1282.41
471.022	1287.16
471.394	1342.07
471.766	1322.63
472.138	1373.93
472.51	1370.09
472.882	1404.44
473.253	1395.18
473.625	1441.28
473.997	1453.03
474.369	1470.2
474.74	1457.77
475.112	1508.39
475.484	1526.7
475.855	1540.71
476.227	1538.22
476.598	1615.28
476.97	1582.51
477.341	1641.04
477.713	1684.89
478.084	1656.41
478.455	1695.96
478.827	1725.56
479.198	1793.58
479.569	1797.2
479.94	1852.79
480.311	1845.11
480.682	1884.43
481.053	1928.27
481.424	1935.05
481.795	1986.8
482.166	2014.37
482.537	2045.78
482.908	2076.29
483.279	2082.16
483.65	2108.15
484.021	2162.61
484.391	2198.09
484.762	2204.87
485.133	2253.46
485.503	2282.84
485.874	2366.22
486.244	2345.66
486.615	2386.34
486.985	2414.58
487.356	2480.8
487.726	2477.41
488.097	2517.86
488.467	2551.98
488.837	2573.68
489.207	2622.49
489.578	2671.75
489.948	2714.46
490.318	2715.82
490.688	2751.3
491.058	2725.99
491.428	2811.86
491.798	2825.42
492.168	2883.72
492.538	2917.85
492.908	2936.15
493.278	2990.39
493.648	2988.35
494.017	3022.93
494.387	3022.93
494.757	3103.83
495.126	3138.18
495.496	3139.99
495.866	3197.61
496.235	3163.72
496.605	3245.97
496.974	3241.23
497.344	3251.85
497.713	3304.5
498.082	3314.67
498.452	3332.75
498.821	3314.45
499.19	3377.04
499.559	3412.75
499.928	3408
500.298	3457.27
500.667	3468.79
501.036	3451.84
501.405	3503.82
501.774	3545.85
502.143	3543.59
502.512	3526.87
502.88	3561.45
503.249	3584.27
503.618	3623.14
503.987	3644.16
504.356	3635.57
504.724	3659.52
505.093	3658.17
505.462	3647.55
505.83	3711.95
506.199	3710.59
506.567	3739.75
506.936	3788.11
507.304	3843.7
507.672	3807.54
508.041	3799.86
508.409	3756.7
508.777	3887.99
509.145	3874.88
509.514	3850.03
509.882	3911.72
510.25	3881.21
510.618	3905.62
510.986	3917.14
511.354	4018.16
511.722	3989.68
512.09	4016.8
512.458	4028.78
512.826	4050.47
513.193	4031.26
513.561	4027.42
513.929	4036.24
514.297	4125.27
514.664	4081.88
515.032	4107.87
515.4	4116.91
515.767	4158.72
516.135	4130.24
516.502	4115.1
516.869	4159.62
517.237	4180.41
517.604	4212.73
517.972	4220.86
518.339	4199.85
518.706	4229.68
519.073	4231.48
519.44	4276.23
519.808	4270.35
520.175	4322.1
520.542	4340.18
520.909	4311.26
521.276	4351.26
521.643	4334.98
522.009	4406.62
522.376	4400.97
522.743	4407.53
523.11	4460.41
523.477	4457.24
523.843	4495.43
524.21	4553.51
524.577	4520.74
524.943	4568.2
525.31	4578.59
525.676	4589.89
526.043	4650.68
526.409	4683.9
526.776	4698.59
527.142	4718.03
527.508	4725.94
527.874	4777.01
528.241	4780.85
528.607	4736.1
528.973	4791.24
529.339	4818.81
529.705	4827.4
530.071	4854.75
530.437	4874.18
530.803	4936.33
531.169	4941.97
531.535	4981.52
531.901	4968.87
532.267	4985.36
532.632	5028.07
532.998	5025.14
533.364	5029.88
533.73	5045.93
534.095	5071.01
534.461	5127.73
534.826	5158.69
535.192	5144.91
535.557	5223.55
535.923	5208.86
536.288	5201.85
536.653	5247.73
537.019	5244.11
537.384	5250.67
537.749	5293.15
538.114	5333.15
538.479	5297.45
538.845	5322.98
539.21	5306.71
539.575	5350.78
539.94	5393.94
540.305	5410.21
540.67	5477.55
541.034	5414.96
541.399	5477.78
541.764	5541.51
542.129	5499.02
542.494	5520.26
542.858	5605.23
543.223	5597.55
543.587	5631.67
543.952	5639.36
544.316	5679.58
544.681	5629.19
545.045	5630.32
545.41	5713.03
545.774	5726.36
546.138	5808.84
546.503	5812.69
546.867	5808.84
547.231	5883.19
547.595	5825.57
547.959	5887.49
548.324	5892.01
548.688	5870.09
549.052	5969.52
549.416	5928.84
549.779	5919.8
550.143	5992.79
550.507	6034.83
550.871	6008.16
551.235	6008.16
551.599	6070.76
551.962	6096.52
552.326	6082.06
552.689	6188.27
553.053	6125.67
553.417	6108.05
553.78	6231.43
554.143	6206.12
554.507	6243.41
554.87	6184.65
555.234	6312.11
555.597	6231.21
555.96	6261.71
556.323	6273.24
556.686	6287.7
557.05	6367.7
557.413	6373.12
557.776	6310.53
558.139	6452.67
558.502	6419.68
558.865	6467.13
559.228	6517.53
559.59	6530.86
559.953	6456.74
560.316	6538.09
560.679	6529.28
561.041	6598.65
561.404	6620.35
561.767	6663.74
562.129	6616.05
562.492	6722.94
562.854	6661.48
563.217	6758.2
563.579	6680.23
563.941	6745.54
564.304	6743.96
564.666	6799.55
565.028	6792.1
565.39	6855.6
565.753	6876.61
566.115	6823.51
566.477	6908.48
566.839	6959.77
567.201	6924.97
567.563	6996.16
567.925	7022.37
568.287	7022.6
568.648	7048.81
569.01	7058.53
569.372	7136.27
569.734	7086.32
570.095	7128.36
570.457	7125.87
570.819	7252.87
571.18	7262.59
571.542	7304.17
571.903	7382.14
572.265	7364.74
572.626	7381.68
572.987	7413.77
573.349	7446.32
573.71	7561.79
574.071	7506.2
574.432	7600.44
574.794	7701.22
575.155	7782.8
575.516	7799.3
575.877	7855.57
576.238	7906.87
576.599	7966.75
576.96	7957.04
577.32	8143.02
577.681	8244.03
578.042	8219.85
578.403	8341.21
578.763	8416.91
579.124	8474.09
579.485	8561.09
579.845	8725.38
580.206	8742.1
580.566	8836.79
580.927	8973.96
581.287	9067.29
581.648	9197.91
582.008	9314.97
582.368	9504.11
582.728	9635.41
583.089	9709.31
583.449	9883.77
583.809	10045.8
584.169	10176.87
584.529	10316.52
584.889	10576.85
585.249	10729.17
585.609	10820.92
585.969	11066.33
586.329	11246.22
586.688	11507.9
587.048	11648.01
587.408	11883.04
587.768	12076.93
588.127	12296.81
588.487	12530.93
588.846	12829.68
589.206	13024.7
589.565	13221.53
589.925	13517.79
590.284	13608.19
590.643	14016.54
591.003	14250.43
591.362	14523.64
591.721	14790.76
592.08	15106
592.44	15404.75
592.799	15599.32
593.158	15882.25
593.517	16179.65
593.876	16426.42
594.235	16671.84
594.593	17109.79
594.952	17366.51
595.311	17579.38
595.67	18008.3
596.029	18324.45
596.387	18537.78
596.746	18887.14
597.104	19165.56
597.463	19425.21
597.822	19734.58
598.18	19997.4
598.538	20229.26
598.897	20733.65
599.255	20727.55
599.613	21363.69
599.972	21545.38
600.33	21887.29
600.688	22051.58
601.046	22575.18
601.404	22863.99
601.762	23049.97
602.12	23418.78
602.478	23571.54
602.836	23937.63
603.194	24076.39
603.552	24296.04
603.91	24583.72
604.268	24995.01
604.625	25111.61
604.983	25536.69
605.341	25699.62
605.698	26135.54
606.056	26260.06
606.413	26458.24
606.771	26962.41
607.128	27081.73
607.485	27211.22
607.843	27411.44
608.2	27782.5
608.557	28120.57
608.914	28164.19
609.272	28496.61
609.629	28773.21
609.986	29088.91
610.343	29238.06
610.7	29473.76
611.057	29709.68
611.414	29852.05
611.771	30057.02
612.127	30264.92
612.484	30520.29
612.841	30787.4
613.198	30881.63
613.554	30949.65
613.911	31332.02
614.267	31441.39
614.624	31516.42
614.98	31800.03
615.337	32057.65
615.693	32164.08
616.05	32310.52
616.406	32600.91
616.762	32614.24
617.118	32828.25
617.475	33021.69
617.831	33236.82
618.187	33361.34
618.543	33509.81
618.899	33938.5
619.255	33853.08
619.611	33967.88
619.967	34164.03
620.323	34335.33
620.678	34223.92
621.034	34293.75
621.39	34388.88
621.746	34464.81
622.101	34992.48
622.457	34757.69
622.812	34927.85
623.168	35153.84
623.523	35080.84
623.879	35408.74
624.234	35231.35
624.589	35297.79
624.945	35506.37
625.3	35753.82
625.655	35665.46
626.01	35857.09
626.365	35850.99
626.72	35958.79
627.075	35960.37
627.43	36019.35
627.785	36066.13
628.14	36159.23
628.495	36293.69
628.85	36190.87
629.205	36184.32
629.559	36466.57
629.914	36354.48
630.269	36487.36
630.623	36423.86
630.978	36384.31
631.332	36640.12
631.687	36647.81
632.041	36563.97
632.396	36692.55
632.75	36503.18
633.104	36627.47
633.459	36610.52
633.813	36579.11
634.167	36636.96
634.521	36724.64
634.875	36827.92
635.229	36865.88
635.583	36603.74
635.937	36613.91
636.291	36532.56
636.645	36765.77
636.999	36624.98
637.352	36733.91
637.706	36641.93
638.06	36778.65
638.413	36710.4
638.767	36586.79
639.121	36691.2
639.474	36528.71
639.828	36746.56
640.181	36664.08
640.534	36666.79
640.888	36599.22
641.241	36348.83
641.594	36705.21
641.947	36755.38
642.301	36641.25
642.654	36627.7
643.007	36523.74
643.36	36613.68
643.713	36577.07
644.066	36577.53
644.419	36297.31
644.771	36188.38
645.124	35952.01
645.477	35892.12
645.83	35675.63
646.182	35518.35
646.535	35482.19
646.888	35632.47
647.24	35446.94
647.593	35613.48
647.945	35518.8
648.298	35383.43
648.65	35320.84
649.002	35239.26
649.355	35422.53
649.707	35276.32
650.059	35459.14
650.411	35960.14
650.763	35891.9
651.115	36251.43
651.467	36279
651.819	36208.95
652.171	36064.32
652.523	36129.4
652.875	36043.98
653.227	35956.07
653.578	36123.3
653.93	36030.65
654.282	36048.95
654.633	35831.78
654.985	36006.47
655.337	36054.15
655.688	35987.26
656.039	36101.16
656.391	35851.22
656.742	35921.27
657.094	35956.07
657.445	36033.81
657.796	36008.95
658.147	35868.85
658.498	35855.06
658.849	35874.04
659.2	35821.84
659.551	35809.19
659.902	35908.84
660.253	35916.98
660.604	35866.81
660.955	35842.63
661.306	35842.63
661.656	35772.12
662.007	35864.78
662.358	35694.61
662.708	35792.46
663.059	35696.19
663.409	35539.59
663.76	35820.48
664.11	35750.2
664.461	35871.33
664.811	35644.9
665.161	35675.18
665.511	35760.6
665.862	35768.28
666.212	35648.29
666.562	35741.39
666.912	35721.73
667.262	35606.25
667.612	35716.31
667.962	35739.13
668.312	35585.46
668.662	35856.19
669.011	35786.14
669.361	35632.47
669.711	35630.43
670.06	35582.75
670.41	35463.66
670.76	35505.24
671.109	35682.41
671.459	35535.97
671.808	35637.44
672.157	35445.13
672.507	35367.16
672.856	35381.85
673.205	35500.27
673.554	35388.63
673.904	35439.48
674.253	35515.41
674.602	35357.45
674.951	34969.66
675.3	34819.83
675.649	35237
675.998	35241.29
676.346	35343.66
676.695	35406.26
677.044	35104.35
677.393	35352.7
677.741	35295.07
678.09	35283.55
678.438	35043.33
678.787	35205.36
679.135	35202.42
679.484	35032.71
679.832	35222.76
680.181	34952.71
680.529	35026.83
680.877	34868.42
681.225	34907.97
681.573	35090.56
681.922	34779.16
682.27	34666.84
682.618	34705.49
682.966	34641.53
683.314	34669.78
683.661	34652.38
684.009	34603.57
684.357	34405.38
684.705	34340.52
685.053	34382.1
685.4	34189.57
685.748	34249.9
686.095	34131.49
686.443	34007.2
686.79	34107.54
687.138	34052.85
687.485	34058.27
687.832	33891.95
688.18	33902.57
688.527	33823.93
688.874	33875.9
689.221	33739.41
689.568	33643.37
689.915	33565.63
690.262	33503.94
690.609	33345.07
690.956	33264.17
691.303	33215.81
691.65	33237.28
691.997	33260.78
692.344	32921.8
692.69	32919.54
693.037	32926.55
693.383	32757.97
693.73	32797.74
694.077	32607.91
694.423	32610.4
694.769	32515.49
695.116	32506.9
695.462	32337.41
695.808	32235.49
696.155	32236.4
696.501	32054.26
696.847	32091.54
697.193	31879.8
697.539	31978.33
697.885	31773.81
698.231	31568.17
698.577	31668.5
698.923	31570.65
699.269	31342.86
699.614	31263.32
699.96	31264.22
700.306	31358
700.651	31261.06
700.997	30997.11
701.342	31046.82
701.688	30990.1
702.033	30902.2
702.379	30810.45
702.724	30699.72
703.069	30716.21
703.415	30436.22
703.76	30438.03
704.105	30566.84
704.45	30395.54
704.795	30293.17
705.14	30169.33
705.485	30126.85
705.83	29974.31
706.175	30030.35
706.52	30051.6
706.865	29836.46
707.209	29767.76
707.554	29709.23
707.899	29879.85
708.243	29639.63
708.588	29517.15
708.932	29379.07
709.277	29449.13
709.621	29405.51
709.966	29262.69
710.31	29163.48
710.654	29076.71
710.998	29148.8
711.342	29135.24
711.687	28982.7
712.031	28795.36
712.375	28731.41
712.719	28831.29
713.063	28639.66
713.407	28724.17
713.75	28650.5
714.094	28681.69
714.438	28509.72
714.782	28522.37
715.125	28313.79
715.469	28375.48
715.812	28243.28
716.156	28136.84
716.499	28181.14
716.843	28088.26
717.186	28065.43
717.53	28174.58
717.873	28154.02
718.216	28030.86
718.559	28030.63
718.902	27657.54
719.246	27735.05
719.589	27568.72
719.932	27632.68
720.275	27616.63
720.617	27662.51
720.96	27523.98
721.303	27467.03
721.646	27540.7
721.989	27374.15
722.331	27443.3
722.674	27306.58
723.016	27356.75
723.359	27306.81
723.701	27258.9
724.044	27127.61
724.386	26959.47
724.729	27159.24
725.071	26946.14
725.413	26964.67
725.755	26966.48
726.097	26890.1
726.439	26645.58
726.782	26680.84
727.124	26863.66
727.465	26632.7
727.807	26642.19
728.149	26615.75
728.491	26557.9
728.833	26607.85
729.175	26434.06
729.516	26384.8
729.858	26399.26
730.199	26438.36
730.541	26290.79
730.882	26341.64
731.224	26387.06
731.565	26178.48
731.906	26124.92
732.248	26148.42
732.589	26049.44
732.93	25941.42
733.271	26035.43
733.612	25952.95
733.953	26073.17
734.294	25684.48
734.635	25857.81
734.976	25859.16
735.317	25766.51
735.658	25694.2
735.999	25697.81
736.339	25699.85
736.68	25686.29
737.021	25701.65
737.361	25545.95
737.702	25592.05
738.042	25490.59
738.383	25450.59
738.723	25457.82
739.063	25384.15
739.404	25431.61
739.744	25379.4
740.084	25289.69
740.424	25428.67
740.764	25260.54
741.104	25413.53
741.444	25077.72
741.784	25108.9
742.124	25060.54
742.464	25048.79
742.804	25027.1
743.143	24900.77
743.483	25052.63
743.823	24879.76
744.162	24837.72
744.502	24933.54
744.841	24749.14
745.181	24840.43
745.52	24727.67
745.86	24810.83
746.199	24752.08
746.538	24636.15
746.877	24618.29
747.216	24651.06
747.556	24664.39
747.895	24550.72
748.234	24460.11
748.573	24443.38
748.911	24501.46
749.25	24374.46
749.589	24296.95
749.928	24325.87
750.267	24343.05
750.605	24271.41
750.944	24197.29
751.283	24193.9
751.621	24247.91
751.96	24033.22
752.298	24093.11
752.636	23987.8
752.975	23964.98
753.313	23793.68
753.651	23926.11
753.989	23759.33
754.327	23703.52
754.666	23713.68
755.004	23673.01
755.342	23698.77
755.679	23638.21
756.017	23492.9
756.355	23558.43
756.693	23409.96
757.031	23393.92
757.368	23246.8
757.706	23247.26
758.044	23184.43
758.381	23230.53
758.719	23127.26
759.056	23156.64
759.394	23042.29
759.731	22920.71
760.068	22832.8
760.405	22707.38
760.743	22788.96
761.08	22802.52
761.417	22672.13
761.754	22609.53
762.091	22503.55
762.428	22458.35
762.765	22316.21
763.102	22444.34
763.438	22276.43
763.775	22196.89
764.112	22227.85
764.449	22101.75
764.785	22083.9
765.122	21947.63
765.458	21878.25
765.795	21756.9
766.131	21747.63
766.467	21716
766.804	21646.85
767.14	21481.2
767.476	21491.37
767.812	21500.18
768.148	21516.23
768.485	21341.09
768.821	21135.9
769.157	21159.4
769.492	21159.18
769.828	21065.84
770.164	20924.38
770.5	20914.44
770.836	20771.39
771.171	20720.99
771.507	20634.67
771.842	20493.43
772.178	20613.43
772.513	20422.25
772.849	20448.69
773.184	20325.75
773.519	20358.29
773.855	20189.94
774.19	20153.1
774.525	20103.84
774.86	20048.47
775.195	20009.38
775.53	19827.68
775.865	19771.64
776.2	19690.51
776.535	19523.51
776.87	19491.87
777.205	19502.5
777.539	19445.55
777.874	19436.73
778.209	19264.99
778.543	19095.27
778.878	19084.88
779.212	19116.97
779.547	18982.74
779.881	18968.72
780.215	18900.03
780.55	18868.16
780.884	18768.73
781.218	18686.02
781.552	18698.45
781.886	18618.45
782.22	18413.71
782.554	18403.77
782.888	18246.94
783.222	18200.16
783.556	18133.27
783.889	18115.87
784.223	18033.16
784.557	17883.56
784.89	17932.14
785.224	17791.35
785.557	17742.77
785.891	17771.47
786.224	17624.35
786.558	17658.25
786.891	17517.46
787.224	17488.54
787.557	17440.18
787.891	17274.98
788.224	17267.3
788.557	17317.92
788.89	17244.7
789.223	17078.83
789.556	17084.71
789.888	16952.05
790.221	16900.08
790.554	16885.84
790.887	16858.27
791.219	16739.63
791.552	16754.32
791.884	16709.57
792.217	16658.05
792.549	16494.67
792.882	16417.15
793.214	16460.54
793.546	16408.57
793.879	16254.67
794.211	16182.81
794.543	16307.78
794.875	16173.54
795.207	16229.59
795.539	16036.6
795.871	16081.34
796.203	15869.14
796.535	15887.68
796.867	15868.69
797.198	15810.62
797.53	15798.86
797.862	15621.92
798.193	15662.37
798.525	15644.07
798.856	15613.78
799.188	15473.22
799.519	15427.35
799.85	15331.98
800.182	15339.44
800.513	15359.33
800.844	15082.5
801.175	15191.42
801.506	15165.66
801.837	15088.6
802.168	15101.48
802.499	15048.6
802.83	14905.55
803.161	14890.64
803.491	14842.96
803.822	14917.98
804.153	14748.04
804.483	14707.82
804.814	14663.53
805.145	14587.82
805.475	14638.89
805.805	14620.14
806.136	14515.51
806.466	14501.72
806.796	14529.75
807.126	14410.43
807.457	14391.22
807.787	14314.16
808.117	14216.31
808.447	14232.35
808.777	14287.04
809.107	14118
809.436	14163.88
809.766	14175.18
810.096	14066.25
810.426	14058.8
810.755	14050.44
811.085	13947.61
811.414	13960.72
811.744	13838.92
812.073	13834.4
812.403	13859.03
812.732	13764.12
813.061	13810.89
813.39	13562.31
813.719	13609.09
814.049	13681.18
814.378	13622.2
814.707	13495.65
815.036	13447.06
815.365	13392.6
815.693	13395.31
816.022	13368.42
816.351	13358.25
816.68	13267.41
817.008	13271.47
817.337	13210.01
817.665	13151.7
817.994	13209.33
818.322	13209.1
818.651	13131.59
818.979	13023.57
819.307	13126.39
819.636	13037.13
819.964	13026.51
820.292	12975.21
820.62	12941.09
820.948	12990.12
821.276	13015.89
821.604	12923.46
821.932	12956.68
822.259	12942.67
822.587	12930.01
822.915	12899.28
823.243	12826.96
823.57	12845.5
823.898	12852.73
824.225	12820.86
824.553	12840.98
824.88	12889.79
825.207	12896.34
825.535	12831.48
825.862	12836.23
826.189	12764.59
826.516	12796.23
826.843	12880.3
827.17	12882.33
827.497	12891.37
827.824	12899.51
828.151	12805.04
828.478	12800.3
828.805	12865.83
829.131	12796.23
829.458	12859.51
829.785	12703.8
830.111	12777.25
830.438	12830.58
830.764	12770.92
831.09	12850.47
831.417	12697.93
831.743	12803.91
832.069	12742.45
832.395	12676.91
832.722	12803.46
833.048	12744.48
833.374	12709.23
833.7	12630.81
834.026	12678.95
834.351	12795.55
834.677	12663.58
835.003	12730.92
835.329	12687.76
835.654	12637.37
835.98	12632.85
836.306	12558.72
836.631	12551.27
836.956	12607.54
837.282	12643.02
837.607	12464.49
837.932	12436.24
838.258	12538.61
838.583	12457.94
838.908	12391.27
839.233	12473.98
839.558	12413.19
839.883	12307.66
840.208	12283.48
840.533	12383.36
840.858	12282.35
841.182	12319.86
841.507	12288.67
841.832	12277.15
842.156	12206.87
842.481	12151.5
842.805	12210.03
843.13	12135.46
843.454	12171.39
843.778	12088.23
844.103	12090.71
844.427	11962.58
844.751	12009.81
845.075	12017.95
845.399	12030.6
845.723	11875.8
846.047	11887.1
846.371	11814.11
846.695	11754.9
847.019	11639.2
847.343	11599.2
847.666	11608.92
847.99	11508.13
848.313	11545.87
848.637	11460.45
848.96	11414.8
849.284	11473.78
849.607	11304.07
849.931	11342.48
850.254	11208.93
850.577	11208.02
850.9	11074.47
851.223	11134.81
851.546	10998.76
851.869	11004.41
852.192	11040.8
852.515	10849.84
852.838	10827.7
853.161	10906.79
853.483	10818.88
853.806	10751.31
854.129	10736.4
854.451	10728.72
854.774	10619.57
855.096	10650.75
855.419	10587.93
855.741	10509.51
856.063	10460.25
856.385	10473.35
856.708	10455.95
857.03	10366.92
857.352	10365.56
857.674	10402.4
857.996	10359.23
858.318	10308.16
858.64	10309.52
858.961	10244.43
859.283	10197.88
859.605	10165.57
859.926	10129.63
860.248	10146.58
860.57	10170.99
860.891	10123.31
861.212	10096.19
861.534	10043.08
861.855	10029.52
862.176	10082.4
862.498	10060.26
862.819	10029.98
863.14	9928.28
863.461	9898.91
863.782	9894.84
864.103	9900.26
864.424	9802.64
864.745	9851.45
865.065	9814.61
865.386	9831.79
865.707	9818.46
866.027	9790.66
866.348	9746.82
866.668	9745.69
866.989	9739.59
867.309	9615.52
867.63	9737.33
867.95	9681.28
868.27	9577.56
868.59	9605.35
868.91	9608.29
869.23	9525.13
869.55	9559.71
869.87	9612.13
870.19	9612.59
870.51	9514.96
870.83	9571.01
871.15	9447.62
871.469	9495.98
871.789	9489.65
872.109	9502.08
872.428	9443.33
872.748	9493.72
873.067	9408.3
873.386	9392.93
873.706	9355.87
874.025	9293.95
874.344	9318.58
874.663	9360.62
874.982	9313.39
875.301	9267.74
875.62	9295.31
875.939	9233.61
876.258	9268.19
876.577	9159.26
876.896	9213.27
877.214	9184.35
877.533	9188.64
877.852	9128.08
878.17	9197.68
878.489	9105.48
878.807	9135.76
879.125	9140.96
879.444	9141.41
879.762	9089.21
880.08	9089.89
880.398	9030.68
880.716	9058.93
881.034	8997.01
881.352	9009.44
881.67	8905.49
881.988	8970.34
882.306	8910.01
882.624	8947.52
882.941	8926.28
883.259	8890.8
883.577	8876.79
883.894	8808.09
884.212	8783.91
884.529	8787.75
884.846	8806.51
885.164	8712.5
885.481	8761.99
885.798	8715.89
886.115	8684.93
886.432	8701.65
886.75	8675.21
887.067	8689.22
887.383	8586.62
887.7	8688.32
888.017	8603.57
888.334	8549.11
888.651	8492.39
888.967	8500.3
889.284	8476.34
889.6	8419.85
889.917	8429.11
890.233	8417.82
890.55	8370.36
890.866	8336.91
891.182	8296.24
891.498	8282
891.815	8319.29
892.131	8286.07
892.447	8178.05
892.763	8167.88
893.079	8232.74
893.395	8163.36
893.71	8146.41
894.026	8146.18
894.342	8094.21
894.657	8097.15
894.973	8045.85
895.289	8067.32
895.604	8023.7
895.92	7904.38
896.235	7886.98
896.55	7924.27
896.865	7945.51
897.181	7815.8
897.496	7865.06
897.811	7794.33
898.126	7809.24
898.441	7729.92
898.756	7710.72
899.071	7647.67
899.386	7689.47
899.7	7604.5
900.015	7577.39
900.33	7584.39
900.644	7527.44
900.959	7552.3
901.273	7550.72
901.588	7481.12
901.902	7421.91
902.216	7396.83
902.531	7414.45
902.845	7397.5
903.159	7350.95
903.473	7273.21
903.787	7289.94
904.101	7235.47
904.415	7234.34
904.729	7284.74
905.042	7208.36
905.356	7141.69
905.67	7145.76
905.984	7164.06
906.297	7134.23
906.611	7046.33
906.924	7035.25
907.237	7047.91
907.551	6981.02
907.864	6923.62
908.177	6945.76
908.491	6965.65
908.804	6892.43
909.117	6875.71
909.43	6822.38
909.743	6778.76
910.056	6777.63
910.368	6780.34
910.681	6707.35
910.994	6695.83
911.307	6652.21
911.619	6626.22
911.932	6614.25
912.244	6559.11
912.557	6559.33
912.869	6508.94
913.181	6518.2
913.494	6485.44
913.806	6487.24
914.118	6441.14
914.43	6364.54
914.742	6388.72
915.054	6327.25
915.366	6335.38
915.678	6307.36
915.99	6237.31
916.302	6187.14
916.613	6209.96
916.925	6200.25
917.236	6178.1
917.548	6140.14
917.859	6122.51
918.171	6081.15
918.482	6028.27
918.794	6036.41
919.105	6035.73
919.416	5986.47
919.727	5975.17
920.038	5950.54
920.349	5925.23
920.66	5905.57
920.971	5848.84
921.282	5844.32
921.593	5780.37
921.903	5771.33
922.214	5729.07
922.525	5728.85
922.835	5682.75
923.146	5680.49
923.456	5653.59
923.767	5675.51
924.077	5622.63
924.387	5644.1
924.697	5553.48
925.008	5606.14
925.318	5577.66
925.628	5569.08
925.938	5498.12
926.248	5425.35
926.558	5440.27
926.867	5477.33
927.177	5399.14
927.487	5374.05
927.796	5384.9
928.106	5314.39
928.416	5296.32
928.725	5284.34
929.034	5280.95
929.344	5248.86
929.653	5251.57
929.962	5187.62
930.271	5180.39
930.581	5120.95
930.89	5087.96
931.199	5115.98
931.508	5068.07
931.817	5057.9
932.125	5039.6
932.434	5070.56
932.743	4992.14
933.051	4960.05
933.36	4985.82
933.669	4916.66
933.977	4943.78
934.286	4888.42
934.594	4879.38
934.902	4849.55
935.21	4867.4
935.519	4823.33
935.827	4757.57
936.135	4746.73
936.443	4758.25
936.751	4723.45
937.059	4774.52
937.367	4711.02
937.674	4709.89
937.982	4645.26
938.29	4689.78
938.597	4630.8
938.905	4614.75
939.213	4558.03
939.52	4513.74
939.827	4546.05
940.135	4521.42
940.442	4517.13
940.749	4523
941.056	4443.68
941.363	4436.45
941.67	4429.22
941.977	4411.59
942.284	4370.24
942.591	4394.42
942.898	4348.54
943.205	4332.73
943.511	4297.7
943.818	4274.2
944.125	4220.41
944.431	4253.18
944.738	4234.2
945.044	4218.38
945.35	4198.04
945.657	4177.47
945.963	4153.07
946.269	4127.08
946.575	4159.17
946.881	4132.5
947.187	4033.75
947.493	4114.88
947.799	4069.23
948.105	4079.85
948.41	4031.49
948.716	3983.36
949.022	3995.78
949.327	3974.77
949.633	3958.72
949.938	3947.2
950.244	3934.54
950.549	3911.27
950.854	3871.49
951.16	3895
951.465	3883.7
951.77	3837.6
952.075	3842.34
952.38	3796.47
952.685	3822.68
952.99	3788.11
953.294	3722.8
953.599	3751.27
953.904	3693.87
954.209	3713.08
954.513	3683.7
954.818	3663.36
955.122	3659.52
955.426	3660.65
955.731	3605.06
956.035	3620.2
956.339	3575.91
956.643	3571.39
956.948	3560.77
957.252	3570.71
957.556	3528.45
957.86	3532.97
958.163	3477.61
958.467	3451.39
958.771	3499.53
959.075	3456.36
959.378	3443.26
959.682	3481.67
959.985	3432.41
960.289	3369.13
960.592	3372.52
960.896	3385.63
961.199	3337.27
961.502	3312.86
961.805	3360.77
962.108	3305.41
962.411	3309.02
962.714	3276.03
963.017	3302.47
963.32	3278.97
963.623	3213.88
963.926	3227.44
964.228	3192.87
964.531	3187.22
964.833	3191.51
965.136	3187.67
965.438	3114.23
965.741	3129.59
966.043	3134.56
966.345	3130.27
966.648	3075.81
966.95	3139.54
967.252	3085.07
967.554	3082.36
967.856	3080.1
968.158	3024.74
968.46	3038.75
968.761	3011.86
969.063	3015.02
969.365	2983.38
969.666	2952.2
969.968	2951.29
970.269	2939.99
970.571	2908.58
970.872	2942.25
971.174	2918.52
971.475	2910.62
971.776	2895.7
972.077	2864.52
972.378	2850.73
972.679	2868.58
972.98	2813.44
973.281	2847.11
973.582	2835.36
973.883	2802.82
974.183	2784.52
974.484	2837.85
974.785	2778.64
975.085	2752.43
975.386	2735.03
975.686	2746.55
975.986	2757.4
976.287	2669.49
976.587	2676.27
976.887	2678.53
977.187	2676.95
977.487	2648.7
977.787	2639.89
978.087	2633.11
978.387	2615.26
978.687	2627.23
978.987	2612.32
979.286	2578.19
979.586	2587.23
979.885	2536.16
980.185	2557.63
980.484	2557.18
980.784	2528.7
981.083	2516.95
981.382	2497.97
981.682	2515.37
981.981	2521.47
982.28	2464.3
982.579	2448.48
982.878	2433.11
983.177	2416.62
983.475	2470.85
983.774	2434.7
984.073	2426.33
984.372	2417.07
984.67	2406
984.969	2391.99
985.267	2406
985.566	2348.14
985.864	2343.17
986.162	2317.64
986.461	2321.7
986.759	2354.7
987.057	2308.15
987.355	2266.11
987.653	2296.62
987.951	2264.53
988.249	2284.19
988.547	2280.35
988.844	2247.13
989.142	2243.74
989.44	2212.33
989.737	2216.85
990.035	2206
990.332	2193.8
990.63	2212.78
990.927	2168.71
991.224	2167.13
991.521	2181.82
991.819	2161.71
992.116	2141.6
992.413	2121.26
992.71	2108.83
993.006	2094.82
993.303	2126
993.6	2076.97
993.897	2095.5
994.193	2121.03
994.49	2061.37
994.787	2015.5
995.083	2057.98
995.379	2040.13
995.676	2046.01
995.972	2017.53
996.268	1984.31
996.565	1997.65
996.861	1992.45
997.157	1992.9
997.453	1968.27
997.749	1941.83
998.044	1935.73
998.34	1910.42
998.636	1959.68
998.932	1898.89
999.227	1896.18
999.523	1889.17
999.818	1884.65
1000.114	1865.22
1000.409	1843.98
1000.704	1855.95
1001	1849.85
1001.295	1834.26
1001.59	1839.01
1001.885	1845.56
1002.18	1825.45
1002.475	1800.59
1002.77	1798.33
1003.065	1799.91
1003.359	1785.22
1003.654	1758.78
1003.949	1753.36
1004.243	1748.84
1004.538	1757.2
1004.832	1737.99
1005.127	1706.58
1005.421	1687.14
1005.715	1715.17
1006.009	1687.37
1006.304	1709.29
1006.598	1675.85
1006.892	1646.69
1007.186	1658.22
1007.48	1651.67
1007.773	1638.33
1008.067	1613.47
1008.361	1600.37
1008.655	1599.46
1008.948	1630.42
1009.242	1611.67
1009.535	1570.09
1009.829	1569.41
1010.122	1567.83
1010.415	1560.82
1010.708	1564.21
1011.001	1550.65
1011.295	1535.06
1011.588	1538
1011.881	1535.51
1012.173	1498.68
1012.466	1500.48
1012.759	1462.74
1013.052	1498
1013.344	1478.11
1013.637	1494.38
1013.93	1446.25
1014.222	1457.55
1014.514	1458.68
1014.807	1424.55
1015.099	1426.59
1015.391	1437.66
1015.683	1413.03
1015.976	1425.23
1016.268	1384.1
1016.56	1388.62
1016.851	1380.71
1017.143	1369.41
1017.435	1353.82
1017.727	1358.79
1018.018	1331.67
1018.31	1347.27
1018.602	1303.43
1018.893	1307.27
1019.185	1321.28
1019.476	1309.75
1019.767	1326.93
1020.058	1282.41
1020.35	1308.85
1020.641	1301.17
1020.932	1267.04
1021.223	1241.73
1021.514	1256.87
1021.804	1255.52
1022.095	1246.93
1022.386	1232.69
1022.677	1231.56
1022.967	1222.3
1023.258	1197.67
1023.548	1203.99
1023.839	1201.96
1024.129	1190.89
1024.419	1160.61
1024.709	1191.79
1025	1137.1
1025.29	1143.2
1025.58	1147.05
1025.87	1143.66
1026.16	1128.06
1026.449	1124.22
1026.739	1117.89
1027.029	1116.09
1027.319	1096.2
1027.608	1104.11
1027.898	1093.49
1028.187	1098.69
1028.477	1055.75
1028.766	1099.14
1029.055	1077.67
1029.344	1054.39
1029.634	1029.08
1029.923	1041.51
1030.212	1045.13
1030.501	1038.8
1030.79	1029.76
1031.078	1030.44
1031.367	1004
1031.656	992.02
1031.945	1012.59
1032.233	1024.11
1032.522	1003.77
1032.81	957.67
1033.099	960.16
1033.387	956.32
1033.675	958.35
1033.963	947.73
1034.251	948.41
1034.54	944.57
1034.828	942.98
1035.116	924.68
1035.403	927.84
1035.691	940.27
1035.979	911.35
1036.267	911.35
1036.554	902.08
1036.842	888.52
1037.129	897.34
1037.417	916.54
1037.704	877.45
1037.992	869.09
1038.279	856.43
1038.566	842.87
1038.853	842.87
1039.14	842.87
