Data from hue_50_FLMS001491_59.txt Node
Date: Mon Feb 06 15:10:33 GMT 2017
User: dcchb
Spectrometer: FLMS00149
Trigger mode: 0
Integration Time (sec): 2.000000E-2
Scans to average: 10
Electric dark correction enabled: true
Nonlinearity correction enabled: false
Boxcar width: 0
XAxis mode: Wavelengths
Number of Pixels in Spectrum: 2048
>>>>>Begin Spectral Data<<<<<
341.393	-9.83
341.776	-9.83
342.16	-9.83
342.543	-60
342.927	-67.23
343.31	-77.17
343.693	-52.32
344.077	-56.16
344.46	-64.52
344.843	-55.25
345.226	-33.56
345.61	-42.6
345.993	-12.99
346.376	-18.19
346.759	12.77
347.142	22.49
347.525	51.41
347.908	56.83
348.291	73.11
348.674	106.78
349.057	89.38
349.44	136.83
349.823	156.72
350.206	159.43
350.588	198.3
350.971	199.43
351.354	229.71
351.737	232.65
352.119	244.17
352.502	245.76
352.884	272.65
353.267	279.2
353.65	267.68
354.032	292.31
354.414	295.02
354.797	307
355.179	316.71
355.562	341.57
355.944	314.23
356.326	329.37
356.709	347.22
357.091	347.45
357.473	342.25
357.855	347.22
358.238	347.45
358.62	344.96
359.002	358.97
359.384	347.9
359.766	323.95
360.148	349.48
360.53	332.31
360.912	335.25
361.294	356.94
361.676	341.57
362.057	327.11
362.439	317.62
362.821	332.76
363.203	347.67
363.584	326.43
363.966	325.53
364.348	340.89
364.729	333.66
365.111	304.96
365.493	318.97
365.874	317.62
366.256	291.18
366.637	324.62
367.019	323.72
367.4	304.74
367.781	326.88
368.163	311.74
368.544	326.88
368.925	318.52
369.306	334.57
369.688	316.71
370.069	298.18
370.45	292.99
370.831	305.19
371.212	328.92
371.593	290.05
371.974	321.23
372.355	317.39
372.736	316.04
373.117	324.62
373.498	312.2
373.879	333.89
374.26	328.01
374.641	336.15
375.021	288.24
375.402	317.62
375.783	304.29
376.163	323.27
376.544	317.17
376.925	302.48
377.305	315.81
377.686	319.43
378.066	333.44
378.447	319.65
378.827	341.35
379.208	317.62
379.588	338.64
379.968	329.37
380.349	331.63
380.729	305.87
381.109	332.53
381.489	341.57
381.87	318.52
382.25	339.77
382.63	330.27
383.01	330.5
383.39	339.09
383.77	335.92
384.15	349.71
384.53	339.31
384.91	341.35
385.29	351.74
385.67	340.67
386.049	325.08
386.429	340.22
386.809	338.86
387.189	337.51
387.568	335.47
387.948	340.89
388.328	351.97
388.707	337.73
389.087	333.89
389.466	334.12
389.846	363.49
390.225	354
390.605	361.23
390.984	356.71
391.363	356.04
391.743	360.1
392.122	348.8
392.501	357.84
392.881	362.36
393.26	378.41
393.639	368.24
394.018	391.52
394.397	357.62
394.776	361.46
395.155	352.65
395.534	365.08
395.913	370.5
396.292	392.65
396.671	363.49
397.05	372.53
397.429	349.71
397.808	371.4
398.186	380.22
398.565	368.69
398.944	389.26
399.323	393.32
399.701	364.17
400.08	362.82
400.458	375.92
400.837	389.26
401.215	390.16
401.594	380.89
401.972	391.52
402.351	373.66
402.729	394.68
403.107	400.55
403.486	394.23
403.864	398.07
404.242	392.42
404.62	412.98
404.999	399.88
405.377	399.42
405.755	407.79
406.133	422.93
406.511	402.36
406.889	394.23
407.267	410.72
407.645	397.39
408.023	434.45
408.401	407.56
408.779	418.41
409.156	419.76
409.534	403.04
409.912	425.86
410.29	418.63
410.667	421.57
411.045	416.15
411.422	415.02
411.8	437.39
412.178	435.58
412.555	443.94
412.933	449.14
413.31	456.15
413.687	461.8
414.065	456.37
414.442	464.73
414.819	464.51
415.197	461.12
415.574	466.54
415.951	454.34
416.328	468.8
416.705	443.94
417.082	454.56
417.46	480.33
417.837	472.42
418.214	452.76
418.591	465.41
418.967	476.48
419.344	466.77
419.721	481.91
420.098	500.44
420.475	497.73
420.852	485.07
421.228	510.38
421.605	506.99
421.982	507.44
422.358	481
422.735	504.96
423.111	501.34
423.488	492.08
423.864	486.88
424.241	535.92
424.617	505.41
424.994	511.29
425.37	505.18
425.746	522.81
426.123	551.51
426.499	534.34
426.875	530.27
427.251	521.23
427.627	529.82
428.003	523.72
428.379	535.24
428.756	532.3
429.132	549.25
429.507	563.71
429.883	544.96
430.259	548.57
430.635	566.88
431.011	570.72
431.387	557.16
431.763	562.13
432.138	565.97
432.514	566.2
432.89	584.28
433.265	588.12
433.641	593.09
434.016	620.89
434.392	608.01
434.767	593.77
435.143	599.19
435.518	609.36
435.894	602.58
436.269	603.26
436.644	655.01
437.02	627.67
437.395	628.12
437.77	637.38
438.145	656.37
438.52	643.94
438.895	656.82
439.271	666.76
439.646	667.21
440.021	664.73
440.395	655.69
440.77	669.93
441.145	661.79
441.52	675.8
441.895	678.74
442.27	675.35
442.645	708.79
443.019	700.43
443.394	694.33
443.769	706.54
444.143	698.63
444.518	695.69
444.892	701.56
445.267	707.67
445.641	715.12
446.016	709.25
446.39	719.42
446.764	704.73
447.139	713.77
447.513	731.85
447.887	725.74
448.262	728.91
448.636	706.76
449.01	738.62
449.384	740.66
449.758	744.73
450.132	743.82
450.506	783.37
450.88	772.97
451.254	765.29
451.628	782.01
452.002	773.43
452.376	798.28
452.75	765.29
453.123	798.74
453.497	797.83
453.871	803.71
454.244	817.27
454.618	846.19
454.992	838.06
455.365	847.1
455.739	854.1
456.112	844.16
456.486	862.69
456.859	855.46
457.232	906.08
457.606	881.9
457.979	907.66
458.352	896.59
458.725	915.57
459.099	915.57
459.472	957.6
459.845	959.18
460.218	941.56
460.591	939.3
460.964	955.57
461.337	977.71
461.71	974.1
462.083	1007.54
462.456	1004.83
462.829	1009.35
463.201	1031.05
463.574	1065.4
463.947	1038.05
464.32	1057.49
464.692	1094.1
465.065	1085.73
465.438	1098.84
465.81	1099.07
466.183	1127.09
466.555	1176.13
466.928	1156.47
467.3	1156.92
467.672	1193.3
468.045	1208.44
468.417	1220.19
468.789	1224.26
469.161	1242.11
469.534	1256.58
469.906	1299.97
470.278	1318.5
470.65	1330.7
471.022	1371.38
471.394	1435.56
471.766	1417.48
472.138	1453.86
472.51	1458.38
472.882	1504.93
473.253	1527.53
473.625	1554.65
473.997	1607.3
474.369	1615.66
474.74	1664.7
475.112	1671.48
475.484	1722.55
475.855	1758.71
476.227	1807.52
476.598	1847.75
476.97	1913.51
477.341	1977.69
477.713	2005.71
478.084	2017.91
478.455	2078.25
478.827	2113.96
479.198	2193.5
479.569	2263.56
479.94	2329.09
480.311	2394.85
480.682	2450.9
481.053	2532.7
481.424	2623.77
481.795	2655.41
482.166	2718.01
482.537	2840.72
482.908	2911.45
483.279	2998
483.65	3085.46
484.021	3168.39
484.391	3263.76
484.762	3317.99
485.133	3409.06
485.503	3496.74
485.874	3601.6
486.244	3722.95
486.615	3825.78
486.985	3944.64
487.356	4011.53
487.726	4129.72
488.097	4260.34
488.467	4330.17
488.837	4463.95
489.207	4574.23
489.578	4700.33
489.948	4794.79
490.318	4924.28
490.688	4986.2
491.058	5142.35
491.428	5263.03
491.798	5414.89
492.168	5559.97
492.538	5655.11
492.908	5797.25
493.278	5931.48
493.648	6034.08
494.017	6167.86
494.387	6261.87
494.757	6431.58
495.126	6540.51
495.496	6658.24
495.866	6734.17
496.235	6839.48
496.605	6975.75
496.974	7115.63
497.344	7212.8
497.713	7363.54
498.082	7460.71
498.452	7602.85
498.821	7725.79
499.19	7770.76
499.559	7929.62
499.928	8030.86
500.298	8158.54
500.667	8284.87
501.036	8373.68
501.405	8516.05
501.774	8536.16
502.143	8650.28
502.512	8763.27
502.88	8877.39
503.249	8951.06
503.618	9098.18
503.987	9232.64
504.356	9335.69
504.724	9462.69
505.093	9472.86
505.462	9569.13
505.83	9711.04
506.199	9773.19
506.567	9975.9
506.936	9944.03
507.304	10153.52
507.672	10255.66
508.041	10350.12
508.409	10458.14
508.777	10552.6
509.145	10672.15
509.514	10792.15
509.882	10879.37
510.25	11007.28
510.618	11066.94
510.986	11135.64
511.354	11243.89
511.722	11376.09
512.09	11553.26
512.458	11507.16
512.826	11674.61
513.193	11784.44
513.561	11866.69
513.929	11922.74
514.297	12055.62
514.664	12155.73
515.032	12174.48
515.4	12308.26
515.767	12412.44
516.135	12539.67
516.502	12487.47
516.869	12747.35
517.237	12788.25
517.604	12739.67
517.972	12941.24
518.339	13087.9
518.706	13112.99
519.073	13211.97
519.44	13273.66
519.808	13388.24
520.175	13502.13
520.542	13621.22
520.909	13763.59
521.276	13763.14
521.643	13940.76
522.009	13982.57
522.376	14105.5
522.743	14198.84
523.11	14381.2
523.477	14506.85
523.843	14596.79
524.21	14748.2
524.577	14837.01
524.943	14854.41
525.31	14978.7
525.676	15153.61
526.043	15285.59
526.409	15288.75
526.776	15445.13
527.142	15517.9
527.508	15641.28
527.874	15757.44
528.241	15908.4
528.607	15851.45
528.973	16130.54
529.339	16040.14
529.705	16217.99
530.071	16403.98
530.437	16513.8
530.803	16541.15
531.169	16613.91
531.535	16532.11
531.901	16701.37
532.267	16801.03
532.632	16875.83
532.998	16964.19
533.364	17116.05
533.73	17132.09
534.095	17303.61
534.461	17317.17
534.826	17420.67
535.192	17564.4
535.557	17565.3
535.923	17554.45
536.288	17750.15
536.653	17819.31
537.019	17801
537.384	17808.68
537.749	17998.28
538.114	18050.26
538.479	18071.5
538.845	18144.27
539.21	18144.04
539.575	18285.96
539.94	18290.48
540.305	18458.84
540.67	18446.86
541.034	18511.94
541.399	18575.44
541.764	18613.41
542.129	18648.21
542.494	18700.64
542.858	18867.64
543.223	18855.21
543.587	18970.46
543.952	18900.41
544.316	19183.79
544.681	19089.78
545.045	19224.24
545.41	19250.91
545.774	19385.82
546.138	19428.53
546.503	19522.09
546.867	19510.56
547.231	19689.31
547.595	19735.41
547.959	19736.32
548.324	19739.48
548.688	19933.6
549.052	19987.38
549.416	19950.77
549.779	20141.73
550.143	20065.8
550.507	20330.43
550.871	20396.19
551.235	20318.67
551.599	20433.02
551.962	20491.55
552.326	20541.04
552.689	20630.08
553.053	20705.78
553.417	20717.99
553.78	20905.33
554.143	20941.94
554.507	20878.21
554.87	20955.04
555.234	21191.87
555.597	21104.19
555.96	21231.42
556.323	21356.39
556.686	21371.53
557.05	21540.56
557.413	21522.03
557.776	21602.93
558.139	21675.25
558.502	21837.28
558.865	21811.06
559.228	21939.65
559.59	22131.51
559.953	22065.97
560.316	22380.99
560.679	22263.48
561.041	22531.05
561.404	22642.91
561.767	22729.46
562.129	22708.89
562.492	22924.03
562.854	22919.74
563.217	22942.33
563.579	22985.72
563.941	23094.87
564.304	23309.33
564.666	23465.94
565.028	23473.85
565.39	23460.51
565.753	23622.09
566.115	23761.3
566.477	23874.06
566.839	23928.3
567.201	24065.92
567.563	24026.6
567.925	24282.41
568.287	24274.95
568.648	24367.38
569.01	24515.17
569.372	24648.73
569.734	24596.98
570.095	24740.03
570.457	24972.56
570.819	25001.49
571.18	25011.21
571.542	25088.04
571.903	25162.16
572.265	25373.01
572.626	25406.68
572.987	25458.2
573.349	25495.26
573.71	25605.54
574.071	25799.21
574.432	25864.74
574.794	26065.64
575.155	25961.01
575.516	25930.96
575.877	26109.93
576.238	26257.73
576.599	26325.3
576.96	26389.48
577.32	26400.77
577.681	26627.66
578.042	26697.94
578.403	26758.96
578.763	26765.06
579.124	27023.13
579.485	26992.62
579.845	27317.59
580.206	27290.02
580.566	27217.93
580.927	27368.43
581.287	27645.26
581.648	27554.64
582.008	27679.61
582.368	27770.46
582.728	27857.01
583.089	27951.02
583.449	28078.7
583.809	28053.16
584.169	28265.36
584.529	28224.68
584.889	28668.06
585.249	28387.39
585.609	28567.95
585.969	28595.29
586.329	28793.25
586.688	28908.73
587.048	29002.51
587.408	28912.35
587.768	29275.5
588.127	29162.96
588.487	29304.88
588.846	29573.35
589.206	29459.68
589.565	29552.33
589.925	29741.48
590.284	29723.17
590.643	29851.08
591.003	30100.34
591.362	30257.85
591.721	30224.85
592.08	30342.59
592.44	30454.91
592.799	30551.85
593.158	30448.13
593.517	30680.21
593.876	30839.98
594.235	30897.38
594.593	30962.91
594.952	31071.39
595.311	31083.36
595.67	31286.3
596.029	31530.13
596.387	31507.31
596.746	31644.93
597.104	31535.78
597.463	31593.18
597.822	31981.64
598.18	31864.59
598.538	31895.77
598.897	31993.85
599.255	31881.31
599.613	32373.05
599.972	32227.51
600.33	32445.81
600.688	32428.41
601.046	32522.87
601.404	32802.19
601.762	32719.48
602.12	32928.51
602.478	32987.95
602.836	33051.45
603.194	32990.66
603.552	32968.06
603.91	33088.06
604.268	33322.63
604.625	33209.41
604.983	33335.96
605.341	33257.09
605.698	33569.4
606.056	33500.02
606.413	33531.66
606.771	33613.24
607.128	33805.78
607.485	33709.06
607.843	33834.7
608.2	34061.59
608.557	34087.58
608.914	34063.62
609.272	34315.37
609.629	34344.52
609.986	34382.71
610.343	34401.02
610.7	34674.68
611.057	34635.81
611.414	34586.77
611.771	34666.32
612.127	34901.57
612.484	34905.86
612.841	35049.81
613.198	34848.46
613.554	35090.94
613.911	35285.06
614.267	35195.8
614.624	35285.51
614.98	35417.26
615.337	35579.97
615.693	35548.56
616.05	35526.41
616.406	35706.52
616.762	35650.48
617.118	35727.76
617.475	35796.01
617.831	35869
618.187	36016.12
618.543	35979.51
618.899	36146.06
619.255	36125.72
619.611	36146.73
619.967	36350.34
620.323	36297.92
620.678	36177.92
621.034	36174.3
621.39	36386.27
621.746	36283.68
622.101	36728.86
622.457	36408.87
622.812	36413.39
623.168	36566.38
623.523	36504.46
623.879	36734.74
624.234	36354.41
624.589	36618.59
624.945	36768.19
625.3	36619.72
625.655	36650.67
626.01	36808.64
626.365	36904
626.72	36720.5
627.075	36914.17
627.43	36785.13
627.785	36724.12
628.14	36848.41
628.495	36909.42
628.85	36824.68
629.205	36888.41
629.559	37017.9
629.914	36819.48
630.269	36867.39
630.623	36842.08
630.978	36837.34
631.332	36862.65
631.687	37066.26
632.041	36806.38
632.396	36875.3
632.75	36840.73
633.104	36856.09
633.459	36790.56
633.813	36708.53
634.167	36677.57
634.521	36660.17
634.875	36806.6
635.229	36640.05
635.583	36530.23
635.937	36673.27
636.291	36571.35
636.645	36665.14
636.999	36538.14
637.352	36618.81
637.706	36523.22
638.06	36635.31
638.413	36565.03
638.767	36485.71
639.121	36401.64
639.474	36293.85
639.828	36320.74
640.181	36488.19
640.534	36391.47
640.888	36341.3
641.241	36185.6
641.594	36225.83
641.947	36330.46
642.301	36167.07
642.654	36240.52
643.007	36187.64
643.36	36131.37
643.713	36261.31
644.066	36208.88
644.419	36178.82
644.771	35835.55
645.124	35525.05
645.477	35634.88
645.83	35196.48
646.182	35185.18
646.535	35134.1
646.888	35113.31
647.24	34894.11
647.593	35057.27
647.945	34968.46
648.298	34966.43
648.65	34837.39
649.002	34760.1
649.355	34925.07
649.707	34845.75
650.059	35010.27
650.411	35365.28
650.763	35313.53
651.115	35823.35
651.467	35693.64
651.819	35687.76
652.171	35477.6
652.523	35486.19
652.875	35439.18
653.227	35355.79
653.578	35771.38
653.93	35493.42
654.282	35323.48
654.633	35212.29
654.985	35240.32
655.337	35251.62
655.688	35381.56
656.039	35392.18
656.391	35005.52
656.742	35266.53
657.094	35267.21
657.445	35489.58
657.796	35268.11
658.147	35152.64
658.498	35149.02
658.849	35298.17
659.2	35230.6
659.551	35208.23
659.902	35240.77
660.253	35176.14
660.604	35196.93
660.955	35067.44
661.306	35269.69
661.656	35042.81
662.007	34972.98
662.358	35035.58
662.708	35082.13
663.059	35142.24
663.409	34988.35
663.76	35078.06
664.11	35089.59
664.461	35222.01
664.811	35175.01
665.161	35045.52
665.511	34967.56
665.862	34954.9
666.212	35193.99
666.562	35146.08
666.912	34946.31
667.262	35015.24
667.612	34933.43
667.962	35019.53
668.312	34979.53
668.662	35117.16
669.011	34848.91
669.361	35005.29
669.711	34953.32
670.06	34855.24
670.41	34819.99
670.76	34798.07
671.109	35000.55
671.459	34800.1
671.808	34674.23
672.157	34895.47
672.507	34659.77
672.856	34740.22
673.205	34793.77
673.554	34841.68
673.904	34664.29
674.253	34973.66
674.602	34731.86
674.951	34362.37
675.3	34061.82
675.649	34567.79
675.998	34490.05
676.346	34475.36
676.695	34754.23
677.044	34474.69
677.393	34596.49
677.741	34539.77
678.09	34512.2
678.438	34433.33
678.787	34431.07
679.135	34434.91
679.484	34175.03
679.832	34406.21
680.181	34126
680.529	34329.61
680.877	34103.17
681.225	34208.25
681.573	34438.08
681.922	34161.47
682.27	34037.18
682.618	34034.92
682.966	33915.38
683.314	34019.11
683.661	33820.01
684.009	33667.93
684.357	33598.55
684.705	33586.57
685.053	33681.04
685.4	33590.42
685.748	33428.84
686.095	33563.98
686.443	33419.57
686.79	33395.39
687.138	33486.46
687.485	33478.55
687.832	33258.22
688.18	33257.54
688.527	33044.89
688.874	33044.67
689.221	32914.05
689.568	32919.02
689.915	32765.58
690.262	32798.35
690.609	32675.64
690.956	32608.07
691.303	32658.46
691.65	32494.4
691.997	32496.66
692.344	32209.21
692.69	32301.18
693.037	32282.2
693.383	32042.66
693.73	32136.22
694.077	31984.81
694.423	32020.51
694.769	31832.72
695.116	31721.54
695.462	31691.26
695.808	31649.68
696.155	31611.26
696.501	31515.89
696.847	31572.62
697.193	31304.37
697.539	31332.4
697.885	31136.02
698.231	31039.97
698.577	31146.64
698.923	31021.9
699.269	30908.68
699.614	30662.58
699.96	30662.81
700.306	30696.93
700.651	30536.94
700.997	30455.58
701.342	30413.32
701.688	30442.7
702.033	30284.06
702.379	30192.54
702.724	30065.99
703.069	30152.31
703.415	29678.88
703.76	29888.59
704.105	29832.55
704.45	29806.11
704.795	29582.16
705.14	29526.57
705.485	29649.05
705.83	29441.6
706.175	29362.05
706.52	29417.42
706.865	29284.09
707.209	29246.8
707.554	29136.3
707.899	29154.37
708.243	29041.16
708.588	28946.02
708.932	28789.64
709.277	28819.92
709.621	28772.01
709.966	28607.04
710.31	28776.08
710.654	28478.23
710.998	28408.63
711.342	28572.7
711.687	28349.42
712.031	28202.99
712.375	28164.34
712.719	28281.4
713.063	28221.07
713.407	28250.67
713.75	28148.07
714.094	28096.32
714.438	27939.49
714.782	27913.96
715.125	27830.79
715.469	27798.25
715.812	27654.53
716.156	27585.83
716.499	27618.37
716.843	27677.35
717.186	27424.02
717.53	27603.91
717.873	27523.91
718.216	27397.81
718.559	27451.59
718.902	27149.68
719.246	27237.81
719.589	27053.86
719.932	27164.82
720.275	27083.47
720.617	27049.8
720.96	27131.15
721.303	26958.95
721.646	26984.26
721.989	26746.75
722.331	26878.5
722.674	26749.92
723.016	26747.66
723.359	26753.76
723.701	26770.48
724.044	26513.31
724.386	26523.03
724.729	26622.69
725.071	26476.7
725.413	26370.27
725.755	26477.16
726.097	26339.76
726.439	26116.49
726.782	26190.61
727.124	26208.69
727.465	26173.66
727.807	26130.73
728.149	26074.46
728.491	25968.02
728.833	26115.36
729.175	25933.44
729.516	25926.44
729.858	25975.02
730.199	25886.66
730.541	25805.54
730.882	25893.22
731.224	25812.99
731.565	25782.71
731.906	25695.03
732.248	25755.37
732.589	25495.04
732.93	25487.35
733.271	25548.37
733.612	25521.7
733.953	25512.44
734.294	25317.41
734.635	25321.93
734.976	25328.03
735.317	25268.83
735.658	25335.94
735.999	25231.09
736.339	25089.17
736.68	25330.07
737.021	25068.38
737.361	24955.16
737.702	25119.68
738.042	25120.13
738.383	24986.12
738.723	25025.44
739.063	24883.3
739.404	24940.25
739.744	24845.34
740.084	24870.65
740.424	24766.69
740.764	24818.9
741.104	24827.03
741.444	24641.05
741.784	24660.71
742.124	24679.69
742.464	24536.87
742.804	24533.93
743.143	24512.01
743.483	24401.51
743.823	24390.21
744.162	24283.77
744.502	24280.15
744.841	24278.57
745.181	24387.04
745.52	24318.8
745.86	24257.78
746.199	24195.86
746.538	24122.87
746.877	24231.57
747.216	24217.1
747.556	24091.23
747.895	24123.32
748.234	24038.58
748.573	23939.6
748.911	23966.94
749.25	23849.43
749.589	23788.41
749.928	23749.77
750.267	24024.11
750.605	23753.16
750.944	23721.75
751.283	23662.77
751.621	23704.8
751.96	23518.82
752.298	23529.44
752.636	23512.49
752.975	23389.55
753.313	23322.89
753.651	23430.46
753.989	23251.71
754.327	23152.5
754.666	23163.8
755.004	23135.32
755.342	23180.75
755.679	23076.57
756.017	22945.27
756.355	22987.98
756.693	22867.99
757.031	22919.51
757.368	22855.33
757.706	22735.11
758.044	22665.73
758.381	22638.16
758.719	22585.96
759.056	22547.32
759.394	22540.54
759.731	22441.1
760.068	22383.93
760.405	22272.52
760.743	22148.23
761.08	22279.08
761.417	22101.68
761.754	22064.62
762.091	22036.14
762.428	21843.38
762.765	21770.16
763.102	21840.44
763.438	21706.43
763.775	21583.05
764.112	21525.65
764.449	21678.19
764.785	21654.46
765.122	21406.56
765.458	21315.48
765.795	21251.31
766.131	21269.61
766.467	21200.46
766.804	21089.73
767.14	20988.26
767.476	21074.14
767.812	20890.86
768.148	20874.14
768.485	20845.67
768.821	20715.5
769.157	20688.83
769.492	20640.7
769.828	20573.81
770.164	20376.3
770.5	20224.67
770.836	20375.62
771.171	20184.44
771.507	20182.41
771.842	20129.98
772.178	20043.43
772.513	19965.46
772.849	19908.06
773.184	19801.63
773.519	19793.04
773.855	19699.26
774.19	19616.55
774.525	19572.25
774.86	19498.58
775.195	19517.34
775.53	19434.86
775.865	19306.5
776.2	19198.7
776.535	19038.26
776.87	19037.13
777.205	18884.81
777.539	18911.03
777.874	18939.95
778.209	18751.48
778.543	18624.93
778.878	18520.53
779.212	18539.06
779.547	18501.32
779.881	18589
780.215	18411.38
780.55	18436.24
780.884	18232.63
781.218	18316.92
781.552	18154.44
781.886	18086.19
782.22	17955.8
782.554	17993.09
782.888	17673.32
783.222	17817.05
783.556	17637.16
783.889	17587.22
784.223	17519.65
784.557	17515.81
784.89	17478.3
785.224	17347.45
785.557	17278.3
785.891	17313.1
786.224	17217.29
786.558	17151.75
786.891	16964.86
787.224	17014.13
787.557	16938.65
787.891	16945.2
788.224	16907.47
788.557	16853.91
788.89	16824.76
789.223	16733.68
789.556	16679.45
789.888	16513.58
790.221	16492.11
790.554	16389.74
790.887	16390.42
791.219	16335.73
791.552	16245.56
791.884	16239.01
792.217	16235.62
792.549	16085.57
792.882	16008.51
793.214	15860.26
793.546	15968.51
793.879	15859.13
794.211	15834.95
794.543	15830.88
794.875	15785.69
795.207	15820.49
795.539	15628.63
795.871	15625.24
796.203	15566.48
796.535	15514.51
796.867	15403.55
797.198	15380.73
797.53	15398.35
797.862	15307.73
798.193	15307.51
798.525	15207.4
798.856	15128.75
799.188	15038.36
799.519	15004.69
799.85	14924.92
800.182	14965.6
800.513	14967.18
800.844	14707.97
801.175	14886.73
801.506	14884.69
801.837	14714.08
802.168	14730.35
802.499	14631.14
802.83	14497.58
803.161	14535.78
803.491	14440.41
803.822	14548.66
804.153	14380.07
804.483	14400.19
804.814	14253.75
805.145	14345.5
805.475	14259.63
805.805	14188.89
806.136	14167.88
806.466	14183.92
806.796	14170.36
807.126	14030.48
807.457	14007.88
807.787	13992.97
808.117	13906.19
808.447	13902.8
808.777	13829.58
809.107	13772.63
809.436	13737.6
809.766	13814.89
810.096	13815.79
810.426	13727.44
810.755	13619.64
811.085	13617.83
811.414	13573.77
811.744	13463.26
812.073	13355.92
812.403	13464.39
812.732	13380.1
813.061	13320.21
813.39	13209.26
813.719	13304.4
814.049	13315.02
814.378	13196.15
814.707	13126.77
815.036	13234.34
815.365	13120.67
815.693	12978.53
816.022	13039.54
816.351	12951.41
816.68	12882.71
817.008	12957.74
817.337	12750.74
817.665	12870.51
817.994	12830.51
818.322	12721.13
818.651	12750.06
818.979	12641.14
819.307	12723.62
819.636	12684.07
819.964	12597.75
820.292	12637.07
820.62	12582.61
820.948	12599.33
821.276	12626
821.604	12570.63
821.932	12669.16
822.259	12653.11
822.587	12523.63
822.915	12577.86
823.243	12540.8
823.57	12514.81
823.898	12607.24
824.225	12513.23
824.553	12490.63
824.88	12497.41
825.207	12536.96
825.535	12527.92
825.862	12527.02
826.189	12524.08
826.516	12512.55
826.843	12536.28
827.17	12496.96
827.497	12549.16
827.824	12597.97
828.151	12552.33
828.478	12491.76
828.805	12560.91
829.131	12541.48
829.458	12490.18
829.785	12511.87
830.111	12449.5
830.438	12561.36
830.764	12434.36
831.09	12544.87
831.417	12413.35
831.743	12474.59
832.069	12442.27
832.395	12450.63
832.722	12382.84
833.048	12375.15
833.374	12408.6
833.7	12386.68
834.026	12309.62
834.351	12351.88
834.677	12355.04
835.003	12317.3
835.329	12357.98
835.654	12330.64
835.98	12219
836.306	12262.39
836.631	12210.64
836.956	12226.91
837.282	12202.05
837.607	12115.73
837.932	12087.25
838.258	12123.64
838.583	12136.07
838.908	12153.92
839.233	12072.56
839.558	12048.84
839.883	11983.07
840.208	12055.16
840.533	12021.04
840.858	12019.91
841.182	12013.36
841.507	11929.97
841.832	11842.06
842.156	11874.6
842.481	11868.95
842.805	11790.09
843.13	11774.94
843.454	11755.96
843.778	11764.55
844.103	11768.17
844.427	11727.49
844.751	11695.17
845.075	11641.84
845.399	11618.56
845.723	11528.4
846.047	11634.84
846.371	11489.08
846.695	11419.93
847.019	11421.28
847.343	11397.55
847.666	11209.08
847.99	11245.69
848.313	11241.63
848.637	11169.76
848.96	11081.63
849.284	11091.8
849.607	10981.52
849.931	10935.42
850.254	10920.73
850.577	10875.31
850.9	10770.23
851.223	10835.53
851.546	10712.6
851.869	10670.34
852.192	10671.24
852.515	10650.23
852.838	10583.34
853.161	10570.91
853.483	10476.45
853.806	10495.2
854.129	10502.21
854.451	10424.92
854.774	10387.41
855.096	10333.63
855.419	10293.63
855.741	10356.45
856.063	10261.54
856.385	10142.9
856.708	10129.34
857.03	10118.94
857.352	10165.95
857.674	10110.58
857.996	10102.22
858.318	9988.32
858.64	10012.05
858.961	10019.74
859.283	9916.01
859.605	9895.9
859.926	9920.08
860.248	9899.97
860.57	9828.78
860.891	9823.13
861.212	9829.01
861.534	9745.39
861.855	9778.61
862.176	9798.27
862.498	9760.53
862.819	9754.66
863.14	9690.03
863.461	9597.83
863.782	9651.61
864.103	9643.02
864.424	9666.75
864.745	9609.13
865.065	9563.25
865.386	9500.43
865.707	9509.47
866.027	9489.81
866.348	9564.16
866.668	9507.66
866.989	9451.39
867.309	9403.03
867.63	9404.84
867.95	9444.16
868.27	9346.76
868.59	9392.18
868.91	9329.81
869.23	9283.03
869.55	9278.29
869.87	9380.21
870.19	9327.55
870.51	9315.12
870.83	9353.99
871.15	9189.02
871.469	9198.29
871.789	9272.64
872.109	9243.03
872.428	9181.34
872.748	9216.82
873.067	9095.69
873.386	9123.49
873.706	9152.41
874.025	9075.58
874.344	9117.84
874.663	9055.92
874.982	9092.76
875.301	9055.92
875.62	9025.86
875.939	8966.66
876.258	8984.74
876.577	8982.02
876.896	9007.56
877.214	8943.83
877.533	8930.27
877.852	8944.96
878.17	8957.84
878.489	8928.92
878.807	8842.37
879.125	8843.04
879.444	8873.78
879.762	8850.73
880.08	8864.06
880.398	8786.77
880.716	8856.6
881.034	8772.54
881.352	8769.37
881.67	8773.44
881.988	8737.51
882.306	8751.52
882.624	8666.33
882.941	8637.63
883.259	8647.8
883.577	8629.94
883.894	8588.14
884.212	8587.23
884.529	8611.19
884.846	8483.28
885.164	8554.01
885.481	8522.83
885.798	8536.39
886.115	8455.94
886.432	8475.37
886.75	8469.72
887.067	8436.73
887.383	8351.76
887.7	8452.32
888.017	8320.57
888.334	8362.15
888.651	8331.65
888.967	8272.21
889.284	8262.72
889.6	8247.58
889.917	8185.66
890.233	8213.91
890.55	8268.6
890.866	8188.15
891.182	8143.63
891.498	8049.84
891.815	8055.49
892.131	8056.17
892.447	8021.37
892.763	8017.76
893.079	7989.96
893.395	7958.77
893.71	7914.71
894.026	7967.14
894.342	7964.42
894.657	7873.58
894.973	7819.12
895.289	7836.29
895.604	7859.79
895.92	7774.82
896.235	7709.74
896.55	7709.74
896.865	7709.06
897.181	7722.4
897.496	7679.23
897.811	7620.03
898.126	7632.23
898.441	7553.36
898.756	7557.2
899.071	7540.03
899.386	7489.63
899.7	7427.04
900.015	7432.46
900.33	7422.97
900.644	7408.28
900.959	7416.64
901.273	7332.58
901.588	7332.8
901.902	7222.3
902.216	7248.51
902.531	7219.13
902.845	7179.59
903.159	7094.62
903.473	7114.05
903.787	7073.15
904.101	7027.27
904.415	7058.68
904.729	7005.58
905.042	7009.42
905.356	6978.69
905.67	6952.7
905.984	6933.72
906.297	6879.48
906.611	6879.93
906.924	6849.2
907.237	6789.76
907.551	6798.35
907.864	6732.14
908.177	6750.67
908.491	6735.3
908.804	6694.17
909.117	6658.02
909.43	6594.06
909.743	6581.41
910.056	6614.85
910.368	6588.64
910.681	6567.4
910.994	6500.73
911.307	6480.62
911.619	6403.79
911.932	6480.17
912.244	6388.19
912.557	6381.41
912.869	6330.57
913.181	6336.9
913.494	6327.63
913.806	6309.1
914.118	6234.3
914.43	6248.31
914.742	6199.72
915.054	6172.38
915.366	6136.22
915.678	6178.03
915.99	6102.1
916.302	6043.57
916.613	6051.25
916.925	6039.5
917.236	6055.55
917.548	5999.5
917.859	5990.69
918.171	5891.03
918.482	5857.59
918.794	5875.44
919.105	5890.81
919.416	5767.42
919.727	5877.02
920.038	5809.45
920.349	5736.46
920.66	5751.6
920.971	5731.94
921.282	5690.13
921.593	5614.43
921.903	5611.26
922.214	5635.67
922.525	5562
922.835	5628.21
923.146	5505.05
923.456	5523.36
923.767	5494.43
924.077	5490.36
924.387	5476.35
924.697	5435
925.008	5406.98
925.318	5431.38
925.628	5390.71
925.938	5361.1
926.248	5328.56
926.558	5287.88
926.867	5283.14
927.177	5279.3
927.487	5235.91
927.796	5176.25
928.106	5138.28
928.416	5156.36
928.725	5158.4
929.034	5109.81
929.344	5148.9
929.653	5081.34
929.962	5063.48
930.271	5024.39
930.581	5004.73
930.89	5026.65
931.199	4989.36
931.508	4943.49
931.817	4931.73
932.125	4910.04
932.434	4905.29
932.743	4844.96
933.051	4847.22
933.36	4856.71
933.669	4771.74
933.977	4765.19
934.286	4781.46
934.594	4766.77
934.902	4731.29
935.21	4740.33
935.519	4655.58
935.827	4670.27
936.135	4636.15
936.443	4592.31
936.751	4617.17
937.059	4566.09
937.367	4545.76
937.674	4515.47
937.982	4545.76
938.29	4546.66
938.597	4519.32
938.905	4469.37
939.213	4467.57
939.52	4423.95
939.827	4431.18
940.135	4398.87
940.442	4403.61
940.749	4355.48
941.056	4411.07
941.363	4315.03
941.67	4297.85
941.977	4287.91
942.284	4246.33
942.591	4283.84
942.898	4260.57
943.205	4268.48
943.511	4200
943.818	4172.21
944.125	4152.32
944.431	4125.65
944.738	4133.79
945.044	4108.93
945.35	4106.9
945.657	4080.01
945.963	4082.27
946.269	4047.92
946.575	4054.02
946.881	4012.21
947.187	4042.49
947.493	3941.48
947.799	3958.43
948.105	3981.03
948.41	3938.77
948.716	3913.91
949.022	3891.54
949.327	3882.95
949.633	3842.05
949.938	3831.42
950.244	3844.76
950.549	3839.33
950.854	3778.09
951.16	3776.06
951.465	3750.97
951.77	3778.54
952.075	3711.43
952.38	3698.09
952.685	3706.23
952.99	3663.07
953.294	3666.68
953.599	3661.94
953.904	3633.92
954.209	3589.62
954.513	3607.25
954.818	3588.27
955.122	3577.42
955.426	3572.22
955.731	3546.23
956.035	3526.12
956.339	3513.24
956.643	3499.68
956.948	3473.24
957.252	3486.57
957.556	3451.77
957.86	3468.04
958.163	3432.11
958.467	3399.8
958.771	3358.67
959.075	3359.12
959.378	3360.48
959.682	3363.64
959.985	3315.96
960.289	3321.61
960.592	3287.03
960.896	3282.96
961.199	3280.48
961.502	3268.73
961.805	3241.61
962.108	3235.51
962.411	3224.43
962.714	3188.96
963.017	3219.69
963.32	3198.67
963.623	3157.54
963.926	3188.28
964.228	3139.47
964.531	3095.85
964.833	3134.72
965.136	3101.05
965.438	3101.5
965.741	3067.83
966.043	3033.71
966.345	3019.69
966.648	3023.99
966.95	2993.48
967.252	3039.81
967.554	2963.65
967.856	2999.81
968.158	2992.35
968.46	2970.66
968.761	2941.28
969.063	2883.65
969.365	2906.03
969.666	2905.8
969.968	2902.64
970.269	2904.22
970.571	2889.75
970.872	2845.69
971.174	2841.85
971.475	2845.01
971.776	2821.28
972.077	2788.51
972.378	2794.62
972.679	2809.08
972.98	2819.02
973.281	2744
973.582	2757.55
973.883	2756.42
974.183	2700.38
974.484	2737.67
974.785	2699.25
975.085	2701.74
975.386	2689.99
975.686	2661.51
975.986	2696.99
976.287	2656.09
976.587	2645.02
976.887	2608.41
977.187	2656.54
977.487	2587.62
977.787	2600.27
978.087	2616.09
978.387	2576.32
978.687	2557.33
978.987	2522.76
979.286	2519.37
979.586	2506.94
979.885	2541.06
980.185	2529.76
980.484	2475.3
980.784	2465.81
981.083	2486.83
981.382	2463.1
981.682	2436.21
981.981	2464.45
982.28	2445.02
982.579	2463.1
982.878	2413.16
983.177	2374.06
983.475	2359.82
983.774	2348.98
984.073	2340.39
984.372	2339.03
984.67	2332.93
984.969	2339.49
985.267	2332.26
985.566	2339.26
985.864	2269.43
986.162	2280.51
986.461	2268.75
986.759	2295.65
987.057	2271.24
987.355	2247.06
987.653	2239.6
987.951	2241.86
988.249	2218.59
988.547	2223.11
988.844	2186.27
989.142	2193.73
989.44	2210.9
989.737	2162.77
990.035	2137.68
990.332	2144.24
990.63	2150.34
990.927	2140.17
991.224	2109.21
991.521	2099.04
991.819	2117.57
992.116	2070.57
992.413	2067.4
992.71	2078.02
993.006	2062.88
993.303	2074.18
993.6	2046.84
993.897	2061.08
994.193	2007.74
994.49	2029.89
994.787	2016.33
995.083	2004.81
995.379	2017.24
995.676	1960.74
995.972	1975.2
996.268	1952.15
996.565	1954.41
996.861	1934.3
997.157	1899.95
997.453	1943.79
997.749	1918.48
998.044	1905.37
998.34	1873.51
998.636	1856.56
998.932	1879.84
999.227	1882.78
999.523	1866.73
999.818	1856.79
1000.114	1867.63
1000.409	1830.57
1000.704	1848.65
1001	1824.92
1001.295	1790.35
1001.59	1778.82
1001.885	1806.62
1002.18	1782.21
1002.475	1786.51
1002.77	1755.55
1003.065	1788.54
1003.359	1781.08
1003.654	1727.75
1003.949	1739.05
1004.243	1724.81
1004.538	1717.58
1004.832	1690.69
1005.127	1683.23
1005.421	1698.83
1005.715	1654.98
1006.009	1689.33
1006.304	1657.47
1006.598	1630.58
1006.892	1640.75
1007.186	1626.28
1007.48	1619.28
1007.773	1618.15
1008.067	1624.25
1008.361	1589.9
1008.655	1574.31
1008.948	1566.17
1009.242	1554.87
1009.535	1558.49
1009.829	1556.68
1010.122	1554.2
1010.415	1518.94
1010.708	1511.26
1011.001	1544.71
1011.295	1519.62
1011.588	1526.4
1011.881	1480.98
1012.173	1470.81
1012.466	1470.58
1012.759	1448.44
1013.052	1460.87
1013.344	1456.57
1013.637	1430.58
1013.93	1461.32
1014.222	1428.32
1014.514	1412.28
1014.807	1422
1015.099	1399.85
1015.391	1386.07
1015.683	1390.13
1015.976	1387.2
1016.268	1371.83
1016.56	1363.02
1016.851	1392.39
1017.143	1359.4
1017.435	1340.19
1017.727	1318.72
1018.018	1336.8
1018.31	1317.14
1018.602	1310.36
1018.893	1295.67
1019.185	1309.46
1019.476	1259.29
1019.767	1267.88
1020.058	1266.75
1020.35	1274.66
1020.641	1251.38
1020.932	1243.24
1021.223	1234.88
1021.514	1236.69
1021.804	1202.79
1022.095	1214.77
1022.386	1211.83
1022.677	1191.72
1022.967	1205.51
1023.258	1183.58
1023.548	1189.46
1023.839	1170.48
1024.129	1175.22
1024.419	1151.27
1024.709	1135
1025	1126.64
1025.29	1139.07
1025.58	1106.98
1025.87	1115.56
1026.16	1115.79
1026.449	1119.41
1026.739	1100.65
1027.029	1093.19
1027.319	1097.03
1027.608	1068.11
1027.898	1045.28
1028.187	1068.79
1028.477	1053.42
1028.766	1051.84
1029.055	1047.09
1029.344	1016.36
1029.634	1032.18
1029.923	1034.21
1030.212	1014.55
1030.501	1024.49
1030.79	986.53
1031.078	984.72
1031.367	1002.35
1031.656	996.24
1031.945	958.28
1032.233	967.55
1032.522	972.52
1032.81	957.6
1033.099	956.47
1033.387	936.59
1033.675	947.66
1033.963	929.35
1034.251	930.71
1034.54	933.2
1034.828	948.56
1035.116	910.6
1035.403	932.52
1035.691	919.41
1035.979	895.68
1036.267	916.02
1036.554	893.65
1036.842	895
1037.129	891.16
1037.417	883.71
1037.704	868.79
1037.992	882.58
1038.279	876.7
1038.566	838.06
1038.853	838.06
1039.14	838.06
