Data from hue_36_FLMS001491_00006.txt Node
Date: Tue Feb 07 17:29:19 GMT 2017
User: dcchb
Spectrometer: FLMS00149
Trigger mode: 0
Integration Time (sec): 2.000000E-2
Scans to average: 10
Electric dark correction enabled: true
Nonlinearity correction enabled: false
Boxcar width: 0
XAxis mode: Wavelengths
Number of Pixels in Spectrum: 2048
>>>>>Begin Spectral Data<<<<<
341.393	-30.31
341.776	-30.31
342.16	-30.31
342.543	-61.27
342.927	-38.22
343.31	-65.34
343.693	-77.54
344.077	-63.53
344.46	-66.92
344.843	-39.12
345.226	-58.33
345.61	-36.19
345.993	-21.5
346.376	-10.65
346.759	5.17
347.142	44.49
347.525	57.82
347.908	38.61
348.291	66.41
348.674	101.44
349.057	125.17
349.44	127.65
349.823	138.05
350.206	199.97
350.588	199.06
350.971	241.1
351.354	235.9
351.737	243.13
352.119	258.5
352.502	263.47
352.884	274.99
353.267	294.2
353.65	297.14
354.032	310.92
354.414	321.32
354.797	313.86
355.179	306.63
355.562	357.02
355.944	338.27
356.326	337.14
356.709	373.97
357.091	353.63
357.473	331.04
357.855	323.81
358.238	363.35
358.62	349.57
359.002	332.17
359.384	342.56
359.766	364.48
360.148	354.09
360.53	346.4
360.912	342.11
361.294	329.23
361.676	347.99
362.057	350.02
362.439	348.66
362.821	332.62
363.203	336.69
363.584	344.6
363.966	320.42
364.348	322.22
364.729	347.31
365.111	326.52
365.493	332.62
365.874	337.82
366.256	309.12
366.637	326.97
367.019	307.76
367.4	306.18
367.781	324.03
368.163	339.4
368.544	327.87
368.925	317.03
369.306	328.32
369.688	326.74
370.069	336.91
370.45	315.67
370.831	310.02
371.212	330.36
371.593	305.27
371.974	321.77
372.355	320.87
372.736	322.22
373.117	319.06
373.498	339.62
373.879	299.17
374.26	322.68
374.641	331.94
375.021	322.45
375.402	315.22
375.783	344.14
376.163	331.94
376.544	342.56
376.925	331.26
377.305	340.53
377.686	341.43
378.066	351.83
378.447	351.6
378.827	342.11
379.208	339.4
379.588	319.29
379.968	310.02
380.349	336.23
380.729	360.19
381.109	319.29
381.489	349.79
381.87	331.49
382.25	360.64
382.63	356.12
383.01	341.66
383.39	354.54
383.77	367.65
384.15	357.02
384.53	345.27
384.91	377.14
385.29	364.48
385.67	371.94
386.049	347.76
386.429	354.99
386.809	342.79
387.189	348.21
387.568	357.7
387.948	347.31
388.328	371.04
388.707	371.04
389.087	357.7
389.466	351.37
389.846	357.93
390.225	373.07
390.605	364.48
390.984	380.07
391.363	360.87
391.743	369.45
392.122	378.94
392.501	381.43
392.881	377.59
393.26	388.66
393.639	378.49
394.018	380.98
394.397	376.01
394.776	382.33
395.155	393.41
395.534	392.73
395.913	401.32
396.292	391.83
396.671	392.96
397.05	398.83
397.429	399.06
397.808	404.71
398.186	397.7
398.565	390.47
398.944	390.02
399.323	402.22
399.701	411.71
400.08	410.81
400.458	378.49
400.837	388.44
401.215	419.4
401.594	395.22
401.972	403.35
402.351	397.93
402.729	414.88
403.107	414.65
403.486	402.9
403.864	400.87
404.242	412.16
404.62	416.91
404.999	424.14
405.377	408.77
405.755	439.73
406.133	414.88
406.511	439.06
406.889	427.53
407.267	425.05
407.645	423.01
408.023	435.67
408.401	441.99
408.779	440.41
409.156	452.62
409.534	476.8
409.912	446.06
410.29	445.61
410.667	464.82
411.045	470.24
411.422	462.78
411.8	456
412.178	464.59
412.555	470.69
412.933	483.57
413.31	466.17
413.687	469.79
414.065	472.05
414.442	487.87
414.819	478.6
415.197	481.32
415.574	498.72
415.951	487.87
416.328	494.87
416.705	504.59
417.082	491.48
417.46	490.58
417.837	503.91
418.214	505.5
418.591	497.81
418.967	533.07
419.344	505.95
419.721	521.54
420.098	508.66
420.475	520.41
420.852	536.68
421.228	517.92
421.605	530.81
421.982	521.09
422.358	528.55
422.735	542.78
423.111	547.08
423.488	563.8
423.864	550.01
424.241	553.4
424.617	576.68
424.994	563.12
425.37	536
425.746	556.12
426.123	571.03
426.499	590.69
426.875	572.16
427.251	570.58
427.627	575.78
428.003	578.71
428.379	578.94
428.756	595.66
429.132	573.29
429.507	594.98
429.883	619.62
430.259	592.27
430.635	632.05
431.011	635.66
431.387	632.95
431.763	630.01
432.138	632.72
432.514	638.6
432.89	634.31
433.265	656.23
433.641	647.41
434.016	655.1
434.392	677.69
434.767	653.06
435.143	686.28
435.518	682.44
435.894	676.56
436.269	673.17
436.644	688.54
437.02	724.02
437.395	705.04
437.77	704.81
438.145	733.51
438.52	718.14
438.895	714.08
439.271	713.4
439.646	744.36
440.021	726.05
440.395	731.93
440.77	745.94
441.145	727.41
441.52	745.71
441.895	746.39
442.27	767.86
442.645	754.08
443.019	764.02
443.394	768.31
443.769	775.32
444.143	781.87
444.518	774.64
444.892	779.39
445.267	774.19
445.641	792.95
446.016	811.7
446.39	795.88
446.764	811.7
447.139	813.28
447.513	819.16
447.887	798.59
448.262	831.36
448.636	837.46
449.01	816.45
449.384	844.24
449.758	852.15
450.132	848.31
450.506	836.33
450.88	875.65
451.254	852.83
451.628	886.28
452.002	884.47
452.376	894.64
452.75	896.22
453.123	893.96
453.497	907.97
453.871	898.25
454.244	905.48
454.618	945.03
454.992	946.16
455.365	940.74
455.739	944.35
456.112	953.17
456.486	971.7
456.859	986.39
457.232	992.26
457.606	984.58
457.979	997.69
458.352	1012.6
458.725	1016.67
459.099	1045.37
459.472	1062.09
459.845	1065.03
460.218	1084.91
460.591	1077.68
460.964	1091.47
461.337	1098.25
461.71	1089.43
462.083	1157.23
462.456	1101.64
462.829	1129.43
463.201	1172.37
463.574	1156.1
463.947	1184.8
464.32	1211.92
464.692	1230.9
465.065	1243.33
465.438	1233.16
465.81	1265.7
466.183	1241.52
466.555	1302.99
466.928	1293.05
467.3	1290.56
467.672	1324.46
468.045	1359.48
468.417	1348.41
468.789	1385.47
469.161	1408.97
469.534	1422.53
469.906	1466.15
470.278	1494.4
470.65	1484.45
471.022	1531.91
471.394	1553.6
471.766	1547.73
472.138	1597.44
472.51	1634.05
472.882	1658.46
473.253	1666.59
473.625	1723.77
473.997	1767.61
474.369	1787.04
474.74	1803.99
475.112	1863.65
475.484	1868.17
475.855	1957.21
476.227	1983.65
476.598	1982.29
476.97	2042.86
477.341	2085.11
477.713	2104.32
478.084	2143.87
478.455	2211.44
478.827	2278.33
479.198	2326.92
479.569	2345.22
479.94	2453.24
480.311	2525.56
480.682	2576.63
481.053	2618.66
481.424	2686
481.795	2732.78
482.166	2834.93
482.537	2872.44
482.908	2986.79
483.279	2998.99
483.65	3107.91
484.021	3184.97
484.391	3262.03
484.762	3289.6
485.133	3399.43
485.503	3492.54
485.874	3568.24
486.244	3638.97
486.615	3716.26
486.985	3800.55
487.356	3895.46
487.726	3995.8
488.097	4086.64
488.467	4155.12
488.837	4234.44
489.207	4332.06
489.578	4472.62
489.948	4521.66
490.318	4610.25
490.688	4696.57
491.058	4770.02
491.428	4879.39
491.798	5017.69
492.168	5114.64
492.538	5245.94
492.908	5272.6
493.278	5406.61
493.648	5504.91
494.017	5551.24
494.387	5657.22
494.757	5801.85
495.126	5850.67
495.496	5901.51
495.866	5946.26
496.235	6062.64
496.605	6160.94
496.974	6228.06
497.344	6329.3
497.713	6445.68
498.082	6478.67
498.452	6646.8
498.821	6682.96
499.19	6780.13
499.559	6819
499.928	6920.69
500.298	7039.56
500.667	7068.26
501.036	7098.99
501.405	7264.41
501.774	7263.51
502.143	7394.81
502.512	7444.52
502.88	7503.5
503.249	7574.69
503.618	7645.65
503.987	7696.27
504.356	7827.56
504.724	7889.03
505.093	7913.66
505.462	7952.76
505.83	8101
506.199	8161.79
506.567	8308.68
506.936	8316.14
507.304	8408.79
507.672	8442.69
508.041	8495.57
508.409	8624.83
508.777	8629.58
509.145	8749.8
509.514	8775.56
509.882	8907.31
510.25	8898.04
510.618	9003.8
510.986	9047.87
511.354	9112.05
511.722	9133.74
512.09	9296.68
512.458	9271.37
512.826	9368.99
513.193	9469.55
513.561	9462.77
513.929	9490.34
514.297	9630
514.664	9650.11
515.032	9738.92
515.4	9854.4
515.767	9888.3
516.135	9934.17
516.502	9922.87
516.869	10107.5
517.237	10076.32
517.604	10135.98
517.972	10221.85
518.339	10255.52
518.706	10348.17
519.073	10363.99
519.44	10461.39
519.808	10460.49
520.175	10562.63
520.542	10680.14
520.909	10711.33
521.276	10684.21
521.643	10803.08
522.009	10925.56
522.376	10926.69
522.743	10949.97
523.11	11058.21
523.477	11257.3
523.843	11214.14
524.21	11336.62
524.577	11410.52
524.943	11494.36
525.31	11545.66
525.676	11596.73
526.043	11725.31
526.409	11779.78
526.776	11878.3
527.142	11876.95
527.508	11974.12
527.874	12049.15
528.241	12068.13
528.607	12190.39
528.973	12306.54
529.339	12260.44
529.705	12443.49
530.071	12487.78
530.437	12537.72
530.803	12619.3
531.169	12681.45
531.535	12673.76
531.901	12761.9
532.267	12838.05
532.632	12911.72
532.998	12989.01
533.364	13016.8
533.73	13090.25
534.095	13240.3
534.461	13231.26
534.826	13275.55
535.192	13287.98
535.557	13412.05
535.923	13434.65
536.288	13498.37
536.653	13541.54
537.019	13537.92
537.384	13651.82
537.749	13660.63
538.114	13728.42
538.479	13748.99
538.845	13827.86
539.21	13917.57
539.575	13944.92
539.94	13945.59
540.305	14047.74
540.67	13996.21
541.034	14103.78
541.399	14164.35
541.764	14179.03
542.129	14263.55
542.494	14310.33
542.858	14441.17
543.223	14468.07
543.587	14489.99
543.952	14556.88
544.316	14666.93
544.681	14579.7
545.045	14695.4
545.41	14774.95
545.774	14765.91
546.138	14865.34
546.503	14955.06
546.867	14843.88
547.231	15137.43
547.595	15125.68
547.959	15159.12
548.324	15160.7
548.688	15297.42
549.052	15292.68
549.416	15313.92
549.779	15353.47
550.143	15415.39
550.507	15540.35
550.871	15619.45
551.235	15551.43
551.599	15619.67
551.962	15675.94
552.326	15788.03
552.689	15833.91
553.053	15707.36
553.417	15867.58
553.78	16076.39
554.143	15953
554.507	16038.65
554.87	16145.31
555.234	16272.99
555.597	16177.4
555.96	16219.43
556.323	16410.61
556.686	16380.11
557.05	16494.68
557.413	16479.09
557.776	16586.2
558.139	16703.04
558.502	16702.81
558.865	16749.14
559.228	16800.89
559.59	16933.09
559.953	16964.05
560.316	17046.08
560.679	17017.83
561.041	17195.23
561.404	17267.31
561.767	17327.2
562.129	17289.23
562.492	17420.76
562.854	17531.04
563.217	17459.4
563.579	17458.95
563.941	17658.26
564.304	17617.36
564.666	17833.85
565.028	17784.36
565.39	17934.64
565.753	17957.47
566.115	18043.79
566.477	18126.5
566.839	18192.26
567.201	18230.23
567.563	18270.9
567.925	18345.48
568.287	18398.81
568.648	18478.36
569.01	18607.62
569.372	18760.83
569.734	18699.37
570.095	18775.52
570.457	18881.96
570.819	18937.33
571.18	18919.47
571.542	19100.71
571.903	19160.37
572.265	19198.79
572.626	19331.21
572.987	19330.99
573.349	19410.99
573.71	19632.22
574.071	19598.1
574.432	19879
574.794	19951.31
575.155	19942.72
575.516	19990.18
575.877	20099.33
576.238	20199.67
576.599	20453.22
576.96	20361.02
577.32	20573.89
577.681	20646.21
578.042	20864.28
578.403	20992.87
578.763	21038.29
579.124	21173.88
579.485	21377.49
579.845	21532.74
580.206	21525.28
580.566	21685.73
580.927	21761.89
581.287	21945.84
581.648	22046.4
582.008	22303.11
582.368	22523.45
582.728	22606.38
583.089	22746.27
583.449	22910.56
583.809	23143.54
584.169	23283.2
584.529	23446.81
584.889	23818.55
585.249	23902.62
585.609	24044.99
585.969	24295.15
586.329	24502.38
586.688	24724.07
587.048	24891.52
587.408	25035.7
587.768	25230.49
588.127	25450.83
588.487	25647.21
588.846	26018.27
589.206	25986.41
589.565	26330.13
589.925	26665.71
590.284	26783.9
590.643	26990.9
591.003	27262.76
591.362	27543.43
591.721	27698
592.08	28053.92
592.44	28275.16
592.799	28394.03
593.158	28746.56
593.517	28894.35
593.876	29152.43
594.235	29195.14
594.593	29581.79
594.952	29709.7
595.311	30058.84
595.67	30200.99
596.029	30558.04
596.387	30665.38
596.746	31015.2
597.104	31045.48
597.463	31266.04
597.822	31678.91
598.18	31627.84
598.538	31724.79
598.897	32191.67
599.255	32096.08
599.613	32857.19
599.972	32822.39
600.33	33040.91
600.688	33155.71
601.046	33405.42
601.404	33690.84
601.762	33766.32
602.12	34091.5
602.478	34177.15
602.836	34329.46
603.194	34450.59
603.552	34729.45
603.91	34696.01
604.268	35037.69
604.625	35106.17
604.983	35412.6
605.341	35268.65
605.698	35729.43
606.056	35805.81
606.413	35944.34
606.771	36286.25
607.128	36399.01
607.485	36346.36
607.843	36605.34
608.2	36705.67
608.557	37000.35
608.914	36963.52
609.272	37364.41
609.629	37428.14
609.986	37724.63
610.343	37514.01
610.7	37978.18
611.057	37925.08
611.414	38084.85
611.771	38201.45
612.127	38422.01
612.484	38526.64
612.841	38827.65
613.198	38664.72
613.554	38938.61
613.911	38970.25
614.267	39217.92
614.624	39127.98
614.98	39360.97
615.337	39637.12
615.693	39564.58
616.05	39724.8
616.406	39875.08
616.762	39832.82
617.118	40122.53
617.475	39954.85
617.831	40166.6
618.187	40330.21
618.543	40320.72
618.899	40674.83
619.255	40635.29
619.611	40737.88
619.967	40913.02
620.323	41052.68
620.678	40854.72
621.034	40959.35
621.39	40993.92
621.746	40997.09
622.101	41390.97
622.457	41202.5
622.812	41308.04
623.168	41472.55
623.523	41508.94
623.879	41767.46
624.234	41518.2
624.589	41756.84
624.945	41803.17
625.3	41756.39
625.655	41870.28
626.01	41953.9
626.365	41982.82
626.72	41988.7
627.075	42012.43
627.43	41957.29
627.785	41824.41
628.14	42009.94
628.495	42194.79
628.85	42111.18
629.205	41936.04
629.559	42209.94
629.914	42065.31
630.269	42225.53
630.623	42144.85
630.978	42163.16
631.332	42426.88
631.687	42386.43
632.041	42216.71
632.396	42160.45
632.75	42203.61
633.104	42287.67
633.459	42193.21
633.813	42109.37
634.167	42262.36
634.521	42203.16
634.875	42165.42
635.229	42188.47
635.583	42047.45
635.937	42089.49
636.291	42061.01
636.645	42178.52
636.999	42015.82
637.352	42109.37
637.706	42048.36
638.06	42082.26
638.413	41968.13
638.767	41934.01
639.121	41943.5
639.474	41917.74
639.828	41834.13
640.181	41962.03
640.534	41839.55
640.888	41928.81
641.241	41685.43
641.594	41791.64
641.947	41775.14
642.301	41752.09
642.654	41842.04
643.007	41877.51
643.36	41762.26
643.713	41725.88
644.066	41925.65
644.419	41668.93
644.771	41336.74
645.124	41092.68
645.477	40870.31
645.83	40764.55
646.182	40607.94
646.535	40573.82
646.888	40576.08
647.24	40312.81
647.593	40656.08
647.945	40603.65
648.298	40331.57
648.65	40424.9
649.002	40331.11
649.355	40409.3
649.707	40334.73
650.059	40554.61
650.411	41022.85
650.763	41035.05
651.115	41539.44
651.467	41226.91
651.819	41274.59
652.171	41176.06
652.523	41072.34
652.875	41178.1
653.227	40894.26
653.578	41219.68
653.93	41129.51
654.282	40988.27
654.633	40977.43
654.985	40795.28
655.337	41066.91
655.688	41052
656.039	41068.5
656.391	40875.51
656.742	40808.84
657.094	40887.48
657.445	41092.9
657.796	40942.4
658.147	40874.6
658.498	40959.12
658.849	40934.04
659.2	40869.18
659.551	40837.77
659.902	40900.14
660.253	40796.64
660.604	40904.88
660.955	40744.44
661.306	40853.13
661.656	40854.26
662.007	40757.77
662.358	40677.32
662.708	40784.21
663.059	40738.79
663.409	40613.59
663.76	40798.67
664.11	40767.49
664.461	40794.38
664.811	40760.26
665.161	40781.27
665.511	40731.78
665.862	40782.85
666.212	40748.73
666.562	40723.65
666.912	40580.6
667.262	40631.45
667.612	40757.77
667.962	40635.51
668.312	40648.17
668.662	41026.46
669.011	40765.45
669.361	40554.84
669.711	40655.4
670.06	40546.25
670.41	40352.81
670.76	40498.79
671.109	40522.75
671.459	40463.54
671.808	40482.3
672.157	40652.91
672.507	40332.02
672.856	40189.88
673.205	40447.5
673.554	40439.13
673.904	40414.28
674.253	40604.1
674.602	40518.91
674.951	39948.07
675.3	39696.33
675.649	40341.28
675.998	40223.09
676.346	40326.82
676.695	40404.56
677.044	40125.7
677.393	40190.55
677.741	40274.17
678.09	40137.67
678.438	40009.54
678.787	40058.58
679.135	40135.87
679.484	39953.5
679.832	40063.55
680.181	39960.05
680.529	40054.96
680.877	39772.71
681.225	39809.09
681.573	40031.24
681.922	39832.37
682.27	39617.69
682.618	39758.25
682.966	39558.93
683.314	39630.12
683.661	39475.32
684.009	39352.16
684.357	39283.01
684.705	39094.31
685.053	39278.71
685.4	39185.61
685.748	38875.11
686.095	38969.12
686.443	38964.37
686.79	38940.42
687.138	38887.99
687.485	38905.62
687.832	38612.74
688.18	38814.54
688.527	38617.49
688.874	38605.51
689.221	38543.37
689.568	38506.98
689.915	38364.39
690.262	38342.01
690.609	38279.64
690.956	38200.32
691.303	38155.35
691.65	37855.02
691.997	37901.8
692.344	37694.8
692.69	37731.64
693.037	37726.21
693.383	37413.23
693.73	37510.85
694.077	37281.48
694.423	37290.52
694.769	37302.27
695.116	36999.22
695.462	37039.45
695.808	36989.06
696.155	37143.18
696.501	36700.93
696.847	36693.7
697.193	36477.43
697.539	36699.8
697.885	36350.88
698.231	36346.13
698.577	36277.44
698.923	36144.11
699.269	36183.65
699.614	35968.52
699.96	35952.02
700.306	35813.27
700.651	35654.4
700.997	35627.06
701.342	35633.61
701.688	35410.57
702.033	35351.13
702.379	35390
702.724	35240.85
703.069	35267.97
703.415	34941.43
703.76	35021.2
704.105	34900.3
704.45	34820.07
704.795	34585.73
705.14	34573.3
705.485	34590.02
705.83	34372.18
706.175	34517.26
706.52	34358.16
706.865	34216.7
707.209	34263.25
707.554	34111.17
707.899	34162.92
708.243	33874.79
708.588	33951.17
708.932	33658.97
709.277	33633.21
709.621	33627.79
709.966	33459.88
710.31	33535.59
710.654	33212.21
710.998	33323.62
711.342	33397.06
711.687	33248.14
712.031	33105.77
712.375	33138.76
712.719	33000.01
713.063	33000.69
713.407	33072.32
713.75	32971.31
714.094	32840.69
714.438	32598.89
714.782	32730.86
715.125	32642.05
715.469	32604.31
715.812	32595.5
716.156	32311.89
716.499	32518.89
716.843	32381.72
717.186	32106.92
717.53	32380.82
717.873	32294.72
718.216	32162.52
718.559	32159.35
718.902	31971.79
719.246	31964.1
719.589	31757.78
719.932	31571.35
720.275	31722.53
720.617	31580.84
720.96	31666.94
721.303	31678.91
721.646	31631.68
721.989	31332.26
722.331	31443.21
722.674	31410.9
723.016	31291.35
723.359	31289.77
723.701	31348.98
724.044	31054.52
724.386	31103.33
724.729	31128.87
725.071	31078.7
725.413	30948.54
725.755	30949.21
726.097	30813.62
726.439	30761.87
726.782	30714.19
727.124	30887.07
727.465	30756.68
727.807	30784.93
728.149	30664.7
728.491	30485.72
728.833	30593.74
729.175	30468.1
729.516	30448.66
729.858	30372.28
730.199	30483.92
730.541	30285.05
730.882	30331.6
731.224	30331.83
731.565	30083.25
731.906	30215.9
732.248	30148.78
732.589	29906.76
732.93	29923.03
733.271	29948.34
733.612	29939.75
733.953	29979.75
734.294	29898.39
734.635	29774.33
734.976	29793.76
735.317	29572.3
735.658	29691.85
735.999	29594.9
736.339	29665.63
736.68	29613.2
737.021	29606.88
737.361	29369.14
737.702	29544.51
738.042	29397.16
738.383	29421.12
738.723	29228.81
739.063	29281.69
739.404	29283.72
739.744	29212.31
740.084	29133.44
740.424	29136.38
740.764	28973.45
741.104	29107
741.444	28932.32
741.784	28896.16
742.124	28892.32
742.464	28855.03
742.804	28878.99
743.143	28772.77
743.483	28811.42
743.823	28690.06
744.162	28580.92
744.502	28703.62
744.841	28644.64
745.181	28704.75
745.52	28435.38
745.86	28514.93
746.199	28330.75
746.538	28467.25
746.877	28411.43
747.216	28369.62
747.556	28241.94
747.895	28350.41
748.234	28190.64
748.573	28160.36
748.911	28032
749.25	28039.46
749.589	27983.87
749.928	28031.33
750.267	27973.02
750.605	27908.16
750.944	27893.25
751.283	27719.02
751.621	27837.66
751.96	27766.7
752.298	27736.42
752.636	27643.09
752.975	27456.65
753.313	27365.13
753.651	27552.92
753.989	27435.41
754.327	27385.92
754.666	27297.33
755.004	27269.54
755.342	27280.61
755.679	27184.79
756.017	26973.05
756.355	27096.89
756.693	26906.61
757.031	26972.14
757.368	26851.02
757.706	26831.81
758.044	26809.44
758.381	26786.84
758.719	26594.07
759.056	26582.32
759.394	26528.09
759.731	26419.84
760.068	26425.27
760.405	26291.26
760.743	26228.66
761.08	26355.66
761.417	26004.26
761.754	26014.2
762.091	25944.37
762.428	25773.76
762.765	25853.76
763.102	25786.41
763.438	25752.51
763.775	25581.9
764.112	25598.17
764.449	25537.38
764.785	25434.78
765.122	25205.86
765.458	25164.96
765.795	25106.2
766.131	25080.44
766.467	24961.35
766.804	24813.56
767.14	24788.25
767.476	24839.32
767.812	24755.48
768.148	24690.85
768.485	24547.57
768.821	24322.04
769.157	24340.35
769.492	24257.86
769.828	24146.23
770.164	23995.72
770.5	24058.77
770.836	24075.27
771.171	23774.04
771.507	23770.87
771.842	23699.24
772.178	23713.92
772.513	23608.39
772.849	23534.27
773.184	23436.64
773.519	23298.12
773.855	23346.93
774.19	23203.66
774.525	23186.03
774.86	23088.63
775.195	22983.1
775.53	22905.36
775.865	22817.22
776.2	22665.59
776.535	22562.77
776.87	22551.24
777.205	22417.91
777.539	22316.45
777.874	22320.97
778.209	22139.95
778.543	22170.91
778.878	22018.38
779.212	21970.02
779.547	21778.38
779.881	21944.03
780.215	21729.57
780.55	21741.1
780.884	21674.66
781.218	21465.4
781.552	21482.12
781.886	21375.23
782.22	21295.91
782.554	21286.19
782.888	21002.36
783.222	20885.52
783.556	20972.75
783.889	20838.75
784.223	20685.3
784.557	20645.3
784.89	20695.92
785.224	20551.52
785.557	20327.12
785.891	20406.67
786.224	20343.62
786.558	20356.05
786.891	20174.13
787.224	20049.39
787.557	19918.09
787.891	20041.7
788.224	19924.42
788.557	19897.53
788.89	19850.3
789.223	19870.86
789.556	19716.97
789.888	19680.58
790.221	19578.67
790.554	19454.83
790.887	19417.09
791.219	19328.28
791.552	19384.77
791.884	19133.71
792.217	19061.62
792.549	19093.26
792.882	18782.75
793.214	18855.97
793.546	18853.26
793.879	18707.73
794.211	18659.59
794.543	18771
794.875	18719.48
795.207	18630.44
795.539	18532.59
795.871	18534.85
796.203	18472.03
796.535	18295.76
796.867	18260.06
797.198	18110.46
797.53	18197.69
797.862	18043.34
798.193	18030.23
798.525	17932.16
798.856	17953.85
799.188	17849.45
799.519	17701.2
799.85	17641.09
800.182	17696.46
800.513	17696.68
800.844	17400.19
801.175	17593.18
801.506	17502.56
801.837	17401.1
802.168	17376.24
802.499	17322.23
802.83	17214.21
803.161	17211.5
803.491	17263.47
803.822	17176.47
804.153	17110.93
804.483	16971.28
804.814	16818.51
805.145	16859.42
805.475	16954.78
805.805	16811.96
806.136	16795.91
806.466	16776.03
806.796	16661.23
807.126	16614.22
807.457	16482.02
807.787	16556.82
808.117	16376.49
808.447	16351.86
808.777	16368.13
809.107	16364.74
809.436	16261.24
809.766	16284.74
810.096	16190.51
810.426	16125.42
810.755	16140.11
811.085	16069.83
811.414	16001.13
811.744	15854.7
812.073	15841.82
812.403	15945.99
812.732	15849.27
813.061	15708.71
813.39	15701.93
813.719	15710.52
814.049	15747.13
814.378	15571.99
814.707	15525.67
815.036	15575.61
815.365	15453.58
815.693	15412.9
816.022	15383.75
816.351	15259.68
816.68	15282.06
817.008	15281.6
817.337	15203.41
817.665	15134.72
817.994	15311.21
818.322	15146.24
818.651	15071.21
818.979	15007.26
819.307	15035.73
819.636	15049.07
819.964	14861.5
820.292	14973.82
820.62	14997.09
820.948	14929.75
821.276	14988.5
821.604	14877.09
821.932	14840.26
822.259	14936.75
822.587	14824.89
822.915	14909.64
823.243	14929.52
823.57	14875.06
823.898	14857.66
824.225	14768.4
824.553	14862.18
824.88	14814.95
825.207	14828.73
825.535	14770.88
825.862	14866.25
826.189	14760.94
826.516	14835.51
826.843	14852.46
827.17	14848.17
827.497	14805.01
827.824	14858.34
828.151	14919.81
828.478	14793.93
828.805	14847.26
829.131	14803.65
829.458	14766.82
829.785	14795.29
830.111	14703.99
830.438	14797.77
830.764	14833.03
831.09	14770.2
831.417	14725.69
831.743	14765.91
832.069	14793.93
832.395	14719.81
832.722	14772.92
833.048	14638.91
833.374	14592.13
833.7	14546.03
834.026	14563.88
834.351	14643.65
834.677	14596.88
835.003	14607.5
835.329	14616.31
835.654	14583.32
835.98	14515.97
836.306	14521.17
836.631	14391.01
836.956	14519.82
837.282	14482.98
837.607	14381.29
837.932	14464.45
838.258	14472.59
838.583	14414.28
838.908	14280.95
839.233	14392.59
839.558	14294.29
839.883	14187.85
840.208	14171.8
840.533	14138.58
840.858	14068.3
841.182	14165.93
841.507	14216.1
841.832	14034.18
842.156	14095.65
842.481	14038.25
842.805	14089.09
843.13	13949.66
843.454	14001.19
843.778	13887.29
844.103	13807.74
844.427	13830.34
844.751	13878.25
845.075	13748.54
845.399	13751.93
845.723	13664.7
846.047	13683.68
846.371	13498.37
846.695	13511.71
847.019	13436
847.343	13432.61
847.666	13390.58
847.99	13328.21
848.313	13351.49
848.637	13283.46
848.96	13146.07
849.284	13179.96
849.607	13064.26
849.931	12990.59
850.254	12866.53
850.577	12810.48
850.9	12829.24
851.223	12731.84
851.546	12738.17
851.869	12683.03
852.192	12726.42
852.515	12514.67
852.838	12493.88
853.161	12489.36
853.483	12513.54
853.806	12355.58
854.129	12415.92
854.451	12343.83
854.774	12279.42
855.096	12282.81
855.419	12207.33
855.741	12181.8
856.063	12063.38
856.385	12117.39
856.708	11958.08
857.03	12053.89
857.352	12033.33
857.674	11918.53
857.996	11884.41
858.318	11922.82
858.64	11861.35
858.961	11794.24
859.283	11720.79
859.605	11701.13
859.926	11710.62
860.248	11602.15
860.57	11687.12
860.891	11619.55
861.212	11540.69
861.534	11627.91
861.855	11471.99
862.176	11529.84
862.498	11442.83
862.819	11425.66
863.14	11416.39
863.461	11476.28
863.782	11403.06
864.103	11322.16
864.424	11329.39
864.745	11313.35
865.065	11305.89
865.386	11264.08
865.707	11215.72
866.027	11206.23
866.348	11201.94
866.668	11227.02
866.989	11164.42
867.309	11099.11
867.63	11149.06
867.95	11093.24
868.27	11087.14
868.59	11075.39
868.91	11003.75
869.23	10987.71
869.55	11039
869.87	11067.03
870.19	11010.76
870.51	10999
870.83	10968.72
871.15	10893.92
871.469	10864.32
871.789	10906.13
872.109	10836.75
872.428	10780.93
872.748	10920.36
873.067	10819.35
873.386	10855.96
873.706	10764.89
874.025	10764.66
874.344	10649.41
874.663	10770.08
874.982	10718.11
875.301	10763.76
875.62	10642.4
875.939	10616.19
876.258	10616.19
876.577	10629.52
876.896	10592.24
877.214	10486.48
877.533	10611.44
877.852	10547.72
878.17	10627.71
878.489	10631.1
878.807	10591.11
879.125	10506.14
879.444	10465.91
879.762	10455.52
880.08	10534.61
880.398	10410.09
880.716	10459.81
881.034	10392.47
881.352	10347.72
881.67	10341.62
881.988	10357.67
882.306	10303.43
882.624	10239.48
882.941	10240.83
883.259	10173.94
883.577	10203.77
883.894	10141.63
884.212	10113.15
884.529	10160.61
884.846	10114.73
885.164	10103.89
885.481	10034.28
885.798	10023.21
886.115	9990.22
886.432	9940.73
886.75	9857.34
887.067	9949.54
887.383	9834.52
887.7	9920.84
888.017	9809.66
888.334	9822.54
888.651	9850.79
888.967	9801.3
889.284	9825.7
889.6	9727.17
889.917	9676.33
890.233	9597.23
890.55	9582.54
890.866	9652.37
891.182	9581.87
891.498	9594.52
891.815	9595.88
892.131	9539.38
892.447	9453.96
892.763	9477.91
893.079	9448.99
893.395	9393.62
893.71	9381.87
894.026	9325.83
894.342	9352.49
894.657	9305.72
894.973	9309.78
895.289	9303.91
895.604	9249.9
895.92	9135.32
896.235	9081.31
896.55	9140.3
896.865	9054.87
897.181	9053.07
897.496	9026.63
897.811	9022.11
898.126	8959.28
898.441	8921.09
898.756	8910.47
899.071	8912.28
899.386	8853.07
899.7	8772.62
900.015	8769.01
900.33	8723.58
900.644	8699.18
900.959	8728.1
901.273	8645.62
901.588	8569.01
901.902	8558.62
902.216	8576.7
902.531	8528.34
902.845	8490.6
903.159	8453.76
903.473	8397.27
903.787	8442.24
904.101	8391.39
904.415	8286.53
904.729	8308.68
905.042	8283.82
905.356	8265.29
905.67	8261
905.984	8245.63
906.297	8136.03
906.611	8104.62
906.924	8063.04
907.237	8084.96
907.551	8093.09
907.864	7993.66
908.177	8021.68
908.491	7974.9
908.804	7956.82
909.117	7890.16
909.43	7869.14
909.743	7811.97
910.056	7837.05
910.368	7718.19
910.681	7727.68
910.994	7678.87
911.307	7686.55
911.619	7585.08
911.932	7574.46
912.244	7520.68
912.557	7524.07
912.869	7462.6
913.181	7467.35
913.494	7413.56
913.806	7359.78
914.118	7365.65
914.43	7356.39
914.742	7323.85
915.054	7233.23
915.366	7306.67
915.678	7243.4
915.99	7175.38
916.302	7129.73
916.613	7113.23
916.925	7124.53
917.236	7049.73
917.548	7092.89
917.859	7075.04
918.171	7010.86
918.482	6988.94
918.794	6947.13
919.105	6903.75
919.416	6882.5
919.727	6833.46
920.038	6795.73
920.349	6772.45
920.66	6748.04
920.971	6728.83
921.282	6696.97
921.593	6711.89
921.903	6605
922.214	6612.23
922.525	6550.31
922.835	6565.22
923.146	6529.29
923.456	6463.08
923.767	6439.35
924.077	6452.68
924.387	6430.09
924.697	6363.87
925.008	6391.67
925.318	6374.95
925.628	6314.38
925.938	6252.46
926.248	6217.44
926.558	6241.39
926.867	6273.71
927.177	6165.91
927.487	6157.1
927.796	6086.14
928.106	6110.09
928.416	6039.13
928.725	6009.31
929.034	6002.75
929.344	6037.1
929.653	5996.2
929.962	5891.57
930.271	5908.06
930.581	5904.22
930.89	5825.13
931.199	5816.77
931.508	5838.91
931.817	5795.07
932.125	5833.49
932.434	5769.54
932.743	5717.79
933.051	5664.68
933.36	5631.24
933.669	5626.49
933.977	5622.42
934.286	5609.54
934.594	5551.46
934.902	5515.98
935.21	5516.66
935.519	5541.52
935.827	5445.48
936.135	5454.97
936.443	5437.57
936.751	5376.1
937.059	5380.85
937.367	5368.19
937.674	5367.51
937.982	5318.25
938.29	5308.98
938.597	5356.89
938.905	5205.71
939.213	5223.11
939.52	5221.08
939.827	5224.02
940.135	5184.47
940.442	5118.48
940.749	5136.33
941.056	5088.2
941.363	5072.83
941.67	5082.55
941.977	4995.32
942.284	4994.19
942.591	5030.35
942.898	5006.17
943.205	4959.39
943.511	4936.11
943.818	4891.59
944.125	4833.52
944.431	4869.9
944.738	4862.89
945.044	4796.68
945.35	4808.21
945.657	4743.8
945.963	4756
946.269	4715.1
946.575	4724.14
946.881	4694.31
947.187	4668.32
947.493	4621.77
947.799	4641.66
948.105	4598.72
948.41	4592.85
948.716	4599.85
949.022	4536.8
949.327	4577.25
949.633	4460.87
949.938	4483.02
950.244	4461.1
950.549	4478.72
950.854	4410.03
951.16	4427.65
951.465	4368.44
951.77	4388.33
952.075	4377.48
952.38	4349.46
952.685	4318.5
952.99	4276.02
953.294	4293.87
953.599	4264.04
953.904	4246.87
954.209	4198.05
954.513	4235.57
954.818	4201.44
955.122	4183.82
955.426	4129.35
955.731	4114.21
956.035	4154.21
956.339	4107.21
956.643	4055.91
956.948	4039.19
957.252	4067.89
957.556	4038.06
957.86	4008
958.163	3988.12
958.467	3988.57
958.771	3980.88
959.075	3969.13
959.378	3923.71
959.682	3968.45
959.985	3910.38
960.289	3881.23
960.592	3850.94
960.896	3868.8
961.199	3837.16
961.502	3831.06
961.805	3816.59
962.108	3781.57
962.411	3749.03
962.714	3719.87
963.017	3756.71
963.32	3736.37
963.623	3699.99
963.926	3708.35
964.228	3663.83
964.531	3655.02
964.833	3634.45
965.136	3619.09
965.438	3596.71
965.741	3585.41
966.043	3612.31
966.345	3587.45
966.648	3561.01
966.95	3556.49
967.252	3508.13
967.554	3517.62
967.856	3471.74
968.158	3440.79
968.46	3462.71
968.761	3465.19
969.063	3440.56
969.365	3410.05
969.666	3408.7
969.968	3354.91
970.269	3371.18
970.571	3334.12
970.872	3332.54
971.174	3287.79
971.475	3333.44
971.776	3314.23
972.077	3272.65
972.378	3262.03
972.679	3243.73
972.98	3267.91
973.281	3248.7
973.582	3197.4
973.883	3177.52
974.183	3191.3
974.484	3211.86
974.785	3139.32
975.085	3156.72
975.386	3147.23
975.686	3119.21
975.986	3089.38
976.287	3085.54
976.587	3056.84
976.887	3105.43
977.187	3034.92
977.487	3024.75
977.787	3008.48
978.087	3025.65
978.387	2961.02
978.687	2985.88
978.987	2954.47
979.286	2933.68
979.586	2905.88
979.885	2931.19
980.185	2915.38
980.484	2915.6
980.784	2876.73
981.083	2880.8
981.382	2844.42
981.682	2848.48
981.981	2847.81
982.28	2821.82
982.579	2798.99
982.878	2814.59
983.177	2772.33
983.475	2787.92
983.774	2764.64
984.073	2746.11
984.372	2736.4
984.67	2699.34
984.969	2745.21
985.267	2700.47
985.566	2702.5
985.864	2715.15
986.162	2675.61
986.461	2642.39
986.759	2642.39
987.057	2616.63
987.355	2585.44
987.653	2608.94
987.951	2588.6
988.249	2575.05
988.547	2538.66
988.844	2555.38
989.142	2565.55
989.44	2551.54
989.737	2540.7
990.035	2527.59
990.332	2511.77
990.63	2483.07
990.927	2495.73
991.224	2486.91
991.521	2431.09
991.819	2416.41
992.116	2448.72
992.413	2414.6
992.71	2425.22
993.006	2403.52
993.303	2371.43
993.6	2417.31
993.897	2393.58
994.193	2373.24
994.49	2331.21
994.787	2352.45
995.083	2330.08
995.379	2321.94
995.676	2290.53
995.972	2283.08
996.268	2289.86
996.565	2270.65
996.861	2260.7
997.157	2222.51
997.453	2240.59
997.749	2221.83
998.044	2222.29
998.34	2190.87
998.636	2233.81
998.932	2213.92
999.227	2145.68
999.523	2140.48
999.818	2181.84
1000.114	2128.96
1000.409	2134.6
1000.704	2090.76
1001	2084.21
1001.295	2081.72
1001.59	2066.13
1001.885	2051.67
1002.18	2047.83
1002.475	2032.46
1002.77	2027.49
1003.065	2016.64
1003.359	2011.44
1003.654	2007.15
1003.949	2013.7
1004.243	1982.29
1004.538	1999.24
1004.832	1952.01
1005.127	1978.45
1005.421	1930.09
1005.715	1916.31
1006.009	1935.06
1006.304	1889.19
1006.598	1878.34
1006.892	1887.38
1007.186	1866.36
1007.48	1868.4
1007.773	1855.74
1008.067	1861.84
1008.361	1829.08
1008.655	1843.54
1008.948	1823.88
1009.242	1805.8
1009.535	1794.27
1009.829	1757.44
1010.122	1779.81
1010.415	1775.97
1010.708	1773.26
1011.001	1715.86
1011.295	1723.09
1011.588	1721.28
1011.881	1704.33
1012.173	1707.95
1012.466	1669.53
1012.759	1660.72
1013.052	1688.06
1013.344	1636.76
1013.637	1653.04
1013.93	1612.13
1014.222	1637.89
1014.514	1627.95
1014.807	1626.6
1015.099	1592.7
1015.391	1617.56
1015.683	1612.81
1015.976	1571
1016.268	1573.26
1016.56	1566.26
1016.851	1546.82
1017.143	1549.31
1017.435	1533.72
1017.727	1535.75
1018.018	1497.33
1018.31	1509.31
1018.602	1486.26
1018.893	1479.93
1019.185	1518.8
1019.476	1466.15
1019.767	1449.2
1020.058	1462.98
1020.35	1449.43
1020.641	1424.34
1020.932	1389.54
1021.223	1387.96
1021.514	1412.82
1021.804	1409.65
1022.095	1386.38
1022.386	1365.36
1022.677	1369.88
1022.967	1353.16
1023.258	1343.89
1023.548	1329.65
1023.839	1362.65
1024.129	1328.07
1024.419	1318.81
1024.709	1292.14
1025	1293.72
1025.29	1282.88
1025.58	1289.43
1025.87	1277
1026.16	1265.02
1026.449	1254.4
1026.739	1240.62
1027.029	1241.07
1027.319	1215.53
1027.608	1264.12
1027.898	1219.15
1028.187	1185.7
1028.477	1186.61
1028.766	1209.43
1029.055	1199.04
1029.344	1199.26
1029.634	1162.65
1029.923	1157.46
1030.212	1146.61
1030.501	1143.9
1030.79	1121.75
1031.078	1141.18
1031.367	1148.87
1031.656	1120.17
1031.945	1121.75
1032.233	1118.59
1032.522	1108.87
1032.81	1098.47
1033.099	1065.03
1033.387	1088.76
1033.675	1076.1
1033.963	1034.07
1034.251	1051.92
1034.54	1062.09
1034.828	1073.16
1035.116	1049.66
1035.403	1032.04
1035.691	1034.07
1035.979	1004.92
1036.267	1009.21
1036.554	1014.41
1036.842	988.19
1037.129	1004.24
1037.417	1002.43
1037.704	955.88
1037.992	992.71
1038.279	982.54
1038.566	998.82
1038.853	998.82
1039.14	998.82
