Data from hue_160_FLMS001491_00012.txt Node
Date: Tue Feb 07 16:50:49 GMT 2017
User: dcchb
Spectrometer: FLMS00149
Trigger mode: 0
Integration Time (sec): 2.000000E-2
Scans to average: 10
Electric dark correction enabled: true
Nonlinearity correction enabled: false
Boxcar width: 0
XAxis mode: Wavelengths
Number of Pixels in Spectrum: 2048
>>>>>Begin Spectral Data<<<<<
341.393	-32.39
341.776	-32.39
342.16	-32.39
342.543	-55.89
342.927	-58.37
343.31	-66.51
343.693	-63.35
344.077	-55.21
344.46	-39.17
344.843	-70.13
345.226	-31.26
345.61	-41.2
345.993	-19.05
346.376	6.03
346.759	1.96
347.142	16.43
347.525	49.65
347.908	54.39
348.291	80.38
348.674	81.06
349.057	95.97
349.44	129.64
349.823	114.73
350.206	165.35
350.588	188.62
350.971	207.38
351.354	241.05
351.737	240.83
352.119	252.35
352.502	279.24
352.884	272.24
353.267	287.38
353.65	288.28
354.032	293.48
354.414	318.57
354.797	304.33
355.179	321.95
355.562	330.09
355.944	343.2
356.326	342.52
356.709	346.81
357.091	339.13
357.473	318.57
357.855	344.78
358.238	337.32
358.62	335.51
359.002	333.25
359.384	335.74
359.766	346.36
360.148	336.87
360.53	332.8
360.912	318.34
361.294	340.94
361.676	343.65
362.057	311.79
362.439	318.57
362.821	339.36
363.203	332.8
363.584	335.29
363.966	311.11
364.348	321.73
364.729	312.92
365.111	327.6
365.493	341.16
365.874	307.27
366.256	320.15
366.637	322.18
367.019	310.66
367.4	321.05
367.781	329.64
368.163	331.67
368.544	301.84
368.925	321.5
369.306	312.69
369.688	321.73
370.069	315.85
370.45	286.7
370.831	304.33
371.212	322.86
371.593	302.07
371.974	314.5
372.355	315.63
372.736	318.79
373.117	322.41
373.498	311.56
373.879	326.25
374.26	312.01
374.641	302.97
375.021	306.81
375.402	321.95
375.783	302.75
376.163	324.21
376.544	330.09
376.925	317.89
377.305	334.84
377.686	307.72
378.066	353.37
378.447	326.47
378.827	319.24
379.208	334.16
379.588	323.31
379.968	325.34
380.349	332.35
380.729	332.58
381.109	313.14
381.489	350.43
381.87	352.01
382.25	328.73
382.63	317.66
383.01	343.88
383.39	334.38
383.77	337.55
384.15	348.62
384.53	343.2
384.91	340.71
385.29	356.76
385.67	344.55
386.049	346.81
386.429	343.65
386.809	349.07
387.189	350.43
387.568	344.55
387.948	349.3
388.328	353.59
388.707	352.01
389.087	355.85
389.466	346.13
389.846	343.42
390.225	356.98
390.605	360.37
390.984	359.92
391.363	340.26
391.743	356.76
392.122	364.67
392.501	371.22
392.881	368.06
393.26	389.98
393.639	381.39
394.018	390.43
394.397	365.8
394.776	363.31
395.155	375.51
395.534	368.73
395.913	374.61
396.292	370.77
396.671	380.48
397.05	388.85
397.429	374.83
397.808	385.68
398.186	384.55
398.565	388.85
398.944	378
399.323	401.95
399.701	408.51
400.08	376.42
400.458	406.92
400.837	403.31
401.215	398.56
401.594	394.5
401.972	401.5
402.351	409.18
402.729	409.64
403.107	413.03
403.486	414.83
403.864	415.06
404.242	413.03
404.62	415.96
404.999	420.26
405.377	421.39
405.755	419.81
406.133	414.16
406.511	425
406.889	444.66
407.267	426.58
407.645	433.59
408.023	423.2
408.401	412.8
408.779	449.18
409.156	439.92
409.534	460.48
409.912	454.38
410.29	431.1
410.667	463.87
411.045	477.43
411.422	471.56
411.8	445.34
412.178	464.1
412.555	453.7
412.933	486.47
413.31	460.26
413.687	481.95
414.065	483.76
414.442	482.85
414.819	451.89
415.197	487.6
415.574	480.59
415.951	501.61
416.328	485.11
416.705	517.2
417.082	516.3
417.46	516.53
417.837	510.88
418.214	502.74
418.591	516.75
418.967	505.9
419.344	530.99
419.721	485.57
420.098	542.29
420.475	513.59
420.852	519.46
421.228	551.33
421.605	521.27
421.982	538.9
422.358	558.11
422.735	568.95
423.111	562.4
423.488	560.14
423.864	556.75
424.241	572.57
424.617	581.83
424.994	599.24
425.37	575.96
425.746	584.09
426.123	593.36
426.499	602.4
426.875	599.91
427.251	604.66
427.627	610.76
428.003	616.41
428.379	624.77
428.756	622.51
429.132	639.91
429.507	636.3
429.883	637.65
430.259	649.4
430.635	648.95
431.011	647.37
431.387	667.48
431.763	660.93
432.138	681.95
432.514	693.02
432.89	673.81
433.265	685.56
433.641	698.89
434.016	722.62
434.392	710.42
434.767	710.19
435.143	699.57
435.518	725.33
435.894	724.2
436.269	730.53
436.644	748.16
437.02	761.49
437.395	755.62
437.77	769.4
438.145	767.14
438.52	755.62
438.895	754.71
439.271	782.51
439.646	794.94
440.021	810.08
440.395	796.97
440.77	801.94
441.145	804.2
441.52	823.86
441.895	832.9
442.27	829.29
442.645	832.9
443.019	840.59
443.394	824.31
443.769	832.9
444.143	857.76
444.518	861.6
444.892	863.41
445.267	888.72
445.641	874.71
446.016	884.88
446.39	881.04
446.764	913.35
447.139	874.26
447.513	892.11
447.887	915.16
448.262	895.5
448.636	909.74
449.01	923.52
449.384	927.36
449.758	955.16
450.132	950.19
450.506	940.7
450.88	977.08
451.254	967.14
451.628	959
452.002	990.19
452.376	1005.55
452.75	1028.83
453.123	1006.68
453.497	1028.38
453.871	1038.55
454.244	1056.4
454.618	1049.39
454.992	1089.39
455.365	1099.79
455.739	1127.36
456.112	1129.39
456.486	1103.18
456.859	1113.12
457.232	1151.76
457.606	1168.03
457.979	1133.23
458.352	1173.23
458.725	1191.99
459.099	1175.27
459.472	1197.41
459.845	1242.16
460.218	1235.15
460.591	1236.51
460.964	1269.27
461.337	1309.5
461.71	1290.97
462.083	1306.79
462.456	1347.24
462.829	1345.2
463.201	1390.4
463.574	1389.27
463.947	1421.13
464.32	1400.8
464.692	1445.99
465.065	1449.16
465.438	1498.42
465.81	1495.26
466.183	1522.83
466.555	1588.36
466.928	1533
467.3	1583.62
467.672	1632.65
468.045	1636.04
468.417	1650.28
468.789	1700.9
469.161	1707.46
469.534	1756.04
469.906	1793.1
470.278	1796.94
470.65	1858.64
471.022	1862.48
471.394	1920.78
471.766	1928.92
472.138	1954.68
472.51	2021.57
472.882	2027.22
473.253	2093.89
473.625	2145.86
473.997	2166.2
474.369	2210.94
474.74	2260.66
475.112	2320.09
475.484	2361.68
475.855	2450.49
476.227	2433.31
476.598	2521.67
476.97	2577.94
477.341	2660.2
477.713	2690.03
478.084	2743.36
478.455	2840.53
478.827	2896.12
479.198	3035.1
479.569	3047.98
479.94	3098.38
480.311	3217.92
480.682	3329.11
481.053	3412.95
481.424	3539.72
481.795	3595.32
482.166	3686.39
482.537	3719.61
482.908	3843.9
483.279	3926.83
483.65	4030.78
484.021	4179.25
484.391	4232.36
484.762	4365.92
485.133	4428.74
485.503	4565.69
485.874	4674.38
486.244	4776.3
486.615	4866.69
486.985	5040.25
487.356	5151.66
487.726	5226.01
488.097	5379
488.467	5484.3
488.837	5613.79
489.207	5772.43
489.578	5925.2
489.948	5999.77
490.318	6165.19
490.688	6252.87
491.058	6411.06
491.428	6519.98
491.798	6616.48
492.168	6824.16
492.538	6881.56
492.908	6983.02
493.278	7178.95
493.648	7206.75
494.017	7401.54
494.387	7480.86
494.757	7705.49
495.126	7728.77
495.496	7862.1
495.866	7918.82
496.235	8098.02
496.605	8189.54
496.974	8298.02
497.344	8413.04
497.713	8517.9
498.082	8649.19
498.452	8725.58
498.821	8834.5
499.19	8877.89
499.559	8958.34
499.928	9075.17
500.298	9185.68
500.667	9312.23
501.036	9340.25
501.405	9502.5
501.774	9506.8
502.143	9604.65
502.512	9683.29
502.88	9821.82
503.249	9805.32
503.618	9889.61
503.987	9967.58
504.356	10002.38
504.724	10133.22
505.093	10187.68
505.462	10208.93
505.83	10308.58
506.199	10351.75
506.567	10525.08
506.936	10469.48
507.304	10567.79
507.672	10635.58
508.041	10761
508.409	10790.61
508.777	10888.23
509.145	10960.77
509.514	11015.68
509.882	11006.42
510.25	11058.62
510.618	11118.28
510.986	11170.71
511.354	11252.06
511.722	11264.04
512.09	11346.75
512.458	11365.96
512.826	11389.01
513.193	11470.81
513.561	11551.26
513.929	11523.69
514.297	11567.08
514.664	11673.97
515.032	11676.46
515.4	11752.39
515.767	11677.59
516.135	11739.28
516.502	11660.19
516.869	11892.95
517.237	11824.25
517.604	11874.87
517.972	12011.59
518.339	11969.11
518.706	12026.73
519.073	11956.45
519.44	11977.92
519.808	12125.49
520.175	12031.93
520.542	12193.51
520.909	12159.38
521.276	12140.4
521.643	12195.77
522.009	12260.4
522.376	12264.47
522.743	12287.74
523.11	12435.76
523.477	12449.32
523.843	12379.26
524.21	12511.24
524.577	12579.94
524.943	12578.36
525.31	12460.62
525.676	12646.83
526.043	12595.08
526.409	12615.42
526.776	12736.77
527.142	12667.17
527.508	12699.48
527.874	12743.78
528.241	12760.72
528.607	12728.63
528.973	12762.98
529.339	12743.55
529.705	12796.88
530.071	12815.19
530.437	12820.16
530.803	12777.22
531.169	12882.75
531.535	12816.32
531.901	12640.73
532.267	12788.29
532.632	12697
532.998	12784.9
533.364	12793.72
533.73	12661.74
534.095	12758.01
534.461	12767.28
534.826	12752.59
535.192	12691.35
535.557	12722.31
535.923	12671.91
536.288	12617.9
536.653	12715.3
537.019	12619.94
537.384	12560.05
537.749	12552.37
538.114	12508.75
538.479	12513.72
538.845	12569.77
539.21	12394.86
539.575	12384.01
539.94	12450.68
540.305	12427.63
540.67	12362.09
541.034	12295.65
541.399	12286.61
541.764	12210.68
542.129	12187.41
542.494	12167.97
542.858	12246.39
543.223	12155.77
543.587	12084.81
543.952	12108.31
544.316	12049.1
544.681	12029.22
545.045	12080.97
545.41	11991.48
545.774	11966.85
546.138	11888.88
546.503	11894.98
546.867	11885.04
547.231	11896.11
547.595	11886.62
547.959	11813.18
548.324	11740.86
548.688	11718.27
549.052	11703.58
549.416	11553.07
549.779	11593.75
550.143	11544.26
550.507	11626.97
550.871	11556.69
551.235	11518.27
551.599	11492.96
551.962	11453.41
552.326	11468.1
552.689	11470.36
553.053	11403.7
553.417	11395.56
553.78	11508.78
554.143	11459.97
554.507	11345.85
554.87	11360.08
555.234	11376.35
555.597	11284.38
555.96	11208.22
556.323	11299.75
556.686	11274.89
557.05	11267.2
557.413	11260.42
557.776	11199.41
558.139	11338.16
558.502	11180.88
558.865	11241.22
559.228	11283.47
559.59	11231.5
559.953	11195.79
560.316	11297.71
560.679	11240.31
561.041	11188.34
561.404	11252.74
561.767	11243.02
562.129	11252.29
562.492	11333.87
562.854	11242.12
563.217	11229.01
563.579	11199.63
563.941	11308.56
564.304	11217.04
564.666	11250.26
565.028	11258.62
565.39	11263.36
565.753	11375.9
566.115	11345.62
566.477	11343.81
566.839	11342.23
567.201	11444.6
567.563	11384.04
567.925	11448.44
568.287	11456.13
568.648	11425.39
569.01	11449.35
569.372	11504.03
569.734	11412.96
570.095	11484.6
570.457	11463.81
570.819	11525.5
571.18	11532.06
571.542	11508.78
571.903	11485.28
572.265	11518.5
572.626	11521.89
572.987	11617.03
573.349	11487.31
573.71	11533.19
574.071	11574.09
574.432	11615.44
574.794	11634.65
575.155	11632.17
575.516	11565.28
575.877	11560.3
576.238	11573.18
576.599	11617.48
576.96	11590.59
577.32	11635.33
577.681	11564.6
578.042	11676.01
578.403	11567.08
578.763	11699.51
579.124	11690.92
579.485	11677.14
579.845	11660.64
580.206	11574.77
580.566	11647.98
580.927	11636.91
581.287	11665.61
581.648	11607.31
582.008	11653.86
582.368	11603.92
582.728	11620.64
583.089	11574.54
583.449	11600.53
583.809	11664.48
584.169	11610.7
584.529	11530.7
584.889	11640.75
585.249	11575.44
585.609	11555.78
585.969	11557.14
586.329	11620.41
586.688	11570.92
587.048	11548.55
587.408	11547.42
587.768	11511.49
588.127	11520.53
588.487	11496.35
588.846	11597.14
589.206	11370.48
589.565	11431.49
589.925	11560.08
590.284	11500.87
590.643	11546.52
591.003	11584.94
591.362	11565.95
591.721	11403.47
592.08	11478.05
592.44	11506.29
592.799	11448.44
593.158	11440.98
593.517	11438.5
593.876	11394.43
594.235	11476.46
594.593	11361.66
594.952	11451.38
595.311	11428.56
595.67	11400.53
596.029	11478.95
596.387	11457.26
596.746	11436.24
597.104	11374.09
597.463	11411.83
597.822	11493.41
598.18	11380.2
598.538	11373.87
598.897	11385.39
599.255	11273.76
599.613	11487.76
599.972	11418.16
600.33	11365.05
600.688	11323.7
601.046	11424.71
601.404	11419.29
601.762	11339.52
602.12	11427.65
602.478	11436.92
602.836	11443.24
603.194	11347.88
603.552	11377.71
603.91	11404.83
604.268	11371.61
604.625	11374.55
604.983	11379.52
605.341	11375.22
605.698	11377.94
606.056	11394.66
606.413	11470.36
606.771	11430.14
607.128	11368.9
607.485	11402.12
607.843	11402.79
608.2	11383.58
608.557	11477.14
608.914	11399.18
609.272	11492.51
609.629	11516.91
609.986	11487.76
610.343	11436.46
610.7	11574.54
611.057	11507.65
611.414	11507.42
611.771	11533.19
612.127	11559.63
612.484	11527.31
612.841	11549
613.198	11549.46
613.554	11560.53
613.911	11628.32
614.267	11592.17
614.624	11548.33
614.98	11477.59
615.337	11630.81
615.693	11562.79
616.05	11589.91
616.406	11624.93
616.762	11589.23
617.118	11581.55
617.475	11605.5
617.831	11656.57
618.187	11693.63
618.543	11725.5
618.899	11724.37
619.255	11754.65
619.611	11671.71
619.967	11739.28
620.323	11708.1
620.678	11701.77
621.034	11717.81
621.39	11667.19
621.746	11711.49
622.101	11772.5
622.457	11729.79
622.812	11692.96
623.168	11779.73
623.523	11784.03
623.879	11772.5
624.234	11703.12
624.589	11777.02
624.945	11759.85
625.3	11707.64
625.655	11730.69
626.01	11745.16
626.365	11750.35
626.72	11669.68
627.075	11687.76
627.43	11759.62
627.785	11659.74
628.14	11768.66
628.495	11732.28
628.85	11627.87
629.205	11684.82
629.559	11762.56
629.914	11643.92
630.269	11617.93
630.623	11616.35
630.978	11619.96
631.332	11639.4
631.687	11621.77
632.041	11643.69
632.396	11680.3
632.75	11567.99
633.104	11602.79
633.459	11488.67
633.813	11546.52
634.167	11584.48
634.521	11528.67
634.875	11526.41
635.229	11500.42
635.583	11461.32
635.937	11478.05
636.291	11452.96
636.645	11402.34
636.999	11400.08
637.352	11386.75
637.706	11415.45
638.06	11429.69
638.413	11367.99
638.767	11365.05
639.121	11334.09
639.474	11265.62
639.828	11350.37
640.181	11354.43
640.534	11298.62
640.888	11326.41
641.241	11227.2
641.594	11213.42
641.947	11258.62
642.301	11272.63
642.654	11277.6
643.007	11266.07
643.36	11255.68
643.713	11224.94
644.066	11297.26
644.419	11250.48
644.771	11174.1
645.124	11009.58
645.477	10980.43
645.83	10912.86
646.182	10875.8
646.535	10856.82
646.888	10842.36
647.24	10774.11
647.593	10926.42
647.945	10855.69
648.298	10815.46
648.65	10786.09
649.002	10793.09
649.355	10843.26
649.707	10799.19
650.059	10842.81
650.411	10999.41
650.763	10935.46
651.115	11055.68
651.467	11062.46
651.819	11059.07
652.171	11099.07
652.523	11045.29
652.875	11042.58
653.227	11001.9
653.578	11067.66
653.93	11033.76
654.282	11061.11
654.633	11046.87
654.985	11070.82
655.337	11048.68
655.688	11094.1
656.039	11130.71
656.391	10971.17
656.742	10981.11
657.094	11040.77
657.445	11083.93
657.796	11102.46
658.147	10962.13
658.498	11074.67
658.849	11060.43
659.2	11065.63
659.551	11026.31
659.902	11111.05
660.253	11076.25
660.604	11113.54
660.955	11000.77
661.306	11039.87
661.656	11055.68
662.007	11074.44
662.358	11073.54
662.708	11118.73
663.059	11116.25
663.409	10996.02
663.76	11121.22
664.11	11154.66
664.461	11180.2
664.811	11147.21
665.161	11148.79
665.511	11113.99
665.862	11174.32
666.212	11129.81
666.562	11121.9
666.912	11182.01
667.262	11110.6
667.612	11115.12
667.962	11148.79
668.312	11092.97
668.662	11141.33
669.011	11098.62
669.361	11095.68
669.711	11072.18
670.06	11134.33
670.41	11120.77
670.76	11033.99
671.109	11091.84
671.459	11121.67
671.808	11078.96
672.157	11097.72
672.507	10949.02
672.856	10986.76
673.205	10978.4
673.554	11132.74
673.904	11005.29
674.253	11070.15
674.602	11045.06
674.951	10931.85
675.3	10846.65
675.649	10972.97
675.998	10897.27
676.346	10985.86
676.695	10984.95
677.044	10965.06
677.393	10900.43
677.741	10985.86
678.09	10874.9
678.438	10832.41
678.787	10821.79
679.135	10860.66
679.484	10888
679.832	10917.16
680.181	10790.61
680.529	10814.56
680.877	10734.11
681.225	10781.34
681.573	10833.54
681.922	10662.25
682.27	10738.63
682.618	10652.98
682.966	10704.96
683.314	10721.23
683.661	10598.75
684.009	10584.06
684.357	10552.19
684.705	10620.22
685.053	10571.85
685.4	10540.22
685.748	10499.31
686.095	10484.85
686.443	10392.88
686.79	10437.4
687.138	10484.63
687.485	10434.01
687.832	10392.42
688.18	10457.73
688.527	10350.84
688.874	10347.91
689.221	10220.23
689.568	10245.08
689.915	10238.98
690.262	10251.19
690.609	10200.57
690.956	10081.7
691.303	10183.62
691.65	10036.95
691.997	10081.02
692.344	9987.24
692.69	9994.24
693.037	10065.88
693.383	9963.28
693.73	9957.86
694.077	9845.55
694.423	9834.25
694.769	9764.87
695.116	9780.46
695.462	9768.94
695.808	9764.42
696.155	9642.16
696.501	9694.82
696.847	9617.08
697.193	9547.7
697.539	9546.35
697.885	9531.2
698.231	9462.05
698.577	9446.91
698.923	9471.54
699.269	9433.81
699.614	9316.52
699.96	9313.36
700.306	9317.42
700.651	9214.38
700.997	9194.26
701.342	9217.09
701.688	9150.2
702.033	9143.87
702.379	9129.63
702.724	9032.01
703.069	9092.35
703.415	8945.23
703.76	8992.24
704.105	8974.16
704.45	8977.32
704.795	8848.06
705.14	8890.77
705.485	8857.55
705.83	8803.99
706.175	8835.4
706.52	8792.92
706.865	8736.65
707.209	8801.73
707.554	8692.13
707.899	8732.13
708.243	8683.54
708.588	8639.93
708.932	8634.73
709.277	8566.48
709.621	8624.56
709.966	8519.71
710.31	8535.52
710.654	8444.45
710.998	8489.65
711.342	8480.16
711.687	8455.53
712.031	8409.65
712.375	8317
712.719	8408.52
713.063	8359.94
713.407	8361.07
713.75	8323.1
714.094	8299.37
714.438	8209.88
714.782	8288.75
715.125	8211.69
715.469	8298.47
715.812	8216.89
716.156	8135.99
716.499	8154.07
716.843	8219.83
717.186	8168.75
717.53	8185.25
717.873	8162.2
718.216	8178.47
718.559	8169.43
718.902	8106.61
719.246	8055.99
719.589	8038.59
719.932	8098.7
720.275	8042.66
720.617	8023.67
720.96	8041.07
721.303	8048.53
721.646	8003.33
721.989	7990.91
722.331	8027.74
722.674	7944.13
723.016	7977.12
723.359	7954.52
723.701	7957.91
724.044	7927.18
724.386	7858.03
724.729	7953.39
725.071	7992.49
725.413	7889.21
725.755	7894.19
726.097	7873.17
726.439	7875.88
726.782	7859.16
727.124	7910.91
727.465	7863.45
727.807	7828.2
728.149	7873.62
728.491	7848.99
728.833	7841.08
729.175	7844.24
729.516	7830.68
729.858	7825.26
730.199	7854.64
730.541	7818.25
730.882	7830.68
731.224	7845.82
731.565	7798.82
731.906	7808.76
732.248	7836.11
732.589	7811.93
732.93	7831.14
733.271	7811.25
733.612	7853.73
733.953	7775.77
734.294	7866.16
734.635	7752.27
734.976	7856.67
735.317	7792.94
735.658	7821.42
735.999	7824.36
736.339	7828.65
736.68	7815.77
737.021	7811.93
737.361	7850.12
737.702	7771.02
738.042	7850.8
738.383	7860.06
738.723	7888.31
739.063	7860.06
739.404	7885.6
739.744	7862.1
740.084	7855.09
740.424	7885.15
740.764	7837.92
741.104	7894.19
741.444	7947.97
741.784	7922.66
742.124	7888.76
742.464	7952.26
742.804	7963.11
743.143	7977.57
743.483	7995.43
743.823	8032.71
744.162	8030.68
744.502	8062.32
744.841	8085.37
745.181	8154.29
745.52	8145.25
745.86	8166.49
746.199	8211.92
746.538	8295.53
746.877	8351.57
747.216	8336.89
747.556	8343.66
747.895	8451.68
748.234	8446.49
748.573	8491.68
748.911	8524
749.25	8641.74
749.589	8565.13
749.928	8744.33
750.267	8816.19
750.605	8836.99
750.944	8862.75
751.283	8954.27
751.621	9053.02
751.96	9108.39
752.298	9202.17
752.636	9279.91
752.975	9368.5
753.313	9465.67
753.651	9539.34
753.989	9664.99
754.327	9714.25
754.666	9849.84
755.004	9927.58
755.342	10108.36
755.679	10181.13
756.017	10246.21
756.355	10423.16
756.693	10571.4
757.031	10749.7
757.368	10753.32
757.706	10970.49
758.044	11024.05
758.381	11236.7
758.719	11337.26
759.056	11470.36
759.394	11687.98
759.731	11795.1
760.068	11857.7
760.405	12015.21
760.743	12229.21
761.08	12406.38
761.417	12516.21
761.754	12608.86
762.091	12746.26
762.428	12979.02
762.765	13054.95
763.102	13245.23
763.438	13471.67
763.775	13550.08
764.112	13845.22
764.449	13901.48
764.785	13929.73
765.122	14120.69
765.458	14300.57
765.795	14384.41
766.131	14594.12
766.467	14729.71
766.804	14806.09
767.14	14931.51
767.476	14977.61
767.812	15182.36
768.148	15409.47
768.485	15466.64
768.821	15573.53
769.157	15671.38
769.492	15832.73
769.828	15947.98
770.164	15994.99
770.5	16098.04
770.836	16244.93
771.171	16285.38
771.507	16371.25
771.842	16401.31
772.178	16551.36
772.513	16681.3
772.849	16728.08
773.184	16792.71
773.519	16867.51
773.855	16935.3
774.19	16917.45
774.525	17047.84
774.86	17158.57
775.195	17093.94
775.53	17227.72
775.865	17202.19
776.2	17252.13
776.535	17251.68
776.87	17261.85
777.205	17418.45
777.539	17355.41
777.874	17486.93
778.209	17456.65
778.543	17432.92
778.878	17456.87
779.212	17511.33
779.547	17498
779.881	17522.63
780.215	17522.63
780.55	17699.35
780.884	17610.77
781.218	17628.62
781.552	17701.16
781.886	17623.42
782.22	17646.92
782.554	17512.46
782.888	17517.66
783.222	17568.51
783.556	17527.6
783.889	17654.61
784.223	17497.77
784.557	17471.11
784.89	17525.57
785.224	17481.05
785.557	17447.83
785.891	17510.66
786.224	17545
786.558	17430.88
786.891	17353.6
787.224	17375.97
787.557	17363.99
787.891	17304.56
788.224	17408.29
788.557	17331.68
788.89	17357.67
789.223	17398.34
789.556	17296.88
789.888	17299.59
790.221	17241.96
790.554	17159.48
790.887	17142.3
791.219	17050.33
791.552	17060.5
791.884	17030.44
792.217	16963.33
792.549	17017.79
792.882	16943.89
793.214	16898.02
793.546	16961.97
793.879	16858.47
794.211	16744.12
794.543	16818.47
794.875	16746.61
795.207	16830.9
795.539	16683.56
795.871	16756.78
796.203	16458.93
796.535	16529.66
796.867	16464.58
797.198	16398.82
797.53	16417.58
797.862	16366.05
798.193	16319.95
798.525	16341.19
798.856	16388.65
799.188	16171.48
799.519	16130.8
799.85	16034.99
800.182	16032.73
800.513	16151.14
800.844	15980.75
801.175	16053.29
801.506	16126.74
801.837	15976.68
802.168	15899.85
802.499	15898.72
802.83	15855.11
803.161	15812.62
803.491	15842.68
803.822	15832.06
804.153	15815.33
804.483	15616.69
804.814	15662.79
805.145	15623.47
805.475	15543.25
805.805	15492.4
806.136	15543.02
806.466	15559.07
806.796	15487.66
807.126	15404.5
807.457	15329.7
807.787	15335.12
808.117	15317.04
808.447	15245.4
808.777	15218.06
809.107	15176.93
809.436	15136.48
809.766	15160.43
810.096	15124.96
810.426	14961.34
810.755	15099.19
811.085	14947.78
811.414	15007.9
811.744	14943.72
812.073	14778.52
812.403	14847.67
812.732	14882.93
813.061	14836.15
813.39	14782.37
813.719	14665.31
814.049	14804.74
814.378	14635.25
814.707	14581.92
815.036	14662.82
815.365	14571.52
815.693	14574.69
816.022	14590.73
816.351	14507.57
816.68	14384.18
817.008	14531.75
817.337	14356.16
817.665	14373.11
817.994	14394.35
818.322	14339.89
818.651	14292.43
818.979	14236.39
819.307	14323.85
819.636	14231.19
819.964	14156.62
820.292	14236.17
820.62	14234.36
820.948	14141.25
821.276	14179.67
821.604	14195.49
821.932	14194.13
822.259	14203.4
822.587	14144.64
822.915	14128.82
823.243	14207.24
823.57	14075.72
823.898	14166.11
824.225	14130.41
824.553	14130.63
824.88	14158.43
825.207	14095.38
825.535	14134.7
825.862	14154.36
826.189	14085.66
826.516	14170.63
826.843	14282.72
827.17	14190.06
827.497	14237.3
827.824	14175.83
828.151	14237.3
828.478	14266.67
828.805	14239.55
829.131	14190.74
829.458	14209.95
829.785	14141.25
830.111	14161.14
830.438	14254.7
830.764	14223.06
831.09	14236.17
831.417	14145.55
831.743	14203.62
832.069	14084.53
832.395	14093.8
832.722	14127.47
833.048	14085.89
833.374	14202.27
833.7	14086.56
834.026	14157.3
834.351	14070.52
834.677	13998.88
835.003	14076.62
835.329	13972.67
835.654	14028.49
835.98	13920.92
836.306	14064.64
836.631	13858.77
836.956	13924.76
837.282	14003.4
837.607	13985.1
837.932	13849.96
838.258	13910.98
838.583	13800.02
838.908	13755.95
839.233	13819.45
839.558	13786.46
839.883	13794.59
840.208	13670.53
840.533	13748.27
840.858	13763.86
841.182	13694.48
841.507	13752.11
841.832	13572.91
842.156	13655.84
842.481	13595.73
842.805	13531.1
843.13	13581.72
843.454	13502.17
843.778	13456.07
844.103	13394.15
844.427	13382.85
844.751	13381.5
845.075	13293.37
845.399	13326.36
845.723	13259.02
846.047	13228.51
846.371	13171.79
846.695	13142.18
847.019	13057.44
847.343	12952.58
847.666	12874.85
847.99	12871
848.313	12807.28
848.637	12777.22
848.96	12744.68
849.284	12773.15
849.607	12683.44
849.931	12652.03
850.254	12479.6
850.577	12486.38
850.9	12439.38
851.223	12460.17
851.546	12301.98
851.869	12198.03
852.192	12314.18
852.515	12160.51
852.838	12164.58
853.161	12160.74
853.483	12054.3
853.806	11929.33
854.129	12032.38
854.451	11955.32
854.774	11902.22
855.096	11874.19
855.419	11855.66
855.741	11757.81
856.063	11753.97
856.385	11700.64
856.708	11690.7
857.03	11575.22
857.352	11659.06
857.674	11585.61
857.996	11559.17
858.318	11511.94
858.64	11485.73
858.961	11456.8
859.283	11353.3
859.605	11379.97
859.926	11327.09
860.248	11309.69
860.57	11237.15
860.891	11254.55
861.212	11241.67
861.534	11189.69
861.855	11125.96
862.176	11192.4
862.498	11183.14
862.819	11135.23
863.14	11136.81
863.461	11085.74
863.782	11032.63
864.103	11007.78
864.424	11013.43
864.745	11034.44
865.065	10973.43
865.386	10942.24
865.707	10953.31
866.027	10879.87
866.348	10927.1
866.668	10979.98
866.989	10881
867.309	10808.01
867.63	10812.3
867.95	10790.38
868.27	10709.03
868.59	10791.96
868.91	10761.45
869.23	10748.57
869.55	10610.95
869.87	10734.34
870.19	10659.08
870.51	10740.21
870.83	10703.83
871.15	10570.72
871.469	10679.42
871.789	10658.18
872.109	10613.44
872.428	10566.21
872.748	10571.63
873.067	10510.39
873.386	10552.19
873.706	10567.34
874.025	10485.3
874.344	10480.33
874.663	10419.54
874.982	10477.62
875.301	10415.93
875.62	10379.77
875.939	10359.43
876.258	10397.17
876.577	10306.78
876.896	10348.13
877.214	10327.79
877.533	10294.8
877.852	10285.53
878.17	10257.06
878.489	10312.65
878.807	10303.39
879.125	10208.7
879.444	10277.4
879.762	10158.98
880.08	10189.49
880.398	10109.95
880.716	10219.1
881.034	10105.2
881.352	10156.95
881.67	10059.33
881.988	10027.69
882.306	10035.15
882.624	10043.06
882.941	10019.78
883.259	9913.57
883.577	9934.81
883.894	9948.14
884.212	9788.82
884.529	9914.02
884.846	9796.96
885.164	9831.31
885.481	9754.02
885.798	9784.3
886.115	9697.75
886.432	9820.69
886.75	9694.36
887.067	9650.98
887.383	9628.38
887.7	9636.29
888.017	9624.76
888.334	9559
888.651	9588.6
888.967	9504.54
889.284	9576.4
889.6	9464.54
889.917	9452.11
890.233	9445.1
890.55	9403.75
890.866	9450.75
891.182	9367.82
891.498	9243.98
891.815	9287.59
892.131	9208.73
892.447	9167.6
892.763	9235.84
893.079	9153.36
893.395	9132.12
893.71	9106.58
894.026	9079.69
894.342	9001.5
894.657	8940.03
894.973	9002.18
895.289	9032.69
895.604	8972.57
895.92	8963.31
896.235	8871.79
896.55	8831.11
896.865	8800.6
897.181	8849.64
897.496	8794.5
897.811	8742.75
898.126	8682.19
898.441	8684.67
898.756	8681.28
899.071	8562.87
899.386	8611.23
899.7	8545.47
900.015	8520.16
900.33	8455.53
900.644	8420.05
900.959	8411.01
901.273	8376.66
901.588	8359.71
901.902	8277.45
902.216	8292.59
902.531	8263.21
902.845	8231.13
903.159	8210.33
903.473	8174.18
903.787	8160.17
904.101	8140.73
904.415	8110.9
904.729	7995.2
905.042	8021.19
905.356	7984.8
905.67	8009.21
905.984	7954.07
906.297	7980.06
906.611	7902.77
906.924	7847.63
907.237	7852.6
907.551	7811.48
907.864	7719.27
908.177	7717.47
908.491	7694.87
908.804	7672.27
909.117	7627.3
909.43	7604.48
909.743	7587.3
910.056	7496.23
910.368	7429.34
910.681	7484.03
910.994	7447.42
911.307	7391.83
911.619	7351.15
911.932	7323.8
912.244	7302.34
912.557	7324.03
912.869	7274.09
913.181	7164.26
913.494	7229.34
913.806	7094.21
914.118	7149.57
914.43	7128.78
914.742	7097.14
915.054	7106.64
915.366	7022.12
915.678	7014.89
915.99	6917.49
916.302	6940.76
916.613	6882.91
916.925	6837.26
917.236	6849.69
917.548	6771.95
917.859	6815.12
918.171	6750.03
918.482	6703.93
918.794	6705.52
919.105	6694.44
919.416	6637.49
919.727	6669.58
920.038	6640.88
920.349	6528.8
920.66	6610.38
920.971	6583.03
921.282	6507.1
921.593	6528.35
921.903	6430.04
922.214	6481.57
922.525	6378.97
922.835	6275.7
923.146	6327.9
923.456	6308.46
923.767	6284.74
924.077	6296.49
924.387	6254
924.697	6143.04
925.008	6158.64
925.318	6139.65
925.628	6150.05
925.938	6140.78
926.248	6012.43
926.558	6052.88
926.867	6031.64
927.177	6044.74
927.487	5925.2
927.796	5953.67
928.106	5906.67
928.416	5884.29
928.725	5887.91
929.034	5863.05
929.344	5867.57
929.653	5831.87
929.962	5820.79
930.271	5793.68
930.581	5738.99
930.89	5671.87
931.199	5679.55
931.508	5694.02
931.817	5673.9
932.125	5614.25
932.434	5625.32
932.743	5597.75
933.051	5487.92
933.36	5524.76
933.669	5469.84
933.977	5492.44
934.286	5465.32
934.594	5431.88
934.902	5412.89
935.21	5354.14
935.519	5402.05
935.827	5333.8
936.135	5286.57
936.443	5248.15
936.751	5295.84
937.059	5271.88
937.367	5238.44
937.674	5245.67
937.982	5220.36
938.29	5166.57
938.597	5213.13
938.905	5152.56
939.213	5071.43
939.52	5078.44
939.827	5134.94
940.135	5049.06
940.442	5081.38
940.749	5045.67
941.056	5028.27
941.363	4936.3
941.67	4925.45
941.977	4945.79
942.284	4887.94
942.591	4897.88
942.898	4847.49
943.205	4862.85
943.511	4804.32
943.818	4804.55
944.125	4777.43
944.431	4765.91
944.738	4746.92
945.044	4742.86
945.35	4684.55
945.657	4648.39
945.963	4647.26
946.269	4647.94
946.575	4619.92
946.881	4640.94
947.187	4590.32
947.493	4525.23
947.799	4572.01
948.105	4581.5
948.41	4462.18
948.716	4494.5
949.022	4432.81
949.327	4469.87
949.633	4392.81
949.938	4405.01
950.244	4388.06
950.549	4362.3
950.854	4322.53
951.16	4319.82
951.465	4366.14
951.77	4308.29
952.075	4271
952.38	4269.65
952.685	4232.81
952.99	4205.47
953.294	4195.07
953.599	4167.96
953.904	4199.37
954.209	4162.31
954.513	4153.72
954.818	4144.68
955.122	4085.02
955.426	4131.12
955.731	4096.09
956.035	4064
956.339	4045.92
956.643	4001.86
956.948	3983.55
957.252	3959.37
957.556	3983.78
957.86	3925.25
958.163	3948.53
958.467	3899.71
958.771	3879.6
959.075	3921.86
959.378	3866.49
959.682	3829.43
959.985	3869.66
960.289	3817.91
960.592	3789.89
960.896	3815.2
961.199	3773.62
961.502	3793.73
961.805	3722.77
962.108	3714.63
962.411	3681.41
962.714	3675.09
963.017	3638.03
963.32	3643.9
963.623	3632.83
963.926	3630.34
964.228	3609.78
964.531	3609.33
964.833	3608.87
965.136	3553.73
965.438	3554.64
965.741	3525.71
966.043	3530.01
966.345	3507.18
966.648	3482.1
966.95	3458.6
967.252	3431.93
967.554	3449.56
967.856	3419.05
968.158	3384.47
968.46	3389.44
968.761	3321.2
969.063	3389.44
969.365	3362.78
969.666	3343.34
969.968	3319.62
970.269	3330.69
970.571	3294.76
970.872	3290.92
971.174	3265.83
971.475	3246.17
971.776	3209.34
972.077	3231.93
972.378	3192.16
972.679	3189.68
972.98	3179.51
973.281	3142.22
973.582	3192.16
973.883	3178.38
974.183	3124.82
974.484	3115.55
974.785	3090.02
975.085	3043.01
975.386	3085.27
975.686	3081.88
975.986	3083.24
976.287	3018.16
976.587	3004.37
976.887	2992.39
977.187	3007.53
977.487	2951.49
977.787	2983.58
978.087	2957.82
978.387	2894.99
978.687	2942.68
978.987	2876.46
979.286	2861.1
979.586	2873.07
979.885	2871.49
980.185	2866.97
980.484	2821.32
980.784	2839.4
981.083	2800.08
981.382	2790.59
981.682	2833.75
981.981	2753.3
982.28	2761.44
982.579	2756.02
982.878	2756.69
983.177	2760.31
983.475	2741.1
983.774	2709.69
984.073	2731.16
984.372	2702.91
984.67	2671.95
984.969	2666.07
985.267	2628.33
985.566	2653.87
985.864	2632.63
986.162	2627.2
986.461	2647.09
986.759	2599.64
987.057	2552.4
987.355	2533.65
987.653	2588.79
987.951	2546.3
988.249	2509.47
988.547	2498.62
988.844	2523.93
989.142	2524.16
989.44	2457.49
989.737	2487.77
990.035	2473.99
990.332	2456.81
990.63	2424.95
990.927	2415.01
991.224	2458.85
991.521	2425.18
991.819	2414.33
992.116	2412.97
992.413	2421.56
992.71	2362.58
993.006	2372.3
993.303	2348.79
993.6	2334.11
993.897	2344.27
994.193	2308.57
994.49	2287.55
994.787	2280.77
995.083	2290.26
995.379	2261.34
995.676	2279.87
995.972	2240.32
996.268	2247.55
996.565	2270.6
996.861	2208.01
997.157	2223.6
997.453	2189.02
997.749	2200.32
998.044	2180.44
998.34	2166.88
998.636	2161
998.932	2132.3
999.227	2114.9
999.523	2103.38
999.818	2113.32
1000.114	2112.42
1000.409	2072.64
1000.704	2082.13
1001	2067.67
1001.295	2050.27
1001.59	2033.55
1001.885	2051.4
1002.18	1991.74
1002.475	1982.48
1002.77	1982.02
1003.065	1970.27
1003.359	1956.71
1003.654	1960.1
1003.949	1964.4
1004.243	1932.53
1004.538	1908.81
1004.832	1918.07
1005.127	1943.38
1005.421	1880.33
1005.715	1898.18
1006.009	1875.36
1006.304	1855.7
1006.598	1844.63
1006.892	1859.32
1007.186	1834.91
1007.48	1853.44
1007.773	1794.01
1008.067	1805.31
1008.361	1775.7
1008.655	1801.69
1008.948	1752.65
1009.242	1753.33
1009.535	1741.13
1009.829	1745.87
1010.122	1724.4
1010.415	1713.33
1010.708	1730.73
1011.001	1705.42
1011.295	1693.67
1011.588	1701.13
1011.881	1647.8
1012.173	1678.53
1012.466	1670.17
1012.759	1647.12
1013.052	1622.26
1013.344	1591.53
1013.637	1629.27
1013.93	1607.34
1014.222	1616.38
1014.514	1589.72
1014.807	1568.25
1015.099	1566.89
1015.391	1583.84
1015.683	1535.93
1015.976	1546.56
1016.268	1511.3
1016.56	1514.01
1016.851	1513.79
1017.143	1499.32
1017.435	1510.85
1017.727	1474.01
1018.018	1473.11
1018.31	1490.74
1018.602	1460.91
1018.893	1471.76
1019.185	1442.83
1019.476	1425.2
1019.767	1425.43
1020.058	1394.02
1020.35	1396.05
1020.641	1399.21
1020.932	1411.64
1021.223	1368.25
1021.514	1370.06
1021.804	1354.47
1022.095	1333
1022.386	1320.12
1022.677	1352.44
1022.967	1347.92
1023.258	1322.61
1023.548	1291.42
1023.839	1311.08
1024.129	1304.75
1024.419	1309.73
1024.709	1293.23
1025	1278.09
1025.29	1267.69
1025.58	1255.94
1025.87	1228.37
1026.16	1258.88
1026.449	1249.16
1026.739	1245.32
1027.029	1187.69
1027.319	1196.28
1027.608	1183.4
1027.898	1227.24
1028.187	1200.58
1028.477	1173.23
1028.766	1191.54
1029.055	1185.21
1029.344	1154.7
1029.634	1145.89
1029.923	1157.87
1030.212	1123.29
1030.501	1113.35
1030.79	1114.25
1031.078	1113.8
1031.367	1128.49
1031.656	1098.66
1031.945	1098.88
1032.233	1098.21
1032.522	1057.75
1032.81	1055.72
1033.099	1045.1
1033.387	1027.92
1033.675	1048.04
1033.963	1052.11
1034.251	1039.22
1034.54	1013.01
1034.828	1027.02
1035.116	1002.84
1035.403	1008.72
1035.691	980.69
1035.979	990.64
1036.267	994.03
1036.554	1024.31
1036.842	972.11
1037.129	981.82
1037.417	968.49
1037.704	966.01
1037.992	944.76
1038.279	963.97
1038.566	949.96
1038.853	949.96
1039.14	949.96
