Data from hue_300_FLMS001491_00035.txt Node
Date: Tue Feb 07 15:50:39 GMT 2017
User: dcchb
Spectrometer: FLMS00149
Trigger mode: 0
Integration Time (sec): 2.000000E-2
Scans to average: 10
Electric dark correction enabled: true
Nonlinearity correction enabled: false
Boxcar width: 0
XAxis mode: Wavelengths
Number of Pixels in Spectrum: 2048
>>>>>Begin Spectral Data<<<<<
341.393	-21.36
341.776	-21.36
342.16	-21.36
342.543	-57.06
342.927	-68.59
343.31	-74.46
343.693	-66.33
344.077	-81.01
344.46	-72.43
344.843	-43.5
345.226	-25.42
345.61	-8.02
345.993	-20.9
346.376	1.02
346.759	15.71
347.142	11.64
347.525	37.63
347.908	52.99
348.291	71.75
348.674	88.92
349.057	112.43
349.44	123.95
349.823	159.88
350.206	137.74
350.588	189.94
350.971	205.98
351.354	221.8
351.737	240.33
352.119	231.97
352.502	256.38
352.884	267.22
353.267	269.94
353.65	285.53
354.032	282.59
354.414	282.82
354.797	300.67
355.179	317.84
355.562	311.74
355.944	304.96
356.326	313.78
356.709	308.13
357.091	329.14
357.473	326.43
357.855	329.14
358.238	344.74
358.62	342.02
359.002	335.7
359.384	334.34
359.766	324.4
360.148	341.8
360.53	305.64
360.912	322.82
361.294	315.58
361.676	335.7
362.057	350.39
362.439	335.25
362.821	327.79
363.203	316.49
363.584	320.78
363.966	321.69
364.348	321.46
364.729	318.52
365.111	319.43
365.493	303.38
365.874	316.71
366.256	316.49
366.637	289.37
367.019	285.76
367.4	301.57
367.781	300.9
368.163	323.95
368.544	309.71
368.925	324.62
369.306	315.58
369.688	299.54
370.069	313.78
370.45	287.34
370.831	287.11
371.212	312.87
371.593	319.43
371.974	308.13
372.355	329.14
372.736	315.81
373.117	306.77
373.498	298.18
373.879	304.51
374.26	301.35
374.641	308.35
375.021	288.24
375.402	307
375.783	322.14
376.163	333.66
376.544	333.21
376.925	317.17
377.305	326.88
377.686	313.33
378.066	333.66
378.447	298.64
378.827	336.83
379.208	322.82
379.588	319.88
379.968	313.1
380.349	325.08
380.729	329.37
381.109	323.04
381.489	321.23
381.87	333.66
382.25	327.11
382.63	334.79
383.01	350.39
383.39	331.18
383.77	320.1
384.15	337.28
384.53	325.53
384.91	326.21
385.29	337.96
385.67	336.15
386.049	351.06
386.429	346.77
386.809	352.65
387.189	344.74
387.568	369.59
387.948	342.93
388.328	364.4
388.707	345.64
389.087	361.91
389.466	355.58
389.846	341.35
390.225	351.29
390.605	373.66
390.984	346.09
391.363	385.41
391.743	375.92
392.122	370.72
392.501	358.75
392.881	361.23
393.26	349.48
393.639	378.41
394.018	358.07
394.397	375.47
394.776	386.54
395.155	395.58
395.534	378.18
395.913	398.29
396.292	380.22
396.671	368.92
397.05	373.21
397.429	370.95
397.808	373.89
398.186	382.02
398.565	384.74
398.944	403.49
399.323	397.39
399.701	396.94
400.08	386.77
400.458	399.2
400.837	411.18
401.215	420.89
401.594	395.36
401.972	402.81
402.351	419.31
402.729	410.5
403.107	428.8
403.486	410.27
403.864	417.96
404.242	411.63
404.62	407.11
404.999	407.79
405.377	426.32
405.755	448.01
406.133	448.24
406.511	440.78
406.889	460.21
407.267	451.17
407.645	471.29
408.023	464.51
408.401	464.51
408.779	474.9
409.156	489.59
409.534	492.76
409.912	481.91
410.29	491.85
410.667	523.49
411.045	528.01
411.422	528.91
411.8	521.91
412.178	530.72
412.555	552.64
412.933	545.41
413.31	543.83
413.687	558.74
414.065	547.44
414.442	578.18
414.819	585.18
415.197	585.63
415.574	604.84
415.951	630.6
416.328	630.15
416.705	595.8
417.082	633.09
417.46	634.22
417.837	653.2
418.214	638.74
418.591	666.99
418.967	691.85
419.344	685.97
419.721	687.33
420.098	666.76
420.475	690.49
420.852	700.66
421.228	728
421.605	720.32
421.982	723.26
422.358	729.13
422.735	753.77
423.111	744.05
423.488	777.49
423.864	768.23
424.241	785.18
424.617	796.48
424.994	786.31
425.37	801.9
425.746	805.29
426.123	822.46
426.499	828.11
426.875	839.86
427.251	836.25
427.627	873.31
428.003	869.02
428.379	846.19
428.756	876.25
429.132	906.76
429.507	916.7
429.883	942.24
430.259	950.82
430.635	942.91
431.011	941.78
431.387	966.64
431.763	1009.58
432.138	1009.13
432.514	1007.77
432.89	1003.25
433.265	1019.52
433.641	1029.46
434.016	1034.66
434.392	1051.16
434.767	1056.58
435.143	1064.49
435.518	1079.41
435.894	1096.81
436.269	1123.7
436.644	1131.61
437.02	1116.92
437.395	1135.45
437.77	1181.78
438.145	1160.08
438.52	1189.23
438.895	1193.08
439.271	1179.07
439.646	1222
440.021	1230.36
440.395	1193.08
440.77	1186.75
441.145	1237.82
441.52	1259.97
441.895	1235.56
442.27	1256.58
442.645	1243.7
443.019	1252.74
443.394	1273.07
443.769	1270.59
444.143	1262.68
444.518	1263.58
444.892	1264.71
445.267	1290.02
445.641	1284.82
446.016	1321.89
446.39	1304.03
446.764	1312.39
447.139	1298.84
447.513	1328.21
447.887	1329.8
448.262	1319.85
448.636	1363.02
449.01	1324.6
449.384	1359.17
449.758	1353.07
450.132	1346.74
450.506	1381.77
450.88	1380.19
451.254	1386.52
451.628	1367.76
452.002	1395.33
452.376	1397.82
452.75	1407.31
453.123	1433.52
453.497	1424.26
453.871	1454.76
454.244	1460.87
454.618	1449.34
454.992	1463.35
455.365	1466.52
455.739	1494.76
456.112	1485.72
456.486	1535.89
456.859	1512.62
457.232	1581.54
457.606	1529.79
457.979	1525.27
458.352	1578.15
458.725	1569.56
459.099	1582.22
459.472	1630.13
459.845	1605.72
460.218	1643.01
460.591	1614.76
460.964	1633.06
461.337	1620.86
461.71	1680.97
462.083	1701.99
462.456	1671.93
462.829	1685.49
463.201	1709.67
463.574	1711.25
463.947	1708.09
464.32	1748.32
464.692	1780.41
465.065	1757.81
465.438	1791.48
465.81	1783.57
466.183	1794.19
466.555	1850.46
466.928	1842.55
467.3	1851.14
467.672	1836.67
468.045	1870.12
468.417	1901.53
468.789	1881.87
469.161	1940.4
469.534	1935.66
469.906	1958.48
470.278	1961.64
470.65	1964.13
471.022	1995.77
471.394	2038.25
471.766	2043.68
472.138	2054.52
472.51	2118.93
472.882	2113.73
473.253	2109.66
473.625	2148.76
473.997	2176.55
474.369	2209.77
474.74	2211.13
475.112	2210.68
475.484	2257.91
475.855	2276.66
476.227	2301.3
476.598	2311.46
476.97	2358.7
477.341	2355.76
477.713	2405.93
478.084	2386.94
478.455	2472.59
478.827	2479.37
479.198	2509.43
479.569	2523.89
479.94	2550.33
480.311	2538.58
480.682	2588.52
481.053	2651.12
481.424	2667.39
481.795	2664.68
482.166	2685.92
482.537	2701.51
482.908	2783.54
483.279	2775.18
483.65	2826.71
484.021	2829.64
484.391	2870.55
484.762	2890.43
485.133	2925.23
485.503	2901.73
485.874	2944.89
486.244	2962.75
486.615	3027.38
486.985	3045.91
487.356	3060.6
487.726	3117.32
488.097	3140.6
488.467	3139.01
488.837	3189.41
489.207	3223.76
489.578	3255.39
489.948	3242.06
490.318	3285.22
490.688	3268.28
491.058	3372.45
491.428	3371.32
491.798	3395.5
492.168	3497.2
492.538	3452
492.908	3434.37
493.278	3479.34
493.648	3481.38
494.017	3536.29
494.387	3534.71
494.757	3556.86
495.126	3603.63
495.496	3605.44
495.866	3653.58
496.235	3656.97
496.605	3693.58
496.974	3677.76
497.344	3737.19
497.713	3680.92
498.082	3733.8
498.452	3746.68
498.821	3731.99
499.19	3769.96
499.559	3796.62
499.928	3809.28
500.298	3845.66
500.667	3860.8
501.036	3859.67
501.405	3896.96
501.774	3893.12
502.143	3919.11
502.512	3869.39
502.88	3879.56
503.249	3913.46
503.618	3931.31
503.987	3968.6
504.356	3937.86
504.724	3978.09
505.093	3997.3
505.462	3978.77
505.83	4025.54
506.199	4042.27
506.567	4077.07
506.936	4085.66
507.304	4117.74
507.672	4119.78
508.041	4106.9
508.409	4142.83
508.777	4166.11
509.145	4196.16
509.514	4169.04
509.882	4202.04
510.25	4194.8
510.618	4199.55
510.986	4220.34
511.354	4264.41
511.722	4271.87
512.09	4242.04
512.458	4242.49
512.826	4309.15
513.193	4331.3
513.561	4328.13
513.929	4362.71
514.297	4398.64
514.664	4346.67
515.032	4388.47
515.4	4376.72
515.767	4409.94
516.135	4396.61
516.502	4389.15
516.869	4421.24
517.237	4431.18
517.604	4411.07
517.972	4461.01
518.339	4503.72
518.706	4441.58
519.073	4488.58
519.44	4510.95
519.808	4555.25
520.175	4555.7
520.542	4555.47
520.909	4583.95
521.276	4573.1
521.643	4589.37
522.009	4606.55
522.376	4638.41
522.743	4594.57
523.11	4690.84
523.477	4697.39
523.843	4702.59
524.21	4788.01
524.577	4771.96
524.943	4756.82
525.31	4813.09
525.676	4824.39
526.043	4829.14
526.409	4833.88
526.776	4903.03
527.142	4901.91
527.508	4919.98
527.874	4940.55
528.241	5004.28
528.607	5007.44
528.973	5049.47
529.339	4970.38
529.705	5071.39
530.071	5084.05
530.437	5103.26
530.803	5122.69
531.169	5154.78
531.535	5169.24
531.901	5174.44
532.267	5206.08
532.632	5269.8
532.998	5273.87
533.364	5255.57
533.73	5215.57
534.095	5351.16
534.461	5330.82
534.826	5308.22
535.192	5367.88
535.557	5491.04
535.923	5432.06
536.288	5378.5
536.653	5428.67
537.019	5376.47
537.384	5452.85
537.749	5477.48
538.114	5510.93
538.479	5532.4
538.845	5549.35
539.21	5565.62
539.575	5594.32
539.94	5587.76
540.305	5665.05
540.67	5596.35
541.034	5733.07
541.399	5695.78
541.764	5703.24
542.129	5719.96
542.494	5806.97
542.858	5795.44
543.223	5823.01
543.587	5837.25
543.952	5866.4
544.316	5844.93
544.681	5874.08
545.045	5938.71
545.41	5937.58
545.774	5909.79
546.138	5963.35
546.503	6061.2
546.867	6003.8
547.231	6027.75
547.595	6060.29
547.959	6092.83
548.324	6146.17
548.688	6058.26
549.052	6120.18
549.416	6158.82
549.779	6183
550.143	6165.6
550.507	6239.72
550.871	6263.23
551.235	6277.69
551.599	6318.36
551.962	6315.2
552.326	6363.79
552.689	6314.07
553.053	6375.31
553.417	6352.71
553.78	6438.14
554.143	6371.02
554.507	6420.74
554.87	6468.87
555.234	6464.12
555.597	6510.9
555.96	6496.89
556.323	6483.33
556.686	6530.11
557.05	6561.75
557.413	6578.25
557.776	6574.63
558.139	6634.97
558.502	6639.71
558.865	6629.54
559.228	6637.45
559.59	6772.14
559.953	6689.43
560.316	6789.99
560.679	6813.04
561.041	6792.93
561.404	6832.48
561.767	6884
562.129	6828.86
562.492	6861.85
562.854	6910.89
563.217	6856.66
563.579	6893.94
563.941	6935.3
564.304	6970.78
564.666	6992.92
565.028	7037.22
565.39	7037.89
565.753	7096.88
566.115	7030.66
566.477	7116.99
566.839	7100.49
567.201	7162.86
567.563	7161.73
567.925	7236.98
568.287	7230.21
568.648	7266.36
569.01	7303.2
569.372	7305.91
569.734	7358.34
570.095	7430.88
570.457	7419.35
570.819	7451.22
571.18	7475.17
571.542	7519.24
571.903	7571.67
572.265	7613.92
572.626	7670.19
572.987	7707.03
573.349	7668.16
573.71	7777.31
574.071	7788.38
574.432	7844.65
574.794	7963.07
575.155	7999.45
575.516	7987.47
575.877	8084.65
576.238	8141.59
576.599	8213.23
576.96	8286.9
577.32	8361.93
577.681	8444.18
578.042	8521.02
578.403	8546.55
578.763	8656.16
579.124	8750.39
579.485	8829.49
579.845	8972.08
580.206	9079.87
580.566	9202.36
580.927	9321.9
581.287	9396.7
581.648	9566.64
582.008	9718.95
582.368	9804.6
582.728	10013.64
583.089	10162.33
583.449	10272.16
583.809	10494.07
584.169	10676.89
584.529	10728.87
584.889	11066.94
585.249	11197.56
585.609	11298.57
585.969	11624.44
586.329	11700.14
586.688	11988.72
587.048	12217.64
587.408	12398.21
587.768	12599.33
588.127	12795.03
588.487	13093.33
588.846	13366.77
589.206	13455.8
589.565	13774.44
589.925	14134.88
590.284	14299.85
590.643	14698.71
591.003	14993.84
591.362	15143.22
591.721	15349.54
592.08	15756.99
592.44	16082.4
592.799	16333.24
593.158	16622.73
593.517	16830.4
593.876	17171.19
594.235	17426.77
594.593	17694.79
594.952	18016.81
595.311	18269.01
595.67	18665.61
596.029	19056.34
596.387	19267.18
596.746	19637.79
597.104	19698.8
597.463	20065.35
597.822	20414.04
598.18	20626.92
598.538	20935.38
598.897	21292.66
599.255	21477.74
599.613	21952.76
599.972	22117.05
600.33	22455.79
600.688	22612.85
601.046	22938.27
601.404	23322.21
601.762	23551.36
602.12	23858.24
602.478	24195.63
602.836	24386.14
603.194	24489.41
603.552	24895.5
603.91	24973.69
604.268	25247.81
604.625	25498.88
604.983	25976.38
605.341	26044.4
605.698	26359.65
606.056	26568.91
606.413	26818.16
606.771	27148.1
607.128	27316.91
607.485	27469
607.843	27746.95
608.2	28000.51
608.557	28319.37
608.914	28416.77
609.272	28654.05
609.629	28958.9
609.986	29289.29
610.343	29164.09
610.7	29661.03
611.057	29801.82
611.414	29918.87
611.771	30224.18
612.127	30359.31
612.484	30466.88
612.841	30761.79
613.198	30856.25
613.554	31001.78
613.911	31302.11
614.267	31401.1
614.624	31558.15
614.98	31646.06
615.337	32039.27
615.693	32088.08
616.05	32101.42
616.406	32406.49
616.762	32479.94
617.118	32646.26
617.475	32764.68
617.831	32980.04
618.187	33130.54
618.543	33173.48
618.899	33493.24
619.255	33532.11
619.611	33474.71
619.967	33819.79
620.323	34088.26
620.678	33927.81
621.034	34120.8
621.39	34174.58
621.746	34149.72
622.101	34627
622.457	34484.4
622.812	34632.2
623.168	34812.98
623.523	34860.67
623.879	35022.02
624.234	34938.86
624.589	35066.99
624.945	35187.44
625.3	35368.67
625.655	35347.88
626.01	35410.26
626.365	35513.76
626.72	35520.53
627.075	35595.56
627.43	35578.84
627.785	35655.67
628.14	35778.61
628.495	35758.27
628.85	35707.87
629.205	35680.3
629.559	36017.47
629.914	35819.51
630.269	36185.38
630.623	35936.34
630.978	35924.59
631.332	36066.51
631.687	36233.28
632.041	36087.75
632.396	36102.21
632.75	36050.01
633.104	36197.35
633.459	35946.74
633.813	36191.48
634.167	36119.16
634.521	36096.11
634.875	36180.63
635.229	36110.12
635.583	36118.71
635.937	36215.88
636.291	36164.81
636.645	36275.77
636.999	36216.11
637.352	36196.22
637.706	36017.02
638.06	36265.37
638.413	36165.04
638.767	36117.58
639.121	36190.57
639.474	35979.96
639.828	36114.64
640.181	36158.03
640.534	36133.85
640.888	36125.26
641.241	35982.22
641.594	35926.17
641.947	36212.72
642.301	36247.3
642.654	36012.5
643.007	36101.54
643.36	36178.37
643.713	36015.66
644.066	36319.84
644.419	35931.82
644.771	35819.28
645.124	35379.97
645.477	35439.18
645.83	35191.73
646.182	35071.06
646.535	35109.7
646.888	35155.8
647.24	34956.48
647.593	34996.71
647.945	35061.56
648.298	34956.93
648.65	34821.34
649.002	34852.3
649.355	35090.72
649.707	34918.97
650.059	35014.33
650.411	35482.34
650.763	35463.81
651.115	35876.23
651.467	35815.89
651.819	35817.7
652.171	35716.24
652.523	35573.87
652.875	35711.72
653.227	35639.18
653.578	35825.61
653.93	35666.52
654.282	35618.39
654.633	35518.28
654.985	35670.59
655.337	35651.83
655.688	35616.8
656.039	35702
656.391	35537.48
656.742	35542.91
657.094	35591.72
657.445	35673.07
657.796	35563.92
658.147	35532.29
658.498	35494.77
658.849	35633.75
659.2	35598.95
659.551	35353.08
659.902	35626.97
660.253	35521.89
660.604	35520.53
660.955	35287.77
661.306	35633.3
661.656	35510.37
662.007	35458.84
662.358	35508.56
662.708	35462.91
663.059	35460.65
663.409	35120.77
663.76	35496.58
664.11	35496.81
664.461	35449.12
664.811	35612.06
665.161	35459.75
665.511	35400.76
665.862	35461.33
666.212	35584.71
666.562	35527.77
666.912	35379.52
667.262	35501.55
667.612	35383.82
667.962	35495.22
668.312	35337.04
668.662	35535.45
669.011	35464.49
669.361	35252.97
669.711	35407.09
670.06	35376.13
670.41	35255.46
670.76	35187.66
671.109	35250.94
671.459	35296.81
671.808	35179.98
672.157	35237.15
672.507	35143.6
672.856	35035.8
673.205	35189.92
673.554	35262.46
673.904	35117.83
674.253	35385.62
674.602	35157.38
674.951	34611.41
675.3	34554.23
675.649	35064.73
675.998	35099.98
676.346	35108.34
676.695	35110.83
677.044	34879.87
677.393	34944.96
677.741	35173.43
678.09	35019.76
678.438	34834.9
678.787	34854.11
679.135	34814.56
679.484	34693.66
679.832	34674.91
680.181	34600.11
680.529	34695.47
680.877	34514.91
681.225	34561.24
681.573	34618.86
681.922	34569.37
682.27	34468.81
682.618	34487.79
682.966	34422.26
683.314	34399.43
683.661	34470.85
684.009	34206.45
684.357	34198.31
684.705	34106.56
685.053	34178.2
685.4	34056.62
685.748	34007.81
686.095	33868.6
686.443	33790.41
686.79	33796.51
687.138	33782.73
687.485	33912.44
687.832	33676.06
688.18	33542.51
688.527	33420.03
688.874	33530.3
689.221	33409.4
689.568	33332.12
689.915	33250.31
690.262	33138
690.609	33078.11
690.956	33101.62
691.303	33031.56
691.65	32837.22
691.997	32961.73
692.344	32642.19
692.69	32740.5
693.037	32773.94
693.383	32454.85
693.73	32617.33
694.077	32469.54
694.423	32412.37
694.769	32165.82
695.116	32187.97
695.462	32150.23
695.808	31986.16
696.155	32104.58
696.501	31935.54
696.847	31927.86
697.193	31729.45
697.539	31774.19
697.885	31481.77
698.231	31457.59
698.577	31521.32
698.923	31347.09
699.269	31166.53
699.614	31055.57
699.96	31077.71
700.306	31049.92
700.651	30977.38
700.997	30784.84
701.342	30930.83
701.688	30696.71
702.033	30629.59
702.379	30652.64
702.724	30441.57
703.069	30584.85
703.415	30190.96
703.76	30195.48
704.105	30296.94
704.45	30123.84
704.795	29947.12
705.14	29944.86
705.485	29837.75
705.83	29771.08
706.175	29803.62
706.52	29669.16
706.865	29572.89
707.209	29613.35
707.554	29414.25
707.899	29543.97
708.243	29510.98
708.588	29270.08
708.932	29120.25
709.277	29140.36
709.621	28995.06
709.966	28886.13
710.31	28935.85
710.654	28748.51
710.998	28952.12
711.342	28818.34
711.687	28782.41
712.031	28675.97
712.375	28543.09
712.719	28518.01
713.063	28591.23
713.407	28575.18
713.75	28473.49
714.094	28435.75
714.438	28240.27
714.782	28373.38
715.125	28196.21
715.469	28295.64
715.812	28015.2
716.156	27955.76
716.499	28068.98
716.843	27982.88
717.186	27709.67
717.53	27983.33
717.873	27930.68
718.216	27749.44
718.559	27657.01
718.902	27428.77
719.246	27483.91
719.589	27429.22
719.932	27404.36
720.275	27296.34
720.617	27351.26
720.96	27389
721.303	27382.44
721.646	27279.62
721.989	27254.31
722.331	27094.99
722.674	27111.94
723.016	27169.57
723.359	27131.6
723.701	27105.16
724.044	26880.31
724.386	26698.17
724.729	26914.21
725.071	26793.08
725.413	26850.93
725.755	26782.01
726.097	26668.11
726.439	26509.7
726.782	26624.95
727.124	26630.15
727.465	26498.17
727.807	26450.72
728.149	26438.29
728.491	26408.23
728.833	26506.08
729.175	26419.76
729.516	26336.37
729.858	26246.88
730.199	26184.06
730.541	26238.52
730.882	26205.75
731.224	26218.86
731.565	26024.06
731.906	26094.57
732.248	26110.61
732.589	25946.32
732.93	25916.04
733.271	25966.44
733.612	25909.04
733.953	25941.35
734.294	25776.16
734.635	25694.13
734.976	25855.25
735.317	25694.8
735.658	25631.98
735.999	25529.16
736.339	25572.77
736.68	25662.94
737.021	25564.86
737.361	25379.78
737.702	25595.82
738.042	25544.3
738.383	25520.57
738.723	25459.1
739.063	25288.04
739.404	25355.6
739.744	25266.34
740.084	25146.34
740.424	25154.03
740.764	25183.86
741.104	25298.88
741.444	25112.9
741.784	25060.47
742.124	25094.14
742.464	25088.27
742.804	25032.45
743.143	24920.14
743.483	24961.72
743.823	24856.63
744.162	24888.05
744.502	24862.96
744.841	24886.01
745.181	24904.32
745.52	24666.13
745.86	24822.96
746.199	24775.51
746.538	24667.26
746.877	24781.61
747.216	24732.12
747.556	24705.45
747.895	24734.6
748.234	24510.2
748.573	24538.68
748.911	24457.55
749.25	24542.07
749.589	24478.34
749.928	24401.73
750.267	24429.98
750.605	24413.71
750.944	24412.35
751.283	24360.83
751.621	24332.81
751.96	24235.86
752.298	24293.03
752.636	24296.2
752.975	24128.74
753.313	24098.01
753.651	24202.64
753.989	24121.06
754.327	24037.9
754.666	23856.89
755.004	23979.14
755.342	23918.81
755.679	23844.68
756.017	23838.36
756.355	23824.35
756.693	23704.8
757.031	23782.99
757.368	23694.86
757.706	23731.69
758.044	23540.06
758.381	23735.53
758.719	23515.65
759.056	23518.36
759.394	23486.05
759.731	23340.29
760.068	23211.03
760.405	23254.42
760.743	23228.88
761.08	23310.46
761.417	23083.12
761.754	23073.18
762.091	23148.66
762.428	22966.97
762.765	22771.94
763.102	22980.07
763.438	22865.95
763.775	22791.15
764.112	22707.76
764.449	22843.35
764.785	22754.32
765.122	22619.18
765.458	22491.72
765.795	22409.24
766.131	22470.71
766.467	22217.61
766.804	22197.27
767.14	22273.2
767.476	22234.33
767.812	22089.48
768.148	22099.42
768.485	21873.66
768.821	21882.7
769.157	21800.22
769.492	21805.87
769.828	21684.74
770.164	21509.6
770.5	21588.47
770.836	21492.88
771.171	21278.2
771.507	21377.63
771.842	21145.09
772.178	21139.9
772.513	21102.61
772.849	21132.89
773.184	20992.1
773.519	20831.66
773.855	20803.63
774.19	20800.24
774.525	20713.47
774.86	20704.88
775.195	20649.97
775.53	20457.43
775.865	20449.52
776.2	20259.02
776.535	20181.05
776.87	20193.25
777.205	20099.7
777.539	20038.68
777.874	20019.7
778.209	19854.05
778.543	19797.78
778.878	19670.1
779.212	19717.56
779.547	19541.97
779.881	19647.05
780.215	19476.44
780.55	19488.64
780.884	19332.49
781.218	19301.75
781.552	19298.59
781.886	19159.84
782.22	19065.37
782.554	19064.02
782.888	18915.77
783.222	18793.52
783.556	18733.41
783.889	18805.04
784.223	18600.53
784.557	18494.54
784.89	18586.52
785.224	18490.25
785.557	18397.82
785.891	18323.02
786.224	18226.07
786.558	18165.29
786.891	18061.33
787.224	17966.87
787.557	17969.81
787.891	17934.78
788.224	17884.16
788.557	17831.96
788.89	17808.01
789.223	17835.35
789.556	17679.42
789.888	17604.85
790.221	17590.84
790.554	17447.79
790.887	17440.56
791.219	17291.64
791.552	17250.05
791.884	17238.53
792.217	17234.91
792.549	17095.03
792.882	17012.32
793.214	16931.42
793.546	16994.02
793.879	16801.03
794.211	16724.87
794.543	16912.21
794.875	16690.75
795.207	16727.13
795.539	16612.33
795.871	16677.41
796.203	16363.07
796.535	16380.93
796.867	16337.31
797.198	16358.55
797.53	16301.38
797.862	16194.04
798.193	16208.05
798.525	16124.66
798.856	16125.79
799.188	15999.47
799.519	15918.34
799.85	15832.24
800.182	15837.44
800.513	15893.93
800.844	15739.36
801.175	15765.57
801.506	15761.73
801.837	15668.63
802.168	15666.37
802.499	15616.65
802.83	15436.54
803.161	15411.23
803.491	15453.72
803.822	15425.92
804.153	15324.91
804.483	15283.55
804.814	15193.61
805.145	15114.52
805.475	15166.49
805.805	15150.68
806.136	15142.09
806.466	15114.29
806.796	14968.76
807.126	14870.68
807.457	14942.54
807.787	14872.26
808.117	14844.92
808.447	14767.41
808.777	14786.16
809.107	14674.53
809.436	14644.7
809.766	14694.19
810.096	14578.71
810.426	14500.52
810.755	14447.19
811.085	14450.35
811.414	14472.73
811.744	14268.66
812.073	14222.34
812.403	14271.83
812.732	14195.67
813.061	14207.88
813.39	14141.44
813.719	14171.49
814.049	14213.07
814.378	14039.07
814.707	14080.42
815.036	13960.42
815.365	13931.27
815.693	13794.1
816.022	13877.71
816.351	13770.82
816.68	13715.46
817.008	13866.42
817.337	13675.46
817.665	13689.02
817.994	13733.54
818.322	13688.57
818.651	13606.08
818.979	13502.81
819.307	13604.28
819.636	13555.46
819.964	13409.48
820.292	13380.78
820.62	13501.23
820.948	13461
821.276	13427.56
821.604	13405.41
821.932	13460.1
822.259	13414.22
822.587	13374.68
822.915	13342.59
823.243	13355.02
823.57	13367.67
823.898	13381.68
824.225	13304.85
824.553	13270.05
824.88	13372.42
825.207	13356.82
825.535	13389.82
825.862	13340.33
826.189	13316.37
826.516	13485.41
826.843	13364.96
827.17	13344.85
827.497	13333.55
827.824	13310.27
828.151	13312.53
828.478	13299.65
828.805	13367.67
829.131	13274.57
829.458	13205.19
829.785	13176.94
830.111	13178.3
830.438	13341.01
830.764	13290.61
831.09	13353.43
831.417	13279.99
831.743	13308.46
832.069	13258.97
832.395	13192.76
832.722	13205.87
833.048	13119.09
833.374	13205.64
833.7	13081.8
834.026	13144.63
834.351	13214.91
834.677	13196.38
835.003	13149.37
835.329	13034.8
835.654	13110.95
835.98	13030.05
836.306	13036.38
836.631	13006.55
836.956	13100.56
837.282	13043.16
837.607	12952.99
837.932	12985.99
838.258	12954.8
838.583	12992.09
838.908	12789.38
839.233	12958.64
839.558	12793.22
839.883	12774.69
840.208	12736.05
840.533	12755.94
840.858	12783.96
841.182	12767.23
841.507	12814.24
841.832	12693.56
842.156	12641.59
842.481	12619.89
842.805	12626.45
843.13	12682.94
843.454	12613.11
843.778	12490.86
844.103	12475.94
844.427	12434.36
844.751	12506.45
845.075	12430.97
845.399	12318.89
845.723	12304.42
846.047	12225.1
846.371	12134.94
846.695	12200.24
847.019	12079.8
847.343	12102.85
847.666	12024.2
847.99	11875.51
848.313	11920.93
848.637	11829.18
848.96	11791.22
849.284	11741.05
849.607	11756.87
849.931	11756.64
850.254	11569.98
850.577	11541.73
850.9	11470.32
851.223	11483.43
851.546	11392.36
851.869	11355.29
852.192	11412.24
852.515	11245.47
852.838	11216.32
853.161	11209.76
853.483	11154.4
853.806	11135.19
854.129	11141.06
854.451	11068.07
854.774	11050.67
855.096	10972.71
855.419	10964.34
855.741	10994.63
856.063	10947.62
856.385	10894.97
856.708	10897.68
857.03	10844.57
857.352	10793.5
857.674	10662.66
857.996	10726.61
858.318	10618.14
858.64	10647.97
858.961	10608.2
859.283	10522.77
859.605	10521.64
859.926	10578.82
860.248	10582.21
860.57	10512.83
860.891	10426.51
861.212	10434.41
861.534	10388.77
861.855	10380.18
862.176	10421.99
862.498	10377.69
862.819	10348.99
863.14	10303.12
863.461	10217.7
863.782	10273.74
864.103	10295.21
864.424	10150.81
864.745	10190.35
865.065	10185.38
865.386	10157.81
865.707	10147.64
866.027	10119.39
866.348	10109.45
866.668	10084.82
866.989	10035.33
867.309	10070.81
867.63	10082.56
867.95	10024.48
868.27	9915.11
868.59	9969.12
868.91	9933.41
869.23	9976.35
869.55	9905.39
869.87	9934.09
870.19	9908.78
870.51	9897.48
870.83	9905.84
871.15	9790.14
871.469	9822
871.789	9878.27
872.109	9864.03
872.428	9813.19
872.748	9803.25
873.067	9845.5
873.386	9804.37
873.706	9735.22
874.025	9744.72
874.344	9696.13
874.663	9724.83
874.982	9693.19
875.301	9704.72
875.62	9643.48
875.939	9534.33
876.258	9644.61
876.577	9593.31
876.896	9546.53
877.214	9470.15
877.533	9485.06
877.852	9529.81
878.17	9489.58
878.489	9489.36
878.807	9483.48
879.125	9478.73
879.444	9445.29
879.762	9449.58
880.08	9412.97
880.398	9368
880.716	9322.35
881.034	9268.8
881.352	9323.26
881.67	9337.95
881.988	9307.66
882.306	9289.13
882.624	9245.75
882.941	9187.22
883.259	9182.47
883.577	9147.22
883.894	9215.92
884.212	9177.5
884.529	9192.64
884.846	9076.26
885.164	9066.77
885.481	9046.65
885.798	9080.55
886.115	8986.32
886.432	8946.32
886.75	8965.53
887.067	8929.6
887.383	8885.53
887.7	8967.11
888.017	8859.32
888.334	8873.78
888.651	8834.23
888.967	8831.29
889.284	8810.28
889.6	8779.77
889.917	8685.53
890.233	8735.93
890.55	8723.27
890.866	8699.09
891.182	8644.18
891.498	8595.14
891.815	8542.49
892.131	8529.38
892.447	8489.16
892.763	8476.73
893.079	8491.42
893.395	8537.97
893.71	8468.59
894.026	8449.16
894.342	8328.48
894.657	8312.21
894.973	8339.33
895.289	8348.14
895.604	8310.18
895.92	8199.45
896.235	8184.3
896.55	8222.27
896.865	8184.76
897.181	8202.84
897.496	8131.2
897.811	8083.29
898.126	8107.24
898.441	8072.67
898.756	8072.22
899.071	7978.89
899.386	7989.06
899.7	7897.76
900.015	7883.52
900.33	7788.61
900.644	7836.07
900.959	7868.83
901.273	7822.73
901.588	7748.38
901.902	7715.84
902.216	7681.72
902.531	7640.14
902.845	7631.55
903.159	7664.09
903.473	7572.8
903.787	7535.73
904.101	7551.33
904.415	7477.88
904.729	7412.35
905.042	7360.37
905.356	7406.47
905.67	7376.64
905.984	7370.09
906.297	7361.05
906.611	7300.49
906.924	7262.07
907.237	7276.31
907.551	7221.62
907.864	7226.14
908.177	7157.89
908.491	7134.16
908.804	7089.64
909.117	7042.41
909.43	7053.03
909.743	7023.21
910.056	7014.39
910.368	6990.89
910.681	6935.3
910.994	6982.53
911.307	6919.93
911.619	6804.23
911.932	6862.31
912.244	6773.04
912.557	6779.37
912.869	6774.62
913.181	6728.07
913.494	6680.16
913.806	6612.14
914.118	6609.2
914.43	6574.86
914.742	6605.59
915.054	6538.47
915.366	6514.29
915.678	6494.18
915.99	6466.84
916.302	6460.06
916.613	6415.09
916.925	6382.54
917.236	6402.2
917.548	6319.95
917.859	6310.46
918.171	6272.26
918.482	6290.34
918.794	6215.32
919.105	6201.76
919.416	6138.48
919.727	6138.48
920.038	6105.26
920.349	6103
920.66	6074.53
920.971	6061.65
921.282	6045.38
921.593	5941.65
921.903	5965.61
922.214	5950.01
922.525	5927.64
922.835	5919.05
923.146	5837.93
923.456	5851.94
923.767	5845.83
924.077	5832.95
924.387	5742.79
924.697	5747.31
925.008	5777.59
925.318	5710.7
925.628	5704.37
925.938	5667.53
926.248	5631.83
926.558	5586.63
926.867	5564.26
927.177	5544.83
927.487	5597.71
927.796	5479.29
928.106	5499.18
928.416	5505.73
928.725	5497.37
929.034	5412.17
929.344	5403.59
929.653	5420.76
929.962	5345.74
930.271	5348.22
930.581	5295.12
930.89	5297.37
931.199	5268.68
931.508	5253.08
931.817	5209.02
932.125	5215.12
932.434	5132.41
932.743	5176.02
933.051	5143.93
933.36	5098.74
933.669	5067.1
933.977	5078.4
934.286	5038.62
934.594	4999.98
934.902	4969.7
935.21	4942.36
935.519	4955.24
935.827	4936.48
936.135	4905.07
936.443	4920.21
936.751	4860.32
937.059	4814.9
937.367	4808.35
937.674	4830.49
937.982	4806.99
938.29	4765.86
938.597	4738.07
938.905	4686.54
939.213	4706.66
939.52	4690.39
939.827	4671.63
940.135	4656.26
940.442	4634.34
940.749	4609.03
941.056	4587.79
941.363	4532.42
941.67	4537.85
941.977	4498.3
942.284	4498.3
942.591	4495.81
942.898	4502.14
943.205	4486.77
943.511	4451.52
943.818	4454.23
944.125	4400.45
944.431	4384.4
944.738	4302.82
945.044	4365.87
945.35	4303.73
945.657	4275.71
945.963	4296.27
946.269	4294.24
946.575	4228.02
946.881	4216.05
947.187	4243.39
947.493	4190.74
947.799	4164.98
948.105	4174.01
948.41	4122.49
948.716	4111.42
949.022	4134.24
949.327	4119.1
949.633	4064.19
949.938	4039.33
950.244	4034.13
950.549	4030.06
950.854	4028.26
951.16	4014.92
951.465	3955.04
951.77	3898.32
952.075	3891.99
952.38	3880.01
952.685	3946.45
952.99	3884.98
953.294	3872.1
953.599	3839.11
953.904	3807.92
954.209	3820.13
954.513	3765.66
954.818	3810.63
955.122	3778.77
955.426	3757.75
955.731	3730.86
956.035	3686.8
956.339	3713.46
956.643	3683.41
956.948	3611.54
957.252	3645.21
957.556	3679.56
957.86	3619.9
958.163	3626.46
958.467	3590.98
958.771	3580.36
959.075	3515.73
959.378	3525.44
959.682	3501.49
959.985	3524.99
960.289	3485.22
960.592	3463.98
960.896	3457.88
961.199	3449.97
961.502	3409.06
961.805	3422.85
962.108	3421.94
962.411	3350.99
962.714	3365
963.017	3357.09
963.32	3337.2
963.623	3348.73
963.926	3338.1
964.228	3287.26
964.531	3271.89
964.833	3310.31
965.136	3256.3
965.438	3212.68
965.741	3218.79
966.043	3208.39
966.345	3204.1
966.648	3184.66
966.95	3189.41
967.252	3174.49
967.554	3148.05
967.856	3140.14
968.158	3124.55
968.46	3080.71
968.761	3080.48
969.063	3090.65
969.365	3101.27
969.666	3030.54
969.968	3008.85
970.269	3005.46
970.571	3007.27
970.872	2979.92
971.174	3002.75
971.475	2979.92
971.776	2963.65
972.077	2964.78
972.378	2955.52
972.679	2895.63
972.98	2944.44
973.281	2921.17
973.582	2882.52
973.883	2866.48
974.183	2847.27
974.484	2858.57
974.785	2815.86
975.085	2828.74
975.386	2810.66
975.686	2762.3
975.986	2777.89
976.287	2782.41
976.587	2765.92
976.887	2768.63
977.187	2743.09
977.487	2738.8
977.787	2751
978.087	2664.9
978.387	2680.04
978.687	2675.97
978.987	2691.34
979.286	2636.88
979.586	2628.07
979.885	2643.89
980.185	2640.27
980.484	2607.5
980.784	2592.14
981.083	2567.05
981.382	2579.25
981.682	2576.54
981.981	2566.6
982.28	2558.24
982.579	2530.22
982.878	2550.55
983.177	2468.07
983.475	2466.94
983.774	2473.95
984.073	2454.96
984.372	2463.55
984.67	2440.5
984.969	2440.5
985.267	2423.33
985.566	2440.27
985.864	2402.76
986.162	2413.83
986.461	2388.98
986.759	2367.51
987.057	2338.58
987.355	2348.53
987.653	2329.77
987.951	2343.55
988.249	2340.39
988.547	2341.07
988.844	2333.16
989.142	2284.8
989.44	2258.58
989.737	2277.57
990.035	2264.69
990.332	2231.92
990.63	2227.63
990.927	2251.35
991.224	2215.87
991.521	2196.89
991.819	2219.94
992.116	2192.6
992.413	2178.13
992.71	2176.1
993.006	2149.66
993.303	2154.86
993.6	2125.71
993.897	2134.75
994.193	2121.64
994.49	2108.31
994.787	2065.82
995.083	2077.12
995.379	2053.17
995.676	2053.17
995.972	2058.36
996.268	2047.74
996.565	2055.65
996.861	2019.27
997.157	2029.44
997.453	2006.39
997.749	2000.96
998.044	2004.35
998.34	1978.37
998.636	2003.22
998.932	1949.44
999.227	1916.22
999.523	1912.15
999.818	1917.8
1000.114	1897.01
1000.409	1915.32
1000.704	1890.68
1001	1868.99
1001.295	1872.15
1001.59	1887.07
1001.885	1861.53
1002.18	1840.29
1002.475	1813.4
1002.77	1850.69
1003.065	1818.82
1003.359	1798.48
1003.654	1776.79
1003.949	1791.03
1004.243	1774.08
1004.538	1768.65
1004.832	1748.09
1005.127	1737.24
1005.421	1735.66
1005.715	1744.7
1006.009	1736.11
1006.304	1705.15
1006.598	1694.98
1006.892	1708.77
1007.186	1689.33
1007.48	1712.38
1007.773	1689.56
1008.067	1674.42
1008.361	1672.84
1008.655	1649.79
1008.948	1661.31
1009.242	1626.51
1009.535	1600.07
1009.829	1598.04
1010.122	1613.63
1010.415	1583.35
1010.708	1566.85
1011.001	1561.43
1011.295	1548.32
1011.588	1528.21
1011.881	1547.42
1012.173	1526.4
1012.466	1526.4
1012.759	1515.1
1013.052	1505.38
1013.344	1508.32
1013.637	1504.93
1013.93	1492.05
1014.222	1494.31
1014.514	1460.64
1014.807	1464.93
1015.099	1452.05
1015.391	1464.71
1015.683	1445.95
1015.976	1425.39
1016.268	1450.7
1016.56	1389.91
1016.851	1379.74
1017.143	1398.27
1017.435	1395.78
1017.727	1381.77
1018.018	1358.72
1018.31	1356.24
1018.602	1351.94
1018.893	1353.52
1019.185	1348.33
1019.476	1329.34
1019.767	1324.6
1020.058	1294.54
1020.35	1312.62
1020.641	1292.51
1020.932	1284.82
1021.223	1283.02
1021.514	1292.28
1021.804	1254.54
1022.095	1252.74
1022.386	1237.37
1022.677	1228.78
1022.967	1215.22
1023.258	1238.27
1023.548	1202.12
1023.839	1220.19
1024.129	1194.66
1024.419	1210.02
1024.709	1186.97
1025	1185.39
1025.29	1153.53
1025.58	1156.69
1025.87	1109.91
1026.16	1157.37
1026.449	1136.58
1026.739	1126.64
1027.029	1108.11
1027.319	1106.98
1027.608	1115.11
1027.898	1118.73
1028.187	1125.73
1028.477	1073.76
1028.766	1091.61
1029.055	1075.56
1029.344	1075.56
1029.634	1052.06
1029.923	1062.91
1030.212	1031.27
1030.501	1053.19
1030.79	1049.12
1031.078	1010.26
1031.367	1029.69
1031.656	1014.55
1031.945	1001.89
1032.233	1005.51
1032.522	997.15
1032.81	981.78
1033.099	984.72
1033.387	991.05
1033.675	960.99
1033.963	964.16
1034.251	1008.45
1034.54	957.83
1034.828	954.66
1035.116	952.63
1035.403	936.81
1035.691	931.84
1035.979	921.22
1036.267	907.89
1036.554	895.23
1036.842	914.89
1037.129	890.49
1037.417	900.43
1037.704	893.87
1037.992	885.06
1038.279	877.83
1038.566	875.12
1038.853	875.12
1039.14	875.12
