Data from hue_150_FLMS001491_00090.txt Node
Date: Tue Feb 07 16:54:40 GMT 2017
User: dcchb
Spectrometer: FLMS00149
Trigger mode: 0
Integration Time (sec): 2.000000E-2
Scans to average: 10
Electric dark correction enabled: true
Nonlinearity correction enabled: false
Boxcar width: 0
XAxis mode: Wavelengths
Number of Pixels in Spectrum: 2048
>>>>>Begin Spectral Data<<<<<
341.393	-15.49
341.776	-15.49
342.16	-15.49
342.543	-64.31
342.927	-63.18
343.31	-60.46
343.693	-83.51
344.077	-69.5
344.46	-50.07
344.843	-44.19
345.226	-34.93
345.61	-32.44
345.993	0.32
346.376	-17.08
346.759	6.65
347.142	5.75
347.525	58.4
347.908	72.19
348.291	78.29
348.674	81.45
349.057	89.14
349.44	103.15
349.823	138.4
350.206	153.99
350.588	198.96
350.971	204.16
351.354	217.72
351.737	228.12
352.119	234.22
352.502	266.53
352.884	272.41
353.267	271.05
353.65	281.22
354.032	305.85
354.414	306.53
354.797	305.18
355.179	302.92
355.562	313.54
355.944	337.49
356.326	347.43
356.709	335.46
357.091	313.54
357.473	349.02
357.855	346.08
358.238	309.92
358.62	337.72
359.002	332.07
359.384	340.43
359.766	322.58
360.148	342.69
360.53	318.73
360.912	329.36
361.294	324.84
361.676	349.92
362.057	331.84
362.439	342.91
362.821	323.25
363.203	319.41
363.584	340.88
363.966	320.54
364.348	308.34
364.729	331.84
365.111	335.46
365.493	323.93
365.874	302.92
366.256	308.34
366.637	321.67
367.019	315.8
367.4	309.47
367.781	306.53
368.163	305.63
368.544	288
368.925	294.1
369.306	308.11
369.688	308.79
370.069	316.7
370.45	319.19
370.831	297.72
371.212	337.04
371.593	297.49
371.974	306.08
372.355	308.11
372.736	312.41
373.117	310.37
373.498	314.44
373.879	307.89
374.26	320.77
374.641	329.36
375.021	312.18
375.402	317.38
375.783	347.21
376.163	315.57
376.544	311.5
376.925	311.05
377.305	320.09
377.686	330.94
378.066	330.71
378.447	321.67
378.827	321.45
379.208	332.75
379.588	332.97
379.968	309.47
380.349	330.49
380.729	329.81
381.109	335.23
381.489	334.55
381.87	325.74
382.25	360.99
382.63	341.11
383.01	342.01
383.39	343.59
383.77	335.01
384.15	331.39
384.53	350.82
384.91	351.95
385.29	337.49
385.67	340.2
386.049	367.77
386.429	334.55
386.809	335.46
387.189	356.47
387.568	360.32
387.948	361.45
388.328	370.26
388.707	364.16
389.087	351.05
389.466	372.29
389.846	370.03
390.225	372.74
390.605	395.79
390.984	375.23
391.363	367.32
391.743	387.89
392.122	382.46
392.501	385.63
392.881	360.54
393.26	381.56
393.639	383.37
394.018	361.22
394.397	398.05
394.776	380.65
395.155	399.18
395.534	383.14
395.913	370.94
396.292	399.18
396.671	385.17
397.05	385.17
397.429	388.56
397.808	410.03
398.186	384.95
398.565	374.1
398.944	397.15
399.323	393.31
399.701	412.97
400.08	429.01
400.458	426.98
400.837	424.95
401.215	416.36
401.594	401.22
401.972	412.07
402.351	414.1
402.729	410.48
403.107	407.55
403.486	426.53
403.864	429.24
404.242	416.81
404.62	446.41
404.999	408.68
405.377	433.53
405.755	429.47
406.133	427.88
406.511	442.57
406.889	430.14
407.267	456.13
407.645	442.57
408.023	449.13
408.401	458.39
408.779	449.35
409.156	475.57
409.534	462.23
409.912	454.1
410.29	457.04
410.667	441.44
411.045	475.11
411.422	494.78
411.8	485.06
412.178	481.89
412.555	482.8
412.933	473.53
413.31	508.56
413.687	492.97
414.065	486.87
414.442	473.76
414.819	505.62
415.197	495.91
415.574	499.97
415.951	509.69
416.328	531.84
416.705	516.02
417.082	510.59
417.46	535.23
417.837	547.88
418.214	537.03
418.591	552.17
418.967	532.29
419.344	549.24
419.721	546.07
420.098	555.56
420.475	550.37
420.852	546.98
421.228	553.76
421.605	570.71
421.982	548.79
422.358	583.59
422.735	572.51
423.111	577.94
423.488	601.89
423.864	580.2
424.241	595.56
424.617	594.89
424.994	608.9
425.37	618.16
425.746	608.44
426.123	615.68
426.499	634.66
426.875	640.08
427.251	639.18
427.627	643.02
428.003	621.1
428.379	654.54
428.756	640.99
429.132	666.07
429.507	685.96
429.883	665.62
430.259	661.55
430.635	670.59
431.011	694.09
431.387	675.79
431.763	719.63
432.138	712.62
432.514	708.1
432.89	726.41
433.265	747.2
433.641	748.78
434.016	730.7
434.392	747.42
434.767	748.1
435.143	758.72
435.518	754.2
435.894	765.73
436.269	778.61
436.644	802.11
437.02	790.59
437.395	780.19
437.77	807.31
438.145	792.85
438.52	829.68
438.895	830.13
439.271	820.64
439.646	838.95
440.021	850.25
440.395	836.01
440.77	860.64
441.145	851.83
441.52	885.95
441.895	854.54
442.27	864.71
442.645	878.72
443.019	893.18
443.394	888.89
443.769	900.19
444.143	923.69
444.518	912.84
444.892	909.23
445.267	922.33
445.641	924.82
446.016	939.28
446.39	939.96
446.764	935.22
447.139	936.12
447.513	950.13
447.887	965.05
448.262	963.24
448.636	956.68
449.01	985.16
449.384	1011.6
449.758	995.33
450.132	1018.38
450.506	1012.5
450.88	1037.13
451.254	1002.56
451.628	1044.59
452.002	1054.99
452.376	1052.27
452.75	1059.28
453.123	1054.76
453.497	1089.11
453.871	1111.03
454.244	1116
454.618	1091.82
454.992	1137.02
455.365	1154.19
455.739	1168.88
456.112	1169.11
456.486	1187.19
456.859	1166.17
457.232	1218.6
457.606	1214.76
457.979	1211.82
458.352	1261.08
458.725	1279.39
459.099	1293.62
459.472	1284.36
459.845	1310.12
460.218	1335.21
460.591	1330.91
460.964	1347.86
461.337	1358.26
461.71	1394.41
462.083	1387.18
462.456	1420.17
462.829	1425.37
463.201	1438.71
463.574	1468.99
463.947	1497.46
464.32	1501.75
464.692	1499.95
465.065	1547.85
465.438	1574.75
465.81	1607.06
466.183	1608.87
466.555	1659.49
466.928	1647.74
467.3	1671.24
467.672	1717.12
468.045	1768.87
468.417	1748.53
468.789	1767.06
469.161	1798.92
469.534	1857.9
469.906	1889.77
470.278	1897.22
470.65	1932.03
471.022	1951.69
471.394	2021.97
471.766	2085.24
472.138	2051.12
472.51	2122.98
472.882	2193.94
473.253	2187.61
473.625	2242.3
473.997	2318.46
474.369	2332.92
474.74	2381.51
475.112	2407.04
475.484	2499.69
475.855	2513.03
476.227	2593.25
476.598	2615.85
476.97	2706.92
477.341	2837.54
477.713	2849.97
478.084	2916.63
478.455	2984.43
478.827	3077.76
479.198	3147.81
479.569	3200.69
479.94	3296.06
480.311	3353.46
480.682	3447.69
481.053	3515.49
481.424	3641.36
481.795	3696.95
482.166	3816.04
482.537	3919.54
482.908	4020.11
483.279	4091.06
483.65	4206.32
484.021	4349.14
484.391	4415.12
484.762	4538.96
485.133	4604.05
485.503	4761.56
485.874	4911.38
486.244	4956.58
486.615	5128.78
486.985	5211.94
487.356	5373.06
487.726	5467.98
488.097	5569.9
488.467	5713.17
488.837	5914.97
489.207	6015.31
489.578	6114.97
489.948	6237.22
490.318	6373.04
490.688	6456.88
491.058	6611.22
491.428	6813.03
491.798	6873.59
492.168	7097.09
492.538	7141.83
492.908	7276.97
493.278	7483.97
493.648	7577.75
494.017	7674.7
494.387	7809.39
494.757	7949.72
495.126	8102.26
495.496	8219.54
495.866	8219.09
496.235	8422.7
496.605	8505.19
496.974	8655.01
497.344	8803.48
497.713	8866.53
498.082	8960.99
498.452	9119.41
498.821	9215.68
499.19	9198.5
499.559	9391.04
499.928	9471.26
500.298	9549.9
500.667	9718.26
501.036	9722.33
501.405	9903.34
501.774	9893.62
502.143	10056.11
502.512	10085.94
502.88	10263.56
503.249	10288.87
503.618	10299.49
503.987	10426.72
504.356	10460.16
504.724	10548.3
505.093	10674.62
505.462	10719.37
505.83	10812.92
506.199	10959.58
506.567	11117.77
506.936	11070.54
507.304	11171.78
507.672	11198.22
508.041	11255.4
508.409	11409.06
508.777	11433.7
509.145	11590.75
509.514	11576.97
509.882	11608.16
510.25	11665.78
510.618	11724.76
510.986	11794.59
511.354	11907.81
511.722	11916.62
512.09	12018.09
512.458	12019.44
512.826	12128.14
513.193	12147.58
513.561	12203.17
513.929	12275.48
514.297	12344.63
514.664	12370.85
515.032	12373.78
515.4	12533.1
515.767	12471.86
516.135	12557.28
516.502	12468.7
516.869	12660.33
517.237	12677.51
517.604	12606.32
517.972	12745.75
518.339	12754.34
518.706	12736.71
519.073	12868.01
519.44	12916.82
519.808	12874.79
520.175	12891.06
520.542	13019.19
520.909	13042.69
521.276	13060.55
521.643	13093.99
522.009	13232.52
522.376	13211.73
522.743	13213.99
523.11	13315
523.477	13361.33
523.843	13416.7
524.21	13486.52
524.577	13512.96
524.943	13579.63
525.31	13582.79
525.676	13643.58
526.043	13654.2
526.409	13668.67
526.776	13743.47
527.142	13694.2
527.508	13769.68
527.874	13878.15
528.241	13803.35
528.607	13780.98
528.973	13863.24
529.339	13835.44
529.705	13865.05
530.071	13966.06
530.437	13907.53
530.803	13931.94
531.169	13947.3
531.535	13893.29
531.901	13924.7
532.267	13919.28
532.632	13923.35
532.998	13836.12
533.364	13969.68
533.73	13961.09
534.095	13921.31
534.461	13880.64
534.826	13989.56
535.192	13833.86
535.557	13955.89
535.923	13907.76
536.288	13968.09
536.653	13880.64
537.019	13866.17
537.384	13876.57
537.749	13785.27
538.114	13798.61
538.479	13770.13
538.845	13812.39
539.21	13667.54
539.575	13645.39
539.94	13736.91
540.305	13683.13
540.67	13610.59
541.034	13637.03
541.399	13596.13
541.764	13639.51
542.129	13514.32
542.494	13571.04
542.858	13567.88
543.223	13594.32
543.587	13489.46
543.952	13382.12
544.316	13385.28
544.681	13390.03
545.045	13351.84
545.41	13362.46
545.774	13285.4
546.138	13257.6
546.503	13233.2
546.867	13215.8
547.231	13298.96
547.595	13171.96
547.959	13133.99
548.324	13076.37
548.688	13116.82
549.052	13133.99
549.416	13085.86
549.779	13040.43
550.143	12987.78
550.507	13018.06
550.871	12937.61
551.235	13039.98
551.599	13010.38
551.962	12977.61
552.326	12939.87
552.689	13005.18
553.053	12898.52
553.417	12963.83
553.78	12948.46
554.143	12796.6
554.507	12845.64
554.87	12869.59
555.234	12873.88
555.597	12882.92
555.96	12780.55
556.323	12812.87
556.686	12700.56
557.05	12720.44
557.413	12832.53
557.776	12710.5
558.139	12773.1
558.502	12696.94
558.865	12705.3
559.228	12750.95
559.59	12790.05
559.953	12712.08
560.316	12773.55
560.679	12782.59
561.041	12807.67
561.404	12846.54
561.767	12900.1
562.129	12730.61
562.492	12828.69
562.854	12844.05
563.217	12825.75
563.579	12854.45
563.941	12871.85
564.304	12895.35
564.666	12975.12
565.028	12897.16
565.39	12965.18
565.753	13010.15
566.115	12950.27
566.477	12981.68
566.839	12981.9
567.201	12989.81
567.563	13011.06
567.925	13100.55
568.287	13074.78
568.648	13030.26
569.01	13061.9
569.372	13156.36
569.734	13106.87
570.095	13098.96
570.457	13160.43
570.819	13115.46
571.18	13111.62
571.542	13235.23
571.903	13121.11
572.265	13193.2
572.626	13200.88
572.987	13268.22
573.349	13320.43
573.71	13320.43
574.071	13316.81
574.432	13315
574.794	13419.41
575.155	13357.49
575.516	13403.36
575.877	13363.82
576.238	13425.51
576.599	13386.41
576.96	13362.91
577.32	13384.61
577.681	13412.18
578.042	13420.08
578.403	13465.73
578.763	13318.84
579.124	13403.36
579.485	13390.93
579.845	13516.58
580.206	13413.53
580.566	13461.21
580.927	13510.25
581.287	13451.95
581.648	13486.3
582.008	13493.98
582.368	13404.27
582.728	13440.42
583.089	13430.48
583.449	13414.89
583.809	13471.16
584.169	13456.92
584.529	13360.65
584.889	13500.08
585.249	13390.48
585.609	13270.94
585.969	13422.57
586.329	13357.94
586.688	13356.13
587.048	13406.53
587.408	13310.03
587.768	13289.24
588.127	13280.65
588.487	13248.56
588.846	13378.5
589.206	13242.01
589.565	13282.01
589.925	13308
590.284	13276.13
590.643	13304.61
591.003	13261.22
591.362	13336.25
591.721	13339.64
592.08	13258.06
592.44	13302.12
592.799	13279.52
593.158	13231.62
593.517	13237.26
593.876	13242.24
594.235	13224.38
594.593	13178.06
594.952	13235.46
595.311	13166.08
595.67	13266.87
596.029	13202.92
596.387	13278.17
596.746	13293.31
597.104	13203.82
597.463	13219.86
597.822	13287.66
598.18	13195.23
598.538	13129.02
598.897	13245.4
599.255	13062.13
599.613	13289.69
599.972	13214.44
600.33	13235.01
600.688	13117.72
601.046	13199.3
601.404	13273.87
601.762	13137.83
602.12	13232.07
602.478	13257.38
602.836	13277.26
603.194	13209.92
603.552	13235.01
603.91	13142.13
604.268	13189.58
604.625	13185.74
604.983	13256.47
605.341	13105.52
605.698	13208.79
606.056	13245.63
606.413	13212.63
606.771	13273.87
607.128	13233.65
607.485	13196.59
607.843	13320.88
608.2	13263.03
608.557	13365.17
608.914	13197.04
609.272	13319.3
609.629	13255.8
609.986	13358.39
610.343	13221.9
610.7	13343.48
611.057	13419.18
611.414	13303.7
611.771	13375.34
612.127	13384.38
612.484	13439.52
612.841	13435.9
613.198	13342.35
613.554	13483.81
613.911	13443.14
614.267	13451.72
614.624	13504.15
614.98	13433.42
615.337	13514.77
615.693	13459.86
616.05	13477.94
616.406	13579.63
616.762	13541.66
617.118	13540.99
617.475	13519.52
617.831	13549.8
618.187	13545.05
618.543	13610.36
618.899	13595.67
619.255	13657.37
619.611	13520.2
619.967	13662.79
620.323	13671.6
620.678	13644.71
621.034	13665.05
621.39	13532.62
621.746	13546.18
622.101	13782.11
622.457	13634.77
622.812	13575.34
623.168	13666.18
623.523	13689
623.879	13663.47
624.234	13542.34
624.589	13637.03
624.945	13575.79
625.3	13684.48
625.655	13649.23
626.01	13645.16
626.365	13577.37
626.72	13622.34
627.075	13620.98
627.43	13616.46
627.785	13567.65
628.14	13598.39
628.495	13623.7
628.85	13637.48
629.205	13569.46
629.559	13650.59
629.914	13525.39
630.269	13550.7
630.623	13458.28
630.978	13585.28
631.332	13529.01
631.687	13565.62
632.041	13467.09
632.396	13588.22
632.75	13507.77
633.104	13432.97
633.459	13393.87
633.813	13363.36
634.167	13470.71
634.521	13282.01
634.875	13408.11
635.229	13411.27
635.583	13328.79
635.937	13247.89
636.291	13264.61
636.645	13336.7
636.999	13292.18
637.352	13305.51
637.706	13193.2
638.06	13233.65
638.413	13185.74
638.767	13194.33
639.121	13248.34
639.474	13066.87
639.828	13036.59
640.181	13194.1
640.534	13223.93
640.888	13175.35
641.241	13097.83
641.594	13106.19
641.947	13077.27
642.301	13083.6
642.654	13054.9
643.007	13136.02
643.36	13054.22
643.713	13040.21
644.066	13078.63
644.419	12997.27
644.771	12901.68
645.124	12885.18
645.477	12829.14
645.83	12710.27
646.182	12663.95
646.535	12714.79
646.888	12679.09
647.24	12535.59
647.593	12656.72
647.945	12668.92
648.298	12600.45
648.65	12564.06
649.002	12561.35
649.355	12580.11
649.707	12646.32
650.059	12702.59
650.411	12796.15
650.763	12793.66
651.115	12891.74
651.467	12794.79
651.819	12829.82
652.171	12836.15
652.523	12796.6
652.875	12796.82
653.227	12819.42
653.578	12830.95
653.93	12848.57
654.282	12764.28
654.633	12670.73
654.985	12766.54
655.337	12799.76
655.688	12816.49
656.039	12833.21
656.391	12659.43
656.742	12771.06
657.094	12798.18
657.445	12786.88
657.796	12747.79
658.147	12717.28
658.498	12759.31
658.849	12725.64
659.2	12772.87
659.551	12716.83
659.902	12896.71
660.253	12809.03
660.604	12799.54
660.955	12766.99
661.306	12905.3
661.656	12838.63
662.007	12884.96
662.358	12844.96
662.708	12821.91
663.059	12815.58
663.409	12822.36
663.76	12878.86
664.11	12858.07
664.461	12852.19
664.811	12814.68
665.161	12860.1
665.511	12783.04
665.862	12864.62
666.212	12906.2
666.562	12786.43
666.912	12742.59
667.262	12862.36
667.612	12882.47
667.962	12897.16
668.312	12836.15
668.662	12848.8
669.011	12855.13
669.361	12866.2
669.711	12767.45
670.06	12793.43
670.41	12786.43
670.76	12758.63
671.109	12880.44
671.459	12797.28
671.808	12724.51
672.157	12817.61
672.507	12684.29
672.856	12704.85
673.205	12799.08
673.554	12762.25
673.904	12663.95
674.253	12802.47
674.602	12740.33
674.951	12468.7
675.3	12517.74
675.649	12705.08
675.998	12630.05
676.346	12621.69
676.695	12692.87
677.044	12635.7
677.393	12582.59
677.741	12651.97
678.09	12599.09
678.438	12509.6
678.787	12580.56
679.135	12614.68
679.484	12468.02
679.832	12531.97
680.181	12461.47
680.529	12444.07
680.877	12421.69
681.225	12436.83
681.573	12501.92
681.922	12411.98
682.27	12386.21
682.618	12362.03
682.966	12314.58
683.314	12365.2
683.661	12282.04
684.009	12217.86
684.357	12252.66
684.705	12219.89
685.053	12181.02
685.4	12164.3
685.748	12103.96
686.095	12114.13
686.443	12107.58
686.79	12087.01
687.138	12042.04
687.485	11992.55
687.832	11954.36
688.18	12038.88
688.527	11926.34
688.874	11918.88
689.221	11866.23
689.568	11863.29
689.915	11750.52
690.262	11809.96
690.609	11757.08
690.956	11704.2
691.303	11646.57
691.65	11674.59
691.997	11637.08
692.344	11552.79
692.69	11580.81
693.037	11461.94
693.383	11428.5
693.73	11410.65
694.077	11417.2
694.423	11352.57
694.769	11346.24
695.116	11226.47
695.462	11320.93
695.808	11276.86
696.155	11186.7
696.501	11207.49
696.847	11118.22
697.193	11041.16
697.539	11102.18
697.885	10933.6
698.231	10975.4
698.577	10932.69
698.923	10956.65
699.269	10915.97
699.614	10806.14
699.96	10784
700.306	10733.83
700.651	10653.38
700.997	10670.78
701.342	10685.47
701.688	10632.36
702.033	10588.07
702.379	10621.29
702.724	10518.47
703.069	10547.84
703.415	10406.6
703.76	10375.19
704.105	10395.98
704.45	10375.65
704.795	10351.69
705.14	10222.88
705.485	10270.11
705.83	10228.98
706.175	10210.23
706.52	10179.49
706.865	10116.9
707.209	10137.91
707.554	10051.13
707.899	10052.04
708.243	10011.81
708.588	10020.17
708.932	9912.83
709.277	9949.22
709.621	9981.08
709.966	9855.43
710.31	9877.58
710.654	9797.13
710.998	9744.7
711.342	9768.2
711.687	9764.14
712.031	9751.71
712.375	9713.06
712.719	9721.65
713.063	9665.38
713.407	9664.93
713.75	9563.46
714.094	9584.03
714.438	9611.37
714.782	9629.45
715.125	9508.32
715.469	9565.5
715.812	9458.16
716.156	9486.86
716.499	9480.75
716.843	9377.48
717.186	9480.98
717.53	9495.22
717.873	9476.01
718.216	9502.9
718.559	9370.93
718.902	9350.14
719.246	9381.32
719.589	9336.35
719.932	9313.07
720.275	9293.64
720.617	9326.63
720.96	9273.98
721.303	9243.47
721.646	9254.32
721.989	9206.64
722.331	9248.9
722.674	9247.77
723.016	9184.49
723.359	9158.5
723.701	9180.87
724.044	9156.92
724.386	9071.5
724.729	9204.6
725.071	9152.17
725.413	9132.29
725.755	9123.02
726.097	9028.34
726.439	9009.13
726.782	9017.04
727.124	9020.88
727.465	8998.96
727.807	9055.91
728.149	8981.11
728.491	9009.13
728.833	9047.77
729.175	9001.22
729.516	8965.06
729.858	8968.68
730.199	9009.58
730.541	8954.21
730.882	9027.88
731.224	8958.73
731.565	8921.22
731.906	8951.28
732.248	9030.37
732.589	8985.17
732.93	8924.16
733.271	8940.43
733.612	8971.84
733.953	8935.46
734.294	8946.76
734.635	8957.6
734.976	9003.25
735.317	8919.41
735.658	8930.71
735.999	8953.99
736.339	8912.18
736.68	8951.28
737.021	8965.74
737.361	8923.03
737.702	8984.27
738.042	8997.15
738.383	8932.52
738.723	9017.26
739.063	8937.94
739.404	9040.31
739.744	9028.56
740.084	8998.73
740.424	8983.14
740.764	8998.96
741.104	9049.8
741.444	8985.85
741.784	8957.83
742.124	9050.26
742.464	9069.92
742.804	9071.5
743.143	9055.23
743.483	9065.85
743.823	9113.31
744.162	9103.14
744.502	9181.1
744.841	9166.19
745.181	9190.14
745.52	9203.47
745.86	9306.75
746.199	9260.65
746.538	9313.98
746.877	9427.2
747.216	9422.9
747.556	9419.06
747.895	9533.41
748.234	9542.45
748.573	9556.68
748.911	9614.08
749.25	9681.88
749.589	9711.26
749.928	9791.71
750.267	9866.51
750.605	9922.78
750.944	9939.95
751.283	10029.21
751.621	10168.19
751.96	10125.71
752.298	10348.08
752.636	10356.44
752.975	10425.14
753.313	10466.49
753.651	10662.19
753.989	10675.52
754.327	10794.39
754.666	10805.92
755.004	11015.85
755.342	11035.51
755.679	11243.19
756.017	11344.89
756.355	11419.01
756.693	11503.98
757.031	11671.88
757.368	11821.93
757.706	11933.8
758.044	11995.94
758.381	12209.72
758.719	12299.21
759.056	12496.27
759.394	12586.21
759.731	12720.67
760.068	12842.25
760.405	13046.08
760.743	13171.5
761.08	13311.39
761.417	13426.41
761.754	13526.52
762.091	13777.14
762.428	13929.45
762.765	14001.99
763.102	14201.76
763.438	14264.81
763.775	14346.84
764.112	14631.8
764.449	14825.47
764.785	14972.81
765.122	14951.34
765.458	15157.44
765.795	15291.67
766.131	15587.94
766.467	15532.57
766.804	15711.1
767.14	15798.1
767.476	15958.1
767.812	16117.19
768.148	16197.19
768.485	16258.88
768.821	16354.92
769.157	16540.68
769.492	16552.88
769.828	16748.36
770.164	16799.43
770.5	16899.09
770.836	17051.63
771.171	17057.05
771.507	17232.64
771.842	17200.1
772.178	17313.32
772.513	17477.38
772.849	17435.57
773.184	17425.63
773.519	17575.23
773.855	17631.95
774.19	17764.38
774.525	17786.98
774.86	17889.8
775.195	17920.98
775.53	17992.62
775.865	17874.88
776.2	17976.8
776.535	17900.87
776.87	18132.5
777.205	17999.17
777.539	18089.57
777.874	18174.76
778.209	18098.83
778.543	18097.48
778.878	18102
779.212	18163.69
779.547	18220.86
779.881	18320.52
780.215	18186.51
780.55	18293.86
780.884	18258.15
781.218	18175.89
781.552	18295.66
781.886	18330.01
782.22	18247.3
782.554	18251.82
782.888	18208.21
783.222	18241.2
783.556	18156.91
783.889	18131.37
784.223	18080.75
784.557	18086.4
784.89	18169.56
785.224	18123.01
785.557	18002.79
785.891	17997.37
786.224	18059.51
786.558	18111.71
786.891	17951.94
787.224	17945.39
787.557	17906.97
787.891	17910.14
788.224	17937.48
788.557	17949.46
788.89	17980.42
789.223	17949.68
789.556	17926.18
789.888	17832.17
790.221	17739.29
790.554	17607.77
790.887	17744.94
791.219	17570.94
791.552	17618.84
791.884	17516.25
792.217	17506.98
792.549	17460.43
792.882	17428.12
793.214	17421.34
793.546	17505.18
793.879	17220.66
794.211	17255.24
794.543	17250.72
794.875	17275.8
795.207	17317.61
795.539	17248.01
795.871	17275.8
796.203	17120.55
796.535	17024.51
796.867	17039.65
797.198	17024.51
797.53	16970.5
797.862	16890.05
798.193	16988.8
798.525	16846.21
798.856	16831.75
799.188	16681.47
799.519	16639.21
799.85	16600.79
800.182	16580.23
800.513	16618.42
800.844	16542.71
801.175	16579.78
801.506	16514.47
801.837	16468.14
802.168	16454.58
802.499	16380.01
802.83	16285.09
803.161	16214.14
803.491	16290.07
803.822	16217.53
804.153	16244.64
804.483	16092.78
804.814	15967.59
805.145	16140.47
805.475	16014.82
805.805	15995.84
806.136	15992.67
806.466	15921.26
806.796	15943.41
807.126	15794.26
807.457	15735.05
807.787	15784.32
808.117	15734.37
808.447	15656.41
808.777	15759.46
809.107	15655.96
809.436	15614.83
809.766	15644.89
810.096	15575.96
810.426	15501.39
810.755	15544.77
811.085	15531.89
811.414	15493.02
811.744	15340.26
812.073	15365.8
812.403	15379.13
812.732	15273.37
813.061	15196.08
813.39	15197.67
813.719	15149.31
814.049	15257.32
814.378	15119.02
814.707	15067.95
815.036	15102.75
815.365	15076.76
815.693	14959.93
816.022	14982.98
816.351	14868.41
816.68	14843.32
817.008	14895.53
817.337	14717.23
817.665	14820.27
817.994	14794.29
818.322	14760.84
818.651	14660.5
818.979	14664.57
819.307	14783.44
819.636	14644.46
819.964	14591.58
820.292	14619.38
820.62	14637
820.948	14514.07
821.276	14620.28
821.604	14561.3
821.932	14593.39
822.259	14598.81
822.587	14560.17
822.915	14505.71
823.243	14535.99
823.57	14488.08
823.898	14650.79
824.225	14453.05
824.553	14568.3
824.88	14554.07
825.207	14601.52
825.535	14488.76
825.862	14534.86
826.189	14547.74
826.516	14611.01
826.843	14538.93
827.17	14652.37
827.497	14553.16
827.824	14561.98
828.151	14610.34
828.478	14603.33
828.805	14640.17
829.131	14540.28
829.458	14573.28
829.785	14462.09
830.111	14555.42
830.438	14733.04
830.764	14569.21
831.09	14584.35
831.417	14474.75
831.743	14520.4
832.069	14547.29
832.395	14488.31
832.722	14572.15
833.048	14463.9
833.374	14500.73
833.7	14435.43
834.026	14419.38
834.351	14470.23
834.677	14384.58
835.003	14503.9
835.329	14447.85
835.654	14417.57
835.98	14353.85
836.306	14399.04
836.631	14300.29
836.956	14389.55
837.282	14370.79
837.607	14310.68
837.932	14232.27
838.258	14288.31
838.583	14295.32
838.908	14211.93
839.233	14190.23
839.558	14117.02
839.883	14115.89
840.208	14058.03
840.533	14096.9
840.858	14049.45
841.182	14075.21
841.507	14085.15
841.832	13968.55
842.156	13938.94
842.481	13952.73
842.805	13949.34
843.13	13805.16
843.454	13832.28
843.778	13816.23
844.103	13773.97
844.427	13664.82
844.751	13768.55
845.075	13754.54
845.399	13674.77
845.723	13524.04
846.047	13599.06
846.371	13471.16
846.695	13515.22
847.019	13416.24
847.343	13378.28
847.666	13359.75
847.99	13183.26
848.313	13238.39
848.637	13177.83
848.96	13163.82
849.284	12967.89
849.607	12967.22
849.931	12878.4
850.254	12818.52
850.577	12806.09
850.9	12732.42
851.223	12748.01
851.546	12735.58
851.869	12606.32
852.192	12633.66
852.515	12555.93
852.838	12451.52
853.161	12414.46
853.483	12337.85
853.806	12309.83
854.129	12305.76
854.451	12233.9
854.774	12175.82
855.096	12174.24
855.419	12139.44
855.741	12149.38
856.063	12107.58
856.385	12063.06
856.708	11987.81
857.03	11906.23
857.352	11991.65
857.674	11818.55
857.996	11794.37
858.318	11859.45
858.64	11824.19
858.961	11833.23
859.283	11680.47
859.605	11662.17
859.926	11709.62
860.248	11515.05
860.57	11606.57
860.891	11581.26
861.212	11523.41
861.534	11492.9
861.855	11425.79
862.176	11463.98
862.498	11475.28
862.819	11537.87
863.14	11411.78
863.461	11411.1
863.782	11393.25
864.103	11323.64
864.424	11274.15
864.745	11392.34
865.065	11287.03
865.386	11246.81
865.707	11197.54
866.027	11181.5
866.348	11123.2
866.668	11203.42
866.989	11105.8
867.309	11046.36
867.63	11152.57
867.95	11108.73
868.27	11035.74
868.59	11072.35
868.91	11002.52
869.23	11085.46
869.55	10901.28
869.87	11005.69
870.19	10965.69
870.51	10979.02
870.83	10936.99
871.15	10794.62
871.469	10914.39
871.789	10965.46
872.109	10899.93
872.428	10886.59
872.748	10835.75
873.067	10873.03
873.386	10840.04
873.706	10828.51
874.025	10704.9
874.344	10744.9
874.663	10742.42
874.982	10705.35
875.301	10727.05
875.62	10691.34
875.939	10659.48
876.258	10616.99
876.577	10561.18
876.896	10560.95
877.214	10587.62
877.533	10548.75
877.852	10579.48
878.17	10516.88
878.489	10527.05
878.807	10490.44
879.125	10503.1
879.444	10438.24
879.762	10401.86
880.08	10474.85
880.398	10385.59
880.716	10337.23
881.034	10423.55
881.352	10365.93
881.67	10342.43
881.988	10359.37
882.306	10241.19
882.624	10262.65
882.941	10217.23
883.259	10134.07
883.577	10185.82
883.894	10150.57
884.212	10143.33
884.529	10141.3
884.846	10143.79
885.164	10124.58
885.481	10042.09
885.798	10049.33
886.115	9950.57
886.432	9980.4
886.75	9951.25
887.067	9991.7
887.383	9922.55
887.7	9880.29
888.017	9891.82
888.334	9873.74
888.651	9815.89
888.967	9799.39
889.284	9774.08
889.6	9716
889.917	9646.85
890.233	9708.09
890.55	9663.35
890.866	9612.5
891.182	9619.28
891.498	9577.25
891.815	9549.9
892.131	9468.32
892.447	9466.97
892.763	9429.23
893.079	9422
893.395	9351.27
893.71	9381.77
894.026	9418.38
894.342	9264.71
894.657	9220.87
894.973	9280.08
895.289	9200.08
895.604	9155.56
895.92	9148.78
896.235	9114.44
896.55	9106.07
896.865	9093.65
897.181	9007.09
897.496	9086.87
897.811	9036.92
898.126	8951.28
898.441	8887.1
898.756	8910.6
899.071	8838.96
899.386	8818.17
899.7	8728.23
900.015	8696.37
900.33	8715.12
900.644	8674
900.959	8685.75
901.273	8615.01
901.588	8578.18
901.902	8516.71
902.216	8532.98
902.531	8502.93
902.845	8516.03
903.159	8426.54
903.473	8393.1
903.787	8348.58
904.101	8289.6
904.415	8308.58
904.729	8255.7
905.042	8211.86
905.356	8195.36
905.67	8210.96
905.984	8161.24
906.297	8085.76
906.611	8051.41
906.924	8112.43
907.237	8005.09
907.551	7959.44
907.864	7962.38
908.177	7920.79
908.491	7943.62
908.804	7844.19
909.117	7819.1
909.43	7746.79
909.743	7788.82
910.056	7744.53
910.368	7703.63
910.681	7626.11
910.994	7657.52
911.307	7647.13
911.619	7543.4
911.932	7547.7
912.244	7504.99
912.557	7496.62
912.869	7413.92
913.181	7425.89
913.494	7426.12
913.806	7374.14
914.118	7330.53
914.43	7298.44
914.742	7331.21
915.054	7192.68
915.366	7154.49
915.678	7224.77
915.99	7215.5
916.302	7123.98
916.613	7053.02
916.925	7048.73
917.236	7020.93
917.548	6999.46
917.859	6975.73
918.171	6970.99
918.482	6938
918.794	6879.24
919.105	6873.59
919.416	6837.43
919.727	6800.6
920.038	6831.33
920.349	6748.62
920.66	6777.55
920.971	6726.02
921.282	6698.23
921.593	6668.62
921.903	6593.15
922.214	6634.5
922.525	6579.81
922.835	6561.28
923.146	6529.64
923.456	6517.22
923.767	6471.12
924.077	6472.92
924.387	6422.08
924.697	6363.77
925.008	6351.12
925.318	6328.75
925.628	6326.26
925.938	6314.51
926.248	6217.34
926.558	6226.15
926.867	6242.65
927.177	6202.42
927.487	6138.47
927.796	6095.53
928.106	6081.75
928.416	6083.78
928.725	6050.34
929.034	6012.37
929.344	6034.29
929.653	6077.23
929.962	5960.85
930.271	5925.82
930.581	5869.32
930.89	5869.78
931.199	5890.11
931.508	5844.92
931.817	5839.04
932.125	5760.4
932.434	5732.6
932.743	5747.07
933.051	5699.38
933.36	5668.2
933.669	5654.87
933.977	5593.4
934.286	5646.28
934.594	5576.45
934.902	5550.91
935.21	5558.14
935.519	5545.04
935.827	5465.72
936.135	5452.61
936.443	5436.34
936.751	5421.65
937.059	5448.32
937.367	5399.05
937.674	5416.45
937.982	5364.7
938.29	5344.82
938.597	5295.1
938.905	5249
939.213	5223.01
939.52	5246.97
939.827	5247.19
940.135	5173.75
940.442	5168.55
940.749	5149.79
941.056	5124.94
941.363	5072.06
941.67	5081.32
941.977	5017.59
942.284	5044.03
942.591	5029.57
942.898	4976.69
943.205	4965.84
943.511	4936.92
943.818	4931.95
944.125	4939.18
944.431	4818.96
944.738	4799.75
945.044	4801.1
945.35	4839.75
945.657	4772.63
945.963	4780.09
946.269	4748.9
946.575	4750.03
946.881	4712.07
947.187	4698.73
947.493	4682.91
947.799	4671.84
948.105	4640.43
948.41	4582.13
948.716	4588
949.022	4555.69
949.327	4595.68
949.633	4521.11
949.938	4519.53
950.244	4537.61
950.549	4481.11
950.854	4467.55
951.16	4431.85
951.465	4429.36
951.77	4404.95
952.075	4389.36
952.38	4394.79
952.685	4321.34
952.99	4307.1
953.294	4305.3
953.599	4307.78
953.904	4286.77
954.209	4233.21
954.513	4270.04
954.818	4241.12
955.122	4197.73
955.426	4211.06
955.731	4176.26
956.035	4122.7
956.339	4149.37
956.643	4112.76
956.948	4082.25
957.252	4079.99
957.556	4084.74
957.86	4053.1
958.163	4003.61
958.467	4004.97
958.771	4013.78
959.075	3977.4
959.378	4010.61
959.682	3972.2
959.985	3962.25
960.289	3939.66
960.592	3874.57
960.896	3854.91
961.199	3869.38
961.502	3839.77
961.805	3811.07
962.108	3796.16
962.411	3832.77
962.714	3779.21
963.017	3704.41
963.32	3738.76
963.623	3729.27
963.926	3779.43
964.228	3715.03
964.531	3643.39
964.833	3649.04
965.136	3641.59
965.438	3632.77
965.741	3622.83
966.043	3573.79
966.345	3572.21
966.648	3586.45
966.95	3529.72
967.252	3525.66
967.554	3574.24
967.856	3468.48
968.158	3465.09
968.46	3451.99
968.761	3457.41
969.063	3488.82
969.365	3436.39
969.666	3411.31
969.968	3400.46
970.269	3370.86
970.571	3386.45
970.872	3383.06
971.174	3329.95
971.475	3346
971.776	3285.44
972.077	3312.1
972.378	3278.88
972.679	3278.43
972.98	3245.44
973.281	3258.32
973.582	3237.98
973.883	3199.79
974.183	3198.43
974.484	3156.17
974.785	3178.09
975.085	3186.91
975.386	3180.13
975.686	3097.87
975.986	3117.31
976.287	3124.31
976.587	3105.1
976.887	3035.27
977.187	3116.63
977.487	3045.89
977.787	3040.92
978.087	3046.35
978.387	3016.29
978.687	2991.66
978.987	2961.38
979.286	2957.31
979.586	2968.16
979.885	2925.22
980.185	2924.77
980.484	2891.1
980.784	2894.49
981.083	2849.52
981.382	2896.07
981.682	2825.79
981.981	2819.23
982.28	2851.55
982.579	2815.17
982.878	2784.21
983.177	2807.48
983.475	2771.55
983.774	2772.23
984.073	2722.06
984.372	2728.16
984.67	2778.78
984.969	2707.37
985.267	2712.57
985.566	2703.53
985.864	2676.64
986.162	2694.04
986.461	2645.23
986.759	2643.87
987.057	2644.55
987.355	2595.06
987.653	2635.06
987.951	2633.02
988.249	2630.31
988.547	2593.25
988.844	2532.01
989.142	2568.62
989.44	2527.94
989.737	2546.92
990.035	2558.22
990.332	2516.64
990.63	2515.96
990.927	2504.21
991.224	2518
991.521	2439.81
991.819	2431.22
992.116	2484.55
992.413	2432.8
992.71	2434.16
993.006	2413.82
993.303	2400.04
993.6	2422.18
993.897	2386.7
994.193	2374.73
994.49	2334.5
994.787	2317.55
995.083	2322.75
995.379	2309.19
995.676	2303.77
995.972	2292.02
996.268	2285.46
996.565	2293.6
996.861	2259.7
997.157	2253.6
997.453	2254.05
997.749	2250.21
998.044	2216.54
998.34	2243.66
998.636	2215.41
998.932	2188.97
999.227	2176.31
999.523	2154.17
999.818	2138.8
1000.114	2136.54
1000.409	2117.33
1000.704	2099.25
1001	2101.06
1001.295	2126.82
1001.59	2082.53
1001.885	2072.59
1002.18	2068.29
1002.475	2031.46
1002.77	2049.31
1003.065	2034.85
1003.359	2025.36
1003.654	2001.4
1003.949	1999.14
1004.243	1967.73
1004.538	1961.4
1004.832	1969.54
1005.127	1944.23
1005.421	1918.47
1005.715	1932.48
1006.009	1935.87
1006.304	1918.47
1006.598	1902.65
1006.892	1899.26
1007.186	1848.19
1007.48	1859.49
1007.773	1857
1008.067	1846.6
1008.361	1831.24
1008.655	1841.41
1008.948	1848.41
1009.242	1793.95
1009.535	1784.68
1009.829	1774.52
1010.122	1804.12
1010.415	1762.99
1010.708	1745.14
1011.001	1732.93
1011.295	1713.5
1011.588	1730
1011.881	1675.76
1012.173	1696.1
1012.466	1703.56
1012.759	1710.56
1013.052	1700.62
1013.344	1660.39
1013.637	1658.81
1013.93	1652.94
1014.222	1618.59
1014.514	1631.69
1014.807	1592.37
1015.099	1612.26
1015.391	1603.45
1015.683	1562.09
1015.976	1585.59
1016.268	1572.94
1016.56	1543.11
1016.851	1569.1
1017.143	1540.62
1017.435	1519.61
1017.727	1522.32
1018.018	1511.02
1018.31	1484.35
1018.602	1496.1
1018.893	1496.1
1019.185	1464.24
1019.476	1453.85
1019.767	1450.91
1020.058	1417.46
1020.35	1403.45
1020.641	1405.71
1020.932	1384.7
1021.223	1412.72
1021.514	1387.41
1021.804	1371.81
1022.095	1387.41
1022.386	1361.64
1022.677	1359.16
1022.967	1357.58
1023.258	1368.2
1023.548	1337.01
1023.839	1316
1024.129	1340.63
1024.419	1344.24
1024.709	1303.34
1025	1283.91
1025.29	1295.66
1025.58	1290.01
1025.87	1251.14
1026.16	1282.1
1026.449	1265.6
1026.739	1243.46
1027.029	1229.22
1027.319	1210.91
1027.608	1239.39
1027.898	1210.91
1028.187	1203.68
1028.477	1204.81
1028.766	1191.71
1029.055	1179.95
1029.344	1181.31
1029.634	1166.17
1029.923	1149.67
1030.212	1165.04
1030.501	1151.03
1030.79	1141.09
1031.078	1099.5
1031.367	1123.23
1031.656	1132.72
1031.945	1097.02
1032.233	1089.79
1032.522	1092.73
1032.81	1089.56
1033.099	1081.88
1033.387	1048.88
1033.675	1081.43
1033.963	1058.83
1034.251	1053.18
1034.54	1051.14
1034.828	1014.76
1035.116	1035.1
1035.403	1034.2
1035.691	1019.06
1035.979	1029.68
1036.267	999.62
1036.554	1007.3
1036.842	1015.21
1037.129	1007.76
1037.417	967.98
1037.704	977.25
1037.992	971.37
1038.279	980.86
1038.566	954.88
1038.853	954.88
1039.14	954.88
