Data from hue_140_FLMS001491_00040.txt Node
Date: Tue Feb 07 16:55:51 GMT 2017
User: dcchb
Spectrometer: FLMS00149
Trigger mode: 0
Integration Time (sec): 2.000000E-2
Scans to average: 10
Electric dark correction enabled: true
Nonlinearity correction enabled: false
Boxcar width: 0
XAxis mode: Wavelengths
Number of Pixels in Spectrum: 2048
>>>>>Begin Spectral Data<<<<<
341.393	-17.58
341.776	-17.58
342.16	-17.58
342.543	-56
342.927	-50.35
343.31	-86.51
343.693	-75.89
344.077	-65.94
344.46	-77.7
344.843	-44.02
345.226	-34.98
345.61	-37.47
345.993	-6.06
346.376	-12.61
346.759	19.93
347.142	27.84
347.525	37.56
347.908	68.06
348.291	78.46
348.674	93.37
349.057	115.97
349.44	110.1
349.823	135.41
350.206	158.68
350.588	187.16
350.971	218.12
351.354	216.99
351.737	235.74
352.119	249.3
352.502	252.24
352.884	263.99
353.267	296.08
353.65	282.07
354.032	302.18
354.414	299.92
354.797	306.02
355.179	310.77
355.562	336.08
355.944	327.49
356.326	331.79
356.709	330.66
357.091	341.28
357.473	340.6
357.855	343.31
358.238	347.38
358.62	329.07
359.002	331.79
359.384	334.27
359.766	335.17
360.148	343.54
360.53	353.71
360.912	322.97
361.294	319.13
361.676	342.63
362.057	332.01
362.439	344.44
362.821	340.37
363.203	332.01
363.584	336.53
363.966	319.81
364.348	309.64
364.729	328.17
365.111	321.62
365.493	317.77
365.874	283.42
366.256	316.64
366.637	294.72
367.019	308.28
367.4	315.51
367.781	312.12
368.163	319.58
368.544	326.14
368.925	313.48
369.306	301.73
369.688	300.83
370.069	309.64
370.45	316.64
370.831	324.78
371.212	317.55
371.593	317.55
371.974	321.39
372.355	315.06
372.736	322.29
373.117	299.7
373.498	318
373.879	304.89
374.26	330.2
374.641	321.16
375.021	290.88
375.402	326.14
375.783	338.56
376.163	324.55
376.544	339.24
376.925	329.98
377.305	322.52
377.686	321.39
378.066	322.07
378.447	319.13
378.827	338.79
379.208	344.67
379.588	330.88
379.968	352.8
380.349	349.41
380.729	339.92
381.109	354.38
381.489	320.71
381.87	353.03
382.25	321.39
382.63	339.47
383.01	345.12
383.39	348.73
383.77	356.87
384.15	354.38
384.53	353.93
384.91	361.84
385.29	354.16
385.67	368.85
386.049	354.38
386.429	344.89
386.809	352.58
387.189	350.32
387.568	369.98
387.948	346.47
388.328	345.57
388.707	355.74
389.087	360.94
389.466	348.06
389.846	375.63
390.225	342.41
390.605	387.15
390.984	354.84
391.363	383.76
391.743	356.19
392.122	387.83
392.501	363.42
392.881	376.53
393.26	390.77
393.639	374.27
394.018	364.55
394.397	392.35
394.776	402.74
395.155	375.4
395.534	382.63
395.913	392.35
396.292	403.2
396.671	405.46
397.05	402.29
397.429	393.48
397.808	400.48
398.186	397.09
398.565	417.43
398.944	405.91
399.323	395.74
399.701	407.72
400.08	409.98
400.458	441.84
400.837	424.21
401.215	409.75
401.594	406.81
401.972	426.02
402.351	436.64
402.729	425.79
403.107	441.84
403.486	408.39
403.864	416.3
404.242	415.62
404.62	440.71
404.999	442.97
405.377	439.58
405.755	443.87
406.133	447.71
406.511	442.52
406.889	442.29
407.267	474.38
407.645	445.45
408.023	419.01
408.401	466.7
408.779	468.96
409.156	460.6
409.534	461.95
409.912	449.75
410.29	486.58
410.667	480.93
411.045	487.94
411.422	468.96
411.8	484.1
412.178	478
412.555	487.49
412.933	475.96
413.31	500.14
413.687	514.15
414.065	513.25
414.442	518.9
414.819	506.7
415.197	502.63
415.574	531.33
415.951	524.77
416.328	536.98
416.705	539.46
417.082	534.94
417.46	541.72
417.837	514.38
418.214	548.73
418.591	542.4
418.967	547.15
419.344	528.39
419.721	558.45
420.098	544.43
420.475	545.79
420.852	537.66
421.228	559.35
421.605	571.55
421.982	568.84
422.358	565.9
422.735	557.77
423.111	580.82
423.488	614.26
423.864	607.03
424.241	600.48
424.617	593.7
424.994	599.57
425.37	610.65
425.746	621.49
426.123	592.12
426.499	605.22
426.875	616.98
427.251	617.43
427.627	628.5
428.003	654.04
428.379	637.54
428.756	649.06
429.132	671.89
429.507	661.04
429.883	669.18
430.259	685
430.635	676.18
431.011	680.7
431.387	712.79
431.763	705.33
432.138	706.69
432.514	692.91
432.89	710.98
433.265	731.77
433.641	722.28
434.016	722.28
434.392	740.36
434.767	760.02
435.143	737.42
435.518	755.5
435.894	763.86
436.269	769.51
436.644	779.23
437.02	772.45
437.395	786.46
437.77	787.14
438.145	773.81
438.52	780.81
438.895	844.31
439.271	817.65
439.646	815.84
440.021	819.91
440.395	824.43
440.77	816.07
441.145	835.27
441.52	857.87
441.895	873.01
442.27	879.79
442.645	861.26
443.019	885.89
443.394	897.19
443.769	868.27
444.143	856.07
444.518	908.72
444.892	887.25
445.267	905.56
445.641	921.15
446.016	908.49
446.39	920.92
446.764	946.01
447.139	921.15
447.513	942.62
447.887	933.8
448.262	944.88
448.636	936.74
449.01	953.69
449.384	954.37
449.758	954.82
450.132	978.32
450.506	997.98
450.88	995.72
451.254	997.53
451.628	998.89
452.002	1021.48
452.376	1026.68
452.75	1044.08
453.123	1057.42
453.497	1044.53
453.871	1087.92
454.244	1089.05
454.618	1106.68
454.992	1100.8
455.365	1108.04
455.739	1117.08
456.112	1167.7
456.486	1167.92
456.859	1172.67
457.232	1161.37
457.606	1175.38
457.979	1206.11
458.352	1225.77
458.725	1230.29
459.099	1256.51
459.472	1270.07
459.845	1280.69
460.218	1304.19
460.591	1280.91
460.964	1286.11
461.337	1322.49
461.71	1350.52
462.083	1351.19
462.456	1363.85
462.829	1387.12
463.201	1404.75
463.574	1411.3
463.947	1451.08
464.32	1447.91
464.692	1471.19
465.065	1493.11
465.438	1500.34
465.81	1567.91
466.183	1578.53
466.555	1572.43
466.928	1620.79
467.3	1629.83
467.672	1638.19
468.045	1709.83
468.417	1698.98
468.789	1720.9
469.161	1749.37
469.534	1755.02
469.906	1832.99
470.278	1823.05
470.65	1887
471.022	1924.74
471.394	1925.42
471.766	1990.27
472.138	1987.79
472.51	2035.7
472.882	2107.11
473.253	2103.72
473.625	2136.71
473.997	2217.61
474.369	2265.97
474.74	2288.8
475.112	2350.49
475.484	2417.61
475.855	2469.58
476.227	2518.17
476.598	2572.4
476.97	2587.77
477.341	2712.29
477.713	2775.34
478.084	2827.31
478.455	2911.83
478.827	2962.45
479.198	3089.9
479.569	3109.57
479.94	3230.69
480.311	3311.14
480.682	3380.52
481.053	3528.99
481.424	3605.37
481.795	3693.5
482.166	3784.8
482.537	3846.04
482.908	3993.16
483.279	4079.26
483.65	4157.67
484.021	4326.48
484.391	4435.41
484.762	4545.46
485.133	4606.47
485.503	4799.92
485.874	4862.51
486.244	4982.74
486.615	5133.92
486.985	5259.34
487.356	5374.14
487.726	5564.64
488.097	5689.84
488.467	5775.26
488.837	5992.65
489.207	6057.51
489.578	6242.82
489.948	6376.37
490.318	6515.35
490.688	6616.37
491.058	6813.65
491.428	6974.32
491.798	7056.58
492.168	7306.97
492.538	7413.86
492.908	7564.82
493.278	7728.2
493.648	7748.99
494.017	7915.77
494.387	8121.86
494.757	8248.64
495.126	8417.67
495.496	8500.84
495.866	8602.08
496.235	8753.71
496.605	8904.22
496.974	9095.17
497.344	9159.58
497.713	9272.57
498.082	9388.5
498.452	9527.7
498.821	9710.07
499.19	9789.16
499.559	9947.8
499.928	10061.92
500.298	10121.81
500.667	10265.99
501.036	10337.4
501.405	10490.39
501.774	10536.26
502.143	10661.46
502.512	10722.25
502.88	10872.52
503.249	10937.61
503.618	11024.84
503.987	11147.55
504.356	11206.53
504.724	11356.58
505.093	11321.55
505.462	11442.68
505.83	11603.13
506.199	11699.85
506.567	11819.84
506.936	11786.63
507.304	12048.09
507.672	12032.72
508.041	12076.56
508.409	12204.24
508.777	12349.77
509.145	12344.58
509.514	12326.95
509.882	12518.36
510.25	12510.67
510.618	12636.32
510.986	12644.91
511.354	12749.31
511.722	12811
512.09	12937.1
512.458	12937.78
512.826	13023.65
513.193	13072.92
513.561	13173.03
513.929	13199.24
514.297	13337.77
514.664	13378.22
515.032	13357.66
515.4	13413.47
515.767	13440.37
516.135	13478.56
516.502	13423.87
516.869	13565.79
517.237	13664.54
517.604	13546.8
517.972	13674.94
518.339	13772.79
518.706	13746.57
519.073	13804.2
519.44	13852.56
519.808	13989.73
520.175	13896.17
520.542	14033.35
520.909	14026.34
521.276	13999.67
521.643	14062.5
522.009	14052.55
522.376	14203.28
522.743	14274.24
523.11	14311.53
523.477	14360.79
523.843	14397.86
524.21	14493.22
524.577	14571.64
524.943	14552.43
525.31	14564.63
525.676	14646.66
526.043	14637.85
526.409	14558.3
526.776	14731.63
527.142	14751.52
527.508	14726.43
527.874	14774.57
528.241	14879.65
528.607	14747
528.973	14816.15
529.339	14818.41
529.705	14816.38
530.071	14930.05
530.437	14888.69
530.803	14928.46
531.169	14839.65
531.535	14840.78
531.901	14852.08
532.267	14858.63
532.632	14909.93
532.998	14918.29
533.364	14893.44
533.73	14840.56
534.095	14886.66
534.461	14977.95
534.826	14918.75
535.192	14899.09
535.557	14914.23
535.923	14842.82
536.288	14835.36
536.653	14801.46
537.019	14748.36
537.384	14702.03
537.749	14614.8
538.114	14709.49
538.479	14648.24
538.845	14650.73
539.21	14605.53
539.575	14503.39
539.94	14556.27
540.305	14582.48
540.67	14473.56
541.034	14455.26
541.399	14463.16
541.764	14420.45
542.129	14379.55
542.494	14423.39
542.858	14389.49
543.223	14278.09
543.587	14330.29
543.952	14248.93
544.316	14174.36
544.681	14127.13
545.045	14053.68
545.41	14146.34
545.774	14098.88
546.138	14070.86
546.503	14001.71
546.867	13910.19
547.231	14019.33
547.595	13956.29
547.959	13984.99
548.324	13907.25
548.688	13906.8
549.052	13873.12
549.416	13788.38
549.779	13835.61
550.143	13667.48
550.507	13778.89
550.871	13709.51
551.235	13738.89
551.599	13729.17
551.962	13628.38
552.326	13538.67
552.689	13670.64
553.053	13511.78
553.417	13465.68
553.78	13620.93
554.143	13480.14
554.507	13417.32
554.87	13499.35
555.234	13580.93
555.597	13487.6
555.96	13381.39
556.323	13469.29
556.686	13380.48
557.05	13466.81
557.413	13410.09
557.776	13354.27
558.139	13429.07
558.502	13399.69
558.865	13355.4
559.228	13430.42
559.59	13417.32
559.953	13450.54
560.316	13488.73
560.679	13408.5
561.041	13467.03
561.404	13447.37
561.767	13490.54
562.129	13303.42
562.492	13530.31
562.854	13496.86
563.217	13491.89
563.579	13459.58
563.941	13446.24
564.304	13502.74
564.666	13510.42
565.028	13475.17
565.39	13574.6
565.753	13532.57
566.115	13581.15
566.477	13627.48
566.839	13627.71
567.201	13629.29
567.563	13594.04
567.925	13725.78
568.287	13669.51
568.648	13606.46
569.01	13645.79
569.372	13751.55
569.734	13606.01
570.095	13806.46
570.457	13737.99
570.819	13701.15
571.18	13723.3
571.542	13696.86
571.903	13731.43
572.265	13819.57
572.626	13829.74
572.987	13753.58
573.349	13866.12
573.71	13896.4
574.071	13902.5
574.432	13927.59
574.794	13942.27
575.155	13912.44
575.516	13904.08
575.877	13942.05
576.238	14013.91
576.599	13959
576.96	14006.23
577.32	13980.24
577.681	14009.39
578.042	13927.36
578.403	13943.86
578.763	13907.02
579.124	14010.75
579.485	14085.32
579.845	14143.17
580.206	14061.37
580.566	14050.07
580.927	14032.89
581.287	14076.28
581.648	14015.95
582.008	14104.08
582.368	13975.95
582.728	14029.96
583.089	13979.56
583.449	13902.28
583.809	13975.72
584.169	13948.15
584.529	13960.81
584.889	13975.95
585.249	13903.41
585.609	13930.52
585.969	13995.61
586.329	13945.89
586.688	13945.44
587.048	13827.48
587.408	13947.92
587.768	13869.51
588.127	13855.27
588.487	13822.73
588.846	13923.97
589.206	13825.44
589.565	13834.71
589.925	13832
590.284	13862.5
590.643	13796.06
591.003	13872.67
591.362	13845.78
591.721	13781.6
592.08	13847.36
592.44	13822.5
592.799	13893.01
593.158	13772.11
593.517	13779.79
593.876	13809.85
594.235	13734.14
594.593	13735.5
594.952	13830.41
595.311	13758.78
595.67	13759.91
596.029	13843.29
596.387	13917.64
596.746	13845.55
597.104	13743.64
597.463	13791.32
597.822	13753.81
598.18	13708.38
598.538	13689.63
598.897	13760.81
599.255	13650.53
599.613	13814.59
599.972	13726.91
600.33	13714.48
600.688	13659.34
601.046	13690.53
601.404	13743.41
601.762	13755.39
602.12	13838.1
602.478	13736.4
602.836	13841.03
603.194	13725.78
603.552	13743.64
603.91	13681.94
604.268	13706.35
604.625	13722.62
604.983	13776.4
605.341	13707.7
605.698	13856.63
606.056	13866.12
606.413	13738.21
606.771	13817.53
607.128	13807.36
607.485	13636.29
607.843	13772.56
608.2	13897.53
608.557	13870.86
608.914	13765.1
609.272	13800.58
609.629	13878.1
609.986	13992.44
610.343	13823.41
610.7	13889.85
611.057	14014.14
611.414	13952.9
611.771	13822.73
612.127	13947.47
612.484	13987.92
612.841	14011.65
613.198	13996.74
613.554	13959
613.911	14020.46
614.267	13983.86
614.624	13961.71
614.98	14047.36
615.337	14042.16
615.693	13985.21
616.05	13994.7
616.406	14072.21
616.762	14061.14
617.118	14035.38
617.475	14091.65
617.831	14097.52
618.187	14127.58
618.543	14126.9
618.899	14156.73
619.255	14170.07
619.611	14097.75
619.967	14285.77
620.323	14191.76
620.678	14127.81
621.034	14115.6
621.39	14209.61
621.746	14168.26
622.101	14268.14
622.457	14111.54
622.812	14161.03
623.168	14191.99
623.523	14154.92
623.879	14172.33
624.234	14136.17
624.589	14142.72
624.945	14195.15
625.3	14154.02
625.655	14213.91
626.01	14197.86
626.365	14204.64
626.72	14149.5
627.075	14208.26
627.43	14175.49
627.785	14231.98
628.14	14142.27
628.495	14155.6
628.85	14156.96
629.205	14073.8
629.559	14175.49
629.914	14149.27
630.269	14158.09
630.623	14153.57
630.978	14104.53
631.332	14122.83
631.687	14104.3
632.041	14030.86
632.396	14020.24
632.75	13994.25
633.104	14074.7
633.459	14006.91
633.813	14004.87
634.167	13876.97
634.521	13992.44
634.875	13908.15
635.229	13923.74
635.583	13824.76
635.937	13853.01
636.291	13854.37
636.645	13805.56
636.999	13746.57
637.352	13792.9
637.706	13774.37
638.06	13823.86
638.413	13731.21
638.767	13738.66
639.121	13870.64
639.474	13646.46
639.828	13741.38
640.181	13750.87
640.534	13596.07
640.888	13705.67
641.241	13595.17
641.594	13612.34
641.947	13680.59
642.301	13595.39
642.654	13606.69
643.007	13540.48
643.36	13612.57
643.713	13522.62
644.066	13629.97
644.419	13466.35
644.771	13469.97
645.124	13392.01
645.477	13316.08
645.83	13204.44
646.182	13247.15
646.535	13081.05
646.888	13191.56
647.24	13151.33
647.593	13162.86
647.945	13090.55
648.298	13003.54
648.65	13097.78
649.002	13017.1
649.355	13067.95
649.707	13042.86
650.059	13099.81
650.411	13201.5
650.763	13363.98
651.115	13451.21
651.467	13392.46
651.819	13315.17
652.171	13330.77
652.523	13354.72
652.875	13309.07
653.227	13375.06
653.578	13343.87
653.93	13397.2
654.282	13283.99
654.633	13220.49
654.985	13312.91
655.337	13387.04
655.688	13354.27
656.039	13378
656.391	13234.27
656.742	13288.28
657.094	13295.96
657.445	13428.39
657.796	13348.17
658.147	13326.25
658.498	13307.72
658.849	13313.59
659.2	13342.52
659.551	13340.03
659.902	13428.39
660.253	13297.32
660.604	13389.97
660.955	13363.98
661.306	13387.49
661.656	13328.28
662.007	13387.71
662.358	13410.99
662.708	13420.71
663.059	13420.48
663.409	13252.8
663.76	13403.76
664.11	13401.5
664.461	13459.35
664.811	13385.91
665.161	13384.1
665.511	13299.58
665.862	13388.84
666.212	13490.99
666.562	13409.41
666.912	13477.43
667.262	13374.61
667.612	13350.88
667.962	13338.67
668.312	13363.31
668.662	13476.75
669.011	13365.57
669.361	13298.68
669.711	13421.16
670.06	13279.47
670.41	13310.88
670.76	13312.69
671.109	13375.28
671.459	13390.88
671.808	13354.04
672.157	13439.01
672.507	13234.04
672.856	13328.51
673.205	13307.26
673.554	13279.69
673.904	13262.97
674.253	13363.98
674.602	13238.34
674.951	13097.55
675.3	13051.45
675.649	13177.32
675.998	13183.65
676.346	13273.37
676.695	13262.97
677.044	13133.93
677.393	13123.09
677.741	13225.46
678.09	13193.14
678.438	13038.12
678.787	13069.76
679.135	13108.17
679.484	13037.89
679.832	13098.68
680.181	13048.51
680.529	13049.19
680.877	12952.47
681.225	12889.42
681.573	12999.25
681.922	12901.4
682.27	12919.02
682.618	12900.27
682.966	12836.32
683.314	12863.21
683.661	12799.71
684.009	12759.71
684.357	12796.99
684.705	12715.41
685.053	12787.05
685.4	12702.31
685.748	12627.73
686.095	12630.9
686.443	12599.49
686.79	12648.07
687.138	12599.03
687.485	12728.97
687.832	12550.9
688.18	12545.48
688.527	12464.35
688.874	12431.58
689.221	12368.08
689.568	12339.38
689.915	12352.71
690.262	12299.15
690.609	12318.14
690.956	12201.3
691.303	12256.9
691.65	12141.19
691.997	12063.45
692.344	12118.14
692.69	11967.64
693.037	11968.99
693.383	11909.11
693.73	11955.89
694.077	11850.58
694.423	11876.57
694.769	11789.56
695.116	11807.64
695.462	11771.26
695.808	11737.59
696.155	11737.59
696.501	11631.6
696.847	11543.24
697.193	11448.78
697.539	11560.87
697.885	11404.04
698.231	11333.76
698.577	11340.08
698.923	11379.18
699.269	11276.58
699.614	11266.41
699.96	11219.86
700.306	11170.14
700.651	11112.74
700.997	11086.3
701.342	11124.5
701.688	11039.53
702.033	11020.09
702.379	11065.74
702.724	10908.46
703.069	10989.36
703.415	10897.61
703.76	10810.83
704.105	10846.54
704.45	10842.92
704.795	10828.01
705.14	10700.33
705.485	10657.62
705.83	10582.36
706.175	10642.47
706.52	10573.55
706.865	10553.89
707.209	10504.4
707.554	10509.6
707.899	10562.02
708.243	10469.15
708.588	10394.35
708.932	10352.99
709.277	10292.88
709.621	10365.42
709.966	10299.21
710.31	10275.25
710.654	10169.04
710.998	10213.33
711.342	10234.12
711.687	10161.36
712.031	10065.99
712.375	10067.8
712.719	10103.73
713.063	10066.44
713.407	10067.57
713.75	9991.42
714.094	10023.06
714.438	9968.82
714.782	10006.11
715.125	10003.85
715.469	10035.71
715.812	9960.68
716.156	9920.01
716.499	9847.92
716.843	9851.76
717.186	9810.63
717.53	9859.9
717.873	9841.37
718.216	9838.88
718.559	9827.81
718.902	9746.9
719.246	9803.85
719.589	9754.59
719.932	9699.45
720.275	9695.61
720.617	9688.15
720.96	9593.46
721.303	9723.63
721.646	9690.86
721.989	9622.39
722.331	9614.25
722.674	9637.3
723.016	9556.63
723.359	9603.41
723.701	9626.91
724.044	9554.14
724.386	9474.82
724.729	9554.82
725.071	9567.25
725.413	9535.38
725.755	9568.6
726.097	9455.39
726.439	9476.18
726.782	9498.1
727.124	9542.16
727.465	9480.7
727.807	9476.86
728.149	9479.34
728.491	9447.48
728.833	9436.86
729.175	9453.13
729.516	9486.12
729.858	9453.58
730.199	9510.3
730.541	9395.5
730.882	9427.82
731.224	9473.92
731.565	9385.56
731.906	9438.89
732.248	9449.74
732.589	9457.19
732.93	9358.21
733.271	9383.3
733.612	9410.42
733.953	9425.11
734.294	9337.88
734.635	9372.68
734.976	9385.33
735.317	9384.43
735.658	9363.19
735.999	9304.66
736.339	9373.81
736.68	9430.98
737.021	9424.43
737.361	9373.13
737.702	9430.75
738.042	9419.46
738.383	9395.28
738.723	9423.07
739.063	9368.61
739.404	9463.75
739.744	9473.69
740.084	9439.79
740.424	9495.84
740.764	9454.48
741.104	9490.41
741.444	9502.39
741.784	9467.82
742.124	9544.2
742.464	9531.32
742.804	9542.62
743.143	9527.25
743.483	9602.5
743.823	9528.38
744.162	9545.78
744.502	9594.14
744.841	9579.45
745.181	9720.46
745.52	9693.12
745.86	9760.01
746.199	9695.38
746.538	9827.13
746.877	9904.87
747.216	9877.97
747.556	9906.22
747.895	10003.17
748.234	9975.37
748.573	10036.61
748.911	10092.88
749.25	10218.08
749.589	10192.99
749.928	10246.33
750.267	10369.49
750.605	10419.2
750.944	10488.81
751.283	10532.19
751.621	10695.58
751.96	10632.53
752.298	10820.77
752.636	10981
752.975	10983.48
753.313	11088.11
753.651	11248.11
753.989	11333.08
754.327	11432.96
754.666	11577.82
755.004	11581.43
755.342	11889.9
755.679	12013.29
756.017	11991.14
756.355	12280.85
756.693	12345.71
757.031	12509.32
757.368	12595.42
757.706	12814.39
758.044	12903.66
758.381	13079.92
758.719	13237.89
759.056	13435.62
759.394	13603.07
759.731	13625.9
760.068	13842.84
760.405	14102.27
760.743	14120.8
761.08	14339.78
761.417	14539.32
761.754	14648.92
762.091	14870.61
762.428	14932.53
762.765	15086.43
763.102	15332.97
763.438	15485.74
763.775	15638.28
764.112	15781.77
764.449	16027.19
764.785	16217.24
765.122	16242.55
765.458	16387.86
765.795	16502.89
766.131	16756.44
766.467	16843.22
766.804	16962.76
767.14	17241.62
767.476	17424.89
767.812	17441.39
768.148	17618.34
768.485	17652.46
768.821	17831.66
769.157	17921.83
769.492	18087.7
769.828	18249.73
770.164	18366.34
770.5	18394.81
770.836	18549.84
771.171	18688.14
771.507	18666.44
771.842	18673.68
772.178	18858.53
772.513	18933.78
772.849	19034.34
773.184	19088.13
773.519	19286.09
773.855	19246.54
774.19	19268.24
774.525	19392.98
774.86	19517.95
775.195	19493.99
775.53	19569.25
775.865	19556.59
776.2	19545.29
776.535	19527.21
776.87	19611.5
777.205	19636.81
777.539	19713.42
777.874	19800.65
778.209	19750.71
778.543	19753.87
778.878	19807.21
779.212	19855.11
779.547	19778.28
779.881	19887.43
780.215	19862.34
780.55	19963.13
780.884	19961.55
781.218	19985.51
781.552	20013.08
781.886	20006.3
782.22	19938.05
782.554	19853.98
782.888	19745.29
783.222	19797.49
783.556	19838.62
783.889	19797.71
784.223	19734.21
784.557	19741.9
784.89	19862.34
785.224	19668.23
785.557	19705.96
785.891	19785.28
786.224	19645.18
786.558	19714.1
786.891	19664.38
787.224	19579.64
787.557	19538.29
787.891	19494.9
788.224	19620.54
788.557	19566.53
788.89	19439.08
789.223	19515.69
789.556	19356.6
789.888	19417.61
790.221	19237.95
790.554	19290.61
790.887	19254.9
791.219	19327.22
791.552	19250.84
791.884	19126.09
792.217	19164.96
792.549	19128.35
792.882	19024.17
793.214	19078.41
793.546	18957.51
793.879	18910.96
794.211	18798.64
794.543	18924.06
794.875	18871.64
795.207	18938.53
795.539	18819.89
795.871	18918.87
796.203	18751.64
796.535	18574.7
796.867	18635.94
797.198	18567.69
797.53	18565.88
797.862	18487.92
798.193	18525.43
798.525	18445.66
798.856	18464.87
799.188	18321.59
799.519	18188.26
799.85	18174.25
800.182	18120.24
800.513	18182.16
800.844	18087.93
801.175	18104.88
801.506	18122.73
801.837	18039.12
802.168	17928.84
802.499	17960.7
802.83	17932.68
803.161	17785.34
803.491	17820.14
803.822	17793.47
804.153	17625.57
804.483	17622.86
804.814	17517.77
805.145	17534.04
805.475	17580.6
805.805	17465.57
806.136	17497.66
806.466	17437.55
806.796	17515.97
807.126	17391
807.457	17259.25
807.787	17251.11
808.117	17228.29
808.447	17126.15
808.777	17209.08
809.107	17166.37
809.436	17033.72
809.766	17151.68
810.096	17109.65
810.426	16918.02
810.755	16891.58
811.085	16956.21
811.414	16913.5
811.744	16711.02
812.073	16774.52
812.403	16738.13
812.732	16669.89
813.061	16754.4
813.39	16722.77
813.719	16554.64
814.049	16650.9
814.378	16615.42
814.707	16484.58
815.036	16458.14
815.365	16477.58
815.693	16274.42
816.022	16297.24
816.351	16271.03
816.68	16299.73
817.008	16276.9
817.337	16134.31
817.665	16051.37
817.994	16103.57
818.322	16154.19
818.651	16010.69
818.979	15983.35
819.307	16080.75
819.636	15984.48
819.964	15970.92
820.292	16039.85
820.62	15948.78
820.948	15940.19
821.276	15965.5
821.604	15851.83
821.932	15993.52
822.259	15975.22
822.587	15919.85
822.915	15848.44
823.243	15961.43
823.57	15796.92
823.898	15867.42
824.225	15741.32
824.553	15865.39
824.88	15872.17
825.207	15956.68
825.535	15814.54
825.862	15891.38
826.189	15935.67
826.516	15934.09
826.843	16013.86
827.17	15931.83
827.497	15949
827.824	15868.78
828.151	15981.77
828.478	15873.52
828.805	15933.63
829.131	15999.85
829.458	15934.99
829.785	15779.06
830.111	15957.36
830.438	15969.34
830.764	15881.88
831.09	15924.82
831.417	15844.37
831.743	15897.48
832.069	15836.46
832.395	15921.88
832.722	15976.57
833.048	15816.58
833.374	15874.43
833.7	15760.53
834.026	15893.18
834.351	15854.54
834.677	15744.94
835.003	15883.24
835.329	15715.79
835.654	15732.74
835.98	15615.9
836.306	15682.57
836.631	15685.28
836.956	15681.21
837.282	15716.01
837.607	15575
837.932	15638.05
838.258	15515.79
838.583	15544.94
838.908	15455.91
839.233	15520.09
839.558	15517.37
839.883	15414.1
840.208	15389.24
840.533	15438.05
840.858	15392.41
841.182	15398.96
841.507	15390.15
841.832	15261.11
842.156	15203.94
842.481	15245.97
842.805	15160.1
843.13	15182.47
843.454	15062.7
843.778	15047.1
844.103	15022.47
844.427	14969.82
844.751	15042.13
845.075	14932.98
845.399	14932.76
845.723	14777.96
846.047	14777.28
846.371	14751.29
846.695	14686.89
847.019	14660
847.343	14493.67
847.666	14437.18
847.99	14366.9
848.313	14419.55
848.637	14295.49
848.96	14273.11
849.284	14247.8
849.607	14147.69
849.931	14123.06
850.254	14009.17
850.577	13986.57
850.9	13878.77
851.223	13810.53
851.546	13853.69
851.869	13682.17
852.192	13744.99
852.515	13649.63
852.838	13593.81
853.161	13580.25
853.483	13545.9
853.806	13533.7
854.129	13431.55
854.451	13379.35
854.774	13325.34
855.096	13286.02
855.419	13294.83
855.741	13225.01
856.063	13075.86
856.385	13054.39
856.708	13040.83
857.03	13016.42
857.352	13014.62
857.674	13039.7
857.996	12854.39
858.318	12905.01
858.64	12861.85
858.961	12827.05
859.283	12804.45
859.605	12734.17
859.926	12731.01
860.248	12641.52
860.57	12661.4
860.891	12695.53
861.212	12545.93
861.534	12552.03
861.855	12484.01
862.176	12508.41
862.498	12521.07
862.819	12472.26
863.14	12467.29
863.461	12382.77
863.782	12373.05
864.103	12453.95
864.424	12378.7
864.745	12319.72
865.065	12342.77
865.386	12262.32
865.707	12259.61
866.027	12215.31
866.348	12241.98
866.668	12157.46
866.989	12173.73
867.309	12061.65
867.63	12154.98
867.95	12166.5
868.27	12053.06
868.59	12006.28
868.91	12087.18
869.23	12028.43
869.55	11973.96
869.87	12082.21
870.19	11939.84
870.51	11961.99
870.83	11975.77
871.15	11893.51
871.469	11927.64
871.789	11887.87
872.109	11912.72
872.428	11759.73
872.748	11817.81
873.067	11809.68
873.386	11773.07
873.706	11724.71
874.025	11698.94
874.344	11662.79
874.663	11669.34
874.982	11650.13
875.301	11651.94
875.62	11657.81
875.939	11581.66
876.258	11634.99
876.577	11575.78
876.896	11552.06
877.214	11535.33
877.533	11559.96
877.852	11506.18
878.17	11502.56
878.489	11480.64
878.807	11540.08
879.125	11426.63
879.444	11427.09
879.762	11382.57
880.08	11417.37
880.398	11369.69
880.716	11380.76
881.034	11264.6
881.352	11325.62
881.67	11289.24
881.988	11235.23
882.306	11231.16
882.624	11192.06
882.941	11152.74
883.259	11170.82
883.577	11087.21
883.894	11010.37
884.212	11147.77
884.529	11068
884.846	11046.98
885.164	10976.48
885.481	10929.92
885.798	10952.3
886.115	10900.32
886.432	10849.02
886.75	10830.94
887.067	10889.25
887.383	10780.55
887.7	10757.05
888.017	10724.51
888.334	10720.66
888.651	10661
888.967	10625.98
889.284	10642.25
889.6	10591.63
889.917	10506.88
890.233	10554.79
890.55	10487.68
890.866	10494.46
891.182	10463.72
891.498	10392.99
891.815	10387.79
892.131	10262.15
892.447	10321.13
892.763	10260.11
893.079	10204.97
893.395	10254.01
893.71	10280.45
894.026	10242.03
894.342	10120.45
894.657	10041.81
894.973	10054.47
895.289	10051.76
895.604	10054.47
895.92	9988.71
896.235	9956.84
896.55	9887.69
896.865	9819.45
897.181	9797.75
897.496	9918.2
897.811	9776.06
898.126	9805.43
898.441	9710.97
898.756	9746.45
899.071	9649.73
899.386	9605.89
899.7	9482.28
900.015	9491.32
900.33	9472.79
900.644	9462.62
900.959	9474.37
901.273	9386.01
901.588	9357.31
901.902	9295.84
902.216	9266.47
902.531	9294.94
902.845	9249.97
903.159	9194.6
903.473	9191.89
903.787	9058.34
904.101	9028.73
904.415	9062.85
904.729	9012.46
905.042	8960.94
905.356	8948.96
905.67	8912.35
905.984	8892.46
906.297	8859.92
906.611	8793.03
906.924	8757.78
907.237	8756.87
907.551	8688.18
907.864	8694.5
908.177	8629.19
908.491	8593.04
908.804	8578.12
909.117	8485.69
909.43	8504
909.743	8400.73
910.056	8402.76
910.368	8410.89
910.681	8317.79
910.994	8322.31
911.307	8313.5
911.619	8227.17
911.932	8237.79
912.244	8214.74
912.557	8186.04
912.869	8089.32
913.181	8111.24
913.494	8001.87
913.806	8016.33
914.118	7983.79
914.43	7925.94
914.742	7945.37
915.054	7892.26
915.366	7882.77
915.678	7765.26
915.99	7742.66
916.302	7744.25
916.613	7707.86
916.925	7698.37
917.236	7651.14
917.548	7634.19
917.859	7591.03
918.171	7535.66
918.482	7530.69
918.794	7507.87
919.105	7447.98
919.416	7390.81
919.727	7405.95
920.038	7348.32
920.349	7341.32
920.66	7276.69
920.971	7323.92
921.282	7289.57
921.593	7218.61
921.903	7186.29
922.214	7210.25
922.525	7204.37
922.835	7147.2
923.146	7066.52
923.456	7092.51
923.767	6980.42
924.077	6987.2
924.387	6987.2
924.697	6939.97
925.008	6872.63
925.318	6902.69
925.628	6891.39
925.938	6846.19
926.248	6775.91
926.558	6760.99
926.867	6741.11
927.177	6682.35
927.487	6654.56
927.796	6678.06
928.106	6613.65
928.416	6598.74
928.725	6605.97
929.034	6521.45
929.344	6517.39
929.653	6469.93
929.962	6508.12
930.271	6406.65
930.581	6424.51
930.89	6385.41
931.199	6362.13
931.508	6339.76
931.817	6332.98
932.125	6295.24
932.434	6224.06
932.743	6189.26
933.051	6201.01
933.36	6197.39
933.669	6150.39
933.977	6090.5
934.286	6115.59
934.594	6066.32
934.902	6056.15
935.21	6008.47
935.519	6006.21
935.827	5942.26
936.135	5932.32
936.443	5894.35
936.751	5917.63
937.059	5836.5
937.367	5789.72
937.674	5819.1
937.982	5829.04
938.29	5792.88
938.597	5778.2
938.905	5695.03
939.213	5676.05
939.52	5628.14
939.827	5670.4
940.135	5621.82
940.442	5606.9
940.749	5589.05
941.056	5563.96
941.363	5545.89
941.67	5474.93
941.977	5510.63
942.284	5417.53
942.591	5448.71
942.898	5424.53
943.205	5373.91
943.511	5309.73
943.818	5350.18
944.125	5341.82
944.431	5288.26
944.738	5253.24
945.044	5280.13
945.35	5259.11
945.657	5246.01
945.963	5154.26
946.269	5158.1
946.575	5133.47
946.881	5117.87
947.187	5103.86
947.493	5085.78
947.799	5058.67
948.105	5001.27
948.41	5009.63
948.716	5041.94
949.022	4939.35
949.327	4994.04
949.633	4909.29
949.938	4907.94
950.244	4855.51
950.549	4845.56
950.854	4805.11
951.16	4817.09
951.465	4796.3
951.77	4793.59
952.075	4758.34
952.38	4780.26
952.685	4753.36
952.99	4706.81
953.294	4652.35
953.599	4648.06
953.904	4636.08
954.209	4568.06
954.513	4588.62
954.818	4538.91
955.122	4570.77
955.426	4514.95
955.731	4495.97
956.035	4499.36
956.339	4479.02
956.643	4465.46
956.948	4442.41
957.252	4410.55
957.556	4394.5
957.86	4384.79
958.163	4359.48
958.467	4358.8
958.771	4332.36
959.075	4323.09
959.378	4240.16
959.682	4261.85
959.985	4267.27
960.289	4284.9
960.592	4218.24
960.896	4140.5
961.199	4140.95
961.502	4178.24
961.805	4142.98
962.108	4129.43
962.411	4112.7
962.714	4083.32
963.017	4090.33
963.32	4051.91
963.623	4038.58
963.926	4043.33
964.228	4028.64
964.531	3992.71
964.833	3990.67
965.136	3949.09
965.438	3913.84
965.741	3954.29
966.043	3894.18
966.345	3907.06
966.648	3889.66
966.95	3839.72
967.252	3823.67
967.554	3823.67
967.856	3760.85
968.158	3766.72
968.46	3729.66
968.761	3736.89
969.063	3724.01
969.365	3744.35
969.666	3744.12
969.968	3667.29
970.269	3622.77
970.571	3678.82
970.872	3628.87
971.174	3599.5
971.475	3603.56
971.776	3589.33
972.077	3602.21
972.378	3565.6
972.679	3530.8
972.98	3521.98
973.281	3528.76
973.582	3491.93
973.883	3497.35
974.183	3436.11
974.484	3451.25
974.785	3453.74
975.085	3394.08
975.386	3399.95
975.686	3413.74
975.986	3388.43
976.287	3336.23
976.587	3346.4
976.887	3341.65
977.187	3321.54
977.487	3313.18
977.787	3297.58
978.087	3245.15
978.387	3233.86
978.687	3262.1
978.987	3212.39
979.286	3184.14
979.586	3179.17
979.885	3163.35
980.185	3182.56
980.484	3129
980.784	3124.71
981.083	3133.29
981.382	3081.09
981.682	3082.67
981.981	3113.63
982.28	3053.97
982.579	3060.3
982.878	3045.16
983.177	3014.43
983.475	3013.75
983.774	2965.84
984.073	2968.55
984.372	2977.59
984.67	2943.47
984.969	2954.09
985.267	2926.07
985.566	2922
985.864	2934.43
986.162	2892.17
986.461	2868.22
986.759	2878.16
987.057	2835.9
987.355	2850.14
987.653	2802.91
987.951	2758.61
988.249	2778.95
988.547	2766.98
988.844	2776.69
989.142	2739.86
989.44	2741.21
989.737	2732.63
990.035	2703.93
990.332	2730.37
990.63	2683.36
990.927	2678.62
991.224	2649.46
991.521	2653.76
991.819	2656.47
992.116	2633.19
992.413	2598.84
992.71	2590.48
993.006	2573.76
993.303	2590.26
993.6	2595.68
993.897	2562.91
994.193	2540.99
994.49	2567.88
994.787	2518.85
995.083	2521.56
995.379	2493.31
995.676	2486.76
995.972	2463.48
996.268	2492.63
996.565	2451.5
996.861	2417.38
997.157	2435.91
997.453	2433.65
997.749	2397.95
998.044	2417.15
998.34	2371.28
998.636	2342.81
998.932	2342.13
999.227	2337.38
999.523	2354.78
999.818	2306.2
1000.114	2293.32
1000.409	2285.86
1000.704	2299.87
1001	2264.39
1001.295	2264.39
1001.59	2294.45
1001.885	2203.6
1002.18	2213.54
1002.475	2193.43
1002.77	2212.87
1003.065	2143.49
1003.359	2175.13
1003.654	2143.26
1003.949	2151.85
1004.243	2135.35
1004.538	2123.83
1004.832	2132.64
1005.127	2081.12
1005.421	2093.32
1005.715	2051.74
1006.009	2040.67
1006.304	2034.34
1006.598	2067.33
1006.892	2033.89
1007.186	1988.92
1007.48	2038.18
1007.773	1973.78
1008.067	1980.78
1008.361	1941.69
1008.655	1948.01
1008.948	1934.91
1009.242	1925.42
1009.535	1936.49
1009.829	1914.12
1010.122	1909.37
1010.415	1877.51
1010.708	1869.6
1011.001	1849.26
1011.295	1864.85
1011.588	1823.5
1011.881	1844.06
1012.173	1806.77
1012.466	1823.72
1012.759	1797.96
1013.052	1814.23
1013.344	1776.94
1013.637	1750.5
1013.93	1755.02
1014.222	1747.57
1014.514	1724.52
1014.807	1744.18
1015.099	1703.73
1015.391	1725.19
1015.683	1710.05
1015.976	1704.86
1016.268	1698.3
1016.56	1634.35
1016.851	1680.9
1017.143	1654.69
1017.435	1657.63
1017.727	1615.59
1018.018	1591.64
1018.31	1591.41
1018.602	1601.81
1018.893	1582.37
1019.185	1597.06
1019.476	1593.67
1019.767	1566.55
1020.058	1540.11
1020.35	1519.78
1020.641	1505.77
1020.932	1492.43
1021.223	1517.06
1021.514	1494.92
1021.804	1498.31
1022.095	1475.26
1022.386	1456.28
1022.677	1460.79
1022.967	1437.29
1023.258	1460.12
1023.548	1421.47
1023.839	1413.34
1024.129	1416.05
1024.419	1411.98
1024.709	1380.8
1025	1368.59
1025.29	1368.59
1025.58	1368.59
1025.87	1365.66
1026.16	1357.07
1026.449	1347.58
1026.739	1341.02
1027.029	1317.97
1027.319	1291.31
1027.608	1281.59
1027.898	1306.45
1028.187	1277.97
1028.477	1296.28
1028.766	1268.26
1029.055	1282.49
1029.344	1240.01
1029.634	1220.8
1029.923	1243.17
1030.212	1245.43
1030.501	1254.7
1030.79	1208.37
1031.078	1185.77
1031.367	1189.39
1031.656	1188.49
1031.945	1177.64
1032.233	1166.57
1032.522	1170.63
1032.81	1143.06
1033.099	1166.57
1033.387	1168.83
1033.675	1123.18
1033.963	1130.41
1034.251	1122.27
1034.54	1114.14
1034.828	1097.87
1035.116	1097.87
1035.403	1073.23
1035.691	1093.8
1035.979	1075.49
1036.267	1076.85
1036.554	1095.38
1036.842	1060.58
1037.129	1052.9
1037.417	1020.35
1037.704	1029.62
1037.992	1001.82
1038.279	1015.83
1038.566	1010.19
1038.853	1010.19
1039.14	1010.19
