Data from hue_90_FLMS001491_79.txt Node
Date: Mon Feb 06 15:25:38 GMT 2017
User: dcchb
Spectrometer: FLMS00149
Trigger mode: 0
Integration Time (sec): 2.000000E-2
Scans to average: 10
Electric dark correction enabled: true
Nonlinearity correction enabled: false
Boxcar width: 0
XAxis mode: Wavelengths
Number of Pixels in Spectrum: 2048
>>>>>Begin Spectral Data<<<<<
341.393	-1.85
341.776	-1.85
342.16	-1.85
342.543	-45.69
342.927	-47.5
343.31	-76.65
343.693	-64.67
344.077	-66.71
344.46	-52.02
344.843	-33.94
345.226	-44.11
345.61	-35.07
345.993	-31
346.376	-12.7
346.759	17.58
347.142	31.6
347.525	66.17
347.908	50.8
348.291	57.36
348.674	82.44
349.057	110.92
349.44	143.23
349.823	136.45
350.206	163.34
350.588	194.08
350.971	216.68
351.354	206.28
351.737	235.66
352.119	248.76
352.502	276.11
352.884	279.72
353.267	280.85
353.65	306.16
354.032	297.8
354.414	302.77
354.797	308.65
355.179	302.77
355.562	332.6
355.944	323.56
356.326	336.22
356.709	326.05
357.091	363.56
357.473	339.61
357.855	317.46
358.238	333.51
358.62	340.06
359.002	335.77
359.384	312.72
359.766	322.44
360.148	333.73
360.53	335.99
360.912	334.41
361.294	336.67
361.676	327.41
362.057	336.67
362.439	331.02
362.821	330.34
363.203	318.14
363.584	328.76
363.966	318.37
364.348	341.87
364.729	330.12
365.111	312.72
365.493	343.45
365.874	323.56
366.256	313.85
366.637	314.53
367.019	322.89
367.4	319.95
367.781	319.27
368.163	303.9
368.544	302.77
368.925	326.28
369.306	307.29
369.688	310.91
370.069	324.69
370.45	316.56
370.831	317.24
371.212	305.49
371.593	316.11
371.974	317.46
372.355	297.8
372.736	315.88
373.117	329.67
373.498	319.5
373.879	328.54
374.26	310.01
374.641	333.06
375.021	304.81
375.402	327.63
375.783	315.43
376.163	337.58
376.544	324.69
376.925	333.73
377.305	323.56
377.686	324.02
378.066	307.97
378.447	337.58
378.827	323.11
379.208	333.28
379.588	351.13
379.968	332.83
380.349	338.48
380.729	331.47
381.109	352.49
381.489	325.15
381.87	348.2
382.25	341.87
382.63	329.89
383.01	330.57
383.39	334.41
383.77	343.23
384.15	334.19
384.53	359.27
384.91	353.39
385.29	358.37
385.67	342.32
386.049	337.58
386.429	344.13
386.809	338.71
387.189	335.99
387.568	350
387.948	342.32
388.328	359.27
388.707	343
389.087	360.17
389.466	374.19
389.846	361.08
390.225	360.4
390.605	388.2
390.984	380.96
391.363	381.19
391.743	379.16
392.122	380.96
392.501	372.15
392.881	362.66
393.26	380.96
393.639	380.96
394.018	367.86
394.397	374.86
394.776	378.7
395.155	374.86
395.534	385.48
395.913	383.45
396.292	371.25
396.671	379.16
397.05	400.85
397.429	369.67
397.808	393.39
398.186	370.8
398.565	390
398.944	406.05
399.323	391.13
399.701	387.52
400.08	407.86
400.458	407.86
400.837	399.27
401.215	409.44
401.594	394.75
401.972	389.1
402.351	412.15
402.729	375.99
403.107	414.18
403.486	411.7
403.864	395.43
404.242	407.63
404.62	424.13
404.999	413.28
405.377	437.91
405.755	413.05
406.133	416.67
406.511	404.47
406.889	414.64
407.267	434.07
407.645	424.58
408.023	444.69
408.401	433.17
408.779	452.15
409.156	435.43
409.534	451.47
409.912	448.99
410.29	454.18
410.667	451.7
411.045	451.02
411.422	449.66
411.8	454.41
412.178	483.79
412.555	473.17
412.933	468.19
413.31	457.8
413.687	463
414.065	480.4
414.442	488.98
414.819	463
415.197	478.59
415.574	463.22
415.951	487.18
416.328	499.38
416.705	512.26
417.082	483.33
417.46	511.13
417.837	489.89
418.214	521.75
418.591	499.38
418.967	509.77
419.344	508.87
419.721	510
420.098	521.3
420.475	512.49
420.852	515.88
421.228	521.98
421.605	539.6
421.982	532.82
422.358	539.38
422.735	527.63
423.111	531.7
423.488	536.21
423.864	548.87
424.241	580.28
424.617	584.58
424.994	562.65
425.37	568.08
425.746	569.66
426.123	563.56
426.499	594.07
426.875	602.65
427.251	568.3
427.627	607.85
428.003	603.78
428.379	618.7
428.756	580.96
429.132	612.14
429.507	591.13
429.883	604.01
430.259	615.99
430.635	611.92
431.011	651.69
431.387	651.24
431.763	622.09
432.138	631.13
432.514	640.39
432.89	697.57
433.265	657.57
433.641	664.12
434.016	676.32
434.392	664.57
434.767	701.86
435.143	688.08
435.518	711.8
435.894	725.36
436.269	696.44
436.644	702.76
437.02	693.72
437.395	688.75
437.77	726.04
438.145	739.15
438.52	747.06
438.895	731.92
439.271	707.74
439.646	753.61
440.021	772.37
440.395	788.19
440.77	784.34
441.145	773.95
441.52	796.77
441.895	771.01
442.27	812.82
442.645	832.03
443.019	809.43
443.394	797.45
443.769	812.14
444.143	818.69
444.518	832.93
444.892	828.64
445.267	843.55
445.641	834.51
446.016	843.33
446.39	840.16
446.764	852.14
447.139	881.06
447.513	864.57
447.887	878.58
448.262	858.24
448.636	862.99
449.01	861.63
449.384	864.12
449.758	911.8
450.132	897.56
450.506	913.61
450.88	924
451.254	919.93
451.628	921.29
452.002	938.46
452.376	928.29
452.75	959.03
453.123	955.86
453.497	962.87
453.871	964
454.244	996.99
454.618	995.19
454.992	1024.79
455.365	1019.59
455.739	1032.47
456.112	1034.51
456.486	1051.23
456.859	1047.16
457.232	1064.79
457.606	1072.7
457.979	1063.66
458.352	1093.71
458.725	1106.82
459.099	1099.82
459.472	1140.27
459.845	1150.89
460.218	1168.97
460.591	1172.36
460.964	1182.75
461.337	1207.16
461.71	1217.1
462.083	1224.56
462.456	1233.6
462.829	1262.75
463.201	1279.02
463.574	1284.22
463.947	1297.1
464.32	1344.1
464.692	1328.51
465.065	1321.05
465.438	1363.31
465.81	1399.69
466.183	1432.24
466.555	1439.69
466.928	1455.74
467.3	1452.35
467.672	1484.89
468.045	1528.51
468.417	1544.1
468.789	1547.71
469.161	1545.23
469.534	1622.51
469.906	1628.16
470.278	1638.78
470.65	1674.94
471.022	1721.72
471.394	1758.56
471.766	1767.37
472.138	1766.01
472.51	1856.41
472.882	1892.11
473.253	1949.96
473.625	1956.52
473.997	2012.11
474.369	2039.9
474.74	2077.87
475.112	2106.34
475.484	2122.84
475.855	2213.91
476.227	2241.03
476.598	2310.18
476.97	2354.02
477.341	2440.8
477.713	2468.14
478.084	2492.77
478.455	2608.48
478.827	2643.28
479.198	2730.06
479.569	2775.25
479.94	2888.92
480.311	2953.33
480.682	3019.99
481.053	3118.29
481.424	3173.43
481.795	3256.82
482.166	3350.38
482.537	3420.66
482.908	3523.93
483.279	3582.69
483.65	3729.13
484.021	3809.35
484.391	3859.07
484.762	3932.51
485.133	4024.48
485.503	4150.58
485.874	4279.62
486.244	4360.29
486.615	4460.63
486.985	4590.12
487.356	4727.74
487.726	4800.06
488.097	4963.44
488.467	4993.95
488.837	5156.43
489.207	5287.95
489.578	5386.71
489.948	5543.99
490.318	5635.06
490.688	5708.51
491.058	5892.91
491.428	6030.31
491.798	6107.37
492.168	6261.94
492.538	6393.91
492.908	6456.51
493.278	6618.77
493.648	6694.7
494.017	6794.13
494.387	6920.23
494.757	7077.96
495.126	7167
495.496	7218.52
495.866	7310.73
496.235	7509.14
496.605	7617.16
496.974	7787.32
497.344	7832.29
497.713	7943.48
498.082	8010.59
498.452	8155.9
498.821	8246.75
499.19	8302.34
499.559	8400.64
499.928	8495.55
500.298	8637.47
500.667	8728.77
501.036	8761.31
501.405	8858.03
501.774	8986.39
502.143	9062.54
502.512	9100.96
502.88	9233.84
503.249	9259.6
503.618	9331.46
503.987	9467.96
504.356	9508.18
504.724	9534.4
505.093	9625.92
505.462	9734.62
505.83	9748.63
506.199	9856.65
506.567	10011.67
506.936	10045.12
507.304	10078.34
507.672	10223.42
508.041	10278.56
508.409	10341.38
508.777	10417.99
509.145	10452.34
509.514	10528.72
509.882	10613.24
510.25	10586.35
510.618	10686.68
510.986	10733.23
511.354	10779.56
511.722	10852.33
512.09	10955.83
512.458	10945.43
512.826	10995.15
513.193	11068.59
513.561	11101.81
513.929	11168.7
514.297	11267.91
514.664	11191.3
515.032	11253.22
515.4	11403.95
515.767	11414.8
516.135	11474.46
516.502	11396.49
516.869	11596.49
517.237	11577.51
517.604	11547.22
517.972	11596.26
518.339	11635.81
518.706	11669.26
519.073	11675.58
519.44	11709.48
519.808	11854.56
520.175	11874
520.542	11933.88
520.909	12008.46
521.276	11910.6
521.643	11989.92
522.009	12133.2
522.376	12073.99
522.743	12146.76
523.11	12140.88
523.477	12344.72
523.843	12282.57
524.21	12346.3
524.577	12395.11
524.943	12404.38
525.31	12387.65
525.676	12533.41
526.043	12493.19
526.409	12553.07
526.776	12582.9
527.142	12591.72
527.508	12650.7
527.874	12754.2
528.241	12736.57
528.607	12710.58
528.973	12781.99
529.339	12708.1
529.705	12728.89
530.071	12851.37
530.437	12834.42
530.803	12820.19
531.169	12849.11
531.535	12730.7
531.901	12800.53
532.267	12887.75
532.632	12908.54
532.998	12873.74
533.364	12899.05
533.73	12837.36
534.095	12905.83
534.461	12887.98
534.826	12860.18
535.192	12876.23
535.557	12892.95
535.923	12887.53
536.288	12827.64
536.653	12882.78
537.019	12712.84
537.384	12804.82
537.749	12874.2
538.114	12739.06
538.479	12745.39
538.845	12827.87
539.21	12635.33
539.575	12755.78
539.94	12671.26
540.305	12733.18
540.67	12629.68
541.034	12651.6
541.399	12659.74
541.764	12585.39
542.129	12635.33
542.494	12574.54
542.858	12692.96
543.223	12567.31
543.587	12589.23
543.952	12471.04
544.316	12480.08
544.681	12466.52
545.045	12462.45
545.41	12446.18
545.774	12472.62
546.138	12349.69
546.503	12354.89
546.867	12308.33
547.231	12395.56
547.595	12300.43
547.959	12269.47
548.324	12273.08
548.688	12251.16
549.052	12201.22
549.416	12106.31
549.779	12226.3
550.143	12203.7
550.507	12138.4
550.871	12098.85
551.235	12097.27
551.599	12104.05
551.962	12037.38
552.326	12073.09
552.689	12099.53
553.053	12007.1
553.417	12001.68
553.78	12161.9
554.143	11987.44
554.507	11928.91
554.87	11971.62
555.234	12093.2
555.597	11915.12
555.96	11941.56
556.323	11989.47
556.686	11910.83
557.05	11960.1
557.413	11933.43
557.776	11861.57
558.139	11907.89
558.502	11875.13
558.865	11964.61
559.228	11978.85
559.59	11953.32
559.953	11920.32
560.316	11973.43
560.679	12021.56
561.041	11903.6
561.404	12058.17
561.767	12005.74
562.129	11958.97
562.492	12083.48
562.854	11991.28
563.217	12050.94
563.579	12030.38
563.941	12043.48
564.304	12080.54
564.666	12061.11
565.028	12095.68
565.39	12037.38
565.753	12076.25
566.115	12123.93
566.477	12137.27
566.839	12114.67
567.201	12214.1
567.563	12254.32
567.925	12245.29
568.287	12261.56
568.648	12246.19
569.01	12285.51
569.372	12287.09
569.734	12263.36
570.095	12320.54
570.457	12313.08
570.819	12373.19
571.18	12299.75
571.542	12431.27
571.903	12425.85
572.265	12416.81
572.626	12380.88
572.987	12367.99
573.349	12471.95
573.71	12426.75
574.071	12460.19
574.432	12433.3
574.794	12604.6
575.155	12524.37
575.516	12403.02
575.877	12514.2
576.238	12525.05
576.599	12551.72
576.96	12583.81
577.32	12521.66
577.681	12513.75
578.042	12468.78
578.403	12529.35
578.763	12571.6
579.124	12526.86
579.485	12603.02
579.845	12545.16
580.206	12613.19
580.566	12627.42
580.927	12493.41
581.287	12588.78
581.648	12588.1
582.008	12554.43
582.368	12594.43
582.728	12510.82
583.089	12576.12
583.449	12513.3
583.809	12569.34
584.169	12548.33
584.529	12491.15
584.889	12624.48
585.249	12547.42
585.609	12537.71
585.969	12612.51
586.329	12557.14
586.688	12511.04
587.048	12534.32
587.408	12504.71
587.768	12510.36
588.127	12366.41
588.487	12402.57
588.846	12531.61
589.206	12380.88
589.565	12371.38
589.925	12451.83
590.284	12418.16
590.643	12404.38
591.003	12451.83
591.362	12446.64
591.721	12403.7
592.08	12385.17
592.44	12445.51
592.799	12464.49
593.158	12401.67
593.517	12435.11
593.876	12432.63
594.235	12400.99
594.593	12384.94
594.952	12444.15
595.311	12350.14
595.67	12445.28
596.029	12468.78
596.387	12455.45
596.746	12369.58
597.104	12394.43
597.463	12355.11
597.822	12300.65
598.18	12347.66
598.538	12349.69
598.897	12351.05
599.255	12289.13
599.613	12490.48
599.972	12416.35
600.33	12427.65
600.688	12338.16
601.046	12353.08
601.404	12427.43
601.762	12401.89
602.12	12534.77
602.478	12391.27
602.836	12432.63
603.194	12354.89
603.552	12360.31
603.91	12303.36
604.268	12344.72
604.625	12326.41
604.983	12349.92
605.341	12279.63
605.698	12360.31
606.056	12385.17
606.413	12319.86
606.771	12401.44
607.128	12340.42
607.485	12413.19
607.843	12312.4
608.2	12369.35
608.557	12433.3
608.914	12370.48
609.272	12526.18
609.629	12496.58
609.986	12466.3
610.343	12419.29
610.7	12528.22
611.057	12497.48
611.414	12439.4
611.771	12499.74
612.127	12518.05
612.484	12565.28
612.841	12641.21
613.198	12587.88
613.554	12524.15
613.911	12607.76
614.267	12569.8
614.624	12567.99
614.98	12563.02
615.337	12673.07
615.693	12612.73
616.05	12574.32
616.406	12622.9
616.762	12628.78
617.118	12528.67
617.475	12652.51
617.831	12631.26
618.187	12627.42
618.543	12657.48
618.899	12718.49
619.255	12673.52
619.611	12707.65
619.967	12724.59
620.323	12713.3
620.678	12647.53
621.034	12608.89
621.39	12703.58
621.746	12638.5
622.101	12850.47
622.457	12664.71
622.812	12719.85
623.168	12706.52
623.523	12783.58
623.879	12815.67
624.234	12660.19
624.589	12815.44
624.945	12704.48
625.3	12732.28
625.655	12701.09
626.01	12763.92
626.365	12723.46
626.72	12716.23
627.075	12698.15
627.43	12669.23
627.785	12662.68
628.14	12666.52
628.495	12727.08
628.85	12717.59
629.205	12754.42
629.559	12731.15
629.914	12667.2
630.269	12680.98
630.623	12584.71
630.978	12548.33
631.332	12642.56
631.687	12668.78
632.041	12611.6
632.396	12577.25
632.75	12552.17
633.104	12582.23
633.459	12531.83
633.813	12480.53
634.167	12538.84
634.521	12490.93
634.875	12546.07
635.229	12509.69
635.583	12430.37
635.937	12436.47
636.291	12443.7
636.645	12434.43
636.999	12379.29
637.352	12368.67
637.706	12322.35
638.06	12454.32
638.413	12316.7
638.767	12355.11
639.121	12361.89
639.474	12337.49
639.828	12305.85
640.181	12354.89
640.534	12329.35
640.888	12284.61
641.241	12202.12
641.594	12285.28
641.947	12277.37
642.301	12231.05
642.654	12247.09
643.007	12243.7
643.36	12170.26
643.713	12149.24
644.066	12200.99
644.419	12115.57
644.771	12029.47
645.124	11944.28
645.477	11962.81
645.83	11895.92
646.182	11811.4
646.535	11775.47
646.888	11730.27
647.24	11695.24
647.593	11832.19
647.945	11797.16
648.298	11711.97
648.65	11637.39
649.002	11711.97
649.355	11725.75
649.707	11727.78
650.059	11835.8
650.411	11962.13
650.763	11986.99
651.115	12048
651.467	12052.52
651.819	12020.88
652.171	12102.01
652.523	11981.79
652.875	11937.04
653.227	11845.3
653.578	12013.65
653.93	11920.32
654.282	11954.9
654.633	11892.07
654.985	11928.01
655.337	11913.32
655.688	11980.89
656.039	12013.88
656.391	11944.73
656.742	11956.25
657.094	11932.75
657.445	11975.91
657.796	11975.91
658.147	12022.01
658.498	11991.96
658.849	12044.84
659.2	12005.74
659.551	11909.02
659.902	11973.43
660.253	11986.08
660.604	11992.86
660.955	11921.23
661.306	12011.39
661.656	12021.11
662.007	11988.34
662.358	11957.38
662.708	11949.25
663.059	11980.43
663.409	11981.11
663.76	12087.1
664.11	12014.11
664.461	11989.25
664.811	12024.05
665.161	12019.75
665.511	12003.26
665.862	12032.64
666.212	12026.31
666.562	12121.67
666.912	12019.75
667.262	12113.09
667.612	12007.55
667.962	12001.9
668.312	12050.26
668.662	12015.01
669.011	11999.87
669.361	12023.6
669.711	11989.7
670.06	11982.92
670.41	11900.44
670.76	11921
671.109	11939.53
671.459	11915.35
671.808	11945.41
672.157	11961
672.507	11804.84
672.856	11910.6
673.205	11897.72
673.554	11923.49
673.904	11934.56
674.253	11885.07
674.602	11878.97
674.951	11760.78
675.3	11711.29
675.649	11864.05
675.998	11795.13
676.346	11773.21
676.695	11845.07
677.044	11669.03
677.393	11848.91
677.741	11809.36
678.09	11770.04
678.438	11749.03
678.787	11794.22
679.135	11734.56
679.484	11612.53
679.832	11777.73
680.181	11620.9
680.529	11689.37
680.877	11638.75
681.225	11606.43
681.573	11711.97
681.922	11598.97
682.27	11477.62
682.618	11572.08
682.966	11457.74
683.314	11474.23
683.661	11517.17
684.009	11476.94
684.357	11525.76
684.705	11372.99
685.053	11418.41
685.4	11387.45
685.748	11346.1
686.095	11295.71
686.443	11287.8
686.79	11279.21
687.138	11257.29
687.485	11288.7
687.832	11183.39
688.18	11281.24
688.527	11175.71
688.874	11120.34
689.221	11179.55
689.568	11043.06
689.915	11088.71
690.262	11018.88
690.609	10935.26
690.956	10953.79
691.303	10900.01
691.65	10900.91
691.997	10871.76
692.344	10818.88
692.69	10795.15
693.037	10736.62
693.383	10679.45
693.73	10647.81
694.077	10597.65
694.423	10741.14
694.769	10588.83
695.116	10524.2
695.462	10544.54
695.808	10549.51
696.155	10528.27
696.501	10455.28
696.847	10428.38
697.193	10350.42
697.539	10403.53
697.885	10185.9
698.231	10230.2
698.577	10186.81
698.923	10210.54
699.269	10163.53
699.614	10112.23
699.96	10086.92
700.306	10096.64
700.651	10024.78
700.997	9975.74
701.342	9958.34
701.688	9895.29
702.033	9820.26
702.379	9845.12
702.724	9818.91
703.069	9914.95
703.415	9784.79
703.76	9749.53
704.105	9692.36
704.45	9670.44
704.795	9572.14
705.14	9590.67
705.485	9568.52
705.83	9501.4
706.175	9552.25
706.52	9514.74
706.865	9430.22
707.209	9469.31
707.554	9384.12
707.899	9442.65
708.243	9430.22
708.588	9354.51
708.932	9255.53
709.277	9269.77
709.621	9244.69
709.966	9200.62
710.31	9204.91
710.654	9095.31
710.998	9159.04
711.342	9132.82
711.687	9089.89
712.031	9052.15
712.375	9023
712.719	9042.21
713.063	9070.91
713.407	9050.57
713.75	8985.26
714.094	9034.07
714.438	8963.79
714.782	8970.12
715.125	8955.43
715.469	8933.96
715.812	8815.09
716.156	8846.73
716.499	8839.73
716.843	8836.11
717.186	8851.48
717.53	8851.7
717.873	8814.64
718.216	8831.36
718.559	8721.76
718.902	8717.47
719.246	8694.64
719.589	8683.12
719.932	8697.36
720.275	8741.87
720.617	8659.16
720.96	8624.14
721.303	8699.62
721.646	8637.47
721.989	8544.59
722.331	8585.95
722.674	8579.39
723.016	8644.02
723.359	8619.62
723.701	8588.66
724.044	8536.68
724.386	8478.83
724.729	8549.34
725.071	8547.53
725.413	8491.03
725.755	8518.6
726.097	8456.23
726.439	8509.34
726.782	8411.04
727.124	8465.72
727.465	8453.07
727.807	8422.79
728.149	8429.79
728.491	8456.91
728.833	8487.42
729.175	8438.38
729.516	8415.78
729.858	8438.61
730.199	8443.13
730.541	8455.55
730.882	8383.92
731.224	8408.78
731.565	8424.14
731.906	8417.36
732.248	8414.43
732.589	8300.98
732.93	8328.55
733.271	8374.65
733.612	8384.14
733.953	8353.64
734.294	8371.04
734.635	8398.61
734.976	8449.45
735.317	8329.46
735.658	8278.16
735.999	8414.65
736.339	8346.18
736.68	8418.04
737.021	8318.16
737.361	8303.69
737.702	8414.65
738.042	8337.59
738.383	8340.3
738.723	8362.45
739.063	8382.56
739.404	8428.44
739.744	8399.28
740.084	8460.75
740.424	8401.09
740.764	8437.93
741.104	8447.42
741.444	8449
741.784	8491.26
742.124	8464.59
742.464	8409.91
742.804	8544.14
743.143	8443.58
743.483	8536.46
743.823	8481.77
744.162	8559.28
744.502	8568.32
744.841	8587.53
745.181	8618.49
745.52	8586.17
745.86	8630.47
746.199	8641.54
746.538	8671.37
746.877	8718.15
747.216	8781.2
747.556	8798.14
747.895	8887.86
748.234	8816
748.573	8854.41
748.911	9001.98
749.25	9071.58
749.589	9003.79
749.928	9117.46
750.267	9183.67
750.605	9238.13
750.944	9204.91
751.283	9314.29
751.621	9407.85
751.96	9503.89
752.298	9550.67
752.636	9591.34
752.975	9692.36
753.313	9725.58
753.651	9820.04
753.989	9934.61
754.327	10026.59
754.666	10073.59
755.004	10239.69
755.342	10363.07
755.679	10345.22
756.017	10497.76
756.355	10656.85
756.693	10733.69
757.031	10875.15
757.368	10902.72
757.706	11060.68
758.044	11153.56
758.381	11315.37
758.719	11443.95
759.056	11561.24
759.394	11714.45
759.731	11754
760.068	11920.32
760.405	12033.77
760.743	12137.72
761.08	12330.25
761.417	12370.93
761.754	12582
762.091	12719.85
762.428	12790.81
762.765	12929.34
763.102	13066.51
763.438	13179.05
763.775	13254.07
764.112	13390.34
764.449	13568.19
764.785	13672.59
765.122	13769.99
765.458	13820.84
765.795	14038.68
766.131	14169.3
766.467	14210.43
766.804	14292.69
767.14	14374.49
767.476	14498.56
767.812	14542.85
768.148	14703.07
768.485	14788.04
768.821	14839.57
769.157	14962.95
769.492	15056.96
769.828	15175.38
770.164	15207.24
770.5	15273.45
770.836	15335.83
771.171	15392.55
771.507	15511.41
771.842	15446.11
772.178	15590.28
772.513	15736.27
772.849	15708.7
773.184	15723.61
773.519	15935.81
773.855	15844.29
774.19	15921.12
774.525	15930.61
774.86	16088.57
775.195	16105.3
775.53	16077.95
775.865	16182.58
776.2	16095.35
776.535	16072.98
776.87	16161.57
777.205	16140.32
777.539	16092.19
777.874	16216.25
778.209	16104.62
778.543	16211.28
778.878	16131.51
779.212	16270.94
779.547	16286.54
779.881	16304.16
780.215	16224.84
780.55	16304.39
780.884	16276.14
781.218	16284.05
781.552	16359.08
781.886	16336.7
782.22	16251.28
782.554	16302.35
782.888	16125.86
783.222	16264.16
783.556	16083.83
783.889	16083.38
784.223	16055.58
784.557	16066.88
784.89	16158.18
785.224	16030.04
785.557	16025.98
785.891	16051.51
786.224	16039.76
786.558	16028.69
786.891	15887.45
787.224	15900.78
787.557	15896.26
787.891	15924.51
788.224	15895.36
788.557	16021.91
788.89	15874.57
789.223	15950.05
789.556	15789.82
789.888	15728.81
790.221	15686.78
790.554	15620.34
790.887	15685.87
791.219	15642.71
791.552	15677.29
791.884	15601.36
792.217	15531.3
792.549	15562.49
792.882	15453.11
793.214	15393.23
793.546	15444.98
793.879	15296.96
794.211	15283.4
794.543	15275.94
794.875	15218.31
795.207	15262.61
795.539	15249.05
795.871	15274.36
796.203	15121.82
796.535	15112.55
796.867	15013.35
797.198	15038.21
797.53	15048.6
797.862	14948.49
798.193	14957.98
798.525	14912.56
798.856	14931.32
799.188	14723.41
799.519	14807.7
799.85	14647.93
800.182	14648.39
800.513	14687.48
800.844	14615.84
801.175	14743.98
801.506	14591.44
801.837	14549.41
802.168	14520.93
802.499	14378.11
802.83	14393.7
803.161	14366.36
803.491	14464.21
803.822	14340.6
804.153	14249.53
804.483	14205.91
804.814	14188.51
805.145	14147.83
805.475	14091.34
805.805	14164.33
806.136	14039.59
806.466	14130.89
806.796	14041.85
807.126	13969.53
807.457	13930.66
807.787	13958.23
808.117	13920.27
808.447	13809.76
808.777	13872.59
809.107	13856.09
809.436	13788.52
809.766	13837.11
810.096	13670.56
810.426	13636.89
810.755	13654.74
811.085	13671.01
811.414	13603.22
811.744	13524.12
812.073	13578.81
812.403	13597.57
812.732	13406.16
813.061	13438.25
813.39	13379.49
813.719	13314.86
814.049	13395.99
814.378	13292.94
814.707	13294.3
815.036	13311.02
815.365	13321.87
815.693	13167.52
816.022	13182.89
816.351	13128.88
816.68	13036.68
817.008	13103.34
817.337	12942.44
817.665	13007.53
817.994	13032.38
818.322	13007.3
818.651	12909.45
818.979	12860.41
819.307	12920.07
819.636	12849.34
819.964	12831.48
820.292	12914.65
820.62	12870.13
820.948	12795.33
821.276	12914.42
821.604	12848.43
821.932	12808.21
822.259	12790.81
822.587	12806.63
822.915	12848.43
823.243	12871.03
823.57	12732.5
823.898	12868.77
824.225	12783.58
824.553	12780.19
824.88	12792.84
825.207	12840.07
825.535	12757.14
825.862	12837.81
826.189	12742.67
826.516	12808.89
826.843	12898.83
827.17	12881.2
827.497	12859.51
827.824	12804.82
828.151	12875.33
828.478	12795.55
828.805	12900.18
829.131	12861.54
829.458	12824.48
829.785	12744.93
830.111	12746.97
830.438	12821.77
830.764	12754.65
831.09	12779.96
831.417	12747.19
831.743	12785.16
832.069	12790.81
832.395	12750.58
832.722	12818.83
833.048	12700.64
833.374	12774.76
833.7	12698.83
834.026	12646.18
834.351	12715.1
834.677	12717.14
835.003	12723.01
835.329	12680.53
835.654	12713.75
835.98	12609.57
836.306	12651.83
836.631	12601.43
836.956	12565.95
837.282	12607.08
837.607	12539.97
837.932	12537.93
838.258	12591.94
838.583	12487.09
838.908	12438.95
839.233	12473.08
839.558	12471.95
839.883	12392.4
840.208	12357.6
840.533	12355.34
840.858	12428.11
841.182	12325.96
841.507	12342.46
841.832	12292.06
842.156	12344.72
842.481	12237.83
842.805	12193.08
843.13	12185.63
843.454	12083.26
843.778	12173.2
844.103	12081
844.427	12052.75
844.751	12085.29
845.075	12100.2
845.399	11975.24
845.723	11859.76
846.047	11939.3
846.371	11805.97
846.695	11775.92
847.019	11768.91
847.343	11686.88
847.666	11648.69
847.99	11660.89
848.313	11631.06
848.637	11508.36
848.96	11519.43
849.284	11522.37
849.607	11477.17
849.931	11352.65
850.254	11350.39
850.577	11252.32
850.9	11174.58
851.223	11183.39
851.546	11037.41
851.869	11038.76
852.192	11083.51
852.515	11013
852.838	10872.21
853.161	10996.05
853.483	10850.29
853.806	10794.7
854.129	10817.07
854.451	10712.44
854.774	10664.08
855.096	10787.7
855.419	10704.76
855.741	10606.23
856.063	10552.22
856.385	10547.48
856.708	10520.13
857.03	10438.33
857.352	10534.82
857.674	10398.33
857.996	10430.64
858.318	10383.41
858.64	10424.09
858.961	10322.4
859.283	10306.81
859.605	10234.94
859.926	10225.23
860.248	10204.89
860.57	10114.27
860.891	10240.59
861.212	10088.05
861.534	10116.98
861.855	10064.55
862.176	10088.51
862.498	10086.25
862.819	10043.76
863.14	10040.6
863.461	10046.93
863.782	9941.84
864.103	9905.91
864.424	9881.96
864.745	9948.62
865.065	9892.35
865.386	9919.47
865.707	9898.23
866.027	9870.88
866.348	9862.3
866.668	9802.19
866.989	9810.1
867.309	9715.86
867.63	9763.09
867.95	9770.32
868.27	9683.77
868.59	9710.66
868.91	9647.16
869.23	9639.25
869.55	9588.63
869.87	9722.41
870.19	9625.69
870.51	9650.1
870.83	9615.52
871.15	9530.78
871.469	9537.56
871.789	9622.08
872.109	9609.42
872.428	9501.4
872.748	9565.81
873.067	9514.28
873.386	9551.8
873.706	9498.01
874.025	9456.43
874.344	9411.01
874.663	9448.75
874.982	9430.44
875.301	9430.44
875.62	9382.99
875.939	9333.95
876.258	9380.05
876.577	9269.54
876.896	9242.2
877.214	9213.95
877.533	9277.23
877.852	9255.31
878.17	9243.33
878.489	9265.48
878.807	9244.01
879.125	9216.66
879.444	9225.25
879.762	9164.91
880.08	9177.57
880.398	9114.29
880.716	9119.94
881.034	9076.1
881.352	9067.74
881.67	9079.72
881.988	9111.58
882.306	8982.55
882.624	8994.98
882.941	8961.08
883.259	8956.56
883.577	8923.34
883.894	8956.33
884.212	8890.57
884.529	8893.51
884.846	8886.28
885.164	8872.27
885.481	8844.24
885.798	8856
886.115	8789.56
886.432	8722.67
886.75	8709.11
887.067	8731.03
887.383	8671.37
887.7	8716.56
888.017	8645.61
888.334	8635.89
888.651	8621.43
888.967	8585.49
889.284	8571.48
889.6	8547.08
889.917	8492.62
890.233	8501.43
890.55	8442.22
890.866	8455.33
891.182	8471.83
891.498	8389.57
891.815	8396.35
892.131	8413.75
892.447	8271.15
892.763	8316.8
893.079	8305.95
893.395	8267.99
893.71	8241.32
894.026	8181.89
894.342	8186.41
894.657	8171.95
894.973	8107.99
895.289	8162.45
895.604	8091.04
895.92	8080.42
896.235	8045.85
896.55	7969.01
896.865	7946.42
897.181	7923.14
897.496	7964.72
897.811	7899.41
898.126	7920.2
898.441	7878.17
898.756	7800.43
899.071	7830.26
899.386	7769.47
899.7	7688.12
900.015	7676.59
900.33	7590.94
900.644	7640.66
900.959	7611.51
901.273	7579.42
901.588	7538.29
901.902	7495.35
902.216	7465.3
902.531	7477.05
902.845	7381.23
903.159	7379.88
903.473	7327.45
903.787	7301.46
904.101	7269.37
904.415	7261.69
904.729	7293.55
905.042	7188.92
905.356	7171.29
905.67	7230.73
905.984	7145.31
906.297	7167.68
906.611	7085.87
906.924	7036.83
907.237	7031.86
907.551	7033.22
907.864	6985.31
908.177	6997.29
908.491	6996.84
908.804	6906.67
909.117	6871.19
909.43	6854.47
909.743	6793.45
910.056	6808.14
910.368	6730.85
910.681	6680.91
910.994	6707.58
911.307	6693.57
911.619	6699.89
911.932	6628.71
912.244	6578.99
912.557	6578.09
912.869	6544.42
913.181	6522.05
913.494	6529.5
913.806	6461.48
914.118	6487.47
914.43	6405.66
914.742	6421.71
915.054	6457.19
915.366	6366.8
915.678	6371.54
915.99	6289.28
916.302	6217.42
916.613	6273.69
916.925	6243.86
917.236	6249.28
917.548	6138.33
917.859	6177.42
918.171	6114.6
918.482	6105.33
918.794	6082.51
919.105	6060.82
919.416	6003.87
919.727	6024.66
920.038	5976.07
920.349	5952.8
920.66	5949.18
920.971	5973.59
921.282	5904.66
921.593	5827.83
921.903	5832.35
922.214	5767.72
922.525	5770.43
922.835	5774.27
923.146	5741.28
923.456	5771.56
923.767	5650.43
924.077	5715.06
924.387	5592.58
924.697	5614.5
925.008	5639.81
925.318	5584.67
925.628	5601.84
925.938	5534.05
926.248	5484.56
926.558	5511
926.867	5452.92
927.177	5407.5
927.487	5389.87
927.796	5389.65
928.106	5370.66
928.416	5379.25
928.725	5296.54
929.034	5297.22
929.344	5341.06
929.653	5307.84
929.962	5255.41
930.271	5268.52
930.581	5228.52
930.89	5192.36
931.199	5171.57
931.508	5142.42
931.817	5159.6
932.125	5098.13
932.434	5117.34
932.743	5001.63
933.051	5088.19
933.36	5001.63
933.669	4955.31
933.977	4962.09
934.286	4925.7
934.594	4967.74
934.902	4905.14
935.21	4868.98
935.519	4845.71
935.827	4840.96
936.135	4817.01
936.443	4748.08
936.751	4783.11
937.059	4767.29
937.367	4746.5
937.674	4700.85
937.982	4742.88
938.29	4674.64
938.597	4678.7
938.905	4627.18
939.213	4614.98
939.52	4599.16
939.827	4629.21
940.135	4582.21
940.442	4585.6
940.749	4577.24
941.056	4576.33
941.363	4493.85
941.67	4484.59
941.977	4478.94
942.284	4477.81
942.591	4436.23
942.898	4403.68
943.205	4375.21
943.511	4422.21
943.818	4335.89
944.125	4330.24
944.431	4286.17
944.738	4342.67
945.044	4296.12
945.35	4309.22
945.657	4253.63
945.963	4244.59
946.269	4207.98
946.575	4229
946.881	4200.53
947.187	4182.67
947.493	4160.98
947.799	4140.64
948.105	4109.45
948.41	4069.23
948.716	4081.66
949.022	4041.43
949.327	4041.21
949.633	4022.9
949.938	4043.92
950.244	4024.03
950.549	3945.39
950.854	3962.79
951.16	3937.26
951.465	3915.56
951.77	3917.14
952.075	3898.39
952.38	3881.66
952.685	3869.91
952.99	3820.2
953.294	3781.55
953.599	3804.6
953.904	3798.95
954.209	3772.97
954.513	3773.42
954.818	3731.16
955.122	3696.36
955.426	3738.16
955.731	3665.85
956.035	3668.79
956.339	3637.6
956.643	3621.56
956.948	3613.2
957.252	3628.79
957.556	3627.43
957.86	3600.99
958.163	3578.39
958.467	3576.59
958.771	3541.33
959.075	3498.85
959.378	3504.95
959.682	3520.99
959.985	3490.94
960.289	3453.88
960.592	3451.84
960.896	3455.01
961.199	3402.58
961.502	3394.9
961.805	3394.22
962.108	3348.8
962.411	3363.03
962.714	3336.14
963.017	3343.15
963.32	3307.67
963.623	3303.15
963.926	3301.57
964.228	3253.43
964.531	3238.97
964.833	3265.41
965.136	3198.97
965.438	3180.21
965.741	3178.86
966.043	3169.14
966.345	3182.02
966.648	3167.33
966.95	3106.09
967.252	3125.98
967.554	3148.35
967.856	3115.36
968.158	3086.66
968.46	3118.52
968.761	3054.11
969.063	3046.21
969.365	3007.34
969.666	3014.57
969.968	3013.21
970.269	3034.68
970.571	3006.66
970.872	2970.05
971.174	2954.68
971.475	2968.69
971.776	2946.77
972.077	2907.23
972.378	2920.11
972.679	2946.09
972.98	2932.99
973.281	2878.53
973.582	2908.36
973.883	2810.96
974.183	2823.61
974.484	2855.02
974.785	2851.63
975.085	2821.8
975.386	2817.06
975.686	2798.08
975.986	2794.69
976.287	2763.27
976.587	2754.91
976.887	2739.32
977.187	2699.1
977.487	2727.57
977.787	2698.42
978.087	2707.01
978.387	2683.28
978.687	2667.23
978.987	2641.7
979.286	2645.76
979.586	2630.17
979.885	2602.6
980.185	2602.83
980.484	2614.8
980.784	2590.62
981.083	2559.66
981.382	2559.21
981.682	2560.57
981.981	2569.16
982.28	2584.75
982.579	2553.34
982.878	2525.77
983.177	2478.54
983.475	2505.65
983.774	2474.69
984.073	2449.61
984.372	2425.2
984.67	2464.53
984.969	2440.35
985.267	2471.98
985.566	2401.7
985.864	2425.88
986.162	2398.31
986.461	2369.16
986.759	2363.51
987.057	2369.39
987.355	2352.44
987.653	2342.49
987.951	2331.87
988.249	2348.37
988.547	2316.05
988.844	2318.54
989.142	2304.3
989.44	2243.29
989.737	2254.59
990.035	2238.99
990.332	2274.47
990.63	2233.35
990.927	2213.91
991.224	2197.87
991.521	2162.16
991.819	2180.24
992.116	2161.48
992.413	2188.6
992.71	2149.73
993.006	2148.38
993.303	2155.16
993.6	2132.1
993.897	2128.94
994.193	2141.82
994.49	2095.5
994.787	2107.25
995.083	2083.97
995.379	2091.65
995.676	2084.42
995.972	2060.69
996.268	2060.92
996.565	2036.51
996.861	2036.29
997.157	2012.33
997.453	2005.33
997.749	2009.4
998.044	1976.4
998.34	2009.85
998.636	1981.37
998.932	1975.5
999.227	1989.96
999.523	1941.38
999.818	1935.5
1000.114	1930.53
1000.409	1908.83
1000.704	1913.13
1001	1893.47
1001.295	1905.67
1001.59	1875.84
1001.885	1851.66
1002.18	1859.8
1002.475	1818.21
1002.77	1816.18
1003.065	1791.77
1003.359	1823.86
1003.654	1785.22
1003.949	1795.39
1004.243	1784.77
1004.538	1782.06
1004.832	1737.54
1005.127	1745.67
1005.421	1752.45
1005.715	1719.46
1006.009	1726.92
1006.304	1706.13
1006.598	1693.92
1006.892	1695.96
1007.186	1684.89
1007.48	1721.72
1007.773	1642.63
1008.067	1675.85
1008.361	1648.73
1008.655	1657.32
1008.948	1645.56
1009.242	1619.8
1009.535	1622.51
1009.829	1607.15
1010.122	1608.5
1010.415	1589.75
1010.708	1617.09
1011.001	1580.26
1011.295	1539.58
1011.588	1542.06
1011.881	1556.98
1012.173	1530.09
1012.466	1537.09
1012.759	1511.33
1013.052	1536.64
1013.344	1519.47
1013.637	1482.18
1013.93	1472.91
1014.222	1483.99
1014.514	1470.88
1014.807	1490.09
1015.099	1459.81
1015.391	1447.83
1015.683	1399.47
1015.976	1438.79
1016.268	1426.59
1016.56	1413.03
1016.851	1401.95
1017.143	1388.62
1017.435	1364.44
1017.727	1384.1
1018.018	1410.77
1018.31	1359.47
1018.602	1365.12
1018.893	1342.97
1019.185	1359.24
1019.476	1331.45
1019.767	1330.77
1020.058	1317.89
1020.35	1295.06
1020.641	1307.95
1020.932	1278.79
1021.223	1282.86
1021.514	1287.61
1021.804	1249.87
1022.095	1241.05
1022.386	1246.93
1022.677	1222.75
1022.967	1262.07
1023.258	1222.98
1023.548	1227.27
1023.839	1200.38
1024.129	1232.47
1024.419	1197.44
1024.709	1170.77
1025	1198.34
1025.29	1166.25
1025.58	1186.82
1025.87	1143.88
1026.16	1125.13
1026.449	1130.32
1026.739	1111.79
1027.029	1138.01
1027.319	1100.04
1027.608	1089.87
1027.898	1093.94
1028.187	1104.79
1028.477	1072.02
1028.766	1086.26
1029.055	1105.24
1029.344	1089.19
1029.634	1069.08
1029.923	1034.73
1030.212	1043.09
1030.501	1060.49
1030.79	1045.13
1031.078	1038.57
1031.367	1051.23
1031.656	991.8
1031.945	1007.39
1032.233	1008.29
1032.522	1029.31
1032.81	1007.16
1033.099	977.33
1033.387	992.02
1033.675	979.59
1033.963	969.42
1034.251	966.71
1034.54	964.45
1034.828	963.1
1035.116	956.09
1035.403	981.4
1035.691	926.71
1035.979	949.31
1036.267	947.05
1036.554	917.67
1036.842	922.19
1037.129	906.83
1037.417	926.71
1037.704	904.79
1037.992	914.06
1038.279	905.02
1038.566	920.84
1038.853	920.84
1039.14	920.84
