Data from hue_150_FLMS001491_00027.txt Node
Date: Tue Feb 07 16:53:50 GMT 2017
User: dcchb
Spectrometer: FLMS00149
Trigger mode: 0
Integration Time (sec): 2.000000E-2
Scans to average: 10
Electric dark correction enabled: true
Nonlinearity correction enabled: false
Boxcar width: 0
XAxis mode: Wavelengths
Number of Pixels in Spectrum: 2048
>>>>>Begin Spectral Data<<<<<
341.393	-15.51
341.776	-15.51
342.16	-15.51
342.543	-73.36
342.927	-78.78
343.31	-57.09
343.693	-73.13
344.077	-58.67
344.46	-57.09
344.843	-57.54
345.226	-40.59
345.61	-23.87
345.993	-26.36
346.376	-8.05
346.759	37.15
347.142	28.11
347.525	27.88
347.908	49.35
348.291	69.46
348.674	81.66
349.057	108.78
349.44	114.66
349.823	120.08
350.206	156.46
350.588	178.16
350.971	195.79
351.354	200.53
351.737	221.32
352.119	252.06
352.502	254.77
352.884	258.61
353.267	288.21
353.65	299.29
354.032	304.94
354.414	302.9
354.797	298.83
355.179	313.75
355.562	345.16
355.944	318.49
356.326	330.02
356.709	322.11
357.091	326.4
357.473	363.24
357.855	339.06
358.238	344.48
358.62	319.85
359.002	341.54
359.384	328.89
359.766	343.35
360.148	332.96
360.53	335.22
360.912	319.62
361.294	352.39
361.676	330.47
362.057	329.34
362.439	318.04
362.821	314.43
363.203	341.32
363.584	320.3
363.966	317.14
364.348	313.07
364.729	324.14
365.111	321.43
365.493	316.23
365.874	304.03
366.256	296.8
366.637	320.08
367.019	294.31
367.4	299.06
367.781	318.95
368.163	311.94
368.544	321.88
368.925	311.49
369.306	330.25
369.688	301.09
370.069	302.22
370.45	301.32
370.831	311.94
371.212	325.27
371.593	303.13
371.974	321.88
372.355	329.57
372.736	304.48
373.117	314.43
373.498	305.39
373.879	318.27
374.26	307.2
374.641	319.85
375.021	309.46
375.402	328.89
375.783	330.02
376.163	323.92
376.544	324.6
376.925	321.66
377.305	324.82
377.686	328.89
378.066	348.55
378.447	327.53
378.827	331.38
379.208	335.9
379.588	332.73
379.968	340.41
380.349	311.94
380.729	327.08
381.109	346.74
381.489	307.65
381.87	338.83
382.25	356.91
382.63	335.9
383.01	334.09
383.39	334.77
383.77	344.48
384.15	355.56
384.53	359.4
384.91	339.74
385.29	351.04
385.67	381.09
386.049	340.64
386.429	369.57
386.809	360.3
387.189	338.38
387.568	346.74
387.948	346.52
388.328	366.63
388.707	377.02
389.087	365.05
389.466	379.28
389.846	360.53
390.225	365.72
390.605	382.67
390.984	385.84
391.363	386.29
391.743	377.48
392.122	368.89
392.501	372.28
392.881	377.25
393.26	382.22
393.639	383.35
394.018	382.45
394.397	383.35
394.776	382.9
395.155	382.45
395.534	410.47
395.913	393.07
396.292	400.3
396.671	381.77
397.05	388.32
397.429	404.14
397.808	385.16
398.186	411.6
398.565	381.32
398.944	421.99
399.323	407.76
399.701	378.15
400.08	409.34
400.458	416.12
400.837	411.83
401.215	385.84
401.594	416.12
401.972	407.98
402.351	413.41
402.729	416.57
403.107	430.81
403.486	423.12
403.864	430.81
404.242	433.75
404.62	416.57
404.999	416.57
405.377	441.88
405.755	466.29
406.133	445.95
406.511	429.23
406.889	464.03
407.267	451.82
407.645	466.29
408.023	461.99
408.401	453.41
408.779	481.65
409.156	456.34
409.534	464.25
409.912	470.13
410.29	479.85
410.667	471.48
411.045	507.19
411.422	512.39
411.8	501.99
412.178	478.94
412.555	479.85
412.933	493.41
413.31	508.32
413.687	497.25
414.065	494.54
414.442	536.12
414.819	503.12
415.197	544.25
415.574	527.98
415.951	545.61
416.328	514.65
416.705	539.96
417.082	532.05
417.46	538.15
417.837	542.9
418.214	548.54
418.591	529.34
418.967	532.05
419.344	545.16
419.721	557.81
420.098	557.58
420.475	564.36
420.852	560.97
421.228	587.64
421.605	576.34
421.982	561.2
422.358	604.59
422.735	577.92
423.111	589.45
423.488	588.09
423.864	627.41
424.241	604.81
424.617	619.05
424.994	616.34
425.37	608.43
425.746	623.35
426.123	614.53
426.499	644.36
426.875	617.7
427.251	617.92
427.627	639.39
428.003	639.62
428.379	661.08
428.756	661.99
429.132	668.54
429.507	687.3
429.883	689.56
430.259	692.27
430.635	700.41
431.011	691.82
431.387	721.65
431.763	718.94
432.138	725.72
432.514	733.17
432.89	720.29
433.265	741.53
433.641	761.65
434.016	784.02
434.392	768.88
434.767	780.4
435.143	752.38
435.518	795.77
435.894	776.56
436.269	788.09
436.644	802.55
437.02	815.43
437.395	828.09
437.77	839.84
438.145	831.7
438.52	848.2
438.895	830.8
439.271	848.88
439.646	862.89
440.021	853.4
440.395	854.75
440.77	879.84
441.145	870.12
441.52	907.63
441.895	903.11
442.27	912.6
442.645	907.41
443.019	925.94
443.394	938.82
443.769	914.64
444.143	915.09
444.518	946.05
444.892	895.43
445.267	924.81
445.641	944.01
446.016	983.79
446.39	969.55
446.764	957.57
447.139	974.97
447.513	979.49
447.887	984.24
448.262	1031.02
448.636	993.05
449.01	1035.76
449.384	1020.62
449.758	1038.25
450.132	1044.35
450.506	1040.96
450.88	1065.14
451.254	1059.27
451.628	1052.26
452.002	1080.28
452.376	1068.98
452.75	1092.03
453.123	1115.76
453.497	1122.99
453.871	1145.14
454.244	1138.36
454.618	1191.92
454.992	1187.85
455.365	1139.26
455.739	1191.01
456.112	1193.73
456.486	1186.49
456.859	1218.58
457.232	1243.44
457.606	1234.4
457.979	1280.05
458.352	1283.67
458.725	1315.76
459.099	1320.05
459.472	1331.12
459.845	1349.2
460.218	1395.08
460.591	1367.05
460.964	1411.12
461.337	1420.84
461.71	1425.36
462.083	1485.92
462.456	1450.89
462.829	1471.01
463.201	1491.34
463.574	1514.17
463.947	1515.98
464.32	1562.08
464.692	1554.17
465.065	1593.26
465.438	1618.57
465.81	1624.9
466.183	1697.67
466.555	1719.81
466.928	1736.08
467.3	1734.95
467.672	1766.37
468.045	1798
468.417	1817.44
468.789	1857.89
469.161	1849.98
469.534	1901.96
469.906	1946.7
470.278	1979.47
470.65	1984.44
471.022	2045.23
471.394	2061.5
471.766	2101.27
472.138	2148.95
472.51	2206.35
472.882	2267.37
473.253	2285.22
473.625	2323.19
473.997	2365.45
474.369	2392.34
474.74	2468.72
475.112	2501.71
475.484	2567.02
475.855	2647.7
476.227	2695.16
476.598	2772.22
476.97	2794.36
477.341	2877.3
477.713	2966.79
478.084	3014.02
478.455	3094.01
478.827	3169.94
479.198	3287.23
479.569	3304.63
479.94	3382.37
480.311	3453.33
480.682	3606.54
481.053	3707.33
481.424	3781.91
481.795	3851.96
482.166	3962.01
482.537	4029.81
482.908	4160.43
483.279	4219.41
483.65	4359.07
484.021	4477.71
484.391	4586.63
484.762	4678.38
485.133	4787.98
485.503	4901.65
485.874	5031.14
486.244	5120.85
486.615	5313.62
486.985	5404.01
487.356	5578.47
487.726	5692.14
488.097	5792.02
488.467	5910.21
488.837	6052.81
489.207	6209.19
489.578	6286.02
489.948	6450.99
490.318	6606.69
490.688	6660.02
491.058	6816.4
491.428	7008.94
491.798	7126.9
492.168	7274.47
492.538	7377.29
492.908	7517.85
493.278	7721.24
493.648	7818.64
494.017	7990.16
494.387	8081.91
494.757	8199.87
495.126	8248
495.496	8424.5
495.866	8500.88
496.235	8594.89
496.605	8786.75
496.974	8877.59
497.344	9012.28
497.713	9095.21
498.082	9278.94
498.452	9389.89
498.821	9498.82
499.19	9500.63
499.559	9571.36
499.928	9784.69
500.298	9899.71
500.667	9983.1
501.036	10014.74
501.405	10187.61
501.774	10216.54
502.143	10304.45
502.512	10472.58
502.88	10492.24
503.249	10550.09
503.618	10672.8
503.987	10717.54
504.356	10838.9
504.724	10918.44
505.093	11012.9
505.462	11030.98
505.83	11175.61
506.199	11188.49
506.567	11380.8
506.936	11306.45
507.304	11517.75
507.672	11591.42
508.041	11613.56
508.409	11667.12
508.777	11764.3
509.145	11890.85
509.514	11857.4
509.882	12035.25
510.25	12019.2
510.618	12087.22
510.986	12074.34
511.354	12254
511.722	12314.79
512.09	12344.39
512.458	12330.16
512.826	12445.18
513.193	12478.17
513.561	12468.91
513.929	12603.14
514.297	12674.33
514.664	12694.89
515.032	12784.61
515.4	12853.76
515.767	12906.86
516.135	12893.08
516.502	12862.35
516.869	12950.03
517.237	12992.06
517.604	13058.27
517.972	13126.29
518.339	13112.06
518.706	13129.91
519.073	13177.82
519.44	13218.04
519.808	13249.68
520.175	13283.58
520.542	13396.57
520.909	13435.89
521.276	13458.26
521.643	13444.7
522.009	13545.27
522.376	13540.07
522.743	13594.76
523.11	13615.32
523.477	13738.48
523.843	13736.67
524.21	13870
524.577	13899.83
524.943	13905.48
525.31	13966.72
525.676	13954.29
526.043	14001.98
526.409	13982.77
526.776	14131.46
527.142	14093.73
527.508	14150.45
527.874	14225.25
528.241	14243.33
528.607	14185.93
528.973	14253.27
529.339	14163.55
529.705	14262.53
530.071	14367.16
530.437	14341.85
530.803	14351.35
531.169	14379.82
531.535	14285.36
531.901	14231.12
532.267	14296.88
532.632	14350.89
532.998	14278.35
533.364	14341.4
533.73	14438.8
534.095	14357.45
534.461	14344.79
534.826	14360.84
535.192	14382.98
535.557	14348.63
535.923	14345.24
536.288	14222.99
536.653	14319.93
537.019	14215.76
537.384	14297.34
537.749	14287.84
538.114	14234.74
538.479	14101.18
538.845	14179.37
539.21	14073.39
539.575	14109.54
539.94	14114.06
540.305	14079.04
540.67	13991.58
541.034	14071.81
541.399	14108.87
541.764	14016.67
542.129	14013.28
542.494	14023.9
542.858	13995.42
543.223	13911.36
543.587	13942.99
543.952	13817.35
544.316	13812.6
544.681	13707.07
545.045	13824.58
545.41	13732.83
545.774	13692.83
546.138	13613.74
546.503	13720.4
546.867	13676.11
547.231	13697.35
547.595	13602.66
547.959	13709.78
548.324	13584.59
548.688	13587.52
549.052	13596.79
549.416	13560.41
549.779	13567.86
550.143	13513.63
550.507	13502.1
550.871	13423.46
551.235	13353.63
551.599	13432.05
551.962	13392.73
552.326	13382.11
552.689	13339.4
553.053	13340.75
553.417	13221.21
553.78	13432.73
554.143	13320.19
554.507	13241.54
554.87	13243.58
555.234	13411.26
555.597	13197.25
555.96	13221.21
556.323	13238.83
556.686	13246.97
557.05	13303.69
557.413	13237.02
557.776	13269.11
558.139	13242.67
558.502	13223.24
558.865	13185.5
559.228	13251.71
559.59	13315.44
559.953	13347.08
560.316	13318.6
560.679	13241.32
561.041	13285.16
561.404	13341.2
561.767	13302.11
562.129	13329.68
562.492	13427.98
562.854	13286.74
563.217	13313.86
563.579	13370.13
563.941	13351.37
564.304	13472.95
564.666	13383.69
565.028	13491.03
565.39	13448.32
565.753	13517.47
566.115	13456.91
566.477	13532.16
566.839	13495.78
567.201	13538.26
567.563	13538.71
567.925	13582.33
568.287	13570.8
568.648	13551.82
569.01	13570.35
569.372	13738.48
569.734	13569.22
570.095	13670.01
570.457	13664.81
570.819	13675.66
571.18	13686.5
571.542	13780.51
571.903	13781.87
572.265	13744.36
572.626	13806.73
572.987	13841.08
573.349	13794.3
573.71	13822.55
574.071	13881.98
574.432	13872.49
574.794	13933.73
575.155	13892.15
575.516	13862.55
575.877	13860.29
576.238	13854.18
576.599	13979.83
576.96	13948.87
577.32	14003.33
577.681	13961.07
578.042	14017.57
578.403	13977.12
578.763	14005.37
579.124	14018.47
579.485	14046.72
579.845	14023.22
580.206	13915.65
580.566	13939.61
580.927	13999.26
581.287	14042.43
581.648	13992.94
582.008	13892.83
582.368	13973.5
582.728	14074.29
583.089	14026.61
583.449	13968.08
583.809	14015.76
584.169	13950
584.529	13985.03
584.889	14048.98
585.249	13964.46
585.609	13912.26
585.969	13994.29
586.329	13973.5
586.688	13887.18
587.048	13930.11
587.408	13953.62
587.768	13801.53
588.127	13844.01
588.487	13777.35
588.846	13895.31
589.206	13825.03
589.565	13924.69
589.925	13872.94
590.284	13828.65
590.643	13793.17
591.003	13921.53
591.362	13876.33
591.721	13861.64
592.08	13834.52
592.44	13878.82
592.799	13805.15
593.158	13830.68
593.517	13795.43
593.876	13796.78
594.235	13763.79
594.593	13868.87
594.952	13851.92
595.311	13779.61
595.67	13900.51
596.029	13788.87
596.387	13843.34
596.746	13921.75
597.104	13843.34
597.463	13780.06
597.822	13790.23
598.18	13779.61
598.538	13683.34
598.897	13786.16
599.255	13608.09
599.613	13869.32
599.972	13768.08
600.33	13735.54
600.688	13770.57
601.046	13897.8
601.404	13825.94
601.762	13789.33
602.12	13835.65
602.478	13874.3
602.836	13864.58
603.194	13785.03
603.552	13752.04
603.91	13820.06
604.268	13833.39
604.625	13783.23
604.983	13882.43
605.341	13772.38
605.698	13810.8
606.056	13912.94
606.413	13814.86
606.771	13771.02
607.128	13926.72
607.485	13868.42
607.843	13813.96
608.2	13862.32
608.557	13863.9
608.914	13790
609.272	13867.29
609.629	13893.73
609.986	13921.3
610.343	13911.58
610.7	13935.76
611.057	13925.14
611.414	14003.11
611.771	13941.19
612.127	13937.8
612.484	14045.37
612.841	14067.96
613.198	13908.42
613.554	13990.23
613.911	14026.61
614.267	14070.68
614.624	14072.03
614.98	14005.37
615.337	14154.97
615.693	14077.91
616.05	14093.05
616.406	14177.79
616.762	14224.34
617.118	14116.78
617.475	14089.21
617.831	14146.83
618.187	14225.25
618.543	14230.22
618.899	14244
619.255	14168.98
619.611	14214.85
619.967	14236.55
620.323	14342.53
620.678	14239.48
621.034	14232.93
621.39	14190.45
621.746	14160.39
622.101	14334.17
622.457	14161.07
622.812	14164.23
623.168	14310.44
623.523	14246.49
623.879	14289.88
624.234	14249.43
624.589	14203.55
624.945	14179.37
625.3	14272.7
625.655	14245.36
626.01	14289.88
626.365	14167.85
626.72	14076.1
627.075	14201.07
627.43	14289.43
627.785	14156.32
628.14	14232.93
628.495	14219.6
628.85	14233.38
629.205	14089.88
629.559	14134.4
629.914	14158.36
630.269	14185.02
630.623	14118.81
630.978	14069.09
631.332	14091.01
631.687	14194.97
632.041	14163.33
632.396	14084.69
632.75	13988.64
633.104	13972.37
633.459	13988.64
633.813	14023.9
634.167	14009.21
634.521	13978.7
634.875	14034.74
635.229	13972.15
635.583	13809.21
635.937	13865.71
636.291	13900.06
636.645	13910
636.999	13831.36
637.352	13844.92
637.706	13781.87
638.06	13828.65
638.413	13812.38
638.767	13759.05
639.121	13785.94
639.474	13750.01
639.828	13778.03
640.181	13697.35
640.534	13821.42
640.888	13762.21
641.241	13637.47
641.594	13716.33
641.947	13660.06
642.301	13683.79
642.654	13734.41
643.007	13658.03
643.36	13674.75
643.713	13542.33
644.066	13632.04
644.419	13526.96
644.771	13421.2
645.124	13359.28
645.477	13355.89
645.83	13272.96
646.182	13143.24
646.535	13106.41
646.888	13175.11
647.24	13122
647.593	13168.1
647.945	13070.02
648.298	13133.75
648.65	13052.85
649.002	13058.95
649.355	13183.24
649.707	13174.88
650.059	13189.57
650.411	13315.44
650.763	13373.97
651.115	13456
651.467	13387.76
651.819	13478.37
652.171	13428.43
652.523	13424.36
652.875	13419.17
653.227	13416.91
653.578	13479.05
653.93	13470.47
654.282	13304.59
654.633	13354.99
654.985	13336.23
655.337	13416
655.688	13400.18
656.039	13426.62
656.391	13334.42
656.742	13333.29
657.094	13384.37
657.445	13389.11
657.796	13367.42
658.147	13397.47
658.498	13321.09
658.849	13408.77
659.2	13384.59
659.551	13316.34
659.902	13447.87
660.253	13374.65
660.604	13458.71
660.955	13316.12
661.306	13371.03
661.656	13377.13
662.007	13395.66
662.358	13424.14
662.708	13331.71
663.059	13392.05
663.409	13338.04
663.76	13446.51
664.11	13488.32
664.461	13466.4
664.811	13487.87
665.161	13454.65
665.511	13380.75
665.862	13439.28
666.212	13367.64
666.562	13375.33
666.912	13324.25
667.262	13380.3
667.612	13487.41
667.962	13387.76
668.312	13404.93
668.662	13434.99
669.011	13450.13
669.361	13366.29
669.711	13392.73
670.06	13391.15
670.41	13285.84
670.76	13370.13
671.109	13322.9
671.459	13346.63
671.808	13351.15
672.157	13361.09
672.507	13234.31
672.856	13293.07
673.205	13238.38
673.554	13285.39
673.904	13330.13
674.253	13234.09
674.602	13248.78
674.951	13090.81
675.3	13068.22
675.649	13131.72
675.998	13142.56
676.346	13216.46
676.695	13248.55
677.044	13082
677.393	13155.22
677.741	13144.37
678.09	13033.41
678.438	13034.77
678.787	13164.48
679.135	13025.05
679.484	12986.86
679.832	12963.13
680.181	12972.17
680.529	12988.9
680.877	12936.47
681.225	12844.04
681.573	12991.83
681.922	12977.14
682.27	12808.79
682.618	12846.53
682.966	12798.39
683.314	12886.98
683.661	12818.5
684.009	12818.73
684.357	12797.26
684.705	12732.41
685.053	12759.3
685.4	12721.78
685.748	12629.58
686.095	12631.39
686.443	12592.52
686.79	12541.9
687.138	12536.25
687.485	12589.36
687.832	12478.85
688.18	12564.5
688.527	12381.23
688.874	12323.6
689.221	12385.07
689.568	12387.56
689.915	12323.83
690.262	12390.49
690.609	12219.2
690.956	12201.8
691.303	12238.86
691.65	12184.17
691.997	12160.89
692.344	12065.53
692.69	11971.97
693.037	12049.49
693.383	11962.03
693.73	11940.56
694.077	11855.14
694.423	11776.05
694.769	11705.77
695.116	11761.58
695.462	11740.57
695.808	11757.74
696.155	11582.83
696.501	11595.94
696.847	11532.89
697.193	11486.34
697.539	11494.7
697.885	11415.38
698.231	11476.17
698.577	11405.43
698.923	11391.2
699.269	11296.28
699.614	11237.98
699.96	11148.94
700.306	11176.51
700.651	11185.1
700.997	11114.37
701.342	11072.11
701.688	11028.95
702.033	11021.94
702.379	10975.39
702.724	10898.78
703.069	10941.04
703.415	10864.88
703.76	10807.26
704.105	10802.96
704.45	10842.06
704.795	10701.05
705.14	10701.27
705.485	10676.87
705.83	10630.09
706.175	10669.41
706.52	10530.2
706.865	10531.79
707.209	10546.02
707.554	10473.93
707.899	10501.5
708.243	10411.56
708.588	10425.8
708.932	10289.08
709.277	10400.94
709.621	10340.38
709.966	10294.96
710.31	10338.8
710.654	10207.27
710.998	10159.59
711.342	10192.13
711.687	10155.98
712.031	10115.75
712.375	10118.24
712.719	10126.82
713.063	10109.88
713.407	10067.62
713.75	10021.29
714.094	10048.41
714.438	9980.61
714.782	10047.28
715.125	9957.56
715.469	9869.66
715.812	9954.85
716.156	9855.87
716.499	9833.5
716.843	9837.79
717.186	9778.81
717.53	9818.58
717.873	9836.89
718.216	9828.3
718.559	9767.74
718.902	9702.65
719.246	9786.27
719.589	9641.41
719.932	9673.73
720.275	9671.47
720.617	9724.12
720.96	9628.76
721.303	9701.3
721.646	9618.81
721.989	9640.28
722.331	9643
722.674	9603
723.016	9567.97
723.359	9643.45
723.701	9589.44
724.044	9571.36
724.386	9480.51
724.729	9552.15
725.071	9545.14
725.413	9518.48
725.755	9481.19
726.097	9460.4
726.439	9400.52
726.782	9483.23
727.124	9384.47
727.465	9439.38
727.807	9457.92
728.149	9410.01
728.491	9418.37
728.833	9443.9
729.175	9393.28
729.516	9457.24
729.858	9356.67
730.199	9423.57
730.541	9330.91
730.882	9386.5
731.224	9395.09
731.565	9391.7
731.906	9352.83
732.248	9439.16
732.589	9290.24
732.93	9334.98
733.271	9339.95
733.612	9372.27
733.953	9388.76
734.294	9294.53
734.635	9308.31
734.976	9313.29
735.317	9338.14
735.658	9288.65
735.999	9349.22
736.339	9339.05
736.68	9358.93
737.021	9324.59
737.361	9313.29
737.702	9289.33
738.042	9310.35
738.383	9378.37
738.723	9356.22
739.063	9300.86
739.404	9338.82
739.744	9338.82
740.084	9345.6
740.424	9342.89
740.764	9385.37
741.104	9329.33
741.444	9366.17
741.784	9323.91
742.124	9467.63
742.464	9381.98
742.804	9415.2
743.143	9391.7
743.483	9532.26
743.823	9442.55
744.162	9440.06
744.502	9556.22
744.841	9504.92
745.181	9591.7
745.52	9589.21
745.86	9589.89
746.199	9650.45
746.538	9598.02
746.877	9776.78
747.216	9775.42
747.556	9872.37
747.895	9863.33
748.234	9869.2
748.573	9887.73
748.911	9912.37
749.25	9993.04
749.589	9999.82
749.928	10155.3
750.267	10207.27
750.605	10288.18
750.944	10287.95
751.283	10325.91
751.621	10501.05
751.96	10503.76
752.298	10578.34
752.636	10711.89
752.975	10766.81
753.313	10763.64
753.651	10895.17
753.989	10893.58
754.327	11034.14
754.666	11175.61
755.004	11302.84
755.342	11503.29
755.679	11549.39
756.017	11611.53
756.355	11798.42
756.693	11825.31
757.031	12081.57
757.368	12135.13
757.706	12281.8
758.044	12358.63
758.381	12558.62
758.719	12630.49
759.056	12877.94
759.394	12980.31
759.731	13097.37
760.068	13221.66
760.405	13374.65
760.743	13455.1
761.08	13622.55
761.417	13750.01
761.754	14027.51
762.091	14152.26
762.428	14231.8
762.765	14317.45
763.102	14588.63
763.438	14691.22
763.775	14937.09
764.112	15064.32
764.449	15209.63
764.785	15333.01
765.122	15436.97
765.458	15561.71
765.795	15628.6
766.131	15908.14
766.467	15954.02
766.804	16029.95
767.14	16235.14
767.476	16359.65
767.812	16408.92
768.148	16675.13
768.485	16636.94
768.821	16713.54
769.157	16934.1
769.492	17039.64
769.828	17234.89
770.164	17115.34
770.5	17273.08
770.836	17350.36
771.171	17440.53
771.507	17592.62
771.842	17601.43
772.178	17669.22
772.513	17826.28
772.849	17901.53
773.184	17917.35
773.519	18040.06
773.855	18040.29
774.19	18170.45
774.525	18194.18
774.86	18362.31
775.195	18408.87
775.53	18405.25
775.865	18382.2
776.2	18382.88
776.535	18420.84
776.87	18480.5
777.205	18480.28
777.539	18476.44
777.874	18595.98
778.209	18706.26
778.543	18534.96
778.878	18551.91
779.212	18726.15
779.547	18626.94
779.881	18765.69
780.215	18588.52
780.55	18857.89
780.884	18682.08
781.218	18708.75
781.552	18820.38
781.886	18777.44
782.22	18722.53
782.554	18754.17
782.888	18598.92
783.222	18555.08
783.556	18535.87
783.889	18528.64
784.223	18497.45
784.557	18476.21
784.89	18607.96
785.224	18531.8
785.557	18546.04
785.891	18465.36
786.224	18435.53
786.558	18414.97
786.891	18417.91
787.224	18324.12
787.557	18423.33
787.891	18343.11
788.224	18389.21
788.557	18309.21
788.89	18384.23
789.223	18406.83
789.556	18190.11
789.888	18318.02
790.221	18222.43
790.554	18067.63
790.887	18129.78
791.219	18147.63
791.552	17989.44
791.884	17972.04
792.217	17886.85
792.549	17998.71
792.882	17867.41
793.214	17833.97
793.546	17836
793.879	17695.44
794.211	17674.2
794.543	17757.13
794.875	17730.47
795.207	17740.41
795.539	17666.51
795.871	17669.9
796.203	17555.33
796.535	17525.5
796.867	17358.95
797.198	17382.9
797.53	17400.31
797.862	17334.77
798.193	17365.28
798.525	17209.35
798.856	17291.38
799.188	17130.03
799.519	17011.16
799.85	16921.9
800.182	16984.27
800.513	17124.15
800.844	16795.12
801.175	16934.55
801.506	17005.06
801.837	16909.7
802.168	16859.08
802.499	16727.1
802.83	16748.8
803.161	16674.45
803.491	16634.45
803.822	16689.36
804.153	16584.96
804.483	16423.83
804.814	16426.32
805.145	16417.51
805.475	16436.71
805.805	16404.4
806.136	16335.47
806.466	16424.74
806.796	16275.14
807.126	16154.01
807.457	16060
807.787	16261.8
808.117	16099.32
808.447	16065.65
808.777	16086.67
809.107	16075.82
809.436	16006.9
809.766	16011.87
810.096	15962.15
810.426	15898.2
810.755	15884.41
811.085	15901.36
811.414	15835.15
811.744	15689.62
812.073	15743.85
812.403	15668.6
812.732	15614.82
813.061	15573.23
813.39	15504.54
813.719	15560.58
814.049	15501.6
814.378	15483.29
814.707	15477.19
815.036	15490.98
815.365	15359.68
815.693	15300.25
816.022	15361.26
816.351	15286.91
816.68	15145.45
817.008	15272.68
817.337	15232
817.665	15075.62
817.994	15081.27
818.322	15113.13
818.651	15059.8
818.979	14989.97
819.307	15084.66
819.636	15006.02
819.964	14924.66
820.292	14936.87
820.62	14993.14
820.948	14920.82
821.276	14955.4
821.604	14911.78
821.932	14892.57
822.259	14910.2
822.587	14894.38
822.915	14914.72
823.243	14919.92
823.57	14892.35
823.898	14835.63
824.225	14859.81
824.553	14934.16
824.88	14844.67
825.207	14951.33
825.535	14866.59
825.862	14928.05
826.189	14808.73
826.516	14863.87
826.843	14905.91
827.17	14935.51
827.497	14875.17
827.824	14936.42
828.151	14956.75
828.478	14918.56
828.805	14994.94
829.131	14949.97
829.458	14905
829.785	14907.94
830.111	14895.06
830.438	14936.87
830.764	14939.13
831.09	14871.11
831.417	14877.43
831.743	14860.48
832.069	14896.87
832.395	14774.61
832.722	14859.13
833.048	14809.86
833.374	14779.13
833.7	14784.33
834.026	14807.83
834.351	14817.1
834.677	14773.03
835.003	14852.8
835.329	14713.37
835.654	14781.62
835.98	14747.49
836.306	14669.53
836.631	14716.08
836.956	14670.66
837.282	14749.3
837.607	14600.15
837.932	14632.47
838.258	14671.79
838.583	14626.37
838.908	14482.87
839.233	14562.87
839.558	14470.44
839.883	14462.98
840.208	14369.2
840.533	14500.95
840.858	14451.46
841.182	14398.58
841.507	14352.7
841.832	14336.88
842.156	14305.47
842.481	14317.22
842.805	14202.2
843.13	14258.69
843.454	14199.49
843.778	14155.64
844.103	14133.5
844.427	14035.65
844.751	14118.36
845.075	14049.66
845.399	13987.74
845.723	13935.54
846.047	13959.04
846.371	13771.02
846.695	13798.59
847.019	13766.5
847.343	13670.46
847.666	13562.44
847.99	13510.92
848.313	13478.15
848.637	13422.56
848.96	13406.96
849.284	13351.6
849.607	13231.15
849.931	13214.2
850.254	13208.55
850.577	13073.41
850.9	13027.54
851.223	13025.28
851.546	12905.28
851.869	12894.43
852.192	12905.73
852.515	12783.03
852.838	12789.58
853.161	12694.21
853.483	12610.6
853.806	12624.39
854.129	12635.68
854.451	12521.56
854.774	12462.36
855.096	12453.77
855.419	12400.89
855.741	12365.64
856.063	12384.84
856.385	12353.21
856.708	12302.36
857.03	12248.58
857.352	12223.27
857.674	12204.06
857.996	12101.91
858.318	12102.14
858.64	12089.71
858.961	12037.06
859.283	11966.1
859.605	11898.75
859.926	12002.03
860.248	11951.41
860.57	11837.74
860.891	11887
861.212	11840
861.534	11827.57
861.855	11785.76
862.176	11706.22
862.498	11687.01
862.819	11692.43
863.14	11617.18
863.461	11571.98
863.782	11532.44
864.103	11642.49
864.424	11558.88
864.745	11537.18
865.065	11478.88
865.386	11469.16
865.707	11473.68
866.027	11496.05
866.348	11454.7
866.668	11473.46
866.989	11302.16
867.309	11325.21
867.63	11365.21
867.95	11414.7
868.27	11294.48
868.59	11347.36
868.91	11334.93
869.23	11238.66
869.55	11199.79
869.87	11271.43
870.19	11203.41
870.51	11171.09
870.83	11295.61
871.15	11174.48
871.469	11193.46
871.789	11129.96
872.109	11111.66
872.428	10983.07
872.748	11027.37
873.067	10988.27
873.386	11145.55
873.706	11048.61
874.025	11046.57
874.344	10913.02
874.663	10968.16
874.982	10922.74
875.301	10934.49
875.62	10912.11
875.939	10950.08
876.258	10877.31
876.577	10798.22
876.896	10847.48
877.214	10807.94
877.533	10862.4
877.852	10790.99
878.17	10766.36
878.489	10759.8
878.807	10765.68
879.125	10703.98
879.444	10698.79
879.762	10711.22
880.08	10684.55
880.398	10607.04
880.716	10679.13
881.034	10638.9
881.352	10616.08
881.67	10636.19
881.988	10551.22
882.306	10575.4
882.624	10481.62
882.941	10421.73
883.259	10376.08
883.577	10439.58
883.894	10436.42
884.212	10353.48
884.529	10413.37
884.846	10293.6
885.164	10286.37
885.481	10272.36
885.798	10245.69
886.115	10172.02
886.432	10160.27
886.75	10173.6
887.067	10231.23
887.383	10129.54
887.7	10161.17
888.017	10093.38
888.334	10050.44
888.651	10031.01
888.967	10038.69
889.284	9946.49
889.6	9944.68
889.917	9890.22
890.233	9923.44
890.55	9874.63
890.866	9869.88
891.182	9715.99
891.498	9751.24
891.815	9736.33
892.131	9677.8
892.447	9644.12
892.763	9665.37
893.079	9571.81
893.395	9556.44
893.71	9526.84
894.026	9573.17
894.342	9583.56
894.657	9409.78
894.973	9466.5
895.289	9400.52
895.604	9431.25
895.92	9316
896.235	9317.35
896.55	9314.64
896.865	9225.83
897.181	9267.64
897.496	9224.25
897.811	9209.79
898.126	9172.27
898.441	9100.86
898.756	9091.6
899.071	9039.62
899.386	9040.3
899.7	9031.26
900.015	8870.59
900.33	8874.43
900.644	8833.98
900.959	8942.22
901.273	8817.03
901.588	8769.12
901.902	8744.26
902.216	8686.41
902.531	8639.63
902.845	8681.44
903.159	8605.06
903.473	8616.36
903.787	8548.33
904.101	8472.63
904.415	8470.82
904.729	8455.23
905.042	8438.28
905.356	8377.72
905.67	8332.75
905.984	8337.72
906.297	8320.77
906.611	8293.43
906.924	8274.22
907.237	8269.7
907.551	8222.02
907.864	8154.22
908.177	8133.2
908.491	8128.91
908.804	8063.15
909.117	8001.23
909.43	8035.81
909.743	7911.74
910.056	7867.9
910.368	7842.82
910.681	7852.31
910.994	7914
911.307	7768.92
911.619	7638.75
911.932	7749.94
912.244	7666.32
912.557	7633.78
912.869	7584.74
913.181	7592.2
913.494	7503.16
913.806	7505.65
914.118	7526.67
914.43	7446.22
914.742	7461.81
915.054	7408.25
915.366	7350.4
915.678	7378.2
915.99	7228.82
916.302	7185.88
916.613	7231.98
916.925	7246.45
917.236	7163.74
917.548	7169.84
917.859	7116.28
918.171	7081.71
918.482	7055.04
918.794	7060.24
919.105	7036.28
919.416	7004.65
919.727	6968.26
920.038	6987.02
920.349	6861.83
920.66	6907.47
920.971	6897.53
921.282	6765.56
921.593	6808.04
921.903	6664.32
922.214	6742.05
922.525	6682.39
922.835	6648.05
923.146	6584.77
923.456	6632.45
923.767	6553.58
924.077	6536.41
924.387	6518.56
924.697	6512.91
925.008	6506.81
925.318	6407.6
925.628	6454.15
925.938	6370.31
926.248	6330.54
926.558	6366.7
926.867	6337.55
927.177	6319.47
927.487	6305.23
927.796	6239.02
928.106	6213.25
928.416	6226.81
928.725	6180.26
929.034	6169.41
929.344	6149.53
929.653	6141.84
929.962	6012.58
930.271	6033.15
930.581	5995.86
930.89	5999.02
931.199	5941.62
931.508	5966.48
931.817	5929.19
932.125	5925.13
932.434	5902.75
932.743	5854.85
933.051	5844.22
933.36	5812.59
933.669	5800.38
933.977	5744.79
934.286	5728.3
934.594	5684.91
934.902	5698.01
935.21	5646.72
935.519	5698.01
935.827	5595.87
936.135	5577.34
936.443	5557
936.751	5579.6
937.059	5545.02
937.367	5472.48
937.674	5471.13
937.982	5450.56
938.29	5420.06
938.597	5412.15
938.905	5392.26
939.213	5370.79
939.52	5343
939.827	5370.34
940.135	5267.06
940.442	5245.82
940.749	5265.03
941.056	5210.57
941.363	5140.97
941.67	5172.15
941.977	5161.3
942.284	5158.82
942.591	5109.1
942.898	5130.12
943.205	5072.95
943.511	5055.32
943.818	4995.43
944.125	5000.18
944.431	4958.6
944.738	4929.22
945.044	4933.74
945.35	4920.41
945.657	4899.84
945.963	4832.05
946.269	4832.05
946.575	4872.95
946.881	4834.53
947.187	4788.21
947.493	4790.47
947.799	4770.58
948.105	4709.57
948.41	4702.11
948.716	4727.64
949.022	4689.9
949.327	4654.65
949.633	4616.01
949.938	4590.7
950.244	4618.72
950.549	4567.2
950.854	4550.02
951.16	4529.23
951.465	4487.88
951.77	4458.27
952.075	4454.43
952.38	4465.05
952.685	4421.66
952.99	4366.3
953.294	4392.06
953.599	4370.37
953.904	4357.94
954.209	4352.74
954.513	4291.72
954.818	4274.77
955.122	4295.79
955.426	4262.57
955.731	4245.62
956.035	4251.72
956.339	4208.79
956.643	4231.61
956.948	4168.34
957.252	4140.54
957.556	4176.25
957.86	4118.85
958.163	4100.99
958.467	4108.9
958.771	4098.28
959.075	4058.51
959.378	4022.58
959.682	3992.3
959.985	4019.64
960.289	3972.64
960.592	3950.94
960.896	3974.67
961.199	3916.37
961.502	3948.46
961.805	3906.87
962.108	3851.06
962.411	3872.75
962.714	3859.64
963.017	3848.12
963.32	3864.39
963.623	3780.1
963.926	3798.4
964.228	3787.78
964.531	3743.94
964.833	3724.51
965.136	3732.42
965.438	3662.59
965.741	3665.53
966.043	3706.2
966.345	3673.89
966.648	3651.51
966.95	3671.63
967.252	3602.48
967.554	3615.13
967.856	3559.99
968.158	3536.94
968.46	3523.16
968.761	3500.33
969.063	3494
969.365	3528.35
969.666	3508.47
969.968	3444.29
970.269	3441.35
970.571	3426.44
970.872	3418.98
971.174	3404.74
971.475	3403.61
971.776	3394.57
972.077	3340.56
972.378	3348.02
972.679	3343.27
972.98	3303.95
973.281	3344.63
973.582	3301.92
973.883	3275.48
974.183	3271.19
974.484	3266.89
974.785	3255.59
975.085	3248.13
975.386	3192.32
975.686	3227.12
975.986	3195.71
976.287	3171.53
976.587	3149.83
976.887	3141.92
977.187	3128.82
977.487	3146.67
977.787	3120.45
978.087	3060.57
978.387	3095.14
978.687	3071.64
978.987	3058.08
979.286	3014.92
979.586	3021.02
979.885	3036.16
980.185	2975.6
980.484	2988.03
980.784	2991.87
981.083	2971.53
981.382	2973.57
981.682	2930.18
981.981	2897.18
982.28	2901.25
982.579	2844.76
982.878	2879.11
983.177	2849.28
983.475	2863.29
983.774	2850.41
984.073	2819.45
984.372	2793.46
984.67	2791.88
984.969	2791.42
985.267	2755.27
985.566	2758.66
985.864	2747.36
986.162	2734.02
986.461	2739.67
986.759	2683.4
987.057	2674.82
987.355	2686.57
987.653	2668.04
987.951	2688.83
988.249	2632.56
988.547	2629.85
988.844	2617.87
989.142	2624.65
989.44	2564.99
989.737	2561.83
990.035	2552.79
990.332	2578.32
990.63	2522.5
990.927	2552.11
991.224	2530.87
991.521	2523.86
991.819	2513.24
992.116	2475.73
992.413	2498.78
992.71	2457.42
993.006	2460.59
993.303	2486.12
993.6	2474.6
993.897	2435.95
994.193	2425.78
994.49	2384.2
994.787	2406.58
995.083	2393.92
995.379	2365.67
995.676	2364.99
995.972	2347.37
996.268	2306.01
996.565	2359.34
996.861	2328.84
997.157	2317.31
997.453	2297.2
997.749	2254.04
998.044	2257.2
998.34	2251.32
998.636	2258.56
998.932	2226.24
999.227	2227.14
999.523	2189.63
999.818	2191.67
1000.114	2182.63
1000.409	2143.98
1000.704	2174.72
1001	2152.34
1001.295	2134.72
1001.59	2106.47
1001.885	2125.68
1002.18	2092.69
1002.475	2130.2
1002.77	2080.93
1003.065	2072.57
1003.359	2058.79
1003.654	2038.9
1003.949	2032.8
1004.243	2002.52
1004.538	1998.68
1004.832	1994.38
1005.127	1989.18
1005.421	1945.57
1005.715	1970.88
1006.009	1931.56
1006.304	1945.57
1006.598	1939.24
1006.892	1907.38
1007.186	1890.88
1007.48	1878.45
1007.773	1906.7
1008.067	1887.04
1008.361	1860.37
1008.655	1851.79
1008.948	1856.99
1009.242	1791.68
1009.535	1838
1009.829	1799.36
1010.122	1780.38
1010.415	1792.58
1010.708	1801.39
1011.001	1754.61
1011.295	1765.01
1011.588	1729.53
1011.881	1736.76
1012.173	1734.73
1012.466	1683.43
1012.759	1714.39
1013.052	1703.09
1013.344	1692.47
1013.637	1695.86
1013.93	1700.15
1014.222	1659.93
1014.514	1635.52
1014.807	1665.58
1015.099	1647.27
1015.391	1632.36
1015.683	1607.73
1015.976	1590.33
1016.268	1592.59
1016.56	1584.68
1016.851	1560.95
1017.143	1587.61
1017.435	1544.9
1017.727	1576.09
1018.018	1528.18
1018.31	1499.48
1018.602	1510.55
1018.893	1487.5
1019.185	1515.75
1019.476	1474.85
1019.767	1500.16
1020.058	1483.44
1020.35	1459.26
1020.641	1459.48
1020.932	1419.93
1021.223	1444.79
1021.514	1419.26
1021.804	1441.85
1022.095	1382.2
1022.386	1395.3
1022.677	1389.43
1022.967	1370.44
1023.258	1376.32
1023.548	1354.63
1023.839	1354.63
1024.129	1347.17
1024.419	1315.08
1024.709	1332.25
1025	1318.02
1025.29	1277.34
1025.58	1280.05
1025.87	1279.15
1026.16	1313.95
1026.449	1271.69
1026.739	1278.02
1027.029	1250.22
1027.319	1242.76
1027.608	1236.21
1027.898	1216.32
1028.187	1233.72
1028.477	1209.32
1028.766	1223.1
1029.055	1206.38
1029.344	1190.11
1029.634	1192.82
1029.923	1184.69
1030.212	1166.16
1030.501	1166.83
1030.79	1156.89
1031.078	1138.81
1031.367	1153.27
1031.656	1146.5
1031.945	1129.32
1032.233	1121.86
1032.522	1113.73
1032.81	1114.86
1033.099	1098.13
1033.387	1101.07
1033.675	1057.23
1033.963	1056.1
1034.251	1072.15
1034.54	1048.64
1034.828	1065.14
1035.116	1073.05
1035.403	1043
1035.691	1047.06
1035.979	1039.15
1036.267	1041.87
1036.554	1025.14
1036.842	1014.97
1037.129	1005.93
1037.417	979.27
1037.704	987.63
1037.992	992.6
1038.279	966.84
1038.566	951.25
1038.853	951.25
1039.14	951.25
