Data from hue_150_FLMS001491_00006.txt Node
Date: Tue Feb 07 16:53:33 GMT 2017
User: dcchb
Spectrometer: FLMS00149
Trigger mode: 0
Integration Time (sec): 2.000000E-2
Scans to average: 10
Electric dark correction enabled: true
Nonlinearity correction enabled: false
Boxcar width: 0
XAxis mode: Wavelengths
Number of Pixels in Spectrum: 2048
>>>>>Begin Spectral Data<<<<<
341.393	2.03
341.776	2.03
342.16	2.03
342.543	-67.57
342.927	-64.63
343.31	-54.91
343.693	-80.9
344.077	-52.65
344.46	-47
344.843	-49.26
345.226	-44.07
345.61	-58.3
345.993	-23.05
346.376	14.91
346.759	-11.07
347.142	32.32
347.525	49.26
347.908	70.73
348.291	70.51
348.674	84.97
349.057	98.53
349.44	113.9
349.823	150.05
350.206	173.1
350.588	178.75
350.971	185.98
351.354	223.04
351.737	231.63
352.119	249.03
352.502	248.58
352.884	264.4
353.267	258.75
353.65	283.61
354.032	291.29
354.414	275.47
354.797	297.85
355.179	315.92
355.562	315.47
355.944	314.79
356.326	331.52
356.709	324.96
357.091	326.09
357.473	319.99
357.855	325.64
358.238	318.41
358.62	327
359.002	326.32
359.384	326.32
359.766	340.78
360.148	336.94
360.53	313.66
360.912	348.01
361.294	313.66
361.676	358.41
362.057	335.36
362.439	351.63
362.821	331.06
363.203	318.18
363.584	324.96
363.966	295.59
364.348	311.86
364.729	320.9
365.111	324.74
365.493	310.73
365.874	305.53
366.256	299.2
366.637	311.63
367.019	298.75
367.4	289.71
367.781	300.11
368.163	312.31
368.544	291.97
368.925	322.93
369.306	323.38
369.688	311.86
370.069	317.51
370.45	317.96
370.831	298.98
371.212	303.72
371.593	323.38
371.974	296.26
372.355	304.62
372.736	327.45
373.117	312.99
373.498	330.39
373.879	309.14
374.26	310.27
374.641	313.66
375.021	307.56
375.402	327.9
375.783	306.21
376.163	313.21
376.544	318.86
376.925	327.9
377.305	330.39
377.686	325.42
378.066	338.3
378.447	332.87
378.827	333.32
379.208	324.96
379.588	321.8
379.968	328.35
380.349	336.04
380.729	322.03
381.109	357.73
381.489	345.53
381.87	334.23
382.25	326.32
382.63	346.88
383.01	339.2
383.39	365.64
383.77	365.87
384.15	338.97
384.53	340.78
384.91	351.4
385.29	337.84
385.67	344.17
386.049	365.64
386.429	336.94
386.809	356.15
387.189	353.44
387.568	337.17
387.948	357.5
388.328	371.29
388.707	345.75
389.087	346.66
389.466	351.86
389.846	378.07
390.225	393.89
390.605	355.7
390.984	378.52
391.363	377.62
391.743	369.93
392.122	349.6
392.501	377.84
392.881	396.6
393.26	369.93
393.639	397.28
394.018	373.78
394.397	404.06
394.776	374.91
395.155	379.65
395.534	369.93
395.913	391.85
396.292	384.85
396.671	403.15
397.05	384.4
397.429	383.49
397.808	391.63
398.186	374.68
398.565	383.72
398.944	415.36
399.323	391.18
399.701	414.23
400.08	378.3
400.458	400.22
400.837	418.07
401.215	420.1
401.594	414.23
401.972	427.33
402.351	409.93
402.729	409.48
403.107	414.45
403.486	422.81
403.864	405.87
404.242	449.71
404.62	441.57
404.999	422.59
405.377	424.4
405.755	439.54
406.133	442.93
406.511	442.02
406.889	439.76
407.267	424.85
407.645	435.24
408.023	455.58
408.401	456.26
408.779	459.87
409.156	468.69
409.534	461.46
409.912	474.79
410.29	476.37
410.667	483.6
411.045	479.54
411.422	497.16
411.8	472.76
412.178	488.35
412.555	474.34
412.933	483.6
413.31	497.39
413.687	477.05
414.065	477.28
414.442	498.29
414.819	504.17
415.197	506.2
415.574	510.5
415.951	520.89
416.328	533.09
416.705	503.04
417.082	522.02
417.46	530.38
417.837	550.95
418.214	519.99
418.591	532.19
418.967	533.09
419.344	541.91
419.721	549.82
420.098	555.69
420.475	547.78
420.852	555.01
421.228	556.6
421.605	572.87
421.982	566.09
422.358	557.05
422.735	569.25
423.111	574.67
423.488	573.77
423.864	563.83
424.241	584.17
424.617	584.39
424.994	595.69
425.37	602.47
425.746	577.39
426.123	609.48
426.499	616.48
426.875	590.49
427.251	600.66
427.627	628.23
428.003	635.69
428.379	642.92
428.756	637.05
429.132	660.32
429.507	645.63
429.883	668.91
430.259	664.84
430.635	650.6
431.011	688.12
431.387	684.5
431.763	693.54
432.138	698.96
432.514	720.66
432.89	703.71
433.265	730.83
433.641	722.24
434.016	728.57
434.392	756.14
434.767	741
435.143	748.23
435.518	754.33
435.894	764.95
436.269	767.21
436.644	771.96
437.02	776.48
437.395	785.97
437.77	789.36
438.145	812.63
438.52	794.78
438.895	788.91
439.271	828
439.646	836.14
440.021	821
440.395	850.83
440.77	824.61
441.145	855.12
441.52	854.21
441.895	852.86
442.27	865.29
442.645	853.08
443.019	879.98
443.394	857.38
443.769	878.85
444.143	891.05
444.518	892.41
444.892	908.22
445.267	913.42
445.641	915.23
446.016	894.89
446.39	922.69
446.764	945.51
447.139	932.63
447.513	918.62
447.887	925.63
448.262	935.34
448.636	959.97
449.01	956.81
449.384	950.48
449.758	965.85
450.132	982.12
450.506	1018.73
450.88	989.35
451.254	980.54
451.628	1004.27
452.002	1001.33
452.376	1029.58
452.75	1045.85
453.123	1058.73
453.497	1072.51
453.871	1081.1
454.244	1068.9
454.618	1109.58
454.992	1095.34
455.365	1112.29
455.739	1126.52
456.112	1170.36
456.486	1162.23
456.859	1182.79
457.232	1168.56
457.606	1194.09
457.979	1229.12
458.352	1213.75
458.725	1237.71
459.099	1252.17
459.472	1242.45
459.845	1305.05
460.218	1305.73
460.591	1278.61
460.964	1319.06
461.337	1321.32
461.71	1369.68
462.083	1368.33
462.456	1384.82
462.829	1412.17
463.201	1421.43
463.574	1419.85
463.947	1445.84
464.32	1472.73
464.692	1519.51
465.065	1540.3
465.438	1541.88
465.81	1565.16
466.183	1582.78
466.555	1599.28
466.928	1632.95
467.3	1642.67
467.672	1672.72
468.045	1686.51
468.417	1735.55
468.789	1745.72
469.161	1769.67
469.534	1777.13
469.906	1831.82
470.278	1869.1
470.65	1891.48
471.022	1940.06
471.394	1957.01
471.766	2004.02
472.138	2046.5
472.51	2068.65
472.882	2102.54
473.253	2175.08
473.625	2212.6
473.997	2248.3
474.369	2262.31
474.74	2305.25
475.112	2333.27
475.484	2461.86
475.855	2478.13
476.227	2537.79
476.598	2605.13
476.97	2646.26
477.341	2710.66
477.713	2792.47
478.084	2809.42
478.455	2928.51
478.827	3010.32
479.198	3097.77
479.569	3101.84
479.94	3221.38
480.311	3283.98
480.682	3413.92
481.053	3488.95
481.424	3593.13
481.795	3648.72
482.166	3720.13
482.537	3835.61
482.908	3973
483.279	4017.75
483.65	4105.2
484.021	4218.19
484.391	4389.49
484.762	4440.34
485.133	4515.36
485.503	4613.21
485.874	4770.95
486.244	4856.6
486.615	4978.17
486.985	5082.58
487.356	5219.98
487.726	5283.93
488.097	5521.89
488.467	5584.71
488.837	5758.49
489.207	5844.14
489.578	6019.95
489.948	6112.38
490.318	6243
490.688	6369.1
491.058	6560.28
491.428	6646.6
491.798	6760.5
492.168	6973.83
492.538	7083.66
492.908	7139.7
493.278	7241.39
493.648	7393.03
494.017	7573.13
494.387	7644.77
494.757	7766.12
495.126	7940.58
495.496	8006.34
495.866	8111.43
496.235	8237.3
496.605	8311.87
496.974	8490.4
497.344	8634.58
497.713	8696.49
498.082	8819.88
498.452	8946.66
498.821	9033.43
499.19	9109.14
499.559	9228.91
499.928	9404.72
500.298	9374.89
500.667	9599.97
501.036	9616.24
501.405	9707.54
501.774	9790.93
502.143	9868.44
502.512	9973.52
502.88	10070.7
503.249	10131.94
503.618	10261.65
503.987	10331.71
504.356	10424.58
504.724	10578.03
505.093	10627.07
505.462	10670.23
505.83	10702.32
506.199	10778.25
506.567	10966.04
506.936	10896.44
507.304	11044.46
507.672	11078.58
508.041	11205.58
508.409	11260.49
508.777	11317.44
509.145	11481.05
509.514	11434.95
509.882	11562.63
510.25	11602.63
510.618	11607.83
510.986	11712.91
511.354	11777.54
511.722	11850.54
512.09	12032.23
512.458	12022.73
512.826	12065.45
513.193	12024.09
513.561	12191.32
513.929	12190.64
514.297	12276.74
514.664	12370.75
515.032	12357.19
515.4	12414.36
515.767	12479.9
516.135	12538.65
516.502	12395.83
516.869	12635.6
517.237	12632.89
517.604	12584.75
517.972	12703.39
518.339	12710.4
518.706	12774.81
519.073	12780.68
519.44	12873.56
519.808	12868.59
520.175	12822.26
520.542	13074.46
520.909	13066.78
521.276	13017.74
521.643	13174.12
522.009	13071.97
522.376	13169.15
522.743	13283.49
523.11	13257.96
523.477	13370.04
523.843	13345.19
524.21	13482.58
524.577	13462.02
524.943	13474.9
525.31	13516.03
525.676	13614.33
526.043	13651.84
526.409	13589.7
526.776	13733.42
527.142	13663.6
527.508	13656.36
527.874	13764.16
528.241	13822.69
528.607	13728.45
528.973	13885.74
529.339	13778.17
529.705	13849.58
530.071	13890.71
530.437	13893.19
530.803	13942.91
531.169	13950.37
531.535	13838.28
531.901	13834.21
532.267	13881.44
532.632	13905.62
532.998	13972.74
533.364	13857.94
533.73	13897.26
534.095	13859.52
534.461	13862.46
534.826	14023.13
535.192	13898.17
535.557	13936.81
535.923	13824.04
536.288	13896.36
536.653	13898.84
537.019	13769.36
537.384	13846.42
537.749	13762.12
538.114	13737.27
538.479	13678.28
538.845	13769.13
539.21	13680.77
539.575	13653.43
539.94	13583.37
540.305	13676.48
540.67	13524.84
541.034	13562.58
541.399	13562.81
541.764	13585.18
542.129	13521.9
542.494	13497.27
542.858	13545.86
543.223	13370.04
543.587	13484.39
543.952	13435.58
544.316	13398.29
544.681	13324.62
545.045	13366.65
545.41	13333.89
545.774	13401.68
546.138	13243.72
546.503	13255.47
546.867	13166.66
547.231	13191.29
547.595	13233.32
547.959	13176.38
548.324	13174.34
548.688	13055.02
549.052	13038.98
549.416	13071.75
549.779	13078.53
550.143	12999.66
550.507	13017.28
550.871	12941.35
551.235	12821.58
551.599	12921.24
551.962	12909.27
552.326	12867.01
552.689	12867.91
553.053	12775.26
553.417	12783.39
553.78	12886.89
554.143	12806.67
554.507	12783.84
554.87	12840.57
555.234	12878.98
555.597	12749.72
555.96	12744.52
556.323	12758.08
556.686	12748.14
557.05	12776.39
557.413	12736.61
557.776	12739.33
558.139	12781.81
558.502	12795.14
558.865	12734.13
559.228	12731.19
559.59	12750.85
559.953	12770.06
560.316	12814.58
560.679	12733.45
561.041	12726.45
561.404	12774.13
561.767	12811.19
562.129	12744.52
562.492	12845.99
562.854	12751.3
563.217	12751.53
563.579	12861.58
563.941	12864.75
564.304	12913.56
564.666	12924.86
565.028	12896.38
565.39	12889.15
565.753	12992.2
566.115	13013.67
566.477	12939.77
566.839	12948.36
567.201	13001.47
567.563	12959.43
567.925	13083.05
568.287	13064.06
568.648	13107.9
569.01	13104.29
569.372	13174.79
569.734	13093.67
570.095	13049.83
570.457	13114.91
570.819	13192.42
571.18	13185.19
571.542	13261.12
571.903	13227
572.265	13179.77
572.626	13254.11
572.987	13203.49
573.349	13327.33
573.71	13263.15
574.071	13313.1
574.432	13227.9
574.794	13330.95
575.155	13314.68
575.516	13228.13
575.877	13365.75
576.238	13339.76
576.599	13361
576.96	13367.56
577.32	13283.49
577.681	13384.96
578.042	13409.82
578.403	13354.23
578.763	13410.27
579.124	13393.09
579.485	13429.25
579.845	13469.48
580.206	13439.87
580.566	13430.16
580.927	13451.62
581.287	13474.45
581.648	13375.24
582.008	13428.35
582.368	13408.69
582.728	13476.03
583.089	13405.75
583.449	13353.32
583.809	13446.2
584.169	13383.6
584.529	13294.34
584.889	13448.91
585.249	13337.5
585.609	13319.2
585.969	13414.79
586.329	13316.71
586.688	13417.27
587.048	13310.61
587.408	13257.73
587.768	13263.15
588.127	13293.66
588.487	13273.55
588.846	13351.51
589.206	13271.97
589.565	13227.22
589.925	13294.11
590.284	13284.62
590.643	13252.31
591.003	13232.42
591.362	13279.65
591.721	13305.19
592.08	13308.35
592.44	13282.81
592.799	13240.1
593.158	13293.89
593.517	13179.09
593.876	13229.03
594.235	13184.51
594.593	13288.01
594.952	13154.91
595.311	13232.19
595.67	13224.29
596.029	13195.13
596.387	13298.86
596.746	13211.4
597.104	13274.45
597.463	13163.5
597.822	13252.31
598.18	13188.13
598.538	13164.85
598.897	13248.01
599.255	13211.63
599.613	13355.81
599.972	13277.62
600.33	13243.72
600.688	13147
601.046	13240.56
601.404	13252.98
601.762	13231.74
602.12	13234.23
602.478	13242.36
602.836	13201.69
603.194	13246.21
603.552	13231.52
603.91	13105.42
604.268	13183.83
604.625	13172.53
604.983	13224.06
605.341	13203.72
605.698	13278.29
606.056	13283.94
606.413	13204.85
606.771	13273.32
607.128	13284.4
607.485	13201.91
607.843	13293.21
608.2	13183.61
608.557	13423.6
608.914	13222.48
609.272	13304.51
609.629	13373.66
609.986	13396.48
610.343	13358.29
610.7	13415.24
611.057	13296.37
611.414	13380.21
611.771	13424.05
612.127	13380.67
612.484	13362.81
612.841	13362.81
613.198	13370.27
613.554	13382.47
613.911	13456.37
614.267	13426.99
614.624	13467.89
614.98	13475.58
615.337	13482.58
615.693	13484.62
616.05	13511.28
616.406	13545.41
616.762	13504.28
617.118	13476.71
617.475	13488.91
617.831	13502.24
618.187	13556.93
618.543	13615.69
618.899	13603.26
619.255	13622.69
619.611	13584.73
619.967	13664.27
620.323	13643.03
620.678	13613.2
621.034	13564.16
621.39	13620.88
621.746	13661.79
622.101	13760.09
622.457	13572.3
622.812	13605.07
623.168	13673.54
623.523	13697.94
623.879	13706.98
624.234	13620.66
624.589	13538.63
624.945	13623.6
625.3	13661.34
625.655	13583.82
626.01	13598.29
626.365	13608.68
626.72	13663.37
627.075	13604.16
627.43	13567.1
627.785	13527.55
628.14	13601.22
628.495	13535.69
628.85	13619.98
629.205	13537.05
629.559	13576.59
629.914	13559.42
630.269	13605.52
630.623	13510.61
630.978	13525.97
631.332	13499.98
631.687	13546.76
632.041	13510.83
632.396	13540.89
632.75	13529.14
633.104	13433.55
633.459	13391.06
633.813	13423.15
634.167	13365.07
634.521	13372.98
634.875	13390.61
635.229	13310.16
635.583	13302.7
635.937	13205.53
636.291	13328.46
636.645	13298.63
636.999	13262.25
637.352	13343.83
637.706	13222.03
638.06	13293.66
638.413	13189.03
638.767	13194.46
639.121	13218.64
639.474	13131.18
639.828	13095.25
640.181	13170.28
640.534	13121.69
640.888	13156.04
641.241	13073.1
641.594	13130.5
641.947	13103.84
642.301	13099.09
642.654	13093.22
643.007	13094.34
643.36	13013.44
643.713	12988.13
644.066	13052.31
644.419	12911.98
644.771	12894.12
645.124	12773.68
645.477	12829.04
645.83	12713.79
646.182	12631.98
646.535	12624.07
646.888	12660.68
647.24	12472.67
647.593	12641.93
647.945	12670.63
648.298	12473.12
648.65	12509.5
649.002	12494.81
649.355	12591.76
649.707	12530.74
650.059	12707.91
650.411	12781.13
650.763	12736.61
651.115	12885.54
651.467	12810.96
651.819	12798.99
652.171	12866.55
652.523	12878.98
652.875	12862.03
653.227	12809.61
653.578	12852.77
653.93	12819.55
654.282	12798.76
654.633	12805.99
654.985	12815.03
655.337	12819.55
655.688	12759.66
656.039	12772.77
656.391	12734.35
656.742	12851.87
657.094	12858.87
657.445	12816.16
657.796	12804.18
658.147	12809.38
658.498	12779.78
658.849	12900.23
659.2	12832.88
659.551	12791.75
659.902	12833.79
660.253	12793.34
660.604	12847.12
660.955	12842.37
661.306	12899.32
661.656	12809.38
662.007	12802.6
662.358	12839.44
662.708	12810.28
663.059	12860
663.409	12703.39
663.76	12789.72
664.11	12834.92
664.461	12846.89
664.811	12816.39
665.161	12774.58
665.511	12845.76
665.862	12894.58
666.212	12909.04
666.562	12956.04
666.912	12837.85
667.262	12786.1
667.612	12892.99
667.962	12849.83
668.312	12792.43
668.662	12909.72
669.011	12848.93
669.361	12796.05
669.711	12759.66
670.06	12797.86
670.41	12808.02
670.76	12695.49
671.109	12823.84
671.459	12763.96
671.808	12837.18
672.157	12770.74
672.507	12639.44
672.856	12738.65
673.205	12768.93
673.554	12822.04
673.904	12700.68
674.253	12784.07
674.602	12719.21
674.951	12538.2
675.3	12379.34
675.649	12624.3
675.998	12605.54
676.346	12656.62
676.695	12731.19
677.044	12571.19
677.393	12643.96
677.741	12628.59
678.09	12578.65
678.438	12614.13
678.787	12574.13
679.135	12494.59
679.484	12426.79
679.832	12515.38
680.181	12445.32
680.529	12530.07
680.877	12412.1
681.225	12439.67
681.573	12485.77
681.922	12339.56
682.27	12300.69
682.618	12388.83
682.966	12368.04
683.314	12390.86
683.661	12320.35
684.009	12333.69
684.357	12180.92
684.705	12275.61
685.053	12231.32
685.4	12271.54
685.748	12146.12
686.095	12107.93
686.443	12070.19
686.79	12038.33
687.138	12062.51
687.485	12070.87
687.832	11974.15
688.18	12023.19
688.527	11972.11
688.874	11949.52
689.221	11906.35
689.568	11775.06
689.915	11781.39
690.262	11818.45
690.609	11749.52
690.956	11683.31
691.303	11679.24
691.65	11684.44
691.997	11593.37
692.344	11533.03
692.69	11498
693.037	11538.23
693.383	11413.03
693.73	11427.27
694.077	11391.34
694.423	11396.31
694.769	11296.88
695.116	11324.9
695.462	11210.33
695.808	11195.86
696.155	11228.18
696.501	11145.02
696.847	11121.52
697.193	10997.45
697.539	11128.97
697.885	11046.49
698.231	10901.86
698.577	10923.33
698.923	10929.66
699.269	10879.94
699.614	10827.51
699.96	10762.65
700.306	10723.79
700.651	10652.6
700.997	10648.31
701.342	10693.5
701.688	10553.17
702.033	10539.16
702.379	10547.07
702.724	10524.24
703.069	10506.39
703.415	10414.64
703.76	10387.75
704.105	10332.84
704.45	10393.85
704.795	10299.84
705.14	10278.6
705.485	10316.79
705.83	10180.98
706.175	10186.62
706.52	10146.63
706.865	10105.5
707.209	10110.69
707.554	10063.46
707.899	10084.25
708.243	9957.93
708.588	9964.26
708.932	9883.36
709.277	9857.59
709.621	9907.08
709.966	9844.94
710.31	9930.81
710.654	9820.31
710.998	9832.74
711.342	9837.71
711.687	9737.37
712.031	9666.41
712.375	9734.89
712.719	9739.18
713.063	9696.02
713.407	9727.43
713.75	9703.7
714.094	9622.8
714.438	9564.72
714.782	9605.4
715.125	9546.19
715.469	9549.35
715.812	9503.25
716.156	9481.78
716.499	9477.26
716.843	9456.7
717.186	9401.79
717.53	9442.69
717.873	9375.8
718.216	9403.82
718.559	9350.04
718.902	9313.43
719.246	9384.16
719.589	9304.84
719.932	9239.08
720.275	9291.73
720.617	9294.67
720.96	9249.02
721.303	9263.49
721.646	9323.37
721.989	9165.18
722.331	9249.47
722.674	9230.04
723.016	9199.08
723.359	9139.87
723.701	9142.81
724.044	9094.9
724.386	9084.28
724.729	9165.18
725.071	9161.79
725.413	9129.48
725.755	9127.9
726.097	9035.47
726.439	9065.75
726.782	9034.79
727.124	9022.36
727.465	9009.93
727.807	9068.24
728.149	8972.87
728.491	9025.53
728.833	9038.86
729.175	8977.84
729.516	9112.53
729.858	8987.56
730.199	9013.55
730.541	9013.32
730.882	9032.08
731.224	8984.4
731.565	8985.98
731.906	8991.63
732.248	8998.18
732.589	8949.6
732.93	8901.23
733.271	8940.78
733.612	8934.91
733.953	8955.47
734.294	8903.49
734.635	8870.05
734.976	8950.73
735.317	8873.66
735.658	8894.23
735.999	8888.35
736.339	8928.8
736.68	8955.92
737.021	8920.9
737.361	8942.14
737.702	8934.23
738.042	8907.79
738.383	8995.02
738.723	8952.53
739.063	8943.49
739.404	8957.05
739.744	8933.55
740.084	8943.04
740.424	9008.35
740.764	9002.02
741.104	9017.16
741.444	9047.22
741.784	8995.92
742.124	9068.24
742.464	9084.05
742.804	9037.28
743.143	9072.3
743.483	9092.87
743.823	9040.44
744.162	9185.75
744.502	9153.88
744.841	9131.06
745.181	9242.02
745.52	9218.97
745.86	9260.1
746.199	9296.03
746.538	9275.46
746.877	9383.03
747.216	9383.48
747.556	9459.86
747.895	9527.43
748.234	9492.63
748.573	9500.99
748.911	9577.38
749.25	9677.49
749.589	9626.64
749.928	9800.42
750.267	9856.01
750.605	9932.17
750.944	9958.61
751.283	9954.77
751.621	10034.31
751.96	10134.65
752.298	10223.91
752.636	10319.73
752.975	10349.78
753.313	10438.6
753.651	10563.79
753.989	10585.71
754.327	10680.17
754.666	10798.36
755.004	10858.25
755.342	11068.18
755.679	11137.79
756.017	11259.59
756.355	11453.71
756.693	11503.65
757.031	11674.04
757.368	11750.65
757.706	11879.24
758.044	11999.91
758.381	12208.72
758.719	12273.12
759.056	12459.56
759.394	12599.89
759.731	12663.17
760.068	12857.52
760.405	12986.55
760.743	13066.1
761.08	13304.73
761.417	13469.7
761.754	13582.92
762.091	13770.71
762.428	13891.84
762.765	13955.79
763.102	14236.24
763.438	14312.17
763.775	14457.25
764.112	14648.2
764.449	14763.23
764.785	15056.1
765.122	15035.76
765.458	15180.84
765.795	15360.5
766.131	15474.85
766.467	15561.85
766.804	15783.09
767.14	15814.5
767.476	16062.4
767.812	16136.52
768.148	16284.32
768.485	16334.49
768.821	16427.82
769.157	16563.18
769.492	16650.18
769.828	16791.2
770.164	16737.86
770.5	16984.64
770.836	17158.19
771.171	17139.44
771.507	17251.07
771.842	17272.99
772.178	17509.82
772.513	17495.59
772.849	17520.22
773.184	17682.7
773.519	17678.18
773.855	17740.78
774.19	17807.67
774.525	17916.37
774.86	17943.03
775.195	18044.05
775.53	18213.31
775.865	18083.37
776.2	18046.08
776.535	18038.17
776.87	18054.67
777.205	18194.1
777.539	18144.16
777.874	18349.12
778.209	18264.6
778.543	18353.42
778.878	18279.75
779.212	18347.77
779.547	18295.56
779.881	18492.4
780.215	18401.55
780.55	18371.49
780.884	18490.59
781.218	18471.15
781.552	18432.96
781.886	18398.84
782.22	18461.44
782.554	18418.27
782.888	18438.16
783.222	18338.05
783.556	18320.87
783.889	18304.6
784.223	18305.51
784.557	18360.65
784.89	18345.28
785.224	18365.17
785.557	18226.19
785.891	18305.28
786.224	18319.97
786.558	18309.8
786.891	18053.99
787.224	18115.68
787.557	18137.15
787.891	18139.86
788.224	18202.23
788.557	18091.95
788.89	18151.61
789.223	18106.87
789.556	17929.92
789.888	18086.76
790.221	18008.34
790.554	17796.82
790.887	17850.38
791.219	17834.56
791.552	17809.02
791.884	17755.69
792.217	17733.55
792.549	17785.07
792.882	17669.59
793.214	17642.02
793.546	17621.91
793.879	17526.09
794.211	17504.4
794.543	17551.85
794.875	17423.04
795.207	17615.58
795.539	17477.05
795.871	17496.72
796.203	17387.34
796.535	17177.63
796.867	17276.83
797.198	17220.79
797.53	17205.2
797.862	17137.18
798.193	17169.49
798.525	17037.29
798.856	17202.49
799.188	16825.77
799.519	16874.58
799.85	16841.82
800.182	16790.97
800.513	16843.85
800.844	16750.07
801.175	16786
801.506	16714.59
801.837	16694.93
802.168	16629.39
802.499	16619.45
802.83	16584.87
803.161	16534.48
803.491	16576.51
803.822	16550.07
804.153	16383.75
804.483	16367.48
804.814	16304.43
805.145	16208.61
805.475	16223.3
805.805	16294.71
806.136	16135.62
806.466	16113.02
806.796	16150.31
807.126	15989.86
807.457	16007.04
807.787	16044.55
808.117	15901.73
808.447	15868.74
808.777	15870.54
809.107	15850.2
809.436	15835.97
809.766	15844.56
810.096	15767.72
810.426	15674.84
810.755	15858.79
811.085	15650.89
811.414	15687.27
811.744	15539.03
812.073	15566.6
812.403	15558.46
812.732	15428.07
813.061	15482.08
813.39	15386.71
813.719	15413.61
814.049	15449.54
814.378	15404.34
814.707	15350.1
815.036	15303.33
815.365	15219.71
815.693	15127.06
816.022	15184.91
816.351	15099.49
816.68	15033.28
817.008	15172.03
817.337	15013.84
817.665	14975.43
817.994	14965.48
818.322	14943.34
818.651	14879.16
818.979	14785.15
819.307	14919.38
819.636	14815.2
819.964	14784.24
820.292	14869.89
820.62	14831.47
820.948	14756.9
821.276	14852.26
821.604	14765.94
821.932	14865.6
822.259	14781.08
822.587	14779.27
822.915	14700.63
823.243	14841.87
823.57	14822.44
823.898	14814.07
824.225	14753.96
824.553	14749.44
824.88	14757.35
825.207	14752.38
825.535	14764.58
825.862	14747.86
826.189	14732.95
826.516	14770.46
826.843	14828.99
827.17	14850.01
827.497	14907.18
827.824	14810.23
828.151	14787.41
828.478	14902.43
828.805	14829.21
829.131	14730.46
829.458	14758.93
829.785	14749.44
830.111	14780.4
830.438	14796.45
830.764	14792.83
831.09	14776.79
831.417	14726.39
831.743	14795.54
832.069	14762.1
832.395	14678.48
832.722	14767.07
833.048	14733.4
833.374	14752.38
833.7	14640.29
834.026	14685.72
834.351	14745.6
834.677	14715.09
835.003	14686.62
835.329	14652.72
835.654	14650.01
835.98	14580.63
836.306	14599.62
836.631	14478.26
836.956	14583.12
837.282	14546.96
837.607	14511.03
837.932	14489.34
838.258	14497.92
838.583	14467.64
838.908	14391.71
839.233	14381.09
839.558	14429.23
839.883	14333.86
840.208	14326.85
840.533	14259.51
840.858	14302.9
841.182	14291.15
841.507	14261.09
841.832	14090.48
842.156	14129.12
842.481	14106.3
842.805	14136.8
843.13	14144.26
843.454	14106.3
843.778	14081.66
844.103	13962.12
844.427	13920.09
844.751	14010.93
845.075	13900.65
845.399	13823.82
845.723	13752.63
846.047	13723.25
846.371	13680.09
846.695	13641.9
847.019	13523.03
847.343	13470.61
847.666	13403.49
847.99	13387.22
848.313	13445.75
848.637	13347.9
848.96	13244.17
849.284	13277.39
849.607	13128.24
849.931	13169.82
850.254	13021.13
850.577	12972.99
850.9	12983.39
851.223	12902.03
851.546	12853.67
851.869	12762.15
852.192	12850.06
852.515	12759.21
852.838	12670.85
853.161	12618.43
853.483	12522.38
853.806	12459.56
854.129	12526.45
854.451	12474.7
854.774	12424.98
855.096	12375.72
855.419	12368.26
855.741	12276.51
856.063	12214.37
856.385	12210.3
856.708	12224.09
857.03	12146.57
857.352	12114.71
857.674	12156.97
857.996	12037.65
858.318	11911.1
858.64	12008.95
858.961	11913.81
859.283	11909.52
859.605	11854.38
859.926	11855.73
860.248	11773.25
860.57	11754.95
860.891	11795.85
861.212	11697.77
861.534	11740.71
861.855	11741.16
862.176	11604.67
862.498	11607.83
862.819	11636.76
863.14	11526.7
863.461	11535.97
863.782	11492.81
864.103	11446.7
864.424	11471.79
864.745	11555.85
865.065	11401.51
865.386	11361.96
865.707	11436.99
866.027	11388.4
866.348	11310.44
866.668	11377.55
866.989	11291.45
867.309	11248.52
867.63	11237.9
867.95	11251.23
868.27	11139.37
868.59	11186.15
868.91	11208.52
869.23	11097.34
869.55	11055.75
869.87	11249.2
870.19	11155.86
870.51	11091.91
870.83	11123.32
871.15	10989.32
871.469	11077.45
871.789	11046.94
872.109	11018.69
872.428	10959.94
872.748	11035.87
873.067	10930.56
873.386	10934.18
873.706	10935.31
874.025	10828.64
874.344	10904.35
874.663	10926.94
874.982	10874.06
875.301	10834.52
875.62	10817.79
875.939	10778.93
876.258	10737.57
876.577	10812.82
876.896	10722.2
877.214	10685.37
877.533	10729.89
877.852	10647.4
878.17	10619.38
878.489	10700.96
878.807	10648.99
879.125	10584.35
879.444	10617.8
879.762	10632.04
880.08	10584.81
880.398	10517.92
880.716	10551.59
881.034	10536.67
881.352	10488.54
881.67	10488.76
881.988	10481.08
882.306	10436.79
882.624	10383
882.941	10342.78
883.259	10306.62
883.577	10337.13
883.894	10330.12
884.212	10266.85
884.529	10288.09
884.846	10276.34
885.164	10228.66
885.481	10183.91
885.798	10217.58
886.115	10134.87
886.432	10111.15
886.75	10135.33
887.067	10074.99
887.383	10043.35
887.7	10063.69
888.017	10019.62
888.334	10034.76
888.651	9974.2
888.967	10004.48
889.284	9903.92
889.6	9891.49
889.917	9785.73
890.233	9842.23
890.55	9804.49
890.866	9800.19
891.182	9744.15
891.498	9716.81
891.815	9725.17
892.131	9622.35
892.447	9594.78
892.763	9576.47
893.079	9569.92
893.395	9514.55
893.71	9556.58
894.026	9491.73
894.342	9420.09
894.657	9437.49
894.973	9337.61
895.289	9364.5
895.604	9377.15
895.92	9295.12
896.235	9303.26
896.55	9240.66
896.865	9199.08
897.181	9098.07
897.496	9105.75
897.811	9060.78
898.126	9064.85
898.441	9071.17
898.756	9006.09
899.071	8965.19
899.386	8928.35
899.7	8816.27
900.015	8913.44
900.33	8703.5
900.644	8810.39
900.959	8792.31
901.273	8713.67
901.588	8694.46
901.902	8617.85
902.216	8646.78
902.531	8607.23
902.845	8545.99
903.159	8486.56
903.473	8503.51
903.787	8468.48
904.101	8404.98
904.415	8467.12
904.729	8326.79
905.042	8280.46
905.356	8261.93
905.67	8278.88
905.984	8287.24
906.297	8266.68
906.611	8189.39
906.924	8115.04
907.237	8133.57
907.551	8102.16
907.864	8113.46
908.177	8075.27
908.491	8011.99
908.804	7988.72
909.117	7874.37
909.43	7877.08
909.743	7838.66
910.056	7815.39
910.368	7758.44
910.681	7808.61
910.994	7701.94
911.307	7701.94
911.619	7625.11
911.932	7625.11
912.244	7640.25
912.557	7633.92
912.869	7534.49
913.181	7488.16
913.494	7458.11
913.806	7403.87
914.118	7439.8
914.43	7343.76
914.742	7387.83
915.054	7361.84
915.366	7273.93
915.678	7284.55
915.99	7274.39
916.302	7178.57
916.613	7170.66
916.925	7195.29
917.236	7121.17
917.548	7148.29
917.859	7074.84
918.171	7051.34
918.482	7012.92
918.794	7024.67
919.105	7002.75
919.416	6958.91
919.727	6929.08
920.038	6914.62
920.349	6804.11
920.66	6801.86
920.971	6795.53
921.282	6783.32
921.593	6722.99
921.903	6680.5
922.214	6684.57
922.525	6641.18
922.835	6625.36
923.146	6572.71
923.456	6598.02
923.767	6518.47
924.077	6508.08
924.387	6474.41
924.697	6373.17
925.008	6435.09
925.318	6351.47
925.628	6423.11
925.938	6380.4
926.248	6341.53
926.558	6285.94
926.867	6284.81
927.177	6233.06
927.487	6191.48
927.796	6180.63
928.106	6127.07
928.416	6177.01
928.725	6088.43
929.034	6056.79
929.344	6025.83
929.653	6094.98
929.962	6029.22
930.271	6026.96
930.581	5967.75
930.89	5990.58
931.199	5892.27
931.508	5897.25
931.817	5920.3
932.125	5863.57
932.434	5818.6
932.743	5795.33
933.051	5776.35
933.36	5764.37
933.669	5723.24
933.977	5684.6
934.286	5665.16
934.594	5710.58
934.902	5623.81
935.21	5614.99
935.519	5624.03
935.827	5601.21
936.135	5586.75
936.443	5514.88
936.751	5506.52
937.059	5498.61
937.367	5448.44
937.674	5484.15
937.982	5433.3
938.29	5407.09
938.597	5421.78
938.905	5368.45
939.213	5312.63
939.52	5292.06
939.827	5330.26
940.135	5238.05
940.442	5186.3
940.749	5219.52
941.056	5197.6
941.363	5125.97
941.67	5139.3
941.977	5120.09
942.284	5087.32
942.591	5084.84
942.898	5001.45
943.205	5077.83
943.511	5014.11
943.818	4970.49
944.125	4995.35
944.431	4946.76
944.738	4933.66
945.044	4948.12
945.35	4891.85
945.657	4841.91
945.963	4857.05
946.269	4807.78
946.575	4798.97
946.881	4754.9
947.187	4746.77
947.493	4750.84
947.799	4743.83
948.105	4659.31
948.41	4671.97
948.716	4652.53
949.022	4599.65
949.327	4620.9
949.633	4568.47
949.938	4587.68
950.244	4555.81
950.549	4516.94
950.854	4507
951.16	4492.76
951.465	4483.95
951.77	4438.75
952.075	4431.97
952.38	4448.92
952.685	4414.8
952.99	4377.06
953.294	4398.3
953.599	4354.91
953.904	4284.41
954.209	4288.7
954.513	4231.75
954.818	4279.66
955.122	4260.23
955.426	4201.7
955.731	4236.05
956.035	4203.05
956.339	4144.3
956.643	4165.77
956.948	4120.8
957.252	4121.25
957.556	4097.07
957.86	4074.47
958.163	4095.03
958.467	4034.47
958.771	4046.45
959.075	4052.32
959.378	4028.14
959.682	4028.37
959.985	3978.43
960.289	3943.4
960.592	3934.59
960.896	3922.16
961.199	3872.89
961.502	3862.5
961.805	3894.81
962.108	3882.38
962.411	3820.46
962.714	3842.61
963.017	3821.59
963.32	3768.04
963.623	3750.64
963.926	3815.72
964.228	3746.57
964.531	3744.99
964.833	3735.27
965.136	3630.64
965.438	3679.68
965.741	3678.55
966.043	3646.68
966.345	3612.33
966.648	3638.77
966.95	3578.66
967.252	3580.47
967.554	3552.45
967.856	3554.03
968.158	3534.82
968.46	3498.67
968.761	3469.06
969.063	3469.51
969.365	3486.91
969.666	3439.46
969.968	3425.67
970.269	3440.81
970.571	3422.06
970.872	3414.6
971.174	3341.83
971.475	3340.25
971.776	3389.29
972.077	3364.43
972.378	3336.86
972.679	3317.43
972.98	3270.65
973.281	3328.5
973.582	3295.28
973.883	3228.39
974.183	3261.61
974.484	3214.83
974.785	3197.43
975.085	3200.59
975.386	3197.43
975.686	3171.89
975.986	3150.43
976.287	3185.9
976.587	3108.84
976.887	3125.57
977.187	3120.82
977.487	3094.16
977.787	3090.31
978.087	3062.74
978.387	3039.69
978.687	3041.95
978.987	3018.23
979.286	3029.75
979.586	2959.02
979.885	2974.39
980.185	2977.32
980.484	2967.15
980.784	2923.09
981.083	2932.13
981.382	2906.59
981.682	2910.43
981.981	2877.66
982.28	2868.17
982.579	2853.94
982.878	2880.38
983.177	2848.74
983.475	2821.85
983.774	2796.54
984.073	2802.64
984.372	2778.46
984.67	2728.06
984.969	2788.18
985.267	2746.82
985.566	2768.74
985.864	2677.67
986.162	2722.19
986.461	2731.45
986.759	2690.32
987.057	2680.38
987.355	2674.28
987.653	2637.9
987.951	2637.44
988.249	2657.78
988.547	2599.25
988.844	2585.47
989.142	2600.38
989.44	2592.25
989.737	2577.33
990.035	2552.93
990.332	2557.22
990.63	2499.14
990.927	2519.48
991.224	2509.31
991.521	2482.87
991.819	2503.66
992.116	2474.74
992.413	2458.24
992.71	2432.03
993.006	2409.43
993.303	2444
993.6	2405.81
993.897	2417.11
994.193	2384.34
994.49	2368.53
994.787	2362.88
995.083	2357.45
995.379	2342.31
995.676	2339.15
995.972	2337.11
996.268	2319.71
996.565	2308.41
996.861	2297.79
997.157	2261.41
997.453	2273.61
997.749	2220.73
998.044	2249.66
998.34	2225.7
998.636	2244.91
998.932	2217.79
999.227	2217.79
999.523	2202.43
999.818	2191.58
1000.114	2174.63
1000.409	2129.44
1000.704	2133.05
1001	2129.21
1001.295	2095.09
1001.59	2135.99
1001.885	2114.97
1002.18	2117.91
1002.475	2057.12
1002.77	2040.85
1003.065	2060.28
1003.359	2017.35
1003.654	2034.52
1003.949	2001.53
1004.243	2015.77
1004.538	1951.36
1004.832	1987.07
1005.127	1993.62
1005.421	1971.47
1005.715	1959.72
1006.009	1943.68
1006.304	1920.18
1006.598	1922.21
1006.892	1861.65
1007.186	1892.83
1007.48	1867.07
1007.773	1905.71
1008.067	1828.2
1008.361	1830.46
1008.655	1868.43
1008.948	1813.29
1009.242	1800.86
1009.535	1821.42
1009.829	1812.61
1010.122	1784.13
1010.415	1782.33
1010.708	1772.61
1011.001	1771.48
1011.295	1740.29
1011.588	1743.46
1011.881	1703.91
1012.173	1705.27
1012.466	1700.75
1012.759	1681.76
1013.052	1700.52
1013.344	1686.28
1013.637	1686.28
1013.93	1665.27
1014.222	1668.66
1014.514	1658.04
1014.807	1634.53
1015.099	1646.51
1015.391	1633.18
1015.683	1628.88
1015.976	1591.6
1016.268	1562.44
1016.56	1542.33
1016.851	1569.22
1017.143	1560.64
1017.435	1526.06
1017.727	1523.35
1018.018	1527.19
1018.31	1514.54
1018.602	1515.44
1018.893	1504.59
1019.185	1506.63
1019.476	1476.57
1019.767	1485.84
1020.058	1463.24
1020.35	1467.31
1020.641	1443.35
1020.932	1450.81
1021.223	1442.45
1021.514	1414.88
1021.804	1390.47
1022.095	1411.94
1022.386	1373.07
1022.677	1365.39
1022.967	1340.53
1023.258	1376.69
1023.548	1341.66
1023.839	1335.78
1024.129	1339.17
1024.419	1347.08
1024.709	1296.69
1025	1318.38
1025.29	1321.77
1025.58	1243.36
1025.87	1279.74
1026.16	1269.12
1026.449	1277.93
1026.739	1267.76
1027.029	1242.68
1027.319	1266.41
1027.608	1262.57
1027.898	1237.71
1028.187	1218.5
1028.477	1224.37
1028.766	1199.97
1029.055	1190.48
1029.344	1182.57
1029.634	1184.38
1029.923	1193.19
1030.212	1148.9
1030.501	1140.08
1030.79	1147.31
1031.078	1146.64
1031.367	1137.82
1031.656	1129.24
1031.945	1101.67
1032.233	1094.21
1032.522	1044.94
1032.81	1101.89
1033.099	1096.02
1033.387	1097.37
1033.675	1081.1
1033.963	1064.83
1034.251	1042.01
1034.54	1072.74
1034.828	1041.33
1035.116	1054.44
1035.403	1023.93
1035.691	1022.35
1035.979	1021.44
1036.267	1004.04
1036.554	996.58
1036.842	996.81
1037.129	993.42
1037.417	989.58
1037.704	985.06
1037.992	964.27
1038.279	974.44
1038.566	962.69
1038.853	962.69
1039.14	962.69
