Data from hue_180_FLMS001491_00060.txt Node
Date: Tue Feb 07 16:47:12 GMT 2017
User: dcchb
Spectrometer: FLMS00149
Trigger mode: 0
Integration Time (sec): 2.000000E-2
Scans to average: 10
Electric dark correction enabled: true
Nonlinearity correction enabled: false
Boxcar width: 0
XAxis mode: Wavelengths
Number of Pixels in Spectrum: 2048
>>>>>Begin Spectral Data<<<<<
341.393	1.72
341.776	1.72
342.16	1.72
342.543	-58.39
342.927	-69.46
343.31	-66.75
343.693	-78.05
344.077	-74.21
344.46	-67.43
344.843	-57.48
345.226	-58.61
345.61	-22.68
345.993	-25.39
346.376	1.95
346.759	10.08
347.142	41.72
347.525	24.77
347.908	79.91
348.291	83.75
348.674	93.7
349.057	114.71
349.44	115.17
349.823	136.18
350.206	145
350.588	190.64
350.971	185
351.354	245.78
351.737	231.55
352.119	252.11
352.502	251.21
352.884	270.64
353.267	280.59
353.65	302.28
354.032	297.99
354.414	306.57
354.797	312.45
355.179	315.39
355.562	334.37
355.944	331.66
356.326	345.67
356.709	346.35
357.091	330.3
357.473	324.65
357.855	336.18
358.238	343.64
358.62	340.92
359.002	329.17
359.384	351.32
359.766	322.84
360.148	338.89
360.53	337.53
360.912	313.81
361.294	315.84
361.676	337.76
362.057	316.52
362.439	322.17
362.821	335.73
363.203	307.25
363.584	321.71
363.966	323.97
364.348	334.37
364.729	312
365.111	314.48
365.493	313.35
365.874	332.11
366.256	321.26
366.637	304.54
367.019	303.41
367.4	309.96
367.781	302.96
368.163	311.55
368.544	290.98
368.925	312.22
369.306	317.87
369.688	300.7
370.069	301.83
370.45	316.52
370.831	313.81
371.212	312.22
371.593	298.21
371.974	315.16
372.355	296.63
372.736	317.87
373.117	310.42
373.498	322.84
373.879	305.9
374.26	294.6
374.641	309.74
375.021	324.88
375.402	314.03
375.783	314.71
376.163	333.47
376.544	316.07
376.925	310.19
377.305	307.25
377.686	339.12
378.066	315.84
378.447	309.74
378.827	318.78
379.208	333.24
379.588	358.55
379.968	320.81
380.349	324.2
380.729	323.97
381.109	340.25
381.489	335.73
381.87	342.28
382.25	343.41
382.63	349.06
383.01	347.25
383.39	340.02
383.77	331.88
384.15	356.29
384.53	338.66
384.91	358.78
385.29	349.06
385.67	334.6
386.049	344.54
386.429	335.73
386.809	347.93
387.189	349.06
387.568	349.28
387.948	353.13
388.328	354.26
388.707	364.43
389.087	354.26
389.466	369.4
389.846	333.47
390.225	361.04
390.605	349.96
390.984	371.43
391.363	365.78
391.743	362.39
392.122	375.27
392.501	361.26
392.881	379.79
393.26	373.69
393.639	377.53
394.018	371.66
394.397	388.15
394.776	381.37
395.155	387.7
395.534	385.67
395.913	390.19
396.292	369.62
396.671	389.51
397.05	384.99
397.429	376.4
397.808	381.83
398.186	402.62
398.565	406.01
398.944	391.09
399.323	385.67
399.701	421.6
400.08	408.94
400.458	403.97
400.837	423.18
401.215	430.19
401.594	404.88
401.972	422.28
402.351	410.98
402.729	427.25
403.107	411.66
403.486	400.36
403.864	441.03
404.242	425.21
404.62	424.08
404.999	431.54
405.377	428.83
405.755	443.07
406.133	433.12
406.511	441.26
406.889	441.03
407.267	452.78
407.645	464.08
408.023	468.6
408.401	479.45
408.779	465.89
409.156	497.08
409.534	476.51
409.912	500.47
410.29	484.2
410.667	499.79
411.045	503.86
411.422	513.8
411.8	513.8
412.178	504.76
412.555	535.27
412.933	553.57
413.31	558.77
413.687	580.92
414.065	550.64
414.442	572.56
414.819	567.58
415.197	610.07
415.574	580.24
415.951	598.32
416.328	610.29
416.705	603.97
417.082	614.81
417.46	633.8
417.837	625.89
418.214	623.63
418.591	631.76
418.967	639.9
419.344	648.49
419.721	633.12
420.098	676.28
420.475	682.61
420.852	693.23
421.228	693
421.605	708.6
421.982	716.51
422.358	709.05
422.735	755.15
423.111	756.51
423.488	755.15
423.864	761.25
424.241	775.71
424.617	815.26
424.994	797.18
425.37	817.52
425.746	800.12
426.123	809.84
426.499	836.96
426.875	838.31
427.251	876.05
427.627	862.04
428.003	869.27
428.379	896.16
428.756	872.66
429.132	908.14
429.507	918.99
429.883	937.74
430.259	937.29
430.635	960.79
431.011	953.79
431.387	982.04
431.763	992.66
432.138	1000.57
432.514	1017.29
432.89	1014.8
433.265	1060.23
433.641	1057.06
434.016	1070.62
434.392	1100.23
434.767	1115.59
435.143	1115.82
435.518	1132.54
435.894	1161.01
436.269	1160.11
436.644	1175.03
437.02	1183.61
437.395	1230.84
437.77	1218.41
438.145	1262.03
438.52	1288.02
438.895	1307.9
439.271	1325.53
439.646	1322.59
440.021	1347.68
440.395	1358.52
440.77	1383.61
441.145	1379.09
441.52	1414.79
441.895	1418.41
442.27	1437.17
442.645	1409.6
443.019	1476.49
443.394	1427
443.769	1488.69
444.143	1505.86
444.518	1547.22
444.892	1511.06
445.267	1543.6
445.641	1572.3
446.016	1537.28
446.39	1584.05
446.764	1559.2
447.139	1572.98
447.513	1569.14
447.887	1619.76
448.262	1638.06
448.636	1631.28
449.01	1698.63
449.384	1660.44
449.758	1679.42
450.132	1737.95
450.506	1734.11
450.88	1754.45
451.254	1735.01
451.628	1777.04
452.002	1809.81
452.376	1774.11
452.75	1806.2
453.123	1803.71
453.497	1881.9
453.871	1880.09
454.244	1892.52
454.618	1940.2
454.992	1953.54
455.365	1957.15
455.739	1968
456.112	2021.78
456.486	2051.16
456.859	2055.45
457.232	2106.53
457.606	2114.21
457.979	2118.73
458.352	2183.13
458.725	2216.13
459.099	2222.46
459.472	2231.27
459.845	2245.96
460.218	2262.45
460.591	2322.11
460.964	2327.09
461.337	2415.67
461.71	2407.54
462.083	2458.61
462.456	2496.57
462.829	2481.43
463.201	2563.01
463.574	2530.7
463.947	2573.41
464.32	2624.25
464.692	2642.78
465.065	2668.77
465.438	2725.72
465.81	2794.87
466.183	2818.6
466.555	2867.18
466.928	2853.63
467.3	2873.51
467.672	2970.68
468.045	3022.43
468.417	3068.76
468.789	3045.03
469.161	3115.77
469.534	3161.64
469.906	3243.45
470.278	3231.24
470.65	3318.47
471.022	3343.1
471.394	3421.52
471.766	3474.63
472.138	3535.64
472.51	3611.57
472.882	3677.78
473.253	3695.86
473.625	3748.52
473.997	3846.59
474.369	3885.01
474.74	3931.79
475.112	4038.91
475.484	4106.02
475.855	4193.03
476.227	4214.95
476.598	4301.05
476.97	4371.78
477.341	4456.3
477.713	4532.23
478.084	4558.67
478.455	4756.85
478.827	4843.4
479.198	4943.51
479.569	4996.62
479.94	5101.25
480.311	5156.16
480.682	5303.28
481.053	5417.63
481.424	5547.34
481.795	5643.83
482.166	5687.9
482.537	5803.6
482.908	5950.04
483.279	5990.27
483.65	6134.67
484.021	6260.32
484.391	6312.52
484.762	6354.55
485.133	6457.6
485.503	6584.37
485.874	6744.6
486.244	6808.78
486.615	6960.86
486.985	7066.85
487.356	7193.85
487.726	7258.93
488.097	7446.05
488.467	7404.47
488.837	7590.22
489.207	7690.33
489.578	7820.27
489.948	7904.34
490.318	8042.42
490.688	8069.08
491.058	8218.91
491.428	8273.37
491.798	8425
492.168	8652.8
492.538	8596.98
492.908	8743.64
493.278	8852.56
493.648	8903.64
494.017	8975.27
494.387	9080.13
494.757	9172.33
495.126	9304.76
495.496	9328.26
495.866	9372.32
496.235	9424.53
496.605	9583.62
496.974	9624.29
497.344	9658.42
497.713	9702.94
498.082	9805.53
498.452	9930.73
498.821	9993.78
499.19	9909.94
499.559	10050.95
499.928	10081.91
500.298	10196.03
500.667	10293.2
501.036	10334.33
501.405	10327.1
501.774	10361.22
502.143	10443.93
502.512	10423.6
502.88	10565.97
503.249	10562.58
503.618	10576.59
503.987	10649.58
504.356	10712.18
504.724	10718.96
505.093	10772.06
505.462	10829.46
505.83	10835.56
506.199	10914.2
506.567	11043.69
506.936	11054.09
507.304	11148.77
507.672	11004.15
508.041	11140.64
508.409	11226.96
508.777	11290.69
509.145	11293.18
509.514	11377.47
509.882	11300.86
510.25	11309.9
510.618	11350.58
510.986	11398.26
511.354	11436.45
511.722	11534.98
512.09	11574.07
512.458	11527.52
512.826	11652.26
513.193	11523.91
513.561	11659.27
513.929	11596.22
514.297	11722.09
514.664	11758.02
515.032	11745.14
515.4	11866.95
515.767	11864.46
516.135	11897.46
516.502	11740.85
516.869	11892.26
517.237	11886.61
517.604	11725.48
517.972	11940.39
518.339	11938.81
518.706	11909.66
519.073	11934.52
519.44	11891.35
519.808	12005.7
520.175	11938.81
520.542	12035.76
520.909	12167.73
521.276	12019.26
521.643	12121.63
522.009	12172.48
522.376	12143.78
522.743	12186.71
523.11	12243.66
523.477	12302.42
523.843	12334.96
524.21	12317.11
524.577	12443.2
524.943	12351.68
525.31	12344.68
525.676	12380.38
526.043	12392.36
526.409	12436.2
526.776	12456.99
527.142	12433.26
527.508	12397.56
527.874	12472.36
528.241	12452.02
528.607	12417.67
528.973	12439.36
529.339	12393.49
529.705	12475.75
530.071	12468.74
530.437	12452.47
530.803	12424.22
531.169	12400.95
531.535	12351.91
531.901	12331.57
532.267	12410.89
532.632	12354.84
532.998	12360.49
533.364	12343.32
533.73	12289.08
534.095	12332.02
534.461	12249.54
534.826	12235.07
535.192	12194.4
535.557	12259.48
535.923	12191.91
536.288	12052.93
536.653	12186.71
537.019	12011.12
537.384	12050.67
537.749	12053.38
538.114	11950.11
538.479	11948.53
538.845	11886.83
539.21	11812.71
539.575	11882.09
539.94	11828.53
540.305	11875.99
540.67	11690
541.034	11680.74
541.399	11585.15
541.764	11679.16
542.129	11634.19
542.494	11553.06
542.858	11561.19
543.223	11449.56
543.587	11499.05
543.952	11410.24
544.316	11382.44
544.681	11306.06
545.045	11277.13
545.41	11264.03
545.774	11266.74
546.138	11203.91
546.503	11166.4
546.867	11116.46
547.231	11054.77
547.595	11075.56
547.959	11032.62
548.324	10998.27
548.688	10921.89
549.052	10898.39
549.416	10859.74
549.779	10822.46
550.143	10800.31
550.507	10826.98
550.871	10799.86
551.235	10649.13
551.599	10690.71
551.962	10755.56
552.326	10603.03
552.689	10627.66
553.053	10486.87
553.417	10512.86
553.78	10556.7
554.143	10462.69
554.507	10457.72
554.87	10424.05
555.234	10446.42
555.597	10378.17
555.96	10375.69
556.323	10328.01
556.686	10261.57
557.05	10290.04
557.413	10283.94
557.776	10216.82
558.139	10307.21
558.502	10169.59
558.865	10231.74
559.228	10137.95
559.59	10207.1
559.953	10191.06
560.316	10244.39
560.679	10153.32
561.041	10157.39
561.404	10164.17
561.767	10183.83
562.129	10172.76
562.492	10177.05
562.854	10086.43
563.217	10080.78
563.579	10156.26
563.941	10150.38
564.304	10088.01
564.666	10184.73
565.028	10136.6
565.39	10077.84
565.753	10212.3
566.115	10158.52
566.477	10128.24
566.839	10188.8
567.201	10126.2
567.563	10100.67
567.925	10141.34
568.287	10172.3
568.648	10204.17
569.01	10159.2
569.372	10157.84
569.734	10180.44
570.095	10205.52
570.457	10147.45
570.819	10171.4
571.18	10204.39
571.542	10207.78
571.903	10192.19
572.265	10203.71
572.626	10101.12
572.987	10195.35
573.349	10131.63
573.71	10238.06
574.071	10131.63
574.432	10210.72
574.794	10291.85
575.155	10280.32
575.516	10167.11
575.877	10222.7
576.238	10196.94
576.599	10235.8
576.96	10214.79
577.32	10280.1
577.681	10286.2
578.042	10258.63
578.403	10188.35
578.763	10256.59
579.124	10199.42
579.485	10279.42
579.845	10262.92
580.206	10239.65
580.566	10215.47
580.927	10203.26
581.287	10179.08
581.648	10153.55
582.008	10189.25
582.368	10168.01
582.728	10233.54
583.089	10208.23
583.449	10117.62
583.809	10220.89
584.169	10211.17
584.529	10099.76
584.889	10217.5
585.249	10115.58
585.609	10063.83
585.969	10117.84
586.329	10152.64
586.688	10180.89
587.048	10072.64
587.408	9994.23
587.768	10143.15
588.127	10052.31
588.487	10024.06
588.846	10058.63
589.206	10070.38
589.565	9975.02
589.925	10000.78
590.284	9959.43
590.643	10029.71
591.003	10022.93
591.362	10042.59
591.721	9973.21
592.08	10046.2
592.44	10029.48
592.799	9989.71
593.158	9979.77
593.517	9925.98
593.876	9995.58
594.235	9982.25
594.593	10012.99
594.952	10022.48
595.311	9891.63
595.67	9952.2
596.029	9976.38
596.387	9930.28
596.746	9962.82
597.104	9894.12
597.463	9883.05
597.822	9898.64
598.18	9924.17
598.538	9853.44
598.897	9909.94
599.255	9826.32
599.613	9894.57
599.972	9899.77
600.33	9836.27
600.688	9929.6
601.046	9806.44
601.404	9846.66
601.762	9896.83
602.12	9941.35
602.478	9858.64
602.836	9895.7
603.194	9867.68
603.552	9888.02
603.91	9801.92
604.268	9871.29
604.625	9796.27
604.983	9833.1
605.341	9768.7
605.698	9871.97
606.056	9882.59
606.413	9818.87
606.771	9904.06
607.128	9868.13
607.485	9803.73
607.843	9803.05
608.2	9885.53
608.557	9921.01
608.914	9798.08
609.272	9879.66
609.629	9879.43
609.986	9886.66
610.343	9873.55
610.7	9909.71
611.057	9871.07
611.414	9872.42
611.771	9894.8
612.127	9918.52
612.484	9922.14
612.841	9916.26
613.198	9927.11
613.554	9939.99
613.911	9944.96
614.267	9932.54
614.624	9921.69
614.98	9970.5
615.337	10024.96
615.693	9916.94
616.05	9969.82
616.406	10082.81
616.762	9961.91
617.118	9965.08
617.475	9959.2
617.831	10034.68
618.187	10116.71
618.543	10034.23
618.899	10028.58
619.255	10016.38
619.611	10025.64
619.967	10043.27
620.323	10087.56
620.678	10065.19
621.034	10023.83
621.39	10047.11
621.746	10000.1
622.101	10121.91
622.457	10022.7
622.812	10057.5
623.168	10090.95
623.523	10079.65
623.879	10072.87
624.234	10034.68
624.589	10045.75
624.945	10099.54
625.3	10085.53
625.655	10076.71
626.01	10053.44
626.365	10045.53
626.72	10005.08
627.075	10063.61
627.43	9981.8
627.785	10036.71
628.14	9982.48
628.495	9953.1
628.85	10044.17
629.205	9977.51
629.559	10115.58
629.914	9994.91
630.269	10010.73
630.623	9986.77
630.978	9981.12
631.332	9969.6
631.687	10018.86
632.041	9947.22
632.396	9930.73
632.75	9932.99
633.104	9923.27
633.459	9849.6
633.813	9871.97
634.167	9899.32
634.521	9863.16
634.875	9881.69
635.229	9852.09
635.583	9769.38
635.937	9822.93
636.291	9827.45
636.645	9785.87
636.999	9713.78
637.352	9813.44
637.706	9768.47
638.06	9793.56
638.413	9674.01
638.767	9716.72
639.121	9689.83
639.474	9595.37
639.828	9709.72
640.181	9662.71
640.534	9616.61
640.888	9613.45
641.241	9619.1
641.594	9580.91
641.947	9678.08
642.301	9539.33
642.654	9639.89
643.007	9619.1
643.36	9601.92
643.713	9608.93
644.066	9596.05
644.419	9506.56
644.771	9441.47
645.124	9404.19
645.477	9378.65
645.83	9375.04
646.182	9285.55
646.535	9303.63
646.888	9293.68
647.24	9240.12
647.593	9226.34
647.945	9233.8
648.298	9256.4
648.65	9155.61
649.002	9236.73
649.355	9234.7
649.707	9272.67
650.059	9238.09
650.411	9345.66
650.763	9387.24
651.115	9531.87
651.467	9420.68
651.819	9467.01
652.171	9442.15
652.523	9419.78
652.875	9423.85
653.227	9336.39
653.578	9429.95
653.93	9370.97
654.282	9422.72
654.633	9400.57
654.985	9397.18
655.337	9404.19
655.688	9482.15
656.039	9446.67
656.391	9429.72
656.742	9401.25
657.094	9399.22
657.445	9454.36
657.796	9401.02
658.147	9467.24
658.498	9464.07
658.849	9488.25
659.2	9532.55
659.551	9478.54
659.902	9470.85
660.253	9476.5
660.604	9507.01
660.955	9460.23
661.306	9477.63
661.656	9527.12
662.007	9506.33
662.358	9453.9
662.708	9398.31
663.059	9511.3
663.409	9411.65
663.76	9526.9
664.11	9535.03
664.461	9471.53
664.811	9506.33
665.161	9485.77
665.511	9468.14
665.862	9516.05
666.212	9515.6
666.562	9560.12
666.912	9460.46
667.262	9500
667.612	9479.44
667.962	9525.77
668.312	9459.78
668.662	9570.74
669.011	9491.64
669.361	9503.39
669.711	9451.19
670.06	9497.97
670.41	9419.55
670.76	9396.96
671.109	9427.01
671.459	9506.56
671.808	9425.66
672.157	9521.92
672.507	9388.14
672.856	9486.45
673.205	9450.06
673.554	9403.06
673.904	9402.83
674.253	9412.1
674.602	9444.41
674.951	9258.88
675.3	9217.75
675.649	9427.92
675.998	9343.62
676.346	9405.09
676.695	9370.97
677.044	9380.91
677.393	9356.51
677.741	9304.76
678.09	9331.2
678.438	9311.53
678.787	9330.07
679.135	9273.8
679.484	9252.1
679.832	9305.66
680.181	9123.97
680.529	9294.13
680.877	9226.11
681.225	9222.95
681.573	9281.71
681.922	9137.53
682.27	9135.49
682.618	9167.58
682.966	9099.11
683.314	9151.31
683.661	9067.25
684.009	9045.55
684.357	9041.26
684.705	9028.38
685.053	8949.28
685.4	9037.42
685.748	8885.33
686.095	8920.36
686.443	8804.88
686.79	8894.37
687.138	8877.87
687.485	8837.87
687.832	8815.05
688.18	8792.68
688.527	8756.97
688.874	8772.34
689.221	8723.75
689.568	8700.93
689.915	8658.22
690.262	8735.96
690.609	8712.68
690.956	8642.17
691.303	8623.64
691.65	8594.04
691.997	8523.53
692.344	8438.79
692.69	8511.1
693.037	8484.66
693.383	8350.88
693.73	8431.56
694.077	8345.91
694.423	8319.47
694.769	8290.54
695.116	8315.85
695.462	8271.79
695.808	8263.65
696.155	8220.49
696.501	8205.8
696.847	8158.34
697.193	8089.87
697.539	8109.08
697.885	8052.81
698.231	8022.08
698.577	7995.64
698.923	8018.69
699.269	7968.97
699.614	7889.43
699.96	7947.5
700.306	7881.29
700.651	7847.62
700.997	7845.58
701.342	7726.94
701.688	7805.59
702.033	7733.05
702.379	7671.8
702.724	7636.78
703.069	7630
703.415	7596.55
703.76	7530.34
704.105	7591.81
704.45	7502.32
704.795	7532.15
705.14	7471.58
705.485	7403.56
705.83	7469.32
706.175	7425.93
706.52	7410.79
706.865	7357.01
707.209	7335.09
707.554	7295.09
707.899	7273.62
708.243	7265.26
708.588	7290.57
708.932	7254.41
709.277	7158.82
709.621	7232.04
709.966	7139.84
710.31	7145.49
710.654	7069.79
710.998	7168.54
711.342	7069.11
711.687	7054.19
712.031	7036.11
712.375	7031.82
712.719	7077.47
713.063	7032.5
713.407	7077.92
713.75	6992.05
714.094	6987.08
714.438	6970.13
714.782	6989.34
715.125	6883.12
715.469	6914.54
715.812	6930.35
716.156	6916.12
716.499	6874.76
716.843	6872.95
717.186	6886.06
717.53	6900.98
717.873	6873.41
718.216	6827.53
718.559	6818.27
718.902	6771.94
719.246	6774.43
719.589	6778.27
719.932	6704.37
720.275	6761.32
720.617	6706.41
720.96	6702.79
721.303	6728.55
721.646	6668.21
721.989	6674.09
722.331	6707.31
722.674	6754.31
723.016	6723.58
723.359	6722.45
723.701	6704.6
724.044	6682.9
724.386	6596.58
724.729	6698.5
725.071	6651.72
725.413	6628.67
725.755	6619.85
726.097	6621.44
726.439	6596.8
726.782	6572.4
727.124	6605.84
727.465	6624.37
727.807	6601.55
728.149	6560.87
728.491	6600.42
728.833	6599.52
729.175	6632.96
729.516	6574.66
729.858	6517.48
730.199	6650.14
730.541	6514.09
730.882	6562.45
731.224	6616.01
731.565	6554.55
731.906	6564.71
732.248	6588.22
732.589	6559.06
732.93	6594.77
733.271	6555.45
733.612	6559.52
733.953	6571.49
734.294	6568.56
734.635	6552.51
734.976	6579.86
735.317	6538.95
735.658	6519.97
735.999	6588.44
736.339	6615.33
736.68	6652.4
737.021	6610.59
737.361	6611.27
737.702	6560.87
738.042	6609.23
738.383	6647.88
738.723	6595.45
739.063	6605.39
739.404	6668.44
739.744	6680.87
740.084	6602.45
740.424	6686.29
740.764	6669.12
741.104	6718.16
741.444	6660.53
741.784	6687.42
742.124	6810.58
742.464	6682.68
742.804	6741.88
743.143	6796.35
743.483	6761.55
743.823	6831.15
744.162	6792.73
744.502	6980.3
744.841	6895.33
745.181	6934.87
745.52	6930.13
745.86	7018.71
746.199	7000.41
746.538	7034.31
746.877	7119.73
747.216	7174.19
747.556	7140.52
747.895	7177.13
748.234	7297.58
748.573	7272.72
748.911	7331.47
749.25	7369.66
749.589	7411.25
749.928	7448.53
750.267	7563.11
750.605	7655.76
750.944	7630.45
751.283	7758.36
751.621	7835.42
751.96	7853.49
752.298	8013.04
752.636	8141.17
752.975	8211
753.313	8211
753.651	8382.29
753.989	8407.83
754.327	8529.86
754.666	8601.72
755.004	8780.48
755.342	8887.14
755.679	9022.73
756.017	9130.97
756.355	9291.42
756.693	9367.35
757.031	9486.67
757.368	9639.66
757.706	9769.38
758.044	9892.76
758.381	10066.54
758.719	10201.91
759.056	10308.8
759.394	10541.11
759.731	10603.93
760.068	10822.23
760.405	10906.97
760.743	11049.79
761.08	11266.51
761.417	11415.66
761.754	11548.54
762.091	11759.61
762.428	11778.59
762.765	11886.61
763.102	12198.01
763.438	12367.5
763.775	12536.53
764.112	12637.32
764.449	12843.65
764.785	13023.75
765.122	13122.73
765.458	13220.36
765.795	13433.69
766.131	13546.45
766.467	13690.85
766.804	13742.6
767.14	13909.61
767.476	14150.28
767.812	14260.78
768.148	14472.76
768.485	14510.49
768.821	14573.09
769.157	14720.88
769.492	14826.42
769.828	15037.49
770.164	15006.3
770.5	15213.75
770.836	15355.22
771.171	15349.79
771.507	15423.01
771.842	15500.98
772.178	15627.3
772.513	15747.98
772.849	15853.06
773.184	15940.97
773.519	15981.42
773.855	16012.38
774.19	16100.28
774.525	16195.2
774.86	16351.58
775.195	16367.85
775.53	16438.58
775.865	16558.8
776.2	16473.83
776.535	16407.85
776.87	16516.77
777.205	16614.62
777.539	16633.6
777.874	16748.18
778.209	16718.8
778.543	16787.95
778.878	16746.37
779.212	16832.92
779.547	16777.1
779.881	16915.4
780.215	16882.86
780.55	16891.9
780.884	16878.12
781.218	16993.82
781.552	17029.07
781.886	16937.1
782.22	16963.99
782.554	16929.87
782.888	16987.94
783.222	16885.8
783.556	16924.67
783.889	16854.39
784.223	16928.06
784.557	16884.44
784.89	16934.61
785.224	16819.13
785.557	16679.25
785.891	16815.29
786.224	16834.5
786.558	16847.38
786.891	16734.16
787.224	16718.8
787.557	16748.4
787.891	16741.85
788.224	16724
788.557	16791.34
788.89	16784.11
789.223	16787.72
789.556	16746.82
789.888	16715.41
790.221	16648.07
790.554	16583.66
790.887	16574.85
791.219	16587.05
791.552	16474.51
791.884	16512.7
792.217	16460.05
792.549	16403.78
792.882	16396.55
793.214	16380.73
793.546	16430.44
793.879	16319.26
794.211	16260.73
794.543	16273.16
794.875	16263.22
795.207	16316.1
795.539	16235.42
795.871	16234.29
796.203	16129.21
796.535	16037.69
796.867	16096.67
797.198	15934.64
797.53	16016.44
797.862	15931.02
798.193	15964.47
798.525	15897.58
798.856	15890.12
799.188	15703.46
799.519	15708.65
799.85	15628.88
800.182	15602.89
800.513	15668.66
800.844	15506.17
801.175	15624.59
801.506	15566.96
801.837	15613.74
802.168	15470.92
802.499	15532.61
802.83	15384.37
803.161	15295.11
803.491	15412.39
803.822	15416.91
804.153	15379.85
804.483	15244.71
804.814	15148.22
805.145	15220.31
805.475	15179.4
805.805	15036.13
806.136	15141.66
806.466	15085.17
806.796	15154.55
807.126	14898.28
807.457	14970.82
807.787	14969.92
808.117	14870.94
808.447	14850.37
808.777	14862.12
809.107	14781.22
809.436	14730.6
809.766	14757.72
810.096	14696.03
810.426	14700.77
810.755	14645.63
811.085	14617.16
811.414	14538.29
811.744	14437.73
812.073	14568.12
812.403	14549.82
812.732	14496.26
813.061	14448.57
813.39	14385.75
813.719	14305.98
814.049	14430.04
814.378	14399.99
814.707	14312.99
815.036	14265.75
815.365	14207
815.693	14075.93
816.022	14155.48
816.351	14069.15
816.68	14084.29
817.008	14105.53
817.337	14055.14
817.665	14026.89
817.994	14077.51
818.322	13962.94
818.651	13905.99
818.979	13820.79
819.307	13999.1
819.636	13822.38
819.964	13935.37
820.292	13896.05
820.62	13801.81
820.948	13842.49
821.276	13889.04
821.604	13804.75
821.932	13890.62
822.259	13871.64
822.587	13831.19
822.915	13777.18
823.243	13844.3
823.57	13774.24
823.898	13841.36
824.225	13786.67
824.553	13711.42
824.88	13899.44
825.207	13872.32
825.535	13765.65
825.862	13868.48
826.189	13762.94
826.516	13896.27
826.843	13826.22
827.17	13881.58
827.497	13838.42
827.824	13850.85
828.151	13916.84
828.478	13813.34
828.805	13920.45
829.131	13862.6
829.458	13853.11
829.785	13842.26
830.111	13850.17
830.438	13891.08
830.764	13895.37
831.09	13912.09
831.417	13830.96
831.743	13895.82
832.069	13880.68
832.395	13756.84
832.722	13863.73
833.048	13741.47
833.374	13775.6
833.7	13770.63
834.026	13732.44
834.351	13797.07
834.677	13668.93
835.003	13756.39
835.329	13713.68
835.654	13651.53
835.98	13707.8
836.306	13689.27
836.631	13592.1
836.956	13650.86
837.282	13687.24
837.607	13608.37
837.932	13581.48
838.258	13575.38
838.583	13584.87
838.908	13476.4
839.233	13566.56
839.558	13479.56
839.883	13426.68
840.208	13384.2
840.533	13371.77
840.858	13377.87
841.182	13339
841.507	13366.8
841.832	13265.78
842.156	13274.37
842.481	13277.31
842.805	13182.85
843.13	13235.27
843.454	13204.77
843.778	13103.75
844.103	13113.47
844.427	13068.05
844.751	13108.5
845.075	13020.59
845.399	12955.96
845.723	12883.87
846.047	12886.81
846.371	12823.53
846.695	12703.08
847.019	12750.09
847.343	12701.5
847.666	12611.56
847.99	12593.71
848.313	12597.32
848.637	12448.63
848.96	12506.03
849.284	12403.88
849.607	12228.97
849.931	12456.08
850.254	12271.68
850.577	12178.13
850.9	12051.35
851.223	12151.46
851.546	12041.63
851.869	11933.61
852.192	12005.93
852.515	11837.57
852.838	11852.48
853.161	11895.42
853.483	11830.34
853.806	11710.57
854.129	11776.33
854.451	11641.42
854.774	11687.74
855.096	11572.72
855.419	11545.83
855.741	11548.54
856.063	11452.04
856.385	11446.62
856.708	11419.5
857.03	11398.49
857.352	11368.66
857.674	11303.57
857.996	11301.31
858.318	11265.83
858.64	11274.87
858.961	11165.27
859.283	11203.01
859.605	11110.13
859.926	11096.57
860.248	11068.1
860.57	10996.91
860.891	11038.04
861.212	11005.28
861.534	10991.04
861.855	10989
862.176	10918.5
862.498	10936.58
862.819	10970.25
863.14	10897.03
863.461	10798.73
863.782	10797.82
864.103	10783.36
864.424	10737.26
864.745	10741.78
865.065	10689.13
865.386	10711.5
865.707	10711.95
866.027	10629.01
866.348	10680.54
866.668	10647.32
866.989	10670.14
867.309	10549.24
867.63	10580.88
867.95	10646.41
868.27	10469.92
868.59	10529.13
868.91	10473.31
869.23	10460.88
869.55	10396.03
869.87	10464.72
870.19	10491.39
870.51	10471.73
870.83	10417.27
871.15	10382.02
871.469	10429.25
871.789	10383.6
872.109	10357.61
872.428	10309.02
872.748	10285.07
873.067	10266.09
873.386	10283.94
873.706	10258.4
874.025	10196.48
874.344	10194.9
874.663	10167.11
874.982	10195.81
875.301	10137.5
875.62	10095.02
875.939	10139.54
876.258	10128.69
876.577	10125.3
876.896	10106.54
877.214	10003.72
877.533	10091.85
877.852	10012.08
878.17	10004.4
878.489	10063.15
878.807	9996.94
879.125	10022.48
879.444	10009.37
879.762	9994
880.08	9959.88
880.398	9896.6
880.716	9900.9
881.034	9875.14
881.352	9915.81
881.67	9876.49
881.988	9833.78
882.306	9796.95
882.624	9779.55
882.941	9763.27
883.259	9711.3
883.577	9685.31
883.894	9715.14
884.212	9741.58
884.529	9655.93
884.846	9588.59
885.164	9575.26
885.481	9599.66
885.798	9610.51
886.115	9491.42
886.432	9488.25
886.75	9481.25
887.067	9410.29
887.383	9479.89
887.7	9417.75
888.017	9363.28
888.334	9417.97
888.651	9338.65
888.967	9326.68
889.284	9253.23
889.6	9248.49
889.917	9128.49
890.233	9182.5
890.55	9105.21
890.866	9185.21
891.182	9171.43
891.498	9110.86
891.815	9104.53
892.131	9026.8
892.447	9020.24
892.763	9014.37
893.079	8989.06
893.395	8940.7
893.71	8973.46
894.026	8922.62
894.342	8863.41
894.657	8834.49
894.973	8756.07
895.289	8839.23
895.604	8800.36
895.92	8737.54
896.235	8685.34
896.55	8645.56
896.865	8646.92
897.181	8611.67
897.496	8564.44
897.811	8493.7
898.126	8521.73
898.441	8465.68
898.756	8497.32
899.071	8437.43
899.386	8430.43
899.7	8336.42
900.015	8345.01
900.33	8197.44
900.644	8284.9
900.959	8278.34
901.273	8215.52
901.588	8139.81
901.902	8153.83
902.216	8111.79
902.531	8113.6
902.845	8068.18
903.159	8115.86
903.473	8059.82
903.787	7959.48
904.101	7947.95
904.415	7935.07
904.729	7868.41
905.042	7855.3
905.356	7909.76
905.67	7836.77
905.984	7800.39
906.297	7735.08
906.611	7596.33
906.924	7681.07
907.237	7623.22
907.551	7631.13
907.864	7567.17
908.177	7618.92
908.491	7533.95
908.804	7450.57
909.117	7457.35
909.43	7338.71
909.743	7336.22
910.056	7361.3
910.368	7237.47
910.681	7245.37
910.994	7289.22
911.307	7286.28
911.619	7202.44
911.932	7177.81
912.244	7149.33
912.557	7134.42
912.869	7076.79
913.181	7032.5
913.494	7051.71
913.806	7011.48
914.118	6974.2
914.43	6913.86
914.742	6952.73
915.054	6900.52
915.366	6888.55
915.678	6843.35
915.99	6802
916.302	6779.62
916.613	6788.21
916.925	6703.47
917.236	6707.76
917.548	6667.08
917.859	6679.51
918.171	6621.89
918.482	6646.75
918.794	6573.3
919.105	6556.8
919.416	6496.02
919.727	6527.65
920.038	6481.55
920.349	6434.77
920.66	6411.5
920.971	6372.4
921.282	6366.53
921.593	6354.78
921.903	6362.01
922.214	6281.11
922.525	6224.16
922.835	6249.92
923.146	6218.73
923.456	6183.93
923.767	6158.17
924.077	6125.63
924.387	6129.7
924.697	6045.63
925.008	6078.63
925.318	6089.47
925.628	5970.61
925.938	5991.4
926.248	5911.62
926.558	5907.33
926.867	5912.53
927.177	5910.27
927.487	5886.99
927.796	5810.38
928.106	5801.57
928.416	5811.29
928.725	5767.67
929.034	5694
929.344	5743.72
929.653	5683.61
929.962	5634.34
930.271	5687.68
930.581	5614.91
930.89	5584.18
931.199	5621.24
931.508	5537.17
931.817	5518.19
932.125	5523.61
932.434	5510.05
932.743	5419.66
933.051	5428.47
933.36	5451.75
933.669	5380.11
933.977	5386.21
934.286	5370.4
934.594	5390.28
934.902	5355.25
935.21	5342.15
935.519	5241.36
935.827	5247.91
936.135	5258.53
936.443	5251.08
936.751	5194.58
937.059	5149.84
937.367	5147.12
937.674	5149.84
937.982	5173.79
938.29	5087.01
938.597	5056.28
938.905	5047.24
939.213	5019.67
939.52	4959.56
939.827	4924.08
940.135	4941.48
940.442	4903.29
940.749	4915.49
941.056	4963.63
941.363	4835.04
941.67	4846.79
941.977	4795.27
942.284	4773.12
942.591	4741.49
942.898	4747.14
943.205	4768.15
943.511	4686.57
943.818	4708.94
944.125	4705.55
944.431	4659.91
944.738	4654.48
945.044	4695.61
945.35	4565.9
945.657	4607.03
945.963	4549.17
946.269	4524.32
946.575	4529.51
946.881	4500.36
947.187	4497.42
947.493	4501.27
947.799	4459.23
948.105	4398.22
948.41	4420.36
948.716	4411.55
949.022	4384.21
949.327	4390.53
949.633	4361.83
949.938	4319.12
950.244	4341.5
950.549	4290.42
950.854	4249.75
951.16	4260.37
951.465	4232.12
951.77	4212.01
952.075	4194.83
952.38	4178.56
952.685	4158.22
952.99	4132.46
953.294	4113.25
953.599	4111.67
953.904	4116.87
954.209	4082.97
954.513	4059.24
954.818	4041.39
955.122	4009.08
955.426	3995.29
955.731	3988.74
956.035	3981.05
956.339	3931.34
956.643	3930.43
956.948	3917.55
957.252	3898.8
957.556	3902.19
957.86	3878.68
958.163	3856.31
958.467	3865.12
958.771	3846.37
959.075	3805.46
959.378	3784
959.682	3784.9
959.985	3755.3
960.289	3757.33
960.592	3712.81
960.896	3736.99
961.199	3727.5
961.502	3667.39
961.805	3666.26
962.108	3656.32
962.411	3632.36
962.714	3643.89
963.017	3625.58
963.32	3613.15
963.623	3588.97
963.926	3572.48
964.228	3563.66
964.531	3538.58
964.833	3505.59
965.136	3513.27
965.438	3491.8
965.741	3440.28
966.043	3451.12
966.345	3438.24
966.648	3383.1
966.95	3398.47
967.252	3375.19
967.554	3385.14
967.856	3354.18
968.158	3310.56
968.46	3333.61
968.761	3287.96
969.063	3286.16
969.365	3285.25
969.666	3280.05
969.968	3261.3
970.269	3245.03
970.571	3218.81
970.872	3213.39
971.174	3183.56
971.475	3177.46
971.776	3168.65
972.077	3139.72
972.378	3140.62
972.679	3134.3
972.98	3146.95
973.281	3175.42
973.582	3084.58
973.883	3100.85
974.183	3070.12
974.484	3072.6
974.785	3037.8
975.085	3071.25
975.386	3025.82
975.686	3025.6
975.986	2998.93
976.287	2976.56
976.587	2961.87
976.887	2964.13
977.187	2948.09
977.487	2920.29
977.787	2930.23
978.087	2908.31
978.387	2862.89
978.687	2871.48
978.987	2817.02
979.286	2824.93
979.586	2835.77
979.885	2785.15
980.185	2812.72
980.484	2771.59
980.784	2788.77
981.083	2734.31
981.382	2777.7
981.682	2725.72
981.981	2739.73
982.28	2730.92
982.579	2731.82
982.878	2675.33
983.177	2651.82
983.475	2678.04
983.774	2671.26
984.073	2668.09
984.372	2645.04
984.67	2620.19
984.969	2598.94
985.267	2614.76
985.566	2603.46
985.864	2588.55
986.162	2579.06
986.461	2556.23
986.759	2548.32
987.057	2548.77
987.355	2497.7
987.653	2488.89
987.951	2509.23
988.249	2450.02
988.547	2471.49
988.844	2439.63
989.142	2490.7
989.44	2451.83
989.737	2389.68
990.035	2430.36
990.332	2410.93
990.63	2426.74
990.927	2382
991.224	2379.29
991.521	2368.44
991.819	2341.77
992.116	2370.7
992.413	2333.64
992.71	2342.23
993.006	2298.61
993.303	2327.31
993.6	2274.88
993.897	2305.39
994.193	2280.99
994.49	2256.13
994.787	2232.17
995.083	2211.83
995.379	2228.78
995.676	2202.57
995.972	2238.95
996.268	2173.87
996.565	2178.84
996.861	2138.62
997.157	2163.25
997.453	2130.25
997.749	2152.4
998.044	2142.46
998.34	2126.64
998.636	2142.46
998.932	2119.86
999.227	2079.18
999.523	2050.48
999.818	2070.14
1000.114	2052.97
1000.409	2048.45
1000.704	2029.69
1001	2024.27
1001.295	2022.69
1001.59	2000.54
1001.885	2000.77
1002.18	1993.99
1002.475	1961.22
1002.77	1963.71
1003.065	1943.82
1003.359	1958.51
1003.654	1951.05
1003.949	1920.77
1004.243	1895.91
1004.538	1897.94
1004.832	1883.93
1005.127	1883.93
1005.421	1866.31
1005.715	1855.01
1006.009	1862.01
1006.304	1806.2
1006.598	1808.91
1006.892	1822.69
1007.186	1784.73
1007.48	1769.81
1007.773	1794.9
1008.067	1791.05
1008.361	1767.33
1008.655	1727.33
1008.948	1734.33
1009.242	1736.14
1009.535	1718.97
1009.829	1729.36
1010.122	1698.63
1010.415	1699.08
1010.708	1671.74
1011.001	1685.75
1011.295	1666.31
1011.588	1655.01
1011.881	1638.97
1012.173	1669.25
1012.466	1607.56
1012.759	1619.53
1013.052	1581.12
1013.344	1631.74
1013.637	1605.3
1013.93	1599.42
1014.222	1575.02
1014.514	1586.99
1014.807	1558.74
1015.099	1556.48
1015.391	1551.06
1015.683	1550.83
1015.976	1523.04
1016.268	1519.2
1016.56	1500.21
1016.851	1485.3
1017.143	1478.29
1017.435	1459.76
1017.727	1456.6
1018.018	1462.7
1018.31	1446.66
1018.602	1458.86
1018.893	1423.38
1019.185	1399.43
1019.476	1383.61
1019.767	1419.99
1020.058	1394.23
1020.35	1382.93
1020.641	1377.51
1020.932	1363.5
1021.223	1362.82
1021.514	1337.96
1021.804	1330.05
1022.095	1312.88
1022.386	1305.42
1022.677	1323.72
1022.967	1340.22
1023.258	1312.42
1023.548	1294.8
1023.839	1289.82
1024.129	1298.41
1024.419	1278.98
1024.709	1257.06
1025	1247.57
1025.29	1232.2
1025.58	1210.28
1025.87	1239.66
1026.16	1208.92
1026.449	1229.71
1026.739	1170.05
1027.029	1199.66
1027.319	1205.53
1027.608	1184.06
1027.898	1188.13
1028.187	1168.92
1028.477	1140.22
1028.766	1155.37
1029.055	1130.96
1029.344	1126.67
1029.634	1107.23
1029.923	1107
1030.212	1113.11
1030.501	1094.8
1030.79	1106.1
1031.078	1103.16
1031.367	1084.63
1031.656	1082.37
1031.945	1074.24
1032.233	1091.86
1032.522	1047.12
1032.81	1027.01
1033.099	1062.26
1033.387	1037.63
1033.675	1022.71
1033.963	1044.63
1034.251	1024.52
1034.54	1018.87
1034.828	1012.54
1035.116	1019.55
1035.403	1017.06
1035.691	1021.13
1035.979	982.94
1036.267	960.12
1036.554	979.1
1036.842	964.41
1037.129	970.06
1037.417	964.18
1037.704	953.56
1037.992	952.66
1038.279	923.51
1038.566	938.42
1038.853	938.42
1039.14	938.42
