Data from hue_120_FLMS001491_00020.txt Node
Date: Tue Feb 07 16:59:01 GMT 2017
User: dcchb
Spectrometer: FLMS00149
Trigger mode: 0
Integration Time (sec): 2.000000E-2
Scans to average: 10
Electric dark correction enabled: true
Nonlinearity correction enabled: false
Boxcar width: 0
XAxis mode: Wavelengths
Number of Pixels in Spectrum: 2048
>>>>>Begin Spectral Data<<<<<
341.393	-10.88
341.776	-10.88
342.16	-10.88
342.543	-49.29
342.927	-67.82
343.31	-83.87
343.693	-76.18
344.077	-57.65
344.46	-23.53
344.843	-47.71
345.226	-52
345.61	-29.18
345.993	-15.85
346.376	-0.48
346.759	-2.51
347.142	18.95
347.525	49.46
347.908	72.29
348.291	59.18
348.674	93.75
349.057	95.34
349.44	124.49
349.823	145.5
350.206	190.02
350.588	201.1
350.971	206.75
351.354	233.41
351.737	245.39
352.119	245.39
352.502	263.92
352.884	265.73
353.267	277.25
353.65	282.45
354.032	310.47
354.414	310.47
354.797	327.87
355.179	322
355.562	330.13
355.944	331.71
356.326	320.87
356.709	352.28
357.091	325.61
357.473	355.89
357.855	344.37
358.238	344.37
358.62	345.27
359.002	351.15
359.384	343.01
359.766	336.46
360.148	338.72
360.53	341.21
360.912	354.76
361.294	341.43
361.676	327.65
362.057	326.97
362.439	327.42
362.821	333.97
363.203	327.19
363.584	324.48
363.966	314.09
364.348	328.1
364.729	331.26
365.111	316.12
365.493	325.84
365.874	310.02
366.256	306.4
366.637	335.33
367.019	315.44
367.4	317.93
367.781	318.38
368.163	327.19
368.544	316.35
368.925	302.56
369.306	329.91
369.688	319.29
370.069	318.83
370.45	336.69
370.831	316.57
371.212	317.48
371.593	335.33
371.974	304.6
372.355	313.86
372.736	334.2
373.117	338.27
373.498	321.32
373.879	318.38
374.26	300.75
374.641	315.44
375.021	307.99
375.402	307.08
375.783	355.22
376.163	339.85
376.544	315.67
376.925	334.88
377.305	335.56
377.686	319.29
378.066	318.16
378.447	318.83
378.827	330.13
379.208	332.84
379.588	336.01
379.968	326.52
380.349	336.23
380.729	364.03
381.109	337.14
381.489	339.85
381.87	331.71
382.25	327.42
382.63	338.72
383.01	348.66
383.39	340.98
383.77	356.8
384.15	353.63
384.53	366.97
384.91	354.54
385.29	357.25
385.67	369.68
386.049	352.73
386.429	365.39
386.809	356.35
387.189	368.1
387.568	356.12
387.948	379.4
388.328	385.72
388.707	366.06
389.087	353.18
389.466	354.31
389.846	381.2
390.225	366.52
390.605	382.33
390.984	372.39
391.363	374.2
391.743	370.36
392.122	386.63
392.501	389.34
392.881	380.98
393.26	386.63
393.639	378.94
394.018	385.27
394.397	361.32
394.776	373.97
395.155	416.23
395.534	402.9
395.913	387.76
396.292	402
396.671	387.53
397.05	402
397.429	402
397.808	425.72
398.186	421.66
398.565	396.35
398.944	433.18
399.323	416.23
399.701	415.55
400.08	415.33
400.458	395.89
400.837	413.07
401.215	427.53
401.594	442.22
401.972	412.84
402.351	427.53
402.729	422.33
403.107	436.8
403.486	407.64
403.864	445.38
404.242	435.67
404.62	428.44
404.999	438.6
405.377	416.23
405.755	438.15
406.133	459.17
406.511	438.38
406.889	475.44
407.267	462.33
407.645	456.68
408.023	467.76
408.401	444.25
408.779	463.46
409.156	473.63
409.534	470.24
409.912	493.52
410.29	473.63
410.667	476.12
411.045	491.48
411.422	463.46
411.8	481.99
412.178	502.33
412.555	489.9
412.933	511.82
413.31	513.18
413.687	509.56
414.065	508.43
414.442	512.95
414.819	523.12
415.197	502.11
415.574	527.64
415.951	521.99
416.328	534.87
416.705	529.9
417.082	540.75
417.46	552.95
417.837	540.52
418.214	550.92
418.591	562.89
418.967	547.53
419.344	552.27
419.721	569.45
420.098	553.4
420.475	579.62
420.852	587.98
421.228	585.95
421.605	580.52
421.982	575.32
422.358	606.96
422.735	589.33
423.111	597.7
423.488	607.64
423.864	625.94
424.241	626.85
424.617	600.63
424.994	623.46
425.37	616.45
425.746	619.39
426.123	631.82
426.499	649.9
426.875	645.15
427.251	662.1
427.627	626.17
428.003	644.02
428.379	641.99
428.756	650.8
429.132	668.65
429.507	702.55
429.883	710.69
430.259	683.57
430.635	690.12
431.011	707.3
431.387	702.33
431.763	714.08
432.138	734.19
432.514	734.87
432.89	743
433.265	770.57
433.641	723.79
434.016	773.74
434.392	747.07
434.767	772.15
435.143	760.86
435.518	799.27
435.894	785.04
436.269	810.8
436.644	811.7
437.02	827.52
437.395	811.25
437.77	818.26
438.145	826.16
438.52	844.92
438.895	846.5
439.271	841.08
439.646	867.29
440.021	887.86
440.395	867.75
440.77	863.45
441.145	884.24
441.52	879.95
441.895	915.65
442.27	885.6
442.645	898.71
443.019	906.84
443.394	907.52
443.769	917.91
444.143	931.92
444.518	943.68
444.892	944.13
445.267	938.48
445.641	958.82
446.016	956.78
446.39	961.53
446.764	1004.69
447.139	986.61
447.513	1004.92
447.887	984.35
448.262	1010.11
448.636	992.26
449.01	1002.43
449.384	1013.05
449.758	1015.76
450.132	1032.26
450.506	1055.54
450.88	1048.98
451.254	1020.06
451.628	1077.01
452.002	1051.24
452.376	1076.1
452.75	1079.94
453.123	1061.86
453.497	1124.46
453.871	1111.81
454.244	1142.31
454.618	1142.31
454.992	1160.17
455.365	1184.8
455.739	1176.21
456.112	1183.9
456.486	1207.85
456.859	1234.06
457.232	1234.97
457.606	1246.04
457.979	1305.47
458.352	1263.89
458.725	1287.4
459.099	1302.08
459.472	1329.43
459.845	1336.89
460.218	1366.49
460.591	1350.67
460.964	1379.82
461.337	1413.72
461.71	1433.83
462.083	1436.32
462.456	1460.5
462.829	1452.14
463.201	1464.57
463.574	1497.11
463.947	1527.39
464.32	1557.9
464.692	1564
465.065	1594.28
465.438	1606.03
465.81	1607.16
466.183	1690.1
466.555	1653.94
466.928	1675.41
467.3	1735.52
467.672	1735.29
468.045	1834.05
468.417	1807.83
468.789	1818
469.161	1892.13
469.534	1898.68
469.906	1939.58
470.278	1944.55
470.65	1994.95
471.022	2028.39
471.394	2073.14
471.766	2093.25
472.138	2152.23
472.51	2201.5
472.882	2279.91
473.253	2279.46
473.625	2332.57
473.997	2371.43
474.369	2402.39
474.74	2469.29
475.112	2525.33
475.484	2552.67
475.855	2645.55
476.227	2667.7
476.598	2766.68
476.97	2793.34
477.341	2911.53
477.713	2933.91
478.084	3010.29
478.455	3135.48
478.827	3175.26
479.198	3257.29
479.569	3348.13
479.94	3419.54
480.311	3511.07
480.682	3621.35
481.053	3732.08
481.424	3803.26
481.795	3863.6
482.166	3979.53
482.537	4098.62
482.908	4192.4
483.279	4313.08
483.65	4389.46
484.021	4528.89
484.391	4645.95
484.762	4706.74
485.133	4869.22
485.503	4934.98
485.874	5139.5
486.244	5248.42
486.615	5380.62
486.985	5440.51
487.356	5660.84
487.726	5816.77
488.097	5954.17
488.467	5991.68
488.837	6177.89
489.207	6345.57
489.578	6457.2
489.948	6583.98
490.318	6734.71
490.688	6843.18
491.058	7053.8
491.428	7158.88
491.798	7240.91
492.168	7498.08
492.538	7578.53
492.908	7720.67
493.278	7951.63
493.648	7993.89
494.017	8185.52
494.387	8367.89
494.757	8456.47
495.126	8583.93
495.496	8671.83
495.866	8802.23
496.235	8956.12
496.605	9108.66
496.974	9188.66
497.344	9344.58
497.713	9469.33
498.082	9596.56
498.452	9656.44
498.821	9820.5
499.19	9901.18
499.559	10036.32
499.928	10124.23
500.298	10298.23
500.667	10396.53
501.036	10430.43
501.405	10585.46
501.774	10593.82
502.143	10831.78
502.512	10778.67
502.88	10975.05
503.249	10973.24
503.618	11153.58
503.987	11201.71
504.356	11363.29
504.724	11428.37
505.093	11458.88
505.462	11610.97
505.83	11617.97
506.199	11744.75
506.567	11856.16
506.936	11921.69
507.304	11993.1
507.672	12086.89
508.041	12045.53
508.409	12252.76
508.777	12385.41
509.145	12444.39
509.514	12525.29
509.882	12575.46
510.25	12577.04
510.618	12680.32
510.986	12720.54
511.354	12946.3
511.722	12926.19
512.09	13025.17
512.458	12971.61
512.826	13137.93
513.193	13173.64
513.561	13124.37
513.929	13262.9
514.297	13320.75
514.664	13396.68
515.032	13367.08
515.4	13565.72
515.767	13609.11
516.135	13652.27
516.502	13557.58
516.869	13719.39
517.237	13704.92
517.604	13773.39
517.972	13873.05
518.339	13864.92
518.706	13984.46
519.073	14008.42
519.44	13917.12
519.808	14095.19
520.175	14068.98
520.542	14201.41
520.909	14242.76
521.276	14160.96
521.643	14309.43
522.009	14359.37
522.376	14377.45
522.743	14392.36
523.11	14520.72
523.477	14551.68
523.843	14653.37
524.21	14717.1
524.577	14766.36
524.943	14743.31
525.31	14836.64
525.676	14880.03
526.043	14978.79
526.409	14961.61
526.776	15013.14
527.142	15009.75
527.508	15061.27
527.874	15171.32
528.241	15139.23
528.607	15041.61
528.973	15162.06
529.339	15144.88
529.705	15181.72
530.071	15277.08
530.437	15317.76
530.803	15245.67
531.169	15340.36
531.535	15250.19
531.901	15187.37
532.267	15322.96
532.632	15303.75
532.998	15277.54
533.364	15338.78
533.73	15332.45
534.095	15357.99
534.461	15360.02
534.826	15359.57
535.192	15313.47
535.557	15392.56
535.923	15331.32
536.288	15342.39
536.653	15365.44
537.019	15176.52
537.384	15155.73
537.749	15313.69
538.114	15196.41
538.479	15124.55
538.845	15119.12
539.21	15114.38
539.575	15106.47
539.94	14998.22
540.305	15053.14
540.67	15143.98
541.034	15042.29
541.399	15042.06
541.764	15043.19
542.129	15051.55
542.494	14991.44
542.858	14967.94
543.223	14931.1
543.587	15039.35
543.952	14863.76
544.316	14904.21
544.681	14733.82
545.045	14792.8
545.41	14787.15
545.774	14806.36
546.138	14719.36
546.503	14687.27
546.867	14622.41
547.231	14672.58
547.595	14716.65
547.959	14694.27
548.324	14590.32
548.688	14603.66
549.052	14587.61
549.416	14521.62
549.779	14571.11
550.143	14453.38
550.507	14539.48
550.871	14485.47
551.235	14461.51
551.599	14482.53
551.962	14384.68
552.326	14391.46
552.689	14341.06
553.053	14264.68
553.417	14250.67
553.78	14422.64
554.143	14316.43
554.507	14232.59
554.87	14280.95
555.234	14411.34
555.597	14263.33
555.96	14296.32
556.323	14234.4
556.686	14236.21
557.05	14260.61
557.413	14299.48
557.776	14258.35
558.139	14314.4
558.502	14254.96
558.865	14152.82
559.228	14308.07
559.59	14285.92
559.953	14238.02
560.316	14365.02
560.679	14230.33
561.041	14303.78
561.404	14315.98
561.767	14421.29
562.129	14277.11
562.492	14473.49
562.854	14418.58
563.217	14381.74
563.579	14335.19
563.941	14362.76
564.304	14445.69
564.666	14490.21
565.028	14415.64
565.39	14389.42
565.753	14502.42
566.115	14516.43
566.477	14486.37
566.839	14517.56
567.201	14568.85
567.563	14509.87
567.925	14645.46
568.287	14520.49
568.648	14527.27
569.01	14748.06
569.372	14740.83
569.734	14591.68
570.095	14658.8
570.457	14717.78
570.819	14716.65
571.18	14746.7
571.542	14808.4
571.903	14811.79
572.265	14851.56
572.626	14862.63
572.987	14835.97
573.349	14886.36
573.71	14915.06
574.071	14928.62
574.432	14934.27
574.794	15036.41
575.155	14965.23
575.516	14846.81
575.877	14991.44
576.238	14904.21
576.599	14936.98
576.96	14945.34
577.32	14920.26
577.681	15038.22
578.042	15019.69
578.403	15047.49
578.763	14947.38
579.124	14998.45
579.485	15077.99
579.845	15068.5
580.206	15027.15
580.566	14976.98
580.927	14992.12
581.287	15132.46
581.648	15032.12
582.008	15036.19
582.368	15010.88
582.728	15058.11
583.089	15030.31
583.449	15019.69
583.809	15082.06
584.169	15033.47
584.529	15107.37
584.889	15076.41
585.249	15009.29
585.609	14959.35
585.969	15022.4
586.329	14852.01
586.688	14926.81
587.048	14860.82
587.408	14851.11
587.768	14878.45
588.127	14787.38
588.487	14827.6
588.846	14942.63
589.206	14865.34
589.565	14844.1
589.925	14884.55
590.284	14823.31
590.643	14864.21
591.003	14975.62
591.362	14867.83
591.721	14795.74
592.08	14765.91
592.44	14876.64
592.799	14861.05
593.158	14804.1
593.517	14895.85
593.876	14856.08
594.235	14822.41
594.593	14755.06
594.952	14824.89
595.311	14713.94
595.67	14738.79
596.029	14820.37
596.387	14816.98
596.746	14900.14
597.104	14675.74
597.463	14803.65
597.822	14714.61
598.18	14734.73
598.538	14733.14
598.897	14823.54
599.255	14589.42
599.613	14880.94
599.972	14752.8
600.33	14758.91
600.688	14741.73
601.046	14913.93
601.404	14738.57
601.762	14816.08
602.12	14853.37
602.478	14879.58
602.836	14887.04
603.194	14804.33
603.552	14767.72
603.91	14788.06
604.268	14807.49
604.625	14798
604.983	14875.29
605.341	14756.19
605.698	14830.77
606.056	14763.43
606.413	14864.89
606.771	14890.65
607.128	14903.99
607.485	14759.58
607.843	14830.77
608.2	14890.65
608.557	14927.71
608.914	14899.02
609.272	14859.47
609.629	14938.79
609.986	14924.55
610.343	14925.46
610.7	14979.24
611.057	14883.65
611.414	14923.42
611.771	14909.64
612.127	15028.05
612.484	15005.45
612.841	15038.45
613.198	15015.62
613.554	15046.81
613.911	15017.88
614.267	14992.57
614.624	15055.85
614.98	15021.72
615.337	15139.69
615.693	15054.94
616.05	15062.17
616.406	15190.76
616.762	15080.03
617.118	15161.38
617.475	15134.49
617.831	15142.17
618.187	15173.13
618.543	15150.31
618.899	15251.1
619.255	15113.25
619.611	15193.47
619.967	15244.32
620.323	15256.52
620.678	15219.23
621.034	15201.38
621.39	15205.9
621.746	15240.7
622.101	15404.54
622.457	15226.01
622.812	15248.84
623.168	15305.78
623.523	15248.61
623.879	15315.73
624.234	15205.67
624.589	15304.43
624.945	15244.32
625.3	15227.59
625.655	15260.14
626.01	15227.82
626.365	15291.1
626.72	15247.71
627.075	15270.53
627.43	15181.95
627.785	15154.15
628.14	15222.85
628.495	15336.74
628.85	15200.7
629.205	15141.95
629.559	15258.33
629.914	15202.28
630.269	15200.02
630.623	15130.65
630.978	15048.62
631.332	15117.54
631.687	15186.24
632.041	15081.61
632.396	15091.1
632.75	15052.91
633.104	15153.47
633.459	14953.48
633.813	15050.88
634.167	14973.59
634.521	14980.37
634.875	15059.01
635.229	15023.31
635.583	14941.27
635.937	14913.93
636.291	14911.67
636.645	14849.52
636.999	14859.02
637.352	14971.33
637.706	14788.28
638.06	14889.07
638.413	14788.74
638.767	14792.13
639.121	14889.07
639.474	14751.9
639.828	14641.17
640.181	14748.96
640.534	14718
640.888	14736.08
641.241	14591.23
641.594	14639.13
641.947	14699.92
642.301	14679.81
642.654	14665.12
643.007	14689.53
643.36	14666.7
643.713	14601.4
644.066	14727.49
644.419	14505.13
644.771	14451.12
645.124	14311.23
645.477	14300.16
645.83	14151.01
646.182	14213.61
646.535	14085.93
646.888	14126.83
647.24	14111.69
647.593	14141.29
647.945	14062.65
648.298	14068.08
648.65	13963.67
649.002	13982.2
649.355	14150.56
649.707	14067.62
650.059	14167.06
650.411	14303.78
650.763	14277.79
651.115	14358.69
651.467	14352.36
651.819	14447.28
652.171	14409.08
652.523	14342.65
652.875	14366.83
653.227	14372.02
653.578	14413.83
653.93	14366.83
654.282	14304
654.633	14256.32
654.985	14354.4
655.337	14348.07
655.688	14334.28
656.039	14406.82
656.391	14258.35
656.742	14294.96
657.094	14383.77
657.445	14414.28
657.796	14413.38
658.147	14431
658.498	14376.77
658.849	14334.28
659.2	14391.91
659.551	14318.47
659.902	14376.99
660.253	14331.8
660.604	14397.11
660.955	14296.77
661.306	14409.54
661.656	14390.33
662.007	14416.77
662.358	14408.63
662.708	14441.63
663.059	14424
663.409	14354.4
663.76	14431
664.11	14439.37
664.461	14349.2
664.811	14454.96
665.161	14415.19
665.511	14406.15
665.862	14374.74
666.212	14375.86
666.562	14428.29
666.912	14459.7
667.262	14356.88
667.612	14411.8
667.962	14374.06
668.312	14325.7
668.662	14478.69
669.011	14409.31
669.361	14431
669.711	14364.79
670.06	14435.98
670.41	14321.4
670.76	14332.93
671.109	14384.9
671.459	14353.94
671.808	14318.01
672.157	14414.51
672.507	14328.86
672.856	14339.93
673.205	14300.84
673.554	14344
673.904	14304
674.253	14314.4
674.602	14237.56
674.951	14041.41
675.3	13981.98
675.649	14230.56
675.998	14122.76
676.346	14215.87
676.695	14219.94
677.044	14137.68
677.393	14134.97
677.741	14222.2
678.09	14171.8
678.438	14069.66
678.787	14101.07
679.135	14077.12
679.484	13913.05
679.832	13998.25
680.181	13906.5
680.529	14053.84
680.877	13974.75
681.225	13955.76
681.573	13920.96
681.922	13937.01
682.27	13907.85
682.618	13842.09
682.966	13773.62
683.314	13822.89
683.661	13707.41
684.009	13670.12
684.357	13767.75
684.705	13734.98
685.053	13627.41
685.4	13701.98
685.748	13569.33
686.095	13628.09
686.443	13470.58
686.79	13506.51
687.138	13484.81
687.485	13421.99
687.832	13442.78
688.18	13439.17
688.527	13336.34
688.874	13376.57
689.221	13223.35
689.568	13287.31
689.915	13239.62
690.262	13218.61
690.609	13169.79
690.956	13155.56
691.303	13052.51
691.65	13010.48
691.997	12989.69
692.344	12991.95
692.69	12962.34
693.037	12901.78
693.383	12814.1
693.73	12923.02
694.077	12814.32
694.423	12769.58
694.769	12668.34
695.116	12683.03
695.462	12601.45
695.808	12651.16
696.155	12606.65
696.501	12467.44
696.847	12518.96
697.193	12402.81
697.539	12473.09
697.885	12324.62
698.231	12283.26
698.577	12228.12
698.923	12235.58
699.269	12151.97
699.614	12087.11
699.96	12017.96
700.306	12060.22
700.651	11955.36
700.997	11928.7
701.342	11838.98
701.688	11845.08
702.033	11763.28
702.379	11832.43
702.724	11701.36
703.069	11759.44
703.415	11636.05
703.76	11597.18
704.105	11524.19
704.45	11582.49
704.795	11434.02
705.14	11439.22
705.485	11519.44
705.83	11448.26
706.175	11390.63
706.52	11369.84
706.865	11274.25
707.209	11273.57
707.554	11311.31
707.899	11237.87
708.243	11153.12
708.588	11152.67
708.932	11108.38
709.277	11036.74
709.621	11075.61
709.966	10984.54
710.31	11098.21
710.654	10935.28
710.998	10933.47
711.342	10867.03
711.687	10907.26
712.031	10792.46
712.375	10813.92
712.719	10851.44
713.063	10756.75
713.407	10829.07
713.75	10726.92
714.094	10708.16
714.438	10714.04
714.782	10693.7
715.125	10629.3
715.469	10642.4
715.812	10649.64
716.156	10572.12
716.499	10570.09
716.843	10526.7
717.186	10514.95
717.53	10603.31
717.873	10529.19
718.216	10496.87
718.559	10497.1
718.902	10407.38
719.246	10415.74
719.589	10422.07
719.932	10361.28
720.275	10444.44
720.617	10376.87
720.96	10413.26
721.303	10386.59
721.646	10343.2
721.989	10237.89
722.331	10289.87
722.674	10320.6
723.016	10287.16
723.359	10307.95
723.701	10285.35
724.044	10171.23
724.386	10233.15
724.729	10227.05
725.071	10246.48
725.413	10241.96
725.755	10239.02
726.097	10200.61
726.439	10100.5
726.782	10133.94
727.124	10202.87
727.465	10152.7
727.807	10100.5
728.149	10088.52
728.491	10053.27
728.833	10063.21
729.175	10067.05
729.516	10055.53
729.858	10039.26
730.199	10081.29
730.541	10082.64
730.882	10021.63
731.224	10075.87
731.565	9998.8
731.906	10037.67
732.248	10084.9
732.589	10044.45
732.93	9973.04
733.271	10051.23
733.612	9987.51
733.953	10017.56
734.294	9966.26
734.635	10051.91
734.976	10015.98
735.317	9956.09
735.658	9928.07
735.999	9987.73
736.339	10009.65
736.68	9992.48
737.021	9957
737.361	9994.06
737.702	10034.96
738.042	9972.36
738.383	9990.44
738.723	9966.49
739.063	10015.08
739.404	10026.83
739.744	10018.47
740.084	9963.33
740.424	9997.22
740.764	10094.62
741.104	10107.5
741.444	9995.64
741.784	10004.45
742.124	10052.59
742.464	10089.2
742.804	10097.79
743.143	10105.69
743.483	10183.21
743.823	10194.51
744.162	10234.73
744.502	10232.7
744.841	10261.85
745.181	10271.11
745.52	10314.95
745.86	10361.96
746.199	10371.68
746.538	10408.74
746.877	10462.07
747.216	10568.96
747.556	10518.11
747.895	10576.42
748.234	10583.2
748.573	10676.08
748.911	10710.65
749.25	10719.24
749.589	10821.83
749.928	10879.91
750.267	10939.35
750.605	11116.97
750.944	11083.3
751.283	11081.94
751.621	11221.82
751.96	11337.53
752.298	11335.04
752.636	11472.66
752.975	11535.26
753.313	11614.58
753.651	11769.15
753.989	11765.09
754.327	11904.29
754.666	11940.9
755.004	12136.83
755.342	12326.2
755.679	12396.93
756.017	12472.41
756.355	12632.18
756.693	12790.82
757.031	12852.52
757.368	12995.34
757.706	13142.9
758.044	13272.62
758.381	13497.24
758.719	13599.16
759.056	13788.76
759.394	13901.53
759.731	13987.17
760.068	14140.39
760.405	14254.96
760.743	14453.83
761.08	14692.69
761.417	14710.55
761.754	14993.7
762.091	15133.81
762.428	15224.43
762.765	15320.25
763.102	15636.4
763.438	15694.93
763.775	15866
764.112	15990.51
764.449	16239.32
764.785	16353.89
765.122	16442.25
765.458	16566.77
765.795	16797.72
766.131	16846.53
766.467	16982.8
766.804	17134.44
767.14	17239.74
767.476	17352.06
767.812	17436.58
768.148	17689.9
768.485	17721.77
768.821	17817.58
769.157	17840.86
769.492	18036.79
769.828	18133.05
770.164	18148.2
770.5	18301.64
770.836	18382.99
771.171	18482.2
771.507	18564.46
771.842	18537.79
772.178	18777.33
772.513	18843.77
772.849	18983.43
773.184	18957.89
773.519	19001.05
773.855	19073.37
774.19	19174.83
774.525	19151.78
774.86	19300.03
775.195	19282.18
775.53	19435.62
775.865	19337.99
776.2	19253.48
776.535	19280.14
776.87	19433.36
777.205	19405.79
777.539	19455.51
777.874	19548.61
778.209	19437.88
778.543	19447.82
778.878	19466.58
779.212	19503.19
779.547	19445.56
779.881	19578.89
780.215	19544.54
780.55	19615.28
780.884	19458.22
781.218	19592.45
781.552	19598.33
781.886	19557.88
782.22	19518.1
782.554	19524.43
782.888	19452.79
783.222	19309.97
783.556	19353.59
783.889	19366.92
784.223	19380.93
784.557	19426.58
784.89	19375.06
785.224	19282.4
785.557	19323.98
785.891	19289.63
786.224	19282.18
786.558	19259.58
786.891	19192.46
787.224	19134.84
787.557	19148.85
787.891	19134.38
788.224	19147.26
788.557	19191.11
788.89	19139.36
789.223	19034.95
789.556	18988.4
789.888	18931.45
790.221	18956.31
790.554	18771.46
790.887	18856.2
791.219	18763.09
791.552	18842.19
791.884	18698.24
792.217	18665.02
792.549	18613.95
792.882	18531.69
793.214	18461.18
793.546	18508.41
793.879	18472.71
794.211	18339.15
794.543	18554.74
794.875	18307.06
795.207	18379.15
795.539	18295.99
795.871	18318.59
796.203	18173.28
796.535	18106.61
796.867	18061.87
797.198	18154.3
797.53	17983.45
797.862	17973.96
798.193	18073.17
798.525	17864.81
798.856	17951.14
799.188	17737.81
799.519	17811.25
799.85	17747.98
800.182	17660.07
800.513	17729.45
800.844	17565.16
801.175	17702.56
801.506	17567.19
801.837	17508.66
802.168	17458.95
802.499	17474.77
802.83	17422.79
803.161	17339.63
803.491	17323.36
803.822	17305.96
804.153	17301.44
804.483	17056.02
804.814	17092.4
805.145	17020.99
805.475	17021.45
805.805	16976.25
806.136	16988
806.466	16960.2
806.796	16926.08
807.126	16675.24
807.457	16792.52
807.787	16863.94
808.117	16742.13
808.447	16736.48
808.777	16755.01
809.107	16599.54
809.436	16623.49
809.766	16517.96
810.096	16509.59
810.426	16416.49
810.755	16497.39
811.085	16414.91
811.414	16392.76
811.744	16335.36
812.073	16245.42
812.403	16333.1
812.732	16248.13
813.061	16187.34
813.39	16036.39
813.719	16059.66
814.049	16155.25
814.378	16016.5
814.707	16127.23
815.036	16069.61
815.365	15985.77
815.693	15876.84
816.022	15863.74
816.351	15762.72
816.68	15691.99
817.008	15860.35
817.337	15672.55
817.665	15587.58
817.994	15599.11
818.322	15666.9
818.651	15600.47
818.979	15559.79
819.307	15598.43
819.636	15527.47
819.964	15416.74
820.292	15549.85
820.62	15484.76
820.948	15430.75
821.276	15463.75
821.604	15475.05
821.932	15459.9
822.259	15510.07
822.587	15439.79
822.915	15418.55
823.243	15440.47
823.57	15426.01
823.898	15403.63
824.225	15357.76
824.553	15361.83
824.88	15384.2
825.207	15392.79
825.535	15457.64
825.862	15413.35
826.189	15385.56
826.516	15431.43
826.843	15485.21
827.17	15420.58
827.497	15392.11
827.824	15433.69
828.151	15437.53
828.478	15411.54
828.805	15481.15
829.131	15356.4
829.458	15401.15
829.785	15360.7
830.111	15431.88
830.438	15417.65
830.764	15456.29
831.09	15492.22
831.417	15361.15
831.743	15462.39
832.069	15388.27
832.395	15356.4
832.722	15424.42
833.048	15308.95
833.374	15331.32
833.7	15327.7
834.026	15311.89
834.351	15337.87
834.677	15368.83
835.003	15327.7
835.329	15330.19
835.654	15256.75
835.98	15214.71
836.306	15323.86
836.631	15120.25
836.956	15238.89
837.282	15193.47
837.607	15115.96
837.932	15096.98
838.258	15163.87
838.583	15095.39
838.908	15040.93
839.233	15063.3
839.558	14940.6
839.883	14979.24
840.208	14936.08
840.533	14922.52
840.858	14888.39
841.182	14866.02
841.507	14850.65
841.832	14757.32
842.156	14800.26
842.481	14751.9
842.805	14660.6
843.13	14658.8
843.454	14558.01
843.778	14582.87
844.103	14605.24
844.427	14556.43
844.751	14509.42
845.075	14514.62
845.399	14439.82
845.723	14329.54
846.047	14402.08
846.371	14246.83
846.695	14266.72
847.019	14131.58
847.343	14127.06
847.666	14106.49
847.99	13957.34
848.313	13972.26
848.637	13924.35
848.96	13862.88
849.284	13821.98
849.607	13741.98
849.931	13749.89
850.254	13626.51
850.577	13594.87
850.9	13500.41
851.223	13450.01
851.546	13393.97
851.869	13379.51
852.192	13355.55
852.515	13212.05
852.838	13149.23
853.161	13201.66
853.483	13098.61
853.806	13074.2
854.129	13002.12
854.451	12910.59
854.774	12913.08
855.096	12830.82
855.419	12812.74
855.741	12746.53
856.063	12799.41
856.385	12740.88
856.708	12720.99
857.03	12684.16
857.352	12630.15
857.674	12584.5
857.996	12539.98
858.318	12424.5
858.64	12476.03
858.961	12422.24
859.283	12356.48
859.605	12377.95
859.926	12359.87
860.248	12315.58
860.57	12272.87
860.891	12363.71
861.212	12189.93
861.534	12132.31
861.855	12151.97
862.176	12176.15
862.498	12142.03
862.819	12103.61
863.14	12022.25
863.461	11984.06
863.782	12025.87
864.103	12051.41
864.424	11955.59
864.745	12027
865.065	11865.2
865.386	11854.8
865.707	11847.12
866.027	11843.28
866.348	11823.84
866.668	11810.06
866.989	11744.07
867.309	11689.16
867.63	11759.66
867.95	11756.5
868.27	11707.91
868.59	11708.82
868.91	11733
869.23	11663.85
869.55	11581.14
869.87	11648.71
870.19	11586.11
870.51	11588.82
870.83	11546.56
871.15	11454.59
871.469	11534.81
871.789	11559.44
872.109	11545.2
872.428	11410.52
872.748	11518.99
873.067	11423.4
873.386	11442.38
873.706	11351.31
874.025	11291.88
874.344	11328.71
874.663	11333.91
874.982	11280.13
875.301	11327.58
875.62	11289.62
875.939	11312.44
876.258	11259.34
876.577	11212.33
876.896	11216.4
877.214	11147.93
877.533	11249.17
877.852	11162.39
878.17	11167.81
878.489	11112.9
878.807	11136.85
879.125	11153.12
879.444	11081.04
879.762	11090.75
880.08	11126.46
880.398	11005.78
880.716	11015.95
881.034	10979.8
881.352	10951.55
881.67	10905.45
881.988	10964.43
882.306	10870.19
882.624	10909.29
882.941	10716.98
883.259	10787.26
883.577	10766.47
883.894	10750.42
884.212	10709.75
884.529	10707.49
884.846	10656.87
885.164	10621.84
885.481	10610.77
885.798	10613.48
886.115	10533.48
886.432	10552.46
886.75	10515.18
887.067	10503.88
887.383	10482.86
887.7	10518.57
888.017	10462.52
888.334	10419.81
888.651	10403.31
888.967	10286.93
889.284	10272.02
889.6	10214.39
889.917	10187.73
890.233	10194.05
890.55	10179.37
890.866	10143.21
891.182	10181.85
891.498	10105.92
891.815	10154.51
892.131	10026.37
892.447	9993.16
892.763	9936.66
893.079	9889.88
893.395	9950.67
893.71	9860.5
894.026	9857.79
894.342	9849.88
894.657	9797.68
894.973	9740.73
895.289	9782.31
895.604	9693.5
895.92	9589.78
896.235	9629.32
896.55	9587.74
896.865	9606.05
897.181	9529.66
897.496	9591.13
897.811	9437.46
898.126	9458.48
898.441	9366.51
898.756	9328.31
899.071	9326.51
899.386	9318.6
899.7	9259.62
900.015	9184.59
900.33	9210.35
900.644	9172.16
900.959	9119.05
901.273	9121.77
901.588	9116.79
901.902	9034.08
902.216	8971.94
902.531	9000.87
902.845	8938.27
903.159	8909.12
903.473	8887.65
903.787	8790.48
904.101	8798.84
904.415	8732.4
904.729	8790.93
905.042	8678.61
905.356	8703.7
905.67	8689.91
905.984	8608.78
906.297	8582.12
906.611	8564.94
906.924	8539.18
907.237	8431.84
907.551	8456.25
907.864	8437.49
908.177	8393.65
908.491	8417.83
908.804	8253.54
909.117	8281.34
909.43	8185.97
909.743	8169.93
910.056	8194.33
910.368	8190.49
910.681	8101.23
910.994	8099.87
911.307	8022.81
911.619	8018.52
911.932	8043.38
912.244	7945.07
912.557	7933.32
912.869	7922.93
913.181	7827.34
913.494	7831.63
913.806	7746.43
914.118	7762.03
914.43	7721.35
914.742	7651.97
915.054	7633.22
915.366	7619.43
915.678	7609.49
915.99	7528.36
916.302	7481.13
916.613	7460.79
916.925	7508.02
917.236	7432.77
917.548	7406.1
917.859	7377.63
918.171	7357.29
918.482	7378.99
918.794	7284.98
919.105	7284.98
919.416	7187.13
919.727	7183.06
920.038	7211.99
920.349	7152.55
920.66	7087.24
920.971	7100.35
921.282	7058.54
921.593	7017.41
921.903	6983.06
922.214	6926.8
922.525	6913.46
922.835	6901.71
923.146	6852.45
923.456	6878.66
923.767	6806.35
924.077	6790.53
924.387	6728.16
924.697	6753.69
925.008	6703.3
925.318	6628.27
925.628	6677.54
925.938	6629.63
926.248	6631.21
926.558	6612.68
926.867	6536.75
927.177	6521.83
927.487	6485.9
927.796	6456.98
928.106	6410.42
928.416	6400.71
928.725	6428.28
929.034	6349.64
929.344	6332.69
929.653	6372.01
929.962	6281.39
930.271	6226.93
930.581	6218.34
930.89	6221.96
931.199	6124.33
931.508	6147.61
931.817	6160.49
932.125	6142.41
932.434	6050.43
932.743	6019.47
933.051	6036.88
933.36	5997.1
933.669	5950.1
933.977	5940.38
934.286	5909.87
934.594	5866.03
934.902	5861.51
935.21	5848.41
935.519	5786.03
935.827	5840.27
936.135	5761.63
936.443	5735.41
936.751	5726.15
937.059	5696.32
937.367	5662.42
937.674	5702.87
937.982	5641.18
938.29	5623.33
938.597	5553.5
938.905	5512.82
939.213	5464.01
939.52	5524.12
939.827	5494.52
940.135	5427.4
940.442	5422.2
940.749	5425.37
941.056	5422.43
941.363	5343.33
941.67	5334.97
941.977	5337.46
942.284	5252.94
942.591	5280.51
942.898	5252.04
943.205	5247.07
943.511	5178.59
943.818	5186.28
944.125	5164.13
944.431	5160.06
944.738	5140.85
945.044	5111.25
945.35	5104.47
945.657	5040.97
945.963	5075.09
946.269	5001.2
946.575	5025.83
946.881	4997.58
947.187	4963.01
947.493	4922.55
947.799	4853.86
948.105	4881.2
948.41	4856.57
948.716	4838.94
949.022	4854.76
949.327	4861.76
949.633	4729.56
949.938	4750.81
950.244	4800.3
950.549	4726.63
950.854	4723.92
951.16	4694.31
951.465	4658.38
951.77	4629.68
952.075	4677.59
952.38	4599.85
952.685	4605.73
952.99	4536.35
953.294	4581.09
953.599	4525.05
953.904	4514.66
954.209	4488.89
954.513	4451.15
954.818	4463.81
955.122	4441.21
955.426	4394.21
955.731	4442.79
956.035	4358.73
956.339	4371.16
956.643	4349.91
956.948	4290.25
957.252	4297.71
957.556	4263.81
957.86	4273.31
958.163	4273.08
958.467	4214.1
958.771	4212.52
959.075	4189.69
959.378	4135.68
959.682	4172.07
959.985	4126.42
960.289	4105.63
960.592	4090.03
960.896	4087.77
961.199	4091.62
961.502	4047.32
961.805	4015.69
962.108	4006.87
962.411	4029.7
962.714	3997.61
963.017	3966.2
963.32	3956.93
963.623	3925.74
963.926	3890.94
964.228	3887.33
964.531	3863.82
964.833	3851.62
965.136	3825.18
965.438	3830.38
965.741	3773.43
966.043	3781.12
966.345	3766.65
966.648	3784.96
966.95	3689.82
967.252	3745.86
967.554	3683.49
967.856	3686.43
968.158	3686.2
968.46	3664.06
968.761	3622.93
969.063	3610.05
969.365	3625.87
969.666	3622.7
969.968	3624.51
970.269	3583.38
970.571	3566.88
970.872	3532.76
971.174	3496.6
971.475	3469.94
971.776	3485.98
972.077	3437.4
972.378	3453.21
972.679	3449.82
972.98	3436.94
973.281	3405.08
973.582	3415.7
973.883	3354.69
974.183	3343.61
974.484	3341.8
974.785	3334.35
975.085	3355.59
975.386	3329.15
975.686	3265.42
975.986	3261.35
976.287	3256.84
976.587	3248.93
976.887	3234.91
977.187	3258.64
977.487	3213.67
977.787	3206.44
978.087	3185.42
978.387	3163.28
978.687	3152.21
978.987	3119.66
979.286	3116.95
979.586	3097.97
979.885	3053.9
980.185	3047.58
980.484	3036.05
980.784	3054.13
981.083	3032.66
981.382	3033.34
981.682	3006.9
981.981	2980.01
982.28	2987.46
982.579	2978.88
982.878	2972.32
983.177	2961.7
983.475	2923.74
983.774	2899.1
984.073	2876.05
984.372	2914.47
984.67	2880.57
984.969	2870.86
985.267	2882.38
985.566	2839.22
985.864	2842.38
986.162	2814.14
986.461	2784.53
986.759	2788.15
987.057	2742.72
987.355	2733.01
987.653	2736.4
987.951	2737.3
988.249	2703.18
988.547	2736.17
988.844	2695.49
989.142	2680.35
989.44	2667.7
989.737	2652.33
990.035	2636.96
990.332	2619.79
990.63	2642.61
990.927	2578.89
991.224	2601.26
991.521	2588.38
991.819	2568.72
992.116	2535.5
992.413	2563.29
992.71	2514.93
993.006	2526.23
993.303	2541.15
993.6	2534.82
993.897	2497.76
994.193	2493.47
994.49	2481.04
994.787	2476.52
995.083	2460.92
995.379	2436.97
995.676	2430.19
995.972	2393.13
996.268	2409.85
996.565	2390.19
996.861	2386.58
997.157	2348.84
997.453	2335.73
997.749	2373.02
998.044	2348.16
998.34	2337.99
998.636	2313.58
998.932	2274.71
999.227	2296.18
999.523	2272.45
999.818	2237.88
1000.114	2241.95
1000.409	2252.34
1000.704	2220.93
1001	2221.61
1001.295	2178.67
1001.59	2149.29
1001.885	2185.23
1002.18	2168.95
1002.475	2151.55
1002.77	2119.01
1003.065	2100.26
1003.359	2126.02
1003.654	2121.72
1003.949	2071.78
1004.243	2067.49
1004.538	2093.48
1004.832	2052.12
1005.127	2064.55
1005.421	2043.31
1005.715	1997.21
1006.009	2015.96
1006.304	1996.3
1006.598	1996.53
1006.892	1981.84
1007.186	1965.12
1007.48	1923.31
1007.773	1941.84
1008.067	1933.03
1008.361	1902.29
1008.655	1923.99
1008.948	1902.52
1009.242	1896.87
1009.535	1892.58
1009.829	1846.25
1010.122	1865.91
1010.415	1861.39
1010.708	1801.05
1011.001	1837.66
1011.295	1815.07
1011.588	1829.53
1011.881	1784.56
1012.173	1774.84
1012.466	1760.38
1012.759	1753.82
1013.052	1738.68
1013.344	1761.28
1013.637	1724.45
1013.93	1719.02
1014.222	1699.36
1014.514	1691.45
1014.807	1713.37
1015.099	1693.49
1015.391	1688.51
1015.683	1658.01
1015.976	1660.95
1016.268	1641.96
1016.56	1630.21
1016.851	1642.64
1017.143	1597.9
1017.435	1597.22
1017.727	1574.17
1018.018	1596.99
1018.31	1543.43
1018.602	1540.04
1018.893	1535.98
1019.185	1539.59
1019.476	1502.53
1019.767	1525.13
1020.058	1496.66
1020.35	1485.58
1020.641	1496.2
1020.932	1427.96
1021.223	1471.57
1021.514	1471.35
1021.804	1450.78
1022.095	1428.18
1022.386	1431.57
1022.677	1433.83
1022.967	1398.35
1023.258	1405.13
1023.548	1387.05
1023.839	1408.52
1024.129	1381.18
1024.419	1385.47
1024.709	1352.48
1025	1352.25
1025.29	1370.56
1025.58	1333.27
1025.87	1330.33
1026.16	1301.41
1026.449	1306.38
1026.739	1307.06
1027.029	1320.39
1027.319	1281.97
1027.608	1270.22
1027.898	1254.85
1028.187	1231.58
1028.477	1238.13
1028.766	1246.27
1029.055	1230.67
1029.344	1232.71
1029.634	1221.18
1029.923	1208.08
1030.212	1200.84
1030.501	1207.4
1030.79	1163.33
1031.078	1171.24
1031.367	1159.49
1031.656	1150.9
1031.945	1133.5
1032.233	1142.54
1032.522	1136.89
1032.81	1152.48
1033.099	1116.33
1033.387	1107.97
1033.675	1090.79
1033.963	1129.43
1034.251	1124.24
1034.54	1094.63
1034.828	1062.32
1035.116	1067.29
1035.403	1094.41
1035.691	1089.43
1035.979	1075.2
1036.267	1055.99
1036.554	1046.27
1036.842	1034.97
1037.129	1020.28
1037.417	1007.4
1037.704	1016.22
1037.992	1012.37
1038.279	1009.66
1038.566	980.28
1038.853	980.28
1039.14	980.28
