Data from hue_20_FLMS001491_95.txt Node
Date: Mon Feb 06 15:35:00 GMT 2017
User: dcchb
Spectrometer: FLMS00149
Trigger mode: 0
Integration Time (sec): 2.000000E-2
Scans to average: 10
Electric dark correction enabled: true
Nonlinearity correction enabled: false
Boxcar width: 0
XAxis mode: Wavelengths
Number of Pixels in Spectrum: 2048
>>>>>Begin Spectral Data<<<<<
341.393	-3.57
341.776	-3.57
342.16	-3.57
342.543	-45.83
342.927	-49.22
343.31	-69.33
343.693	-55.78
344.077	-68.2
344.46	-59.62
344.843	-52.16
345.226	-48.09
345.61	-21.88
345.993	-7.42
346.376	-18.94
346.759	21.06
347.142	31
347.525	25.13
347.908	51.79
348.291	77.1
348.674	90.89
349.057	104.45
349.44	133.6
349.823	146.03
350.206	165.24
350.588	196.87
350.971	206.36
351.354	238
351.737	241.62
352.119	251.79
352.502	270.32
352.884	287.72
353.267	293.37
353.65	284.55
354.032	308.06
354.414	290.2
354.797	328.85
355.179	343.99
355.562	318.68
355.944	333.37
356.326	336.3
356.709	333.14
357.091	346.93
357.473	346.02
357.855	365.68
358.238	353.48
358.62	327.04
359.002	352.12
359.384	341.5
359.766	354.38
360.148	332.24
360.53	344.67
360.912	361.84
361.294	335.85
361.676	335.85
362.057	334.72
362.439	323.65
362.821	337.66
363.203	330.88
363.584	322.97
363.966	336.76
364.348	342.63
364.729	330.43
365.111	339.92
365.493	322.29
365.874	318.9
366.256	327.72
366.637	338.34
367.019	337.21
367.4	326.36
367.781	328.85
368.163	321.62
368.544	330.43
368.925	310.99
369.306	320.26
369.688	336.3
370.069	332.46
370.45	335.85
370.831	320.94
371.212	330.43
371.593	324.78
371.974	327.04
372.355	303.31
372.736	343.08
373.117	340.6
373.498	323.65
373.879	332.24
374.26	325.68
374.641	356.64
375.021	339.24
375.402	328.4
375.783	319.13
376.163	336.76
376.544	338.79
376.925	347.15
377.305	349.64
377.686	352.58
378.066	331.33
378.447	351.9
378.827	350.54
379.208	345.34
379.588	350.99
379.968	353.25
380.349	354.16
380.729	353.93
381.109	366.36
381.489	349.86
381.87	341.28
382.25	340.82
382.63	363.87
383.01	339.47
383.39	359.13
383.77	366.59
384.15	381.5
384.53	383.54
384.91	339.92
385.29	353.03
385.67	380.37
386.049	381.28
386.429	359.81
386.809	383.76
387.189	382.63
387.568	375.63
387.948	383.76
388.328	353.03
388.707	388.05
389.087	385.34
389.466	387.38
389.846	379.92
390.225	394.16
390.605	383.99
390.984	412.69
391.363	405
391.743	391.67
392.122	394.61
392.501	398.68
392.881	405.91
393.26	403.2
393.639	430.77
394.018	400.94
394.397	371.33
394.776	392.8
395.155	398.45
395.534	406.36
395.913	405
396.292	419.01
396.671	397.09
397.05	403.42
397.429	432.8
397.808	404.1
398.186	421.73
398.565	399.35
398.944	426.92
399.323	422.4
399.701	421.73
400.08	430.31
400.458	428.05
400.837	441.16
401.215	427.38
401.594	459.24
401.972	433.48
402.351	442.06
402.729	433.7
403.107	431.22
403.486	448.62
403.864	463.98
404.242	463.76
404.62	461.27
404.999	455.4
405.377	456.3
405.755	437.32
406.133	451.33
406.511	462.18
406.889	447.04
407.267	463.53
407.645	466.24
408.023	472.12
408.401	469.41
408.779	486.58
409.156	489.52
409.534	475.74
409.912	498.11
410.29	493.14
410.667	473.93
411.045	500.59
411.422	510.76
411.8	502.4
412.178	496.75
412.555	492.23
412.933	527.94
413.31	527.03
413.687	547.15
414.065	517.99
414.442	528.84
414.819	536.53
415.197	548.95
415.574	559.12
415.951	551.89
416.328	538.56
416.705	552.8
417.082	568.61
417.46	571.55
417.837	555.06
418.214	564.32
418.591	576.3
418.967	546.02
419.344	571.1
419.721	603.87
420.098	569.52
420.475	584.66
420.852	597.99
421.228	605.9
421.605	574.94
421.982	599.57
422.358	601.61
422.735	608.39
423.111	614.49
423.488	609.52
423.864	616.07
424.241	614.72
424.617	643.64
424.994	633.7
425.37	634.15
425.746	654.04
426.123	631.44
426.499	653.81
426.875	656.97
427.251	653.13
427.627	660.36
428.003	677.54
428.379	672.57
428.756	671.21
429.132	694.26
429.507	680.93
429.883	717.09
430.259	700.81
430.635	704.43
431.011	711.89
431.387	721.38
431.763	703.53
432.138	729.97
432.514	742.4
432.89	763.19
433.265	751.21
433.641	752.11
434.016	755.73
434.392	776.97
434.767	790.76
435.143	795.73
435.518	803.19
435.894	808.83
436.269	814.26
436.644	839.34
437.02	814.94
437.395	816.74
437.77	852.22
438.145	854.03
438.52	824.2
438.895	838.44
439.271	838.66
439.646	865.33
440.021	867.36
440.395	871.88
440.77	868.95
441.145	871.43
441.52	888.61
441.895	899.68
442.27	915.5
442.645	916.18
443.019	922.73
443.394	924.54
443.769	913.01
444.143	922.5
444.518	942.39
444.892	933.8
445.267	934.93
445.641	952.56
446.016	960.7
446.39	966.12
446.764	972.45
447.139	975.61
447.513	977.19
447.887	969.96
448.262	1004.31
448.636	971.09
449.01	987.14
449.384	982.16
449.758	1006.12
450.132	1017.42
450.506	1015.38
450.88	1044.08
451.254	1012.45
451.628	1049.05
452.002	1059
452.376	1052.44
452.75	1064.2
453.123	1048.15
453.497	1088.15
453.871	1115.72
454.244	1119.33
454.618	1119.56
454.992	1112.78
455.365	1144.42
455.739	1147.81
456.112	1193.46
456.486	1170.41
456.859	1172.21
457.232	1212.21
457.606	1219.45
457.979	1264.87
458.352	1249.73
458.725	1257.64
459.099	1272.33
459.472	1275.94
459.845	1288.82
460.218	1309.84
460.591	1328.14
460.964	1326.34
461.337	1357.29
461.71	1332.44
462.083	1389.84
462.456	1389.16
462.829	1379.22
463.201	1409.95
463.574	1414.47
463.947	1460.57
464.32	1459.21
464.692	1459.67
465.065	1459.44
465.438	1513
465.81	1521.13
466.183	1552.09
466.555	1588.25
466.928	1592.99
467.3	1564.97
467.672	1597.74
468.045	1633.9
468.417	1654.69
468.789	1657.63
469.161	1663.73
469.534	1714.35
469.906	1720.45
470.278	1750.28
470.65	1765.19
471.022	1792.76
471.394	1815.81
471.766	1847.68
472.138	1884.29
472.51	1918.64
472.882	1926.32
473.253	1939.65
473.625	1974.68
473.997	2039.76
474.369	2016.71
474.74	2098.74
475.112	2096.26
475.484	2137.16
475.855	2169.02
476.227	2199.98
476.598	2269.14
476.97	2297.16
477.341	2294.22
477.713	2389.13
478.084	2356.14
478.455	2436.36
478.827	2482.46
479.198	2540.09
479.569	2552.74
479.94	2644.27
480.311	2668.67
480.682	2682.23
481.053	2750.25
481.424	2847.2
481.795	2882.23
482.166	2862.79
482.537	2926.29
482.908	2994.99
483.279	3008.32
483.65	3082.22
484.021	3139.17
484.391	3184.82
484.762	3234.76
485.133	3261.65
485.503	3308.66
485.874	3366.96
486.244	3440.63
486.615	3495.32
486.985	3512.49
487.356	3577.35
487.726	3658.93
488.097	3751.36
488.467	3780.06
488.837	3825.25
489.207	3826.16
489.578	3924.01
489.948	3974.4
490.318	4018.02
490.688	4065.02
491.058	4074.74
491.428	4196.09
491.798	4229.54
492.168	4283.32
492.538	4353.15
492.908	4383.88
493.278	4441.96
493.648	4457.78
494.017	4537.1
494.387	4503.88
494.757	4573.93
495.126	4643.99
495.496	4677.66
495.866	4728.05
496.235	4763.98
496.605	4809.63
496.974	4834.27
497.344	4883.3
497.713	4908.61
498.082	4953.58
498.452	4981.83
498.821	5079.23
499.19	5064.77
499.559	5145.22
499.928	5171.43
500.298	5206.91
500.667	5224.09
501.036	5258.89
501.405	5331.43
501.774	5301.37
502.143	5374.36
502.512	5409.62
502.88	5467.02
503.249	5446.45
503.618	5503.4
503.987	5502.72
504.356	5586.11
504.724	5563.29
505.093	5576.84
505.462	5687.58
505.83	5696.16
506.199	5709.72
506.567	5809.61
506.936	5735.71
507.304	5862.04
507.672	5855.93
508.041	5918.08
508.409	5954.01
508.777	5996.49
509.145	6007.34
509.514	6026.32
509.882	6061.35
510.25	6073.78
510.618	6092.54
510.986	6126.66
511.354	6141.58
511.722	6232.87
512.09	6320.78
512.458	6262.48
512.826	6309.26
513.193	6347.45
513.561	6364.85
513.929	6396.26
514.297	6477.16
514.664	6472.19
515.032	6505.86
515.4	6576.14
515.767	6591.73
516.135	6626.08
516.502	6616.14
516.869	6688.68
517.237	6706.08
517.604	6660.66
517.972	6797.83
518.339	6762.35
518.706	6862.91
519.073	6881.44
519.44	6918.28
519.808	7001.21
520.175	6898.62
520.542	7016.13
520.909	7036.69
521.276	7061.55
521.643	7157.14
522.009	7165.73
522.376	7187.2
522.743	7236.69
523.11	7328.89
523.477	7335.44
523.843	7375.89
524.21	7436.68
524.577	7488.43
524.943	7545.83
525.31	7574.98
525.676	7679.16
526.043	7679.61
526.409	7728.43
526.776	7776.79
527.142	7830.8
527.508	7921.64
527.874	7931.13
528.241	7901.76
528.607	7995.09
528.973	8114.41
529.339	8060.17
529.705	8146.27
530.071	8221.07
530.437	8170.67
530.803	8246.15
531.169	8356.88
531.535	8358.69
531.901	8372.25
532.267	8393.27
532.632	8436.66
532.998	8494.73
533.364	8570.21
533.73	8570.66
534.095	8672.81
534.461	8640.49
534.826	8714.39
535.192	8765.69
535.557	8857.89
535.923	8846.59
536.288	8892.46
536.653	8935.17
537.019	8885.91
537.384	8999.35
537.749	9003.42
538.114	9019.92
538.479	9008.85
538.845	9100.82
539.21	9071.22
539.575	9173.59
539.94	9164.1
540.305	9273.24
540.67	9186.02
541.034	9296.52
541.399	9307.14
541.764	9364.99
542.129	9389.17
542.494	9445.44
542.858	9405.44
543.223	9517.31
543.587	9513.01
543.952	9516.4
544.316	9658.77
544.681	9604.76
545.045	9682.05
545.41	9741.93
545.774	9751.65
546.138	9819.22
546.503	9828.94
546.867	9827.35
547.231	9889.27
547.595	9970.18
547.959	9971.76
548.324	9932.89
548.688	9971.53
549.052	10034.13
549.416	10110.06
549.779	10124.07
550.143	10134.47
550.507	10187.8
550.871	10235.93
551.235	10235.03
551.599	10322.71
551.962	10390.96
552.326	10363.16
552.689	10398.86
553.053	10401.35
553.417	10409.71
553.78	10591.85
554.143	10521.12
554.507	10583.04
554.87	10566.77
555.234	10706.2
555.597	10674.34
555.96	10709.59
556.323	10813.09
556.686	10782.13
557.05	10904.61
557.413	10895.58
557.776	10903.94
558.139	11037.04
558.502	11029.36
558.865	11055.34
559.228	11172.4
559.59	11129.47
559.953	11130.15
560.316	11233.42
560.679	11247.88
561.041	11282.46
561.404	11351.61
561.767	11405.39
562.129	11355.22
562.492	11545.28
562.854	11520.87
563.217	11541.66
563.579	11593.41
563.941	11626.4
564.304	11690.36
564.666	11816.45
565.028	11779.39
565.39	11826.85
565.753	11891.93
566.115	11970.35
566.477	11983.91
566.839	12025.49
567.201	12134.64
567.563	12144.58
567.925	12160.85
568.287	12192.72
568.648	12256.44
569.01	12334.18
569.372	12382.77
569.734	12432.94
570.095	12421.86
570.457	12517.45
570.819	12490.79
571.18	12548.64
571.542	12658.01
571.903	12749.76
572.265	12796.99
572.626	12801.29
572.987	12853.26
573.349	12956.54
573.71	12980.94
574.071	13055.74
574.432	13034.5
574.794	13265
575.155	13244.21
575.516	13247.83
575.877	13274.95
576.238	13313.82
576.599	13413.25
576.96	13523.98
577.32	13589.06
577.681	13660.47
578.042	13798.1
578.403	13816.18
578.763	13921.48
579.124	13991.31
579.485	14093.23
579.845	14156.51
580.206	14241.7
580.566	14366.22
580.927	14515.37
581.287	14689.37
581.648	14664.29
582.008	14840.33
582.368	14951.29
582.728	15092.75
583.089	15180.66
583.449	15290.49
583.809	15421.56
584.169	15688.22
584.529	15762.79
584.889	16104.03
585.249	16096.34
585.609	16185.38
585.969	16529.1
586.329	16689.1
586.688	16888.86
587.048	17056.54
587.408	17172.47
587.768	17474.84
588.127	17603.2
588.487	17807.03
588.846	18079.57
589.206	18218.09
589.565	18513.68
589.925	18781.47
590.284	18860.34
590.643	19218.97
591.003	19441.34
591.362	19736.7
591.721	20076.58
592.08	20275.22
592.44	20549.56
592.799	20707.29
593.158	21046.72
593.517	21320.16
593.876	21675.18
594.235	21879.92
594.593	22205.33
594.952	22467.7
595.311	22621.59
595.67	22968.7
596.029	23467.67
596.387	23666.76
596.746	23958.28
597.104	24176.81
597.463	24466.07
597.822	24861.76
598.18	25050.68
598.538	25350.11
598.897	25761.17
599.255	25795.97
599.613	26433.02
599.972	26569.29
600.33	26822.61
600.688	27146.67
601.046	27428.47
601.404	27902.13
601.762	28079.53
602.12	28442.01
602.478	28667.54
602.836	28939.17
603.194	29056
603.552	29559.94
603.91	29533.96
604.268	29972.81
604.625	30202.86
604.983	30392.92
605.341	30667.94
605.698	31081.26
606.056	31415.04
606.413	31462.72
606.771	31962.59
607.128	32128.92
607.485	32259.53
607.843	32498.62
608.2	32884.38
608.557	33182.9
608.914	33293.18
609.272	33680.29
609.629	33956.66
609.986	34190.56
610.343	34263.32
610.7	34611.11
611.057	34938.11
611.414	35045.22
611.771	35203.64
612.127	35540.58
612.484	35706.45
612.841	36030.06
613.198	36171.29
613.554	36251.97
613.911	36579.19
614.267	36701.68
614.624	36867.32
614.98	37154.55
615.337	37396.12
615.693	37426.85
616.05	37638.6
616.406	38020.74
616.762	37982.77
617.118	38183.45
617.475	38182.09
617.831	38538.92
618.187	38627.73
618.543	38822.98
618.899	39171.44
619.255	39307.48
619.611	39308.84
619.967	39558.32
620.323	39724.2
620.678	39717.64
621.034	39863.18
621.39	39791.54
621.746	39956.51
622.101	40389.26
622.457	40183.17
622.812	40337.96
623.168	40472.88
623.523	40622.25
623.879	40813.43
624.234	40751.06
624.589	40908.8
624.945	41081.67
625.3	41165.06
625.655	41252.97
626.01	41208.9
626.365	41226.53
626.72	41435.56
627.075	41481.89
627.43	41556.92
627.785	41435.79
628.14	41561.44
628.495	41777.7
628.85	41722.11
629.205	41659.96
629.559	41929.56
629.914	41815.44
630.269	41822.9
630.623	41881.43
630.978	41705.61
631.332	41985.61
631.687	42107.86
632.041	41915.1
632.396	42109.22
632.75	42006.85
633.104	42112.83
633.459	42026.73
633.813	41991.03
634.167	42067.18
634.521	42210.91
634.875	42136.79
635.229	42061.31
635.583	41927.3
635.937	42054.53
636.291	41888.88
636.645	42136.56
636.999	41976.79
637.352	42245.71
637.706	41929.11
638.06	42092.27
638.413	42001.88
638.767	41961.42
639.121	42160.29
639.474	41894.99
639.828	42024.47
640.181	42075.09
640.534	42140.63
640.888	41925.95
641.241	41821.09
641.594	41809.56
641.947	42101.08
642.301	41955.32
642.654	42073.29
643.007	41961.88
643.36	41937.24
643.713	41727.76
644.066	42020.86
644.419	41805.04
644.771	41617.93
645.124	41192.41
645.477	41149.24
645.83	40953.77
646.182	40907.67
646.535	40773.43
646.888	40723.27
647.24	40550.16
647.593	40922.58
647.945	40662.7
648.298	40640.56
648.65	40465.42
649.002	40420.67
649.355	40706.54
649.707	40519.88
650.059	40724.85
650.411	41163.93
650.763	41341.33
651.115	41677.14
651.467	41538.61
651.819	41486.64
652.171	41360.54
652.523	41274.44
652.875	41454.32
653.227	41168.68
653.578	41550.81
653.93	41351.72
654.282	41258.84
654.633	41123.48
654.985	41227.88
655.337	41178.17
655.688	41234.21
656.039	41442.12
656.391	40999.87
656.742	41118.28
657.094	41031.73
657.445	41210.48
657.796	41067.89
658.147	41161.45
658.498	41089.81
658.849	41160.99
659.2	41052.07
659.551	41102.92
659.902	41187.89
660.253	41099.75
660.604	41041.9
660.955	40842.13
661.306	41126.42
661.656	41094.56
662.007	41055.91
662.358	41022.01
662.708	41038.06
663.059	41090.71
663.409	40775.02
663.76	41007.78
664.11	40883.71
664.461	40998.51
664.811	40926.88
665.161	41036.25
665.511	40702.93
665.862	40839.65
666.212	41140.2
666.562	41113.54
666.912	40958.97
667.262	40869.48
667.612	40914.45
667.962	40865.63
668.312	40738.86
668.662	41126.19
669.011	40981.56
669.361	40793.77
669.711	40884.84
670.06	40824.73
670.41	40850.04
670.76	40709.93
671.109	40915.35
671.459	40874
671.808	40761.91
672.157	40854.34
672.507	40597.84
672.856	40547.9
673.205	40663.83
673.554	40699.09
673.904	40602.36
674.253	40884.62
674.602	40816.6
674.951	40221.36
675.3	40005.09
675.649	40648.24
675.998	40495.25
676.346	40589.48
676.695	40528.92
677.044	40326.89
677.393	40524.17
677.741	40521.91
678.09	40339.09
678.438	40394.01
678.787	40448.47
679.135	40365.08
679.484	40207.8
679.832	40291.41
680.181	40039.22
680.529	40147.91
680.877	40049.84
681.225	40025.66
681.573	40300.68
681.922	39941.37
682.27	39889.16
682.618	39806
682.966	39720.13
683.314	39780.92
683.661	39707.02
684.009	39472
684.357	39495.05
684.705	39432
685.053	39593.35
685.4	39365.56
685.748	39316.52
686.095	39274.04
686.443	39099.35
686.79	39038.34
687.138	39098.68
687.485	39053.25
687.832	38882.64
688.18	38970.54
688.527	38788.85
688.874	38808.51
689.221	38705.92
689.568	38564.9
689.915	38677.9
690.262	38326.94
690.609	38447.17
690.956	38384.8
691.303	38280.62
691.65	38008.99
691.997	37979.83
692.344	37786.39
692.69	37903.9
693.037	37945.03
693.383	37449.23
693.73	37792.72
694.077	37549.79
694.423	37567.64
694.769	37447.65
695.116	37142.57
695.462	37192.96
695.808	37114.32
696.155	37195
696.501	36713.65
696.847	36838.17
697.193	36572.41
697.539	36880.88
697.885	36445.41
698.231	36378.97
698.577	36391.18
698.923	36230.73
699.269	36152.99
699.614	35941.7
699.96	35822.15
700.306	36005.65
700.651	35724.75
700.997	35640.69
701.342	35598.2
701.688	35466.45
702.033	35460.35
702.379	35391.88
702.724	35223.07
703.069	35378.55
703.415	34904.21
703.76	35082.51
704.105	34956.64
704.45	34863.76
704.795	34682.75
705.14	34664.44
705.485	34667.61
705.83	34404.56
706.175	34479.81
706.52	34408.18
706.865	34390.55
707.209	34262.42
707.554	34171.8
707.899	34125.7
708.243	33998.24
708.588	34025.14
708.932	33833.5
709.277	33841.19
709.621	33857.68
709.966	33609.78
710.31	33683.9
710.654	33398.49
710.998	33388.54
711.342	33426.51
711.687	33352.61
712.031	33260.41
712.375	33014.54
712.719	33131.6
713.063	33079.4
713.407	33090.92
713.75	32949.01
714.094	33005.28
714.438	32796.47
714.782	32730.93
715.125	32547.44
715.469	32667.21
715.812	32491.62
716.156	32365.97
716.499	32444.16
716.843	32530.94
717.186	32295.46
717.53	32368.46
717.873	32336.82
718.216	32269.48
718.559	32137.73
718.902	31927.11
719.246	32118.75
719.589	31865.65
719.932	31689.83
720.275	31821.13
720.617	31813.22
720.96	31771.41
721.303	31488.03
721.646	31602.83
721.989	31549.27
722.331	31472.89
722.674	31496.16
723.016	31415.71
723.359	31392.44
723.701	31335.04
724.044	31194.93
724.386	31154.48
724.729	31168.04
725.071	31060.24
725.413	30969.4
725.755	31027.25
726.097	30880.36
726.439	30780.93
726.782	30795.84
727.124	30860.25
727.465	30735.05
727.807	30677.43
728.149	30759.46
728.491	30614.15
728.833	30622.97
729.175	30419.36
729.516	30424.78
729.858	30354.27
730.199	30372.58
730.541	30264.33
730.882	30186.37
731.224	30386.36
731.565	30050.1
731.906	30177.1
732.248	30171.23
732.589	29944.57
732.93	29793.38
733.271	29922.19
733.612	29957.22
733.953	29967.62
734.294	29822.99
734.635	29806.04
734.976	29863.44
735.317	29715.87
735.658	29662.54
735.999	29707.96
736.339	29634.74
736.68	29697.11
737.021	29634.52
737.361	29517.68
737.702	29615.76
738.042	29484.92
738.383	29501.41
738.723	29404.69
739.063	29305.49
739.404	29428.65
739.744	29290.57
740.084	29146.62
740.424	29264.36
740.764	29110.24
741.104	29219.61
741.444	28942.33
741.784	29032.27
742.124	29101.42
742.464	28929.68
742.804	28971.48
743.143	28866.85
743.483	28929
743.823	28710.47
744.162	28638.16
744.502	28819.85
744.841	28589.12
745.181	28672.73
745.52	28639.29
745.86	28577.37
746.199	28520.42
746.538	28405.17
746.877	28570.14
747.216	28538.28
747.556	28453.31
747.895	28515.22
748.234	28315.68
748.573	28211.05
748.911	28210.6
749.25	28232.29
749.589	28090.38
749.928	28048.12
750.267	28108
750.605	28040.89
750.944	28056.48
751.283	27903.72
751.621	27972.64
751.96	27925.41
752.298	27834.11
752.636	27829.59
752.975	27775.81
753.313	27794.11
753.651	27804.06
753.989	27631.86
754.327	27572.65
754.666	27421.02
755.004	27497.4
755.342	27394.8
755.679	27519.09
756.017	27227.35
756.355	27400.45
756.693	27213.11
757.031	27141.02
757.368	27081.59
757.706	27054.7
758.044	26866.45
758.381	26947.36
758.719	26906
759.056	26822.39
759.394	26697.19
759.731	26695.39
760.068	26474.6
760.405	26432.79
760.743	26431.66
761.08	26468.72
761.417	26235.51
761.754	26317.99
762.091	26216.98
762.428	26116.19
762.765	26087.72
763.102	26152.58
763.438	25962.07
763.775	25766.37
764.112	25807.73
764.449	25809.53
764.785	25681.4
765.122	25559.82
765.458	25439.6
765.795	25376.55
766.131	25442.99
766.467	25290.9
766.804	25218.59
767.14	25107.63
767.476	25086.61
767.812	24920.97
768.148	24937.01
768.485	24876.68
768.821	24701.54
769.157	24618.83
769.492	24610.02
769.828	24532.73
770.164	24295.22
770.5	24280.31
770.836	24281.44
771.171	24137.71
771.507	24192.4
771.842	23899.75
772.178	24045.51
772.513	23805.29
772.849	23808.46
773.184	23714.45
773.519	23743.82
773.855	23633.32
774.19	23449.14
774.525	23435.81
774.86	23358.98
775.195	23237.17
775.53	23251.63
775.865	23072.66
776.2	22942.49
776.535	22838.76
776.87	22856.39
777.205	22758.09
777.539	22636.74
777.874	22593.57
778.209	22473.58
778.543	22354.48
778.878	22219.35
779.212	22212.11
779.547	22112.91
779.881	22157.43
780.215	21973.25
780.55	22045.79
780.884	21877.89
781.218	21801.28
781.552	21823.2
781.886	21700.49
782.22	21582.75
782.554	21464.79
782.888	21418.91
783.222	21115.65
783.556	21198.58
783.889	21101.18
784.223	20969.66
784.557	21028.64
784.89	21007.85
785.224	20811.92
785.557	20729.67
785.891	20721.08
786.224	20678.82
786.558	20646.96
786.891	20412.39
787.224	20348.89
787.557	20362.22
787.891	20274.54
788.224	20323.8
788.557	20212.62
788.89	20220.75
789.223	20052.62
789.556	19954.55
789.888	19962
790.221	19922.23
790.554	19683.82
790.887	19730.6
791.219	19598.17
791.552	19580.09
791.884	19405.63
792.217	19442.92
792.549	19294.45
792.882	19256.71
793.214	19145.53
793.546	19206.09
793.879	19098.3
794.211	18957.28
794.543	19007
794.875	18879.55
795.207	18906.21
795.539	18767.68
795.871	18790.96
796.203	18531.98
796.535	18543.74
796.867	18528.82
797.198	18479.78
797.53	18484.3
797.862	18319.56
798.193	18399.56
798.525	18211.54
798.856	18162.5
799.188	18075.05
799.519	18033.69
799.85	17882.51
800.182	18044.09
800.513	17886.13
800.844	17704.21
801.175	17827.14
801.506	17762.51
801.837	17744.43
802.168	17629.41
802.499	17623.08
802.83	17458.34
803.161	17517.77
803.491	17411.11
803.822	17348.51
804.153	17233.04
804.483	17220.15
804.814	17219.7
805.145	17134.06
805.475	17093.15
805.805	17030.33
806.136	17040.72
806.466	16991.23
806.796	16906.04
807.126	16749.66
807.457	16834.18
807.787	16771.35
808.117	16733.84
808.447	16626.05
808.777	16647.06
809.107	16557.8
809.436	16484.35
809.766	16521.42
810.096	16420.85
810.426	16344.47
810.755	16276.22
811.085	16339.5
811.414	16255.43
811.744	16218.15
812.073	16078.72
812.403	16191.26
812.732	16076.46
813.061	16021.77
813.39	15899.96
813.719	15927.53
814.049	15949
814.378	15904.26
814.707	15827.2
815.036	15834.2
815.365	15751.94
815.693	15658.61
816.022	15576.58
816.351	15589.46
816.68	15475.57
817.008	15497.49
817.337	15417.04
817.665	15388.34
817.994	15388.79
818.322	15349.7
818.651	15352.41
818.979	15251.39
819.307	15300.43
819.636	15267.44
819.964	15175.46
820.292	15142.7
820.62	15138.4
820.948	15156.93
821.276	15167.55
821.604	15081.91
821.932	15146.76
822.259	15138.63
822.587	15067.67
822.915	14995.35
823.243	15096.59
823.57	15019.08
823.898	15115.58
824.225	14959.2
824.553	15026.31
824.88	15021.57
825.207	15092.75
825.535	15105.63
825.862	15026.77
826.189	15014.34
826.516	15066.76
826.843	15117.38
827.17	15144.95
827.497	15114.22
827.824	15030.38
828.151	15034.68
828.478	15075.35
828.805	15140.89
829.131	14988.35
829.458	15025.18
829.785	14930.05
830.111	15031.51
830.438	15027.9
830.764	14981.57
831.09	15036.48
831.417	14923.04
831.743	15132.75
832.069	14968.24
832.395	14925.98
832.722	14884.85
833.048	14862.25
833.374	14859.54
833.7	14805.53
834.026	14874
834.351	14820.44
834.677	14848.92
835.003	14902.93
835.329	14835.36
835.654	14776.6
835.98	14661.13
836.306	14713.55
836.631	14686.66
836.956	14666.55
837.282	14686.89
837.607	14604.4
837.932	14565.08
838.258	14561.47
838.583	14594.46
838.908	14461.81
839.233	14509.49
839.558	14419.78
839.883	14485.31
840.208	14413.9
840.533	14429.04
840.858	14466.78
841.182	14407.8
841.507	14370.96
841.832	14272.21
842.156	14268.14
842.481	14327.35
842.805	14261.36
843.13	14243.28
843.454	14245.77
843.778	14134.81
844.103	14114.47
844.427	14100.01
844.751	14041.71
845.075	14051.42
845.399	13951.99
845.723	13897.08
846.047	13935.72
846.371	13798.55
846.695	13792.9
847.019	13745.22
847.343	13621.15
847.666	13510.42
847.99	13463.19
848.313	13542.51
848.637	13378.9
848.96	13391.1
849.284	13292.8
849.607	13248.28
849.931	13198.79
850.254	13117.44
850.577	13073.82
850.9	12913.6
851.223	12967.39
851.546	12912.92
851.869	12848.07
852.192	12890.32
852.515	12736.66
852.838	12812.81
853.161	12654.17
853.483	12624.57
853.806	12580.28
854.129	12566.72
854.451	12419.83
854.774	12385.25
855.096	12468.42
855.419	12391.13
855.741	12377.12
856.063	12346.16
856.385	12208.76
856.708	12167.86
857.03	12198.37
857.352	12190
857.674	12119.5
857.996	12138.03
858.318	11984.36
858.64	12088.76
858.961	12008.31
859.283	11873.4
859.605	11818.04
859.926	11895.32
860.248	11810.13
860.57	11829.79
860.891	11830.01
861.212	11628.89
861.534	11734.88
861.855	11641.54
862.176	11684.03
862.498	11711.15
862.819	11655.78
863.14	11599.96
863.461	11659.62
863.782	11560.87
864.103	11572.62
864.424	11511.83
864.745	11512.51
865.065	11518.16
865.386	11380.99
865.707	11441.1
866.027	11460.98
866.348	11421.89
866.668	11390.93
866.989	11347.54
867.309	11261.22
867.63	11329.01
867.95	11336.92
868.27	11256.24
868.59	11230.03
868.91	11178.05
869.23	11211.5
869.55	11142.57
869.87	11271.84
870.19	11175.79
870.51	11220.54
870.83	11149.58
871.15	11066.19
871.469	11098.51
871.789	11103.03
872.109	11041.33
872.428	10964.05
872.748	11055.12
873.067	10965.4
873.386	11024.16
873.706	10944.84
874.025	10970.15
874.344	10907.55
874.663	10897.83
874.982	10922.47
875.301	10883.37
875.62	10874.33
875.939	10810.83
876.258	10819.64
876.577	10748.46
876.896	10795.01
877.214	10763.15
877.533	10730.38
877.852	10707.78
878.17	10679.76
878.489	10703.94
878.807	10650.16
879.125	10632.08
879.444	10640.44
879.762	10608.58
880.08	10606.32
880.398	10555.7
880.716	10588.69
881.034	10545.08
881.352	10558.86
881.67	10507.79
881.988	10535.13
882.306	10449.26
882.624	10444.97
882.941	10337.85
883.259	10363.61
883.577	10355.7
883.894	10272.77
884.212	10339.21
884.529	10289.04
884.846	10300.34
885.164	10238.64
885.481	10173.56
885.798	10235.93
886.115	10110.74
886.432	10100.34
886.75	10063.05
887.067	10162.94
887.383	10074.58
887.7	10021.47
888.017	10100.34
888.334	10008.82
888.651	10009.27
888.967	9971.76
889.284	9966.56
889.6	9859.67
889.917	9796.62
890.233	9821.48
890.55	9803.85
890.866	9829.39
891.182	9776.96
891.498	9736.96
891.815	9670.3
892.131	9661.03
892.447	9602.73
892.763	9608.15
893.079	9602.5
893.395	9559.11
893.71	9566.57
894.026	9516.85
894.342	9467.36
894.657	9448.38
894.973	9433.69
895.289	9435.95
895.604	9348.05
895.92	9309.85
896.235	9313.92
896.55	9239.12
896.865	9263.75
897.181	9194.38
897.496	9227.14
897.811	9101.05
898.126	9106.47
898.441	9044.32
898.756	9023.53
899.071	9012.91
899.386	9015.85
899.7	8962.74
900.015	8887.27
900.33	8844.33
900.644	8844.1
900.959	8801.39
901.273	8714.39
901.588	8769.3
901.902	8697.67
902.216	8758.46
902.531	8722.52
902.845	8658.8
903.159	8669.64
903.473	8596.88
903.787	8547.16
904.101	8449.31
904.415	8465.13
904.729	8455.87
905.042	8400.05
905.356	8298.81
905.67	8411.35
905.984	8358.24
906.297	8308.07
906.611	8285.25
906.924	8233.95
907.237	8237.34
907.551	8173.16
907.864	8075.76
908.177	8129.77
908.491	8143.78
908.804	8029.44
909.117	7991.92
909.43	7953.05
909.743	7955.54
910.056	7931.81
910.368	7901.3
910.681	7846.62
910.994	7827.86
911.307	7783.57
911.619	7697.02
911.932	7810.91
912.244	7644.59
912.557	7677.81
912.869	7636.23
913.181	7535.89
913.494	7556
913.806	7490.47
914.118	7512.39
914.43	7408.66
914.742	7343.13
915.054	7434.88
915.366	7387.87
915.678	7287.31
915.99	7330.92
916.302	7287.99
916.613	7233.52
916.925	7181.32
917.236	7195.56
917.548	7149.68
917.859	7150.59
918.171	7117.82
918.482	7094.09
918.794	7018.39
919.105	7070.36
919.416	6964.15
919.727	6941.55
920.038	6936.13
920.349	6888.67
920.66	6852.97
920.971	6865.4
921.282	6841.44
921.593	6807.1
921.903	6776.59
922.214	6715.8
922.525	6696.59
922.835	6648.91
923.146	6610.49
923.456	6596.03
923.767	6544.5
924.077	6579.53
924.387	6538.85
924.697	6612.75
925.008	6505.18
925.318	6460.44
925.628	6418.63
925.938	6371.4
926.248	6339.54
926.558	6304.51
926.867	6301.8
927.177	6348.35
927.487	6256.15
927.796	6189.48
928.106	6194
928.416	6221.12
928.725	6142.48
929.034	6087.57
929.344	6131.18
929.653	6122.59
929.962	6044.63
930.271	6067
930.581	6003.05
930.89	5965.76
931.199	5960.34
931.508	5936.61
931.817	5913.33
932.125	5843.28
932.434	5825.2
932.743	5800.57
933.051	5744.75
933.36	5741.13
933.669	5720.12
933.977	5733.45
934.286	5701.14
934.594	5676.96
934.902	5688.71
935.21	5674.7
935.519	5586.79
935.827	5632.66
936.135	5551.99
936.443	5487.81
936.751	5500.01
937.059	5429.05
937.367	5442.84
937.674	5419.33
937.982	5391.09
938.29	5445.32
938.597	5408.26
938.905	5335.95
939.213	5314.48
939.52	5269.28
939.827	5294.82
940.135	5241.94
940.442	5263.18
940.749	5208.49
941.056	5215.95
941.363	5144.54
941.67	5146.57
941.977	5097.54
942.284	5069.06
942.591	5090.98
942.898	5074.03
943.205	5058.89
943.511	5008.5
943.818	5006.92
944.125	4987.71
944.431	4934.83
944.738	4954.49
945.044	4858.9
945.35	4864.77
945.657	4877.65
945.963	4848.05
946.269	4781.61
946.575	4838.33
946.881	4815.96
947.187	4768.05
947.493	4741.16
947.799	4747.71
948.105	4688.51
948.41	4690.99
948.716	4685.57
949.022	4611.9
949.327	4612.35
949.633	4587.94
949.938	4588.17
950.244	4570.09
950.549	4519.92
950.854	4541.62
951.16	4486.25
951.465	4457.33
951.77	4456.87
952.075	4444.22
952.38	4434.73
952.685	4400.83
952.99	4371.9
953.294	4371.45
953.599	4348.4
953.904	4361.06
954.209	4261.17
954.513	4287.39
954.818	4250.33
955.122	4275.18
955.426	4252.36
955.731	4220.27
956.035	4171.23
956.339	4185.24
956.643	4180.95
956.948	4128.07
957.252	4148.41
957.556	4112.48
957.86	4097.34
958.163	4097.79
958.467	4050.33
958.771	4073.61
959.075	4025.25
959.378	3943.89
959.682	4005.81
959.985	3977.34
960.289	4010.33
960.592	3914.06
960.896	3921.75
961.199	3884.69
961.502	3871.13
961.805	3867.51
962.108	3869.09
962.411	3850.11
962.714	3822.77
963.017	3799.04
963.32	3746.38
963.623	3753.39
963.926	3743.9
964.228	3727.63
964.531	3718.81
964.833	3717.91
965.136	3686.05
965.438	3688.76
965.741	3656.22
966.043	3640.85
966.345	3654.18
966.648	3598.14
966.95	3602.66
967.252	3546.16
967.554	3535.77
967.856	3541.64
968.158	3547.52
968.46	3545.26
968.761	3531.02
969.063	3453.74
969.365	3443.12
969.666	3477.47
969.968	3400.86
970.269	3424.36
970.571	3417.81
970.872	3366.96
971.174	3324.47
971.475	3385.49
971.776	3357.69
972.077	3368.32
972.378	3329.9
972.679	3327.86
972.98	3285.61
973.281	3284.7
973.582	3248.54
973.883	3234.76
974.183	3246.06
974.484	3225.27
974.785	3203.12
975.085	3187.3
975.386	3181.2
975.686	3177.59
975.986	3152.95
976.287	3206.96
976.587	3147.53
976.887	3123.35
977.187	3103.24
977.487	3084.26
977.787	3055.33
978.087	3026.18
978.387	3067.76
978.687	3038.61
978.987	3006.97
979.286	3028.66
979.586	3026.4
979.885	2975.33
980.185	2980.98
980.484	2989.57
980.784	2938.95
981.083	2910.47
981.382	2930.59
981.682	2889.91
981.981	2882.45
982.28	2870.25
982.579	2835.67
982.878	2842.91
983.177	2865.73
983.475	2878.38
983.774	2818.73
984.073	2809.01
984.372	2772.17
984.67	2764.94
984.969	2741.44
985.267	2735.79
985.566	2743.7
985.864	2730.14
986.162	2701.44
986.461	2705.06
986.759	2688.56
987.057	2681.78
987.355	2680.88
987.653	2649.92
987.951	2619.41
988.249	2627.09
988.547	2627.77
988.844	2596.81
989.142	2585.74
989.44	2571.95
989.737	2577.15
990.035	2548
990.332	2555.23
990.63	2542.57
990.927	2552.74
991.224	2497.6
991.521	2510.48
991.819	2464.84
992.116	2456.47
992.413	2472.29
992.71	2448.79
993.006	2402.47
993.303	2418.96
993.6	2422.35
993.897	2406.98
994.193	2376.25
994.49	2421.67
994.787	2382.35
995.083	2377.83
995.379	2343.03
995.676	2354.56
995.972	2339.64
996.268	2326.53
996.565	2309.36
996.861	2304.16
997.157	2268.23
997.453	2278.63
997.749	2298.51
998.044	2269.36
998.34	2253.32
998.636	2195.24
998.932	2211.74
999.227	2193.21
999.523	2199.08
999.818	2152.3
1000.114	2180.55
1000.409	2136.03
1000.704	2120.89
1001	2128.12
1001.295	2101
1001.59	2114.56
1001.885	2120.66
1002.18	2068.01
1002.475	2057.16
1002.77	2053.55
1003.065	2062.81
1003.359	2072.53
1003.654	2044.73
1003.949	2028.92
1004.243	1989.82
1004.538	2005.64
1004.832	1956.15
1005.127	1974.91
1005.421	1967.22
1005.715	1955.25
1006.009	1917.05
1006.304	1965.87
1006.598	1951.63
1006.892	1906.66
1007.186	1895.81
1007.48	1882.93
1007.773	1908.47
1008.067	1879.31
1008.361	1887.22
1008.655	1845.42
1008.948	1865.76
1009.242	1865.53
1009.535	1803.61
1009.829	1790.73
1010.122	1758.41
1010.415	1793.89
1010.708	1772.65
1011.001	1784.18
1011.295	1749.15
1011.588	1737.85
1011.881	1731.07
1012.173	1752.31
1012.466	1717.96
1012.759	1698.98
1013.052	1682.26
1013.344	1676.83
1013.637	1691.75
1013.93	1670.05
1014.222	1661.02
1014.514	1623.28
1014.807	1644.52
1015.099	1628.7
1015.391	1604.52
1015.683	1612.66
1015.976	1624.18
1016.268	1577.85
1016.56	1579.66
1016.851	1549.15
1017.143	1551.19
1017.435	1550.74
1017.727	1544.86
1018.018	1550.74
1018.31	1556.84
1018.602	1523.62
1018.893	1543.96
1019.185	1494.69
1019.476	1496.05
1019.767	1489.72
1020.058	1435.03
1020.35	1437.29
1020.641	1433.23
1020.932	1474.13
1021.223	1435.71
1021.514	1435.26
1021.804	1398.65
1022.095	1412.21
1022.386	1441.36
1022.677	1380.8
1022.967	1376.28
1023.258	1342.83
1023.548	1349.16
1023.839	1371.31
1024.129	1361.59
1024.419	1310.29
1024.709	1332.66
1025	1343.28
1025.29	1320.23
1025.58	1312.78
1025.87	1292.21
1026.16	1306.22
1026.449	1270.07
1026.739	1293.12
1027.029	1260.57
1027.319	1281.14
1027.608	1229.16
1027.898	1226.9
1028.187	1249.28
1028.477	1242.04
1028.766	1238.65
1029.055	1205.21
1029.344	1207.02
1029.634	1190.52
1029.923	1215.38
1030.212	1152.1
1030.501	1171.76
1030.79	1178.32
1031.078	1158.66
1031.367	1130.63
1031.656	1148.49
1031.945	1140.35
1032.233	1121.37
1032.522	1107.36
1032.81	1100.35
1033.099	1112.33
1033.387	1093.35
1033.675	1095.38
1033.963	1090.86
1034.251	1066
1034.54	1061.94
1034.828	1062.39
1035.116	1061.26
1035.403	1040.69
1035.691	1047.92
1035.979	1044.31
1036.267	1009.51
1036.554	1027.13
1036.842	1047.02
1037.129	1011.99
1037.417	1004.99
1037.704	1015.61
1037.992	1003.41
1038.279	991.43
1038.566	979.68
1038.853	979.68
1039.14	979.68
