Data from hue_26_FLMS001491_00012.txt Node
Date: Tue Feb 07 17:13:37 GMT 2017
User: dcchb
Spectrometer: FLMS00149
Trigger mode: 0
Integration Time (sec): 2.000000E-2
Scans to average: 10
Electric dark correction enabled: true
Nonlinearity correction enabled: false
Boxcar width: 0
XAxis mode: Wavelengths
Number of Pixels in Spectrum: 2048
>>>>>Begin Spectral Data<<<<<
341.393	-5.21
341.776	-5.21
342.16	-5.21
342.543	-57.41
342.927	-58.77
343.31	-76.85
343.693	-73.23
344.077	-82.05
344.46	-63.06
344.843	-64.65
345.226	-48.6
345.61	-38.66
345.993	-9.05
346.376	9.25
346.759	-3.86
347.142	23.71
347.525	47.67
347.908	60.55
348.291	82.24
348.674	101.9
349.057	134.67
349.44	125.63
349.823	138.29
350.206	169.02
350.588	195.01
350.971	226.19
351.354	206.76
351.737	244.05
352.119	241.34
352.502	274.55
352.884	285.4
353.267	301.45
353.65	315.91
354.032	292.86
354.414	298.28
354.797	328.56
355.179	335.8
355.562	325.18
355.944	326.76
356.326	324.72
356.709	345.06
357.091	342.58
357.473	330.37
357.855	357.04
358.238	363.59
358.62	340.77
359.002	341.45
359.384	340.99
359.766	363.14
360.148	350.03
360.53	340.54
360.912	330.37
361.294	331.05
361.676	341.67
362.057	339.19
362.439	324.72
362.821	336.25
363.203	325.85
363.584	305.51
363.966	327.89
364.348	317.72
364.729	330.15
365.111	325.4
365.493	326.76
365.874	315.23
366.256	316.59
366.637	335.12
367.019	324.5
367.4	314.33
367.781	309.58
368.163	322.92
368.544	328.56
368.925	318.17
369.306	306.19
369.688	303.71
370.069	311.62
370.45	323.37
370.831	331.73
371.212	331.28
371.593	314.78
371.974	306.64
372.355	331.05
372.736	331.28
373.117	318.85
373.498	316.59
373.879	315.91
374.26	329.02
374.641	310.71
375.021	321.11
375.402	312.07
375.783	335.8
376.163	322.46
376.544	334.21
376.925	316.14
377.305	330.82
377.686	333.08
378.066	323.59
378.447	332.41
378.827	336.7
379.208	330.82
379.588	327.43
379.968	348.45
380.349	335.12
380.729	349.58
381.109	348.23
381.489	337.6
381.87	328.56
382.25	324.05
382.63	368.56
383.01	328.11
383.39	339.64
383.77	359.07
384.15	333.76
384.53	352.07
384.91	364.27
385.29	374.89
385.67	354.1
386.049	358.62
386.429	357.26
386.809	376.25
387.189	374.21
387.568	371.5
387.948	348
388.328	350.26
388.707	343.71
389.087	369.69
389.466	386.19
389.846	389.35
390.225	373.99
390.605	360.43
390.984	372.18
391.363	352.97
391.743	374.89
392.122	369.69
392.501	368.11
392.881	382.57
393.26	370.82
393.639	380.99
394.018	376.7
394.397	392.07
394.776	393.2
395.155	391.84
395.534	361.78
395.913	377.6
396.292	374.89
396.671	396.81
397.05	379.86
397.429	410.37
397.808	393.87
398.186	393.2
398.565	380.31
398.944	406.3
399.323	403.14
399.701	396.59
400.08	408.11
400.458	398.85
400.837	433.65
401.215	419.86
401.594	408.79
401.972	409.69
402.351	408.56
402.729	427.09
403.107	404.5
403.486	430.93
403.864	439.3
404.242	413.31
404.62	443.14
404.999	418.28
405.377	442.91
405.755	439.07
406.133	450.82
406.511	435.45
406.889	430.03
407.267	458.5
407.645	447.43
408.023	427.55
408.401	431.61
408.779	443.14
409.156	476.81
409.534	461.89
409.912	446.08
410.29	461.89
410.667	470.03
411.045	457.6
411.422	466.64
411.8	470.26
412.178	492.18
412.555	472.06
412.933	499.86
413.31	471.61
413.687	479.3
414.065	486.3
414.442	483.59
414.819	500.99
415.197	503.48
415.574	482.69
415.951	511.84
416.328	523.59
416.705	514.55
417.082	533.53
417.46	534.21
417.837	521.55
418.214	533.98
418.591	517.94
418.967	500.31
419.344	527.66
419.721	523.14
420.098	533.98
420.475	547.09
420.852	535.11
421.228	499.18
421.605	526.3
421.982	572.17
422.358	545.96
422.735	557.49
423.111	560.88
423.488	556.81
423.864	571.27
424.241	588.44
424.617	572.4
424.994	575.11
425.37	595.22
425.746	588.67
426.123	564.72
426.499	593.87
426.875	583.02
427.251	600.65
427.627	597.48
428.003	592.74
428.379	612.63
428.756	593.87
429.132	625.28
429.507	619.63
429.883	630.48
430.259	654.43
430.635	654.66
431.011	654.43
431.387	639.97
431.763	658.5
432.138	673.19
432.514	671.61
432.89	686.75
433.265	677.71
433.641	685.62
434.016	683.81
434.392	707.31
434.767	706.41
435.143	698.95
435.518	703.92
435.894	719.97
436.269	723.36
436.644	711.61
437.02	734.43
437.395	720.87
437.77	743.7
438.145	748.89
438.52	783.02
438.895	750.47
439.271	763.36
439.646	776.46
440.021	777.59
440.395	786.63
440.77	766.07
441.145	791.6
441.52	816.24
441.895	787.31
442.27	807.87
442.645	795.22
443.019	815.33
443.394	813.75
443.769	807.42
444.143	788.21
444.518	837.93
444.892	834.77
445.267	805.39
445.641	848.1
446.016	844.71
446.39	837.48
446.764	839.96
447.139	872.28
447.513	868.66
447.887	854.88
448.262	865.05
448.636	869.34
449.01	886.29
449.384	876.8
449.758	878.38
450.132	900.75
450.506	892.62
450.88	918.15
451.254	914.31
451.628	949.57
452.002	936.91
452.376	937.36
452.75	956.57
453.123	967.87
453.497	952.73
453.871	982.78
454.244	996.57
454.618	978.04
454.992	1000.19
455.365	994.31
455.739	1017.81
456.112	1029.56
456.486	1006.97
456.859	1041.09
457.232	1056.91
457.606	1038.6
457.979	1050.35
458.352	1076.12
458.725	1085.61
459.099	1088.77
459.472	1121.76
459.845	1129.45
460.218	1144.59
460.591	1152.05
460.964	1115.21
461.337	1177.58
461.71	1199.5
462.083	1185.94
462.456	1202.44
462.829	1198.6
463.201	1230.46
463.574	1213.06
463.947	1242.44
464.32	1256
464.692	1270.46
465.065	1291.48
465.438	1293.74
465.81	1343.68
466.183	1322.66
466.555	1347.07
466.928	1363.11
467.3	1375.32
467.672	1412.83
468.045	1410.12
468.417	1451.47
468.789	1446.73
469.161	1472.72
469.534	1492.38
469.906	1486.5
470.278	1497.12
470.65	1538.02
471.022	1574.63
471.394	1583.9
471.766	1597.91
472.138	1614.86
472.51	1666.16
472.882	1671.81
473.253	1701.41
473.625	1718.58
473.997	1769.43
474.369	1773.5
474.74	1815.98
475.112	1838.58
475.484	1857.79
475.855	1899.82
476.227	1914.51
476.598	1969.43
476.97	1951.57
477.341	2043.1
477.713	2067.05
478.084	2092.13
478.455	2141.85
478.827	2163.09
479.198	2224.11
479.569	2229.98
479.94	2293.48
480.311	2347.49
480.682	2393.6
481.053	2421.39
481.424	2473.37
481.795	2561.73
482.166	2563.53
482.537	2613.48
482.908	2664.1
483.279	2698.67
483.65	2737.77
484.021	2834.04
484.391	2817.09
484.762	2877.65
485.133	2890.53
485.503	2953.81
485.874	3049.4
486.244	3063.41
486.615	3162.16
486.985	3196.51
487.356	3271.31
487.726	3299.79
488.097	3335.27
488.467	3392.44
488.837	3451.65
489.207	3518.54
489.578	3584.3
489.948	3614.81
490.318	3674.69
490.688	3702.04
491.058	3779.1
491.428	3829.04
491.798	3910.84
492.168	3974.57
492.538	4017.51
492.908	4006.89
493.278	4095.25
493.648	4054.79
494.017	4158.07
494.387	4210.72
494.757	4247.11
495.126	4307.44
495.496	4325.75
495.866	4404.62
496.235	4455.01
496.605	4470.83
496.974	4539.98
497.344	4563.26
497.713	4595.8
498.082	4660.65
498.452	4693.87
498.821	4696.13
499.19	4720.09
499.559	4724.16
499.928	4783.14
500.298	4868.78
500.667	4921.89
501.036	4890.93
501.405	4927.31
501.774	4992.17
502.143	4942.45
502.512	5032.4
502.88	5040.98
503.249	5112.85
503.618	5174.77
503.987	5135.9
504.356	5158.49
504.724	5246.4
505.093	5244.82
505.462	5269.23
505.83	5269.23
506.199	5356.68
506.567	5396
506.936	5404.14
507.304	5476.23
507.672	5463.35
508.041	5525.04
508.409	5537.92
508.777	5603.68
509.145	5637.58
509.514	5600.97
509.882	5652.04
510.25	5690.23
510.618	5692.72
510.986	5761.19
511.354	5786.05
511.722	5792.83
512.09	5843.9
512.458	5857.01
512.826	5856.78
513.193	5913.05
513.561	5977.23
513.929	5942.65
514.297	6051.58
514.664	6039.38
515.032	6100.84
515.4	6101.29
515.767	6100.62
516.135	6158.69
516.502	6106.27
516.869	6254.96
517.237	6191.01
517.604	6224.68
517.972	6285.02
518.339	6296.54
518.706	6395.3
519.073	6389.65
519.44	6401.17
519.808	6376.54
520.175	6419.7
520.542	6536.76
520.909	6456.54
521.276	6552.13
521.643	6545.35
522.009	6598.68
522.376	6631.9
522.743	6653.6
523.11	6704.44
523.477	6743.31
523.843	6799.58
524.21	6864.89
524.577	6959.35
524.943	6893.14
525.31	7002.97
525.676	6971.55
526.043	7053.59
526.409	7043.19
526.776	7083.42
527.142	7185.11
527.508	7235.73
527.874	7196.86
528.241	7296.29
528.607	7315.95
528.973	7323.18
529.339	7296.07
529.705	7416.29
530.071	7482.5
530.437	7528.6
530.803	7516.85
531.169	7574.93
531.535	7532.67
531.901	7582.16
532.267	7620.12
532.632	7703.29
532.998	7695.15
533.364	7806.11
533.73	7780.57
534.095	7805.88
534.461	7881.36
534.826	8000.91
535.192	7950.96
535.557	7963.17
535.923	7984.41
536.288	8053.56
536.653	8099.89
537.019	8064.18
537.384	8107.57
537.749	8168.81
538.114	8119.32
538.479	8163.61
538.845	8228.24
539.21	8231.41
539.575	8341.46
539.94	8304.17
540.305	8365.87
540.67	8388.69
541.034	8387.56
541.399	8447.45
541.764	8499.2
542.129	8527.67
542.494	8575.35
542.858	8612.41
543.223	8621.23
543.587	8650.61
543.952	8693.77
544.316	8724.28
544.681	8762.47
545.045	8804.95
545.41	8862.8
545.774	8849.24
546.138	8845.85
546.503	8953.42
546.867	8968.11
547.231	9005.85
547.595	8978.05
547.959	8995.46
548.324	9019.18
548.688	9036.81
549.052	9120.42
549.416	9157.03
549.779	9133.08
550.143	9210.14
550.507	9271.61
550.871	9332.4
551.235	9267.54
551.599	9333.3
551.962	9387.76
552.326	9409.91
552.689	9430.47
553.053	9419.85
553.417	9513.63
553.78	9595.21
554.143	9536.23
554.507	9568.77
554.87	9615.1
555.234	9699.17
555.597	9649.68
555.96	9703.91
556.323	9732.84
556.686	9706.85
557.05	9852.61
557.413	9830.24
557.776	9889.44
558.139	9994.98
558.502	9957.92
558.865	9980.74
559.228	10048.08
559.59	10060.06
559.953	10042.89
560.316	10201.3
560.679	10110.45
561.041	10200.85
561.404	10220.96
561.767	10334.86
562.129	10317.68
562.492	10434.51
562.854	10340.96
563.217	10335.31
563.579	10523.55
563.941	10434.74
564.304	10498.92
564.666	10571.69
565.028	10596.32
565.39	10631.34
565.753	10693.94
566.115	10693.94
566.477	10715.86
566.839	10787.05
567.201	10904.78
567.563	10872.92
567.925	10978
568.287	10963.31
568.648	11001.96
569.01	11081.5
569.372	11174.16
569.734	11096.42
570.095	11166.47
570.457	11253.25
570.819	11205.34
571.18	11284.21
571.542	11355.62
571.903	11365.79
572.265	11462.28
572.626	11455.73
572.987	11481.94
573.349	11648.95
573.71	11624.31
574.071	11757.42
574.432	11790.41
574.794	11863.18
575.155	11971.42
575.516	11922.61
575.877	11969.61
576.238	12097.52
576.599	12156.73
576.96	12245.54
577.32	12403.5
577.681	12451.64
578.042	12594.46
578.403	12594.91
578.763	12719.2
579.124	12852.3
579.485	12924.17
579.845	13050.04
580.206	13139.53
580.566	13253.2
580.927	13384.49
581.287	13515.56
581.648	13604.6
582.008	13801.88
582.368	13880.75
582.728	14096.11
583.089	14166.62
583.449	14342.43
583.809	14484.8
584.169	14658.58
584.529	14746.72
584.889	15070.1
585.249	15178.8
585.609	15340.37
585.969	15728.84
586.329	15731.32
586.688	16034.82
587.048	16228.49
587.408	16393.91
587.768	16578.08
588.127	16917.73
588.487	17002.02
588.846	17464.84
589.206	17509.13
589.565	17812.62
589.925	18150.24
590.284	18352.95
590.643	18676.78
591.003	18881.75
591.362	19194.74
591.721	19465.24
592.08	19783.19
592.44	20045.79
592.799	20306.8
593.158	20586.11
593.517	20921.7
593.876	21165.76
594.235	21455.92
594.593	21801.67
594.952	22085.96
595.311	22360.98
595.67	22658.83
596.029	23086.38
596.387	23304.01
596.746	23589.42
597.104	23785.8
597.463	24151.44
597.822	24504.43
598.18	24788.94
598.538	25072.77
598.897	25503.72
599.255	25641.57
599.613	26177.15
599.972	26242.69
600.33	26719.28
600.688	26878.83
601.046	27349.1
601.404	27626.83
601.762	27946.6
602.12	28227.27
602.478	28605.79
602.836	28906.8
603.194	28856.4
603.552	29299.78
603.91	29401.47
604.268	29936.15
604.625	30028.57
604.983	30578.39
605.341	30477.83
605.698	30865.84
606.056	31240.97
606.413	31303.8
606.771	31755.54
607.128	31946.94
607.485	31984.91
607.843	32277.56
608.2	32764.1
608.557	32959.35
608.914	33122.28
609.272	33539.89
609.629	33766.1
609.986	34155.47
610.343	34247.67
610.7	34542.13
611.057	34500.77
611.414	34868.9
611.771	35080.42
612.127	35315.22
612.484	35581.2
612.841	35830.91
613.198	35777.35
613.554	35974.41
613.911	36407.62
614.267	36505.01
614.624	36620.72
614.98	36879.47
615.337	37242.85
615.693	37243.75
616.05	37335.95
616.406	37792.89
616.762	37663.63
617.118	37765.55
617.475	37936.16
617.831	38146.33
618.187	38247.12
618.543	38393.55
618.899	38755.13
619.255	38842.13
619.611	38904.27
619.967	39191.27
620.323	39469.23
620.678	39352.4
621.034	39368.22
621.39	39620.64
621.746	39591.71
622.101	39973.62
622.457	39896.79
622.812	40092.04
623.168	40244.58
623.523	40331.81
623.879	40594.17
624.234	40346.95
624.589	40666.04
624.945	40557.34
625.3	40789.87
625.655	40835.07
626.01	40984.9
626.365	40792.13
626.72	40939.02
627.075	40984.44
627.43	40922.75
627.785	41087.27
628.14	41162.97
628.495	41506.01
628.85	41309.86
629.205	41403.19
629.559	41583.3
629.914	41441.83
630.269	41476.86
630.623	41674.82
630.978	41536.29
631.332	41737.42
631.687	41789.62
632.041	41611.32
632.396	41837.3
632.75	41661.49
633.104	41754.37
633.459	41711.43
633.813	41580.36
634.167	41703.75
634.521	41534.26
634.875	41779.23
635.229	41643.64
635.583	41709.62
635.937	41720.02
636.291	41710.75
636.645	41719.34
636.999	41531.32
637.352	41868.72
637.706	41625.56
638.06	41731.32
638.413	41672.79
638.767	41675.73
639.121	41854.93
639.474	41610.19
639.828	41634.6
640.181	41665.33
640.534	41624.88
640.888	41541.27
641.241	41504.66
641.594	41536.75
641.947	41643.64
642.301	41614.26
642.654	41603.86
643.007	41548.72
643.36	41473.7
643.713	41524.32
644.066	41705.33
644.419	41347.37
644.771	41178.34
645.124	40855.63
645.477	40681.63
645.83	40598.01
646.182	40439.83
646.535	40374.07
646.888	40460.16
647.24	40278.47
647.593	40568.41
647.945	40385.14
648.298	40182.66
648.65	40264.01
649.002	40052.04
649.355	40260.62
649.707	40235.09
650.059	40353.95
650.411	40890.89
650.763	40860.38
651.115	41325
651.467	41135.18
651.819	41080.71
652.171	41078
652.523	41088.85
652.875	41087.72
653.227	40950.32
653.578	41130.66
653.93	41131.56
654.282	40814.51
654.633	40918.23
654.985	40939.47
655.337	40973.37
655.688	40961.17
656.039	41039.36
656.391	40674.85
656.742	40807.05
657.094	40904
657.445	40995.52
657.796	40884.33
658.147	40749.42
658.498	40757.11
658.849	40800.95
659.2	40772.93
659.551	40729.99
659.902	40885.92
660.253	40676.66
660.604	40795.98
660.955	40529.77
661.306	40730.89
661.656	40724.79
662.007	40693.83
662.358	40656.54
662.708	40682.31
663.059	40710.55
663.409	40438.24
663.76	40772.7
664.11	40716.88
664.461	40713.94
664.811	40729.99
665.161	40797.33
665.511	40595.98
665.862	40709.88
666.212	40793.26
666.562	40769.76
666.912	40681.85
667.262	40573.83
667.612	40595.53
667.962	40619.48
668.312	40638.47
668.662	40784
669.011	40647.5
669.361	40591.69
669.711	40487.06
670.06	40574.51
670.41	40383.56
670.76	40400.28
671.109	40523.21
671.459	40431.92
671.808	40376.78
672.157	40409.32
672.507	40303.33
672.856	40183.79
673.205	40516.43
673.554	40489.54
673.904	40308.53
674.253	40587.62
674.602	40388.53
674.951	39912.83
675.3	39636.23
675.649	40360.96
675.998	40235.31
676.346	40339.26
676.695	40496.55
677.044	40080.06
677.393	40226.27
677.741	40273.5
678.09	40095.43
678.438	39970.46
678.787	40029.44
679.135	40079.84
679.484	39772.95
679.832	39922.1
680.181	39844.59
680.529	39763.46
680.877	39751.71
681.225	39673.07
681.573	39919.84
681.922	39696.34
682.27	39594.2
682.618	39550.36
682.966	39493.64
683.314	39453.41
683.661	39403.02
684.009	39225.4
684.357	39205.73
684.705	39233.53
685.053	39224.27
685.4	39120.54
685.748	39049.81
686.095	38965.29
686.443	38801.23
686.79	38800.1
687.138	38940.88
687.485	38756.71
687.832	38712.41
688.18	38697.73
688.527	38508.8
688.874	38496.37
689.221	38436.49
689.568	38274.46
689.915	38159.66
690.262	38223.84
690.609	38061.13
690.956	38089.61
691.303	38065.43
691.65	37902.49
691.997	37924.86
692.344	37712.89
692.69	37613.23
693.037	37573.91
693.383	37349.29
693.73	37362.17
694.077	37226.35
694.423	37319.46
694.769	37093.25
695.116	36989.07
695.462	36950.88
695.808	36858.23
696.155	36928.05
696.501	36644.45
696.847	36588.4
697.193	36310.67
697.539	36559.93
697.885	36270.44
698.231	36223.21
698.577	36181.18
698.923	36226.15
699.269	35978.7
699.614	35750.68
699.96	35870.23
700.306	35739.61
700.651	35630.46
700.997	35590.24
701.342	35492.61
701.688	35259.17
702.033	35236.57
702.379	35239.74
702.724	35131.27
703.069	35301.43
703.415	34756.59
703.76	34814.44
704.105	34889.01
704.45	34693.76
704.795	34477.72
705.14	34463.26
705.485	34511.39
705.83	34259.2
706.175	34268.46
706.52	34285.64
706.865	34182.14
707.209	34135.36
707.554	33967.68
707.899	34095.36
708.243	33806.1
708.588	33824.41
708.932	33580.8
709.277	33503.96
709.621	33685.65
709.966	33350.3
710.31	33504.19
710.654	33020.81
710.998	33192.79
711.342	33220.81
711.687	33058.78
712.031	32974.49
712.375	32907.14
712.719	32965.45
713.063	32914.15
713.407	33026.69
713.75	32926.13
714.094	32773.14
714.438	32613.59
714.782	32589.19
715.125	32532.24
715.469	32574.95
715.812	32290.89
716.156	32262.64
716.499	32202.75
716.843	32255.18
717.186	32000.05
717.53	32159.59
717.873	32063.55
718.216	32022.19
718.559	31972.7
718.902	31641.64
719.246	31823.33
719.589	31647.97
719.932	31604.13
720.275	31565.94
720.617	31461.08
720.96	31465.6
721.303	31522.32
721.646	31463.11
721.989	31180.18
722.331	31317.35
722.674	31357.35
723.016	31337.24
723.359	31297.69
723.701	31320.07
724.044	31118.04
724.386	30980.87
724.729	31140.86
725.071	30940.87
725.413	30967.31
725.755	30895.9
726.097	30817.03
726.439	30684.15
726.782	30739.52
727.124	30622.68
727.465	30440.77
727.807	30528.67
728.149	30495.23
728.491	30489.81
728.833	30427.89
729.175	30365.52
729.516	30355.12
729.858	30257.04
730.199	30287.55
730.541	30241.68
730.882	30105.18
731.224	30226.76
731.565	29941.35
731.906	30051.17
732.248	29958.75
732.589	29854.12
732.93	29830.16
733.271	29807.56
733.612	29731.18
733.953	29815.93
734.294	29546.33
734.635	29602.37
734.976	29665.42
735.317	29508.59
735.658	29541.81
735.999	29662.71
736.339	29547.68
736.68	29543.16
737.021	29498.87
737.361	29460.91
737.702	29428.14
738.042	29364.64
738.383	29334.81
738.723	29358.54
739.063	29307.01
739.404	29310.63
739.744	29102.5
740.084	29107.92
740.424	29088.03
740.764	28913.8
741.104	29002.16
741.444	28978.88
741.784	28803.3
742.124	28833.58
742.464	28757.65
742.804	28780.47
743.143	28648.72
743.483	28703.41
743.823	28554.49
744.162	28647.37
744.502	28557.2
744.841	28392.91
745.181	28582.96
745.52	28501.38
745.86	28427.71
746.199	28254.61
746.538	28394.49
746.877	28437.43
747.216	28303.65
747.556	28299.13
747.895	28291.9
748.234	28077.21
748.573	28092.81
748.911	28068.63
749.25	28042.41
749.589	27978.01
749.928	28046.93
750.267	28088.06
750.605	27919.7
750.944	27870.44
751.283	27738.92
751.621	27795.87
751.96	27633.84
752.298	27641.07
752.636	27734.62
752.975	27548.41
753.313	27486.27
753.651	27499.15
753.989	27307.06
754.327	27303.45
754.666	27171.47
755.004	27332.6
755.342	27295.54
755.679	27145.03
756.017	26993.85
756.355	26991.82
756.693	26912.27
757.031	27032.95
757.368	26894.65
757.706	26798.38
758.044	26728.77
758.381	26736.68
758.719	26694.2
759.056	26630.7
759.394	26593.86
759.731	26518.84
760.068	26311.84
760.405	26405.62
760.743	26239.52
761.08	26214.44
761.417	26081.11
761.754	26111.62
762.091	26036.82
762.428	25884.73
762.765	25788.46
763.102	25830.04
763.438	25669.14
763.775	25552.76
764.112	25721.8
764.449	25597.28
764.785	25384.18
765.122	25297.85
765.458	25209.27
765.795	25299.43
766.131	25267.8
766.467	25078.65
766.804	24952.55
767.14	24855.38
767.476	24845.21
767.812	24708.26
768.148	24716.17
768.485	24603.41
768.821	24430.53
769.157	24380.36
769.492	24373.58
769.828	24320.93
770.164	24124.55
770.5	24105.34
770.836	24070.77
771.171	23989.19
771.507	23901.5
771.842	23725.01
772.178	23755.75
772.513	23751.68
772.849	23554.39
773.184	23476.2
773.519	23436.88
773.855	23261.3
774.19	23264.68
774.525	23146.27
774.86	23153.5
775.195	23109.21
775.53	22974.75
775.865	22821.98
776.2	22732.27
776.535	22591.93
776.87	22494.99
777.205	22489.11
777.539	22422.9
777.874	22464.71
778.209	22235.56
778.543	22235.56
778.878	22106.07
779.212	22089.35
779.547	21872.63
779.881	21977.94
780.215	21841.45
780.55	21907.43
780.884	21564.39
781.218	21637.16
781.552	21673.54
781.886	21389.25
782.22	21375.92
782.554	21241.01
782.888	21064.97
783.222	21042.82
783.556	20897.06
783.889	20901.13
784.223	20713.34
784.557	20822.04
784.89	20765.99
785.224	20563.51
785.557	20417.08
785.891	20469.73
786.224	20427.7
786.558	20402.84
786.891	20212.79
787.224	20134.37
787.557	20096.41
787.891	20036.97
788.224	20058.67
788.557	19997.65
788.89	19925.56
789.223	19937.77
789.556	19710.65
789.888	19675.85
790.221	19617.78
790.554	19508.17
790.887	19518.12
791.219	19432.02
791.552	19394.28
791.884	19304.79
792.217	19212.59
792.549	19164
792.882	19087.39
793.214	19016.21
793.546	19028.86
793.879	18853.05
794.211	18840.39
794.543	18865.48
794.875	18711.36
795.207	18728.53
795.539	18687.18
795.871	18621.19
796.203	18419.61
796.535	18338.71
796.867	18343.46
797.198	18190.02
797.53	18312.72
797.862	18105.72
798.193	18153.63
798.525	17981.43
798.856	18043.35
799.188	17792.51
799.519	17756.13
799.85	17729.46
800.182	17767.65
800.513	17753.87
800.844	17517.27
801.175	17674.32
801.506	17589.13
801.837	17542.35
802.168	17595.23
802.499	17371.96
802.83	17258.52
803.161	17215.13
803.491	17244.5
803.822	17233.43
804.153	17170.38
804.483	17077.95
804.814	16987.34
805.145	16885.42
805.475	17012.19
805.805	16847.9
806.136	16820.33
806.466	16827.11
806.796	16760
807.126	16661.47
807.457	16475.48
807.787	16578.53
808.117	16522.26
808.447	16447.24
808.777	16524.07
809.107	16303.96
809.436	16372.44
809.766	16270.07
810.096	16231.88
810.426	16222.84
810.755	16268.03
811.085	16106
811.414	16151.43
811.744	15968.61
812.073	15932.45
812.403	15913.92
812.732	15903.97
813.061	15879.12
813.39	15786.24
813.719	15771.1
814.049	15811.77
814.378	15755.73
814.707	15682.74
815.036	15599.8
815.365	15536.3
815.693	15501.27
816.022	15424.89
816.351	15425.57
816.68	15302.41
817.008	15409.3
817.337	15189.87
817.665	15305.8
817.994	15279.81
818.322	15181.73
818.651	15163.88
818.979	15110.77
819.307	15116.42
819.636	14975.19
819.964	14993.49
820.292	15071.68
820.62	15009.08
820.948	14901.29
821.276	14961.85
821.604	14918.69
821.932	14950.78
822.259	14984.45
822.587	14968.86
822.915	14910.1
823.243	14929.76
823.57	14896.32
823.898	14868.75
824.225	14854.06
824.553	14846.38
824.88	14951.23
825.207	14926.83
825.535	14903.1
825.862	14842.99
826.189	14846.6
826.516	14922.31
826.843	14893.38
827.17	14908.29
827.497	14988.97
827.824	14877.33
828.151	14970.89
828.478	14932.93
828.805	14926.6
829.131	14891.12
829.458	14847.51
829.785	14866.04
830.111	14927.5
830.438	14941.06
830.764	14911.46
831.09	14826.04
831.417	14704.91
831.743	14831.46
832.069	14828.75
832.395	14753.5
832.722	14849.54
833.048	14747.85
833.374	14764.57
833.7	14661.97
834.026	14716.21
834.351	14745.59
834.677	14778.13
835.003	14684.57
835.329	14614.97
835.654	14672.14
835.98	14571.81
836.306	14580.62
836.631	14509.43
836.956	14637.34
837.282	14620.39
837.607	14445.26
837.932	14550.34
838.258	14428.31
838.583	14418.36
838.908	14406.84
839.233	14364.81
839.558	14458.59
839.883	14310.57
840.208	14296.11
840.533	14269.22
840.858	14297.01
841.182	14260.4
841.507	14298.82
841.832	14188.09
842.156	14203
842.481	14141.08
842.805	14099.28
843.13	14137.24
843.454	14066.96
843.778	13968.88
844.103	13855.89
844.427	13960.3
844.751	13911.03
845.075	13848.89
845.399	13858.15
845.723	13729.12
846.047	13746.74
846.371	13700.19
846.695	13658.84
847.019	13543.13
847.343	13450.48
847.666	13404.38
847.99	13395.34
848.313	13280.99
848.637	13282.12
848.96	13315.34
849.284	13229.02
849.607	13159.87
849.931	13177.72
850.254	12976.14
850.577	12962.36
850.9	12841
851.223	12877.61
851.546	12736.37
851.869	12718.3
852.192	12691.4
852.515	12621.12
852.838	12616.38
853.161	12589.49
853.483	12595.13
853.806	12455.93
854.129	12451.41
854.451	12401.24
854.774	12324.18
855.096	12320.57
855.419	12241.47
855.741	12274.24
856.063	12152.43
856.385	12124.86
856.708	12102.49
857.03	12056.84
857.352	12111.08
857.674	12116.73
857.996	11930.97
858.318	11935.94
858.64	11885.78
858.961	11860.69
859.283	11819.79
859.605	11788.15
859.926	11826.34
860.248	11669.96
860.57	11727.81
860.891	11713.12
861.212	11632
861.534	11553.58
861.855	11523.07
862.176	11559.68
862.498	11585.9
862.819	11590.87
863.14	11503.41
863.461	11495.73
863.782	11494.37
864.103	11468.84
864.424	11385.22
864.745	11388.84
865.065	11343.19
865.386	11345.9
865.707	11359.24
866.027	11326.47
866.348	11272.91
866.668	11306.36
866.989	11277.43
867.309	11152.01
867.63	11189.97
867.95	11201.73
868.27	11125.57
868.59	11129.41
868.91	11054.38
869.23	11161.27
869.55	11006.48
869.87	11065.01
870.19	11129.86
870.51	11077.89
870.83	11092.35
871.15	10952.24
871.469	10983.43
871.789	10997.89
872.109	10988.62
872.428	10832.24
872.748	10958.12
873.067	10900.49
873.386	10885.8
873.706	10834.05
874.025	10826.59
874.344	10762.87
874.663	10818.46
874.982	10775.97
875.301	10717.22
875.62	10709.31
875.939	10696.65
876.258	10720.16
876.577	10646.94
876.896	10582.53
877.214	10569.43
877.533	10644.68
877.852	10615.07
878.17	10640.61
878.489	10598.58
878.807	10569.65
879.125	10501.18
879.444	10587.96
879.762	10525.36
880.08	10522.65
880.398	10392.71
880.716	10423.89
881.034	10439.26
881.352	10432.25
881.67	10318.58
881.988	10367.17
882.306	10388.41
882.624	10345.7
882.941	10310.9
883.259	10250.79
883.577	10141.64
883.894	10170.79
884.212	10174.86
884.529	10207.18
884.846	10170.57
885.164	10131.02
885.481	10051.7
885.798	10120.17
886.115	10079.49
886.432	10044.24
886.75	9929.67
887.067	9965.15
887.383	9939.61
887.7	9932.61
888.017	9875.66
888.334	9894.19
888.651	9847.86
888.967	9832.72
889.284	9762.44
889.6	9715.89
889.917	9711.59
890.233	9704.36
890.55	9684.93
890.866	9686.06
891.182	9693.29
891.498	9611.48
891.815	9538.49
892.131	9574.42
892.447	9586.17
892.763	9519.96
893.079	9468.66
893.395	9442.68
893.71	9381.21
894.026	9443.35
894.342	9382.11
894.657	9318.84
894.973	9363.81
895.289	9365.39
895.604	9362.23
895.92	9235
896.235	9095.11
896.55	9184.38
896.865	9056.02
897.181	9096.02
897.496	9104.61
897.811	9008.34
898.126	8989.81
898.441	8922.01
898.756	9026.87
899.071	8904.61
899.386	8925.4
899.7	8782.58
900.015	8826.42
900.33	8696.48
900.644	8739.19
900.959	8730.15
901.273	8747.78
901.588	8640.21
901.902	8683.15
902.216	8647.44
902.531	8619.87
902.845	8567.44
903.159	8435.92
903.473	8465.53
903.787	8410.16
904.101	8444.96
904.415	8439.31
904.729	8436.6
905.042	8331.97
905.356	8364.06
905.67	8262.37
905.984	8320.9
906.297	8174.01
906.611	8142.82
906.924	8149.38
907.237	8144.63
907.551	8075.71
907.864	8026.44
908.177	8061.92
908.491	8003.39
908.804	7917.97
909.117	7953.68
909.43	7880.46
909.743	7842.94
910.056	7893.56
910.368	7799.33
910.681	7776.05
910.994	7758.43
911.307	7654.47
911.619	7634.81
911.932	7622.38
912.244	7582.84
912.557	7585.1
912.869	7530.86
913.181	7471.65
913.494	7499.68
913.806	7382.16
914.118	7374.71
914.43	7343.75
914.742	7339.91
915.054	7279.34
915.366	7290.19
915.678	7265.33
915.99	7239.34
916.302	7202.51
916.613	7146.46
916.925	7168.16
917.236	7153.02
917.548	7076.41
917.859	7130.65
918.171	7076.18
918.482	6939.24
918.794	6969.75
919.105	6976.3
919.416	6878.9
919.727	6899.01
920.038	6863.99
920.349	6852.24
920.66	6793.48
920.971	6759.36
921.282	6766.36
921.593	6676.65
921.903	6627.16
922.214	6651.79
922.525	6627.61
922.835	6565.46
923.146	6568.4
923.456	6544.9
923.767	6493.6
924.077	6483.66
924.387	6430.55
924.697	6430.1
925.008	6431.91
925.318	6355.3
925.628	6346.03
925.938	6331.57
926.248	6296.54
926.558	6209.31
926.867	6209.77
927.177	6172.48
927.487	6193.5
927.796	6099.03
928.106	6163.44
928.416	6146.04
928.725	6073.72
929.034	5994.63
929.344	6049.32
929.653	6028.08
929.962	5969.32
930.271	5939.72
930.581	5936.55
930.89	5917.8
931.199	5876.44
931.508	5889.32
931.817	5822.43
932.125	5740.17
932.434	5819.04
932.743	5772.49
933.051	5711.02
933.36	5664.24
933.669	5652.94
933.977	5665.6
934.286	5636.9
934.594	5634.19
934.902	5548.77
935.21	5542.44
935.519	5530.24
935.827	5578.37
936.135	5498.15
936.443	5449.33
936.751	5424.93
937.059	5412.5
937.367	5449.56
937.674	5385.16
937.982	5406.4
938.29	5315.78
938.597	5334.53
938.905	5256.57
939.213	5226.29
939.52	5194.2
939.827	5226.29
940.135	5212.73
940.442	5167.53
940.749	5170.7
941.056	5115.56
941.363	5087.08
941.67	5059.06
941.977	5038.05
942.284	5057.03
942.591	5048.21
942.898	5036.69
943.205	5009.12
943.511	4956.47
943.818	4921.21
944.125	4938.84
944.431	4881.67
944.738	4844.83
945.044	4869.91
945.35	4831.05
945.657	4765.28
945.963	4798.5
946.269	4772.97
946.575	4765.06
946.881	4737.94
947.187	4704.49
947.493	4686.42
947.799	4643.48
948.105	4681.9
948.41	4563.93
948.716	4636.93
949.022	4613.88
949.327	4590.15
949.633	4529.58
949.938	4531.39
950.244	4507.89
950.549	4512.18
950.854	4425.41
951.16	4444.39
951.465	4431.06
951.77	4409.14
952.075	4381.79
952.38	4390.38
952.685	4331.62
952.99	4291.17
953.294	4302.02
953.599	4262.47
953.904	4287.56
954.209	4188.8
954.513	4219.54
954.818	4177.96
955.122	4226.77
955.426	4162.36
955.731	4142.02
956.035	4159.88
956.339	4165.53
956.643	4115.36
956.948	4057.73
957.252	4053.89
957.556	4102.7
957.86	4004.17
958.163	3995.59
958.467	3962.37
958.771	3961.69
959.075	3990.39
959.378	3909.26
959.682	3929.6
959.985	3938.64
960.289	3921.69
960.592	3871.07
960.896	3858.64
961.199	3842.6
961.502	3817.06
961.805	3818.64
962.108	3759.21
962.411	3784.97
962.714	3740
963.017	3745.88
963.32	3747.68
963.623	3735.93
963.926	3744.07
964.228	3671.3
964.531	3670.62
964.833	3656.84
965.136	3598.76
965.438	3645.54
965.741	3611.42
966.043	3577.52
966.345	3560.57
966.648	3552.21
966.95	3542.27
967.252	3500.23
967.554	3481.48
967.856	3504.98
968.158	3477.18
968.46	3457.3
968.761	3481.25
969.063	3418.65
969.365	3427.69
969.666	3418.88
969.968	3374.13
970.269	3369.39
970.571	3361.25
970.872	3318.32
971.174	3332.55
971.475	3335.94
971.776	3334.36
972.077	3304.98
972.378	3268.37
972.679	3262.72
972.98	3264.98
973.281	3242.39
973.582	3227.02
973.883	3181.6
974.183	3185.66
974.484	3179.79
974.785	3143.86
975.085	3145.89
975.386	3147.7
975.686	3100.7
975.986	3093.46
976.287	3090.07
976.587	3062.73
976.887	3068.38
977.187	3061.83
977.487	3031.54
977.787	3020.25
978.087	2983.41
978.387	3020.25
978.687	2962.62
978.987	2977.31
979.286	2961.49
979.586	2981.38
979.885	2928.5
980.185	2913.81
980.484	2923.52
980.784	2914.03
981.083	2927.14
981.382	2855.28
981.682	2866.8
981.981	2832
982.28	2849.4
982.579	2831.55
982.878	2796.07
983.177	2765.56
983.475	2839.46
983.774	2790.19
984.073	2749.29
984.372	2741.38
984.67	2714.72
984.969	2716.75
985.267	2712.91
985.566	2753.59
985.864	2684.21
986.162	2707.49
986.461	2683.76
986.759	2661.38
987.057	2639.46
987.355	2605.57
987.653	2618
987.951	2568.51
988.249	2575.06
988.547	2592.69
988.844	2527.38
989.142	2571.22
989.44	2497.77
989.737	2516.76
990.035	2539.81
990.332	2543.65
990.63	2488.51
990.927	2454.61
991.224	2493.03
991.521	2469.98
991.819	2456.42
992.116	2448.28
992.413	2425.68
992.71	2413.48
993.006	2392.47
993.303	2376.65
993.6	2379.81
993.897	2371.45
994.193	2373.26
994.49	2336.2
994.787	2344.11
995.083	2357.89
995.379	2298.23
995.676	2292.13
995.972	2322.64
996.268	2313.82
996.565	2264.56
996.861	2256.42
997.157	2263.2
997.453	2232.02
997.749	2240.38
998.044	2237.67
998.34	2182.08
998.636	2205.58
998.932	2188.85
999.227	2159.48
999.523	2155.64
999.818	2138.01
1000.114	2118.57
1000.409	2123.55
1000.704	2131.23
1001	2085.13
1001.295	2056.2
1001.59	2075.86
1001.885	2055.07
1002.18	2073.6
1002.475	2059.59
1002.77	2038.58
1003.065	1995.41
1003.359	1970.33
1003.654	1997.22
1003.949	1995.87
1004.243	2027.73
1004.538	1935.53
1004.832	1963.1
1005.127	1926.26
1005.421	1944.79
1005.715	1943.89
1006.009	1910.67
1006.304	1915.64
1006.598	1876.77
1006.892	1874.29
1007.186	1853.95
1007.48	1873.38
1007.773	1878.35
1008.067	1844.68
1008.361	1836.55
1008.655	1822.08
1008.948	1839.03
1009.242	1832.03
1009.535	1809.66
1009.829	1799.94
1010.122	1781.41
1010.415	1761.75
1010.708	1753.16
1011.001	1733.05
1011.295	1721.3
1011.588	1729.43
1011.881	1729.88
1012.173	1705.48
1012.466	1665.25
1012.759	1675.65
1013.052	1678.36
1013.344	1668.87
1013.637	1660.28
1013.93	1657.12
1014.222	1638.36
1014.514	1645.82
1014.807	1613.28
1015.099	1587.06
1015.391	1589.32
1015.683	1580.96
1015.976	1603.79
1016.268	1568.98
1016.56	1577.35
1016.851	1549.78
1017.143	1566.72
1017.435	1519.95
1017.727	1519.27
1018.018	1501.64
1018.31	1508.65
1018.602	1500.06
1018.893	1453.51
1019.185	1482.88
1019.476	1479.27
1019.767	1439.5
1020.058	1469.33
1020.35	1458.03
1020.641	1442.89
1020.932	1398.82
1021.223	1416.45
1021.514	1398.59
1021.804	1384.81
1022.095	1372.83
1022.386	1366.28
1022.677	1387.97
1022.967	1331.02
1023.258	1345.71
1023.548	1353.62
1023.839	1354.53
1024.129	1345.71
1024.419	1312.04
1024.709	1307.52
1025	1300.06
1025.29	1285.6
1025.58	1284.47
1025.87	1246.96
1026.16	1257.81
1026.449	1268.2
1026.739	1219.39
1027.029	1248.54
1027.319	1229.33
1027.608	1229.78
1027.898	1240.18
1028.187	1210.8
1028.477	1219.16
1028.766	1187.07
1029.055	1180.52
1029.344	1179.39
1029.634	1163.57
1029.923	1143.46
1030.212	1142.1
1030.501	1166.96
1030.79	1135.32
1031.078	1127.64
1031.367	1112.27
1031.656	1133.29
1031.945	1095.55
1032.233	1105.72
1032.522	1091.26
1032.81	1080.64
1033.099	1089.67
1033.387	1072.73
1033.675	1079.73
1033.963	1077.92
1034.251	1061.43
1034.54	1035.89
1034.828	1043.8
1035.116	1010.35
1035.403	1050.35
1035.691	1014.2
1035.979	1024.59
1036.267	1011.94
1036.554	990.02
1036.842	1002.67
1037.129	978.04
1037.417	983.01
1037.704	992.5
1037.992	971.49
1038.279	953.18
1038.566	936.68
1038.853	936.68
1039.14	936.68
