Data from hue_60_FLMS001491_34.txt Node
Date: Mon Feb 06 15:17:17 GMT 2017
User: dcchb
Spectrometer: FLMS00149
Trigger mode: 0
Integration Time (sec): 2.000000E-2
Scans to average: 10
Electric dark correction enabled: true
Nonlinearity correction enabled: false
Boxcar width: 0
XAxis mode: Wavelengths
Number of Pixels in Spectrum: 2048
>>>>>Begin Spectral Data<<<<<
341.393	19.15
341.776	19.15
342.16	19.15
342.543	-55.42
342.927	-66.04
343.31	-65.37
343.693	-65.14
344.077	-55.65
344.46	-67.4
344.843	-40.28
345.226	-43.45
345.61	-40.96
345.993	-22.2
346.376	-2.99
346.759	8.98
347.142	21.64
347.525	22.32
347.908	67.51
348.291	94.4
348.674	85.59
349.057	102.99
349.44	144.8
349.823	145.93
350.206	162.65
350.588	201.07
350.971	211.24
351.354	218.92
351.737	253.72
352.119	236.32
352.502	283.1
352.884	277.9
353.267	303.44
353.65	298.01
354.032	319.03
354.414	314.74
354.797	321.29
355.179	308.64
355.562	337.34
355.944	342.76
356.326	340.27
356.709	328.75
357.091	344.12
357.473	344.79
357.855	353.83
358.238	344.34
358.62	348.63
359.002	346.15
359.384	348.41
359.766	362.42
360.148	335.3
360.53	341.63
360.912	326.04
361.294	345.7
361.676	333.49
362.057	323.78
362.439	343.21
362.821	352.7
363.203	336.21
363.584	335.53
363.966	317.9
364.348	338.92
364.729	312.93
365.111	310.67
365.493	326.49
365.874	314.74
366.256	318.58
366.637	342.53
367.019	325.81
367.4	293.04
367.781	331.01
368.163	317.68
368.544	309.77
368.925	317.45
369.306	314.51
369.688	311.57
370.069	316.09
370.45	321.52
370.831	314.51
371.212	309.54
371.593	319.03
371.974	310.22
372.355	307.51
372.736	300.73
373.117	322.87
373.498	341.4
373.879	319.94
374.26	317
374.641	337.11
375.021	323.55
375.402	303.21
375.783	314.06
376.163	319.48
376.544	323.78
376.925	330.1
377.305	336.43
377.686	327.39
378.066	335.98
378.447	317.45
378.827	333.49
379.208	324.45
379.588	346.15
379.968	336.21
380.349	327.17
380.729	333.49
381.109	329.43
381.489	326.49
381.87	343.21
382.25	331.23
382.63	344.12
383.01	336.66
383.39	363.1
383.77	329.88
384.15	345.47
384.53	330.56
384.91	349.76
385.29	357
385.67	347.5
386.049	359.93
386.429	364.91
386.809	337.34
387.189	332.14
387.568	362.87
387.948	345.25
388.328	353.61
388.707	358.58
389.087	354.96
389.466	336.43
389.846	369.2
390.225	356.54
390.605	361.74
390.984	354.96
391.363	343.44
391.743	342.99
392.122	356.09
392.501	358.35
392.881	347.73
393.26	365.81
393.639	370.56
394.018	357
394.397	365.58
394.776	372.36
395.155	381.85
395.534	381.4
395.913	382.31
396.292	384.11
396.671	391.35
397.05	372.36
397.429	366.04
397.808	376.2
398.186	386.37
398.565	371.46
398.944	387.96
399.323	373.27
399.701	368.97
400.08	385.47
400.458	379.59
400.837	382.08
401.215	401.74
401.594	391.35
401.972	383.89
402.351	408.07
402.729	402.19
403.107	399.26
403.486	368.52
403.864	406.94
404.242	403.77
404.62	387.96
404.999	381.63
405.377	406.49
405.755	418.24
406.133	432.02
406.511	410.1
406.889	412.81
407.267	416.43
407.645	400.16
408.023	413.04
408.401	422.53
408.779	430.89
409.156	432.7
409.534	412.81
409.912	423.66
410.29	427.73
410.667	444.45
411.045	466.6
411.422	445.81
411.8	456.43
412.178	435.19
412.555	440.84
412.933	465.69
413.31	464.34
413.687	462.08
414.065	471.12
414.442	474.51
414.819	447.16
415.197	457.11
415.574	480.83
415.951	453.49
416.328	477.22
416.705	462.76
417.082	448.97
417.46	489.42
417.837	477.22
418.214	464.34
418.591	486.48
418.967	491.91
419.344	464.79
419.721	500.5
420.098	503.43
420.475	486.26
420.852	487.39
421.228	494.39
421.605	505.24
421.982	507.73
422.358	516.77
422.735	493.04
423.111	505.47
423.488	527.61
423.864	536.2
424.241	543.43
424.617	507.5
424.994	510.89
425.37	528.52
425.746	529.42
426.123	519.48
426.499	545.69
426.875	541.85
427.251	534.62
427.627	543.88
428.003	547.95
428.379	557.67
428.756	584.33
429.132	567.39
429.507	556.99
429.883	563.77
430.259	576.43
430.635	563.54
431.011	574.17
431.387	605.35
431.763	597.22
432.138	589.76
432.514	608.97
432.89	605.58
433.265	621.62
433.641	610.32
434.016	611.45
434.392	623.43
434.767	621.62
435.143	629.53
435.518	634.96
435.894	633.83
436.269	648.06
436.644	648.29
437.02	671.11
437.395	638.34
437.77	656.65
438.145	665.24
438.52	680.83
438.895	680.6
439.271	672.24
439.646	677.67
440.021	677.44
440.395	691.9
440.77	709.3
441.145	708.63
441.52	703.2
441.895	680.38
442.27	721.96
442.645	723.77
443.019	724.67
443.394	724.22
443.769	711.79
444.143	740.04
444.518	744.1
444.892	722.18
445.267	738.91
445.641	735.74
446.016	751.11
446.39	757.66
446.764	762.64
447.139	760.83
447.513	780.04
447.887	760.83
448.262	767.15
448.636	770.09
449.01	771.67
449.384	780.26
449.758	775.29
450.132	791.56
450.506	780.49
450.88	766.48
451.254	797.89
451.628	810.09
452.002	823.42
452.376	782.07
452.75	839.02
453.123	846.25
453.497	847.83
453.871	831.11
454.244	857.55
454.618	850.99
454.992	852.35
455.365	874.95
455.739	902.52
456.112	911.78
456.486	908.17
456.859	884.21
457.232	906.36
457.606	932.12
457.979	912.01
458.352	959.69
458.725	959.01
459.099	967.6
459.472	985.45
459.845	976.64
460.218	1005.79
460.591	997.21
460.964	1003.08
461.337	1037.2
461.71	1062.51
462.083	1072.46
462.456	1075.85
462.829	1083.08
463.201	1076.75
463.574	1076.98
463.947	1137.31
464.32	1117.2
464.692	1133.92
465.065	1150.2
465.438	1167.14
465.81	1182.96
466.183	1214.83
466.555	1229.52
466.928	1259.57
467.3	1233.58
467.672	1271.55
468.045	1293.24
468.417	1291.66
468.789	1311.32
469.161	1350.87
469.534	1364.88
469.906	1401.04
470.278	1420.47
470.65	1420.47
471.022	1460.24
471.394	1513.12
471.766	1527.13
472.138	1579.79
472.51	1602.61
472.882	1608.71
473.253	1623.86
473.625	1663.18
473.997	1721.93
474.369	1753.8
474.74	1776.85
475.112	1827.69
475.484	1858.43
475.855	1955.82
476.227	1989.04
476.598	2055.03
476.97	2073.79
477.341	2143.62
477.713	2209.38
478.084	2229.49
478.455	2315.14
478.827	2372.54
479.198	2425.87
479.569	2461.57
479.94	2592.19
480.311	2622.7
480.682	2704.28
481.053	2786.31
481.424	2902.92
481.795	2962.8
482.166	3050.71
482.537	3089.58
482.908	3267.2
483.279	3255.23
483.65	3389.23
484.021	3509.68
484.391	3631.71
484.762	3713.52
485.133	3818.37
485.503	3833.74
485.874	4009.78
486.244	4105.15
486.615	4253.84
486.985	4381.07
487.356	4509.2
487.726	4609.31
488.097	4806.82
488.467	4874.84
488.837	4986.25
489.207	5156.42
489.578	5242.52
489.948	5426.47
490.318	5573.81
490.688	5655.16
491.058	5787.81
491.428	5963.18
491.798	6122.49
492.168	6289.95
492.538	6395.93
492.908	6517.74
493.278	6696.49
493.648	6802.25
494.017	6961.57
494.387	7135.12
494.757	7297.38
495.126	7436.13
495.496	7553.42
495.866	7742.56
496.235	7863.01
496.605	8030.69
496.974	8162.67
497.344	8296.22
497.713	8387.07
498.082	8615.99
498.452	8818.69
498.821	8849.65
499.19	8955.19
499.559	9216.42
499.928	9244.22
500.298	9440.83
500.667	9547.72
501.036	9735.28
501.405	9822.51
501.774	9966.01
502.143	10128.72
502.512	10217.53
502.88	10436.28
503.249	10511.08
503.618	10658.65
503.987	10813.44
504.356	10906.32
504.724	11060.22
505.093	11139.99
505.462	11317.16
505.83	11409.81
506.199	11575.91
506.567	11763.93
506.936	11845.06
507.304	12018.16
507.672	12110.13
508.041	12288.21
508.409	12384.25
508.777	12576.11
509.145	12679.84
509.514	12741.76
509.882	12928.87
510.25	13015.19
510.618	13205.7
510.986	13265.58
511.354	13463.77
511.722	13617.89
512.09	13738.34
512.458	13809.75
512.826	14008.16
513.193	14035.73
513.561	14212.23
513.929	14264.43
514.297	14482.27
514.664	14604.31
515.032	14683.17
515.4	14777.41
515.767	14953.45
516.135	15144.86
516.502	15115.7
516.869	15340.78
517.237	15486.99
517.604	15447.9
517.972	15756.37
518.339	15865.52
518.706	15924.04
519.073	15997.94
519.44	16142.34
519.808	16425.5
520.175	16365.84
520.542	16665.27
520.909	16706.85
521.276	16720.63
521.643	16988.42
522.009	17197.91
522.376	17230.9
522.743	17318.81
523.11	17608.52
523.477	17818.91
523.843	17868.85
524.21	18041.95
524.577	18178.9
524.943	18364.88
525.31	18423.64
525.676	18510.42
526.043	18657.98
526.409	18789.51
526.776	19008.71
527.142	19188.14
527.508	19239.21
527.874	19376.16
528.241	19525.08
528.607	19630.39
528.973	19846.65
529.339	19932.3
529.705	19909.25
530.071	20219.98
530.437	20334.1
530.803	20365.28
531.169	20536.8
531.535	20467.88
531.901	20706.52
532.267	20643.69
532.632	20875.33
532.998	20953.97
533.364	21095.43
533.73	21213.85
534.095	21332.26
534.461	21284.81
534.826	21568.19
535.192	21556.66
535.557	21698.13
535.923	21786.72
536.288	21954.17
536.653	22088.4
537.019	21928.63
537.384	22118.46
537.749	22232.35
538.114	22202.07
538.479	22290.66
538.845	22461.95
539.21	22483.19
539.575	22574.04
539.94	22700.14
540.305	22768.16
540.67	22733.81
541.034	22803.86
541.399	23000.47
541.764	23001.6
542.129	23077.08
542.494	23216.73
542.858	23283.63
543.223	23306.45
543.587	23486.78
543.952	23501.7
544.316	23599.32
544.681	23551.41
545.045	23790.28
545.41	23794.57
545.774	23743.5
546.138	24034.79
546.503	24026.2
546.867	24157.73
547.231	24238.18
547.595	24159.99
547.959	24314.56
548.324	24409.7
548.688	24302.13
549.052	24484.72
549.416	24682.46
549.779	24600.88
550.143	24677.71
550.507	24865.28
550.871	24912.06
551.235	24928.55
551.599	25214.2
551.962	25183.46
552.326	25213.07
552.689	25498.71
553.053	25384.13
553.417	25490.12
553.78	25905.03
554.143	25762.66
554.507	25683.34
554.87	25924.69
555.234	26098.92
555.597	26032.48
555.96	26151.35
556.323	26253.72
556.686	26217.11
557.05	26618.45
557.413	26566.93
557.776	26683.31
558.139	26844.21
558.502	26824.55
558.865	26985.9
559.228	27286.68
559.59	27312.45
559.953	27343.86
560.316	27575.26
560.679	27553.57
561.041	27787.91
561.404	27846.67
561.767	28040.56
562.129	28104.52
562.492	28416.82
562.854	28340.44
563.217	28319.42
563.579	28590.38
563.941	28656.82
564.304	28721.9
564.666	28866.08
565.028	28995.34
565.39	29155.56
565.753	29251.15
566.115	29325.27
566.477	29447.08
566.839	29489.79
567.201	29770.23
567.563	29772.72
567.925	29915.77
568.287	30135.65
568.648	30117.57
569.01	30093.62
569.372	30432.59
569.734	30278.02
570.095	30512.59
570.457	30800.49
570.819	30805.01
571.18	30829.87
571.542	30963.42
571.903	31039.35
572.265	31163.42
572.626	31272.12
572.987	31321.83
573.349	31460.36
573.71	31498.1
574.071	31554.59
574.432	31691.99
574.794	31922.04
575.155	31902.83
575.516	31830.97
575.877	32000.01
576.238	32146.44
576.599	32155.26
576.96	32198.87
577.32	32253.33
577.681	32312.99
578.042	32483.84
578.403	32508.69
578.763	32597.28
579.124	32561.12
579.485	32734
579.845	32739.87
580.206	32642.02
580.566	32757.73
580.927	32727.44
581.287	32989.13
581.648	32715.69
582.008	32971.05
582.368	32947.78
582.728	32998.17
583.089	32887.21
583.449	32895.8
583.809	33062.58
584.169	33083.59
584.529	32953.2
584.889	33274.77
585.249	33224.83
585.609	33093.08
585.969	33246.07
586.329	33192.07
586.688	33195.68
587.048	33259.41
587.408	33181.44
587.768	33394.32
588.127	33156.81
588.487	33175.57
588.846	33470.25
589.206	33276.58
589.565	33275.23
589.925	33398.16
590.284	33356.81
590.643	33370.14
591.003	33395.22
591.362	33559.97
591.721	33442.68
592.08	33470.25
592.44	33498.5
592.799	33610.36
593.158	33585.95
593.517	33545.28
593.876	33636.57
594.235	33468.44
594.593	33657.59
594.952	33700.75
595.311	33761.77
595.67	33667.31
596.029	33960.86
596.387	33963.12
596.746	34049.44
597.104	33936.45
597.463	33901.88
597.822	34023.46
598.18	33906.85
598.538	33907.98
598.897	34171.25
599.255	33914.53
599.613	34345.71
599.972	34146.16
600.33	34293.51
600.688	34062.1
601.046	34329.66
601.404	34430.68
601.762	34375.76
602.12	34439.49
602.478	34418.02
602.836	34537.57
603.194	34426.83
603.552	34509.77
603.91	34353.84
604.268	34594.29
604.625	34600.62
604.983	34613.95
605.341	34524.69
605.698	34752.02
606.056	34750.22
606.413	34872.7
606.771	34906.82
607.128	35040.6
607.485	34808.52
607.843	34908.86
608.2	35159.25
608.557	35279.92
608.914	35031.11
609.272	35267.72
609.629	35400.82
609.986	35469.07
610.343	35472.68
610.7	35636.75
611.057	35517.43
611.414	35577.09
611.771	35606.24
612.127	35768.49
612.484	35800.36
612.841	35922.61
613.198	35781.83
613.554	35882.62
613.911	36207.35
614.267	36094.14
614.624	36048.26
614.98	36173.91
615.337	36334.58
615.693	36260.68
616.05	36222.72
616.406	36520.79
616.762	36393.56
617.118	36451.64
617.475	36452.32
617.831	36525.31
618.187	36561.24
618.543	36584.07
618.899	36728.24
619.255	36793.33
619.611	36702.71
619.967	37043.04
620.323	36902.25
620.678	37013.43
621.034	36670.62
621.39	36948.35
621.746	36817.73
622.101	37101.57
622.457	36919.65
622.812	37067.22
623.168	37189.7
623.523	37166.65
623.879	37223.15
624.234	37101.57
624.589	37131.85
624.945	37264.5
625.3	37382.92
625.655	37248.23
626.01	37324.61
626.365	37372.97
626.72	37431.5
627.075	37222.92
627.43	37400.09
627.785	37264.5
628.14	37364.61
628.495	37480.09
628.85	37376.36
629.205	37183.37
629.559	37477.15
629.914	37411.84
630.269	37310.15
630.623	37189.25
630.978	37127.33
631.332	37271.28
631.687	37419.3
632.041	37362.8
632.396	37423.82
632.75	37204.84
633.104	37273.99
633.459	37143.83
633.813	37180.21
634.167	37149.93
634.521	37146.09
634.875	37134.11
635.229	37098.86
635.583	37048.01
635.937	36922.36
636.291	36837.17
636.645	37029.03
636.999	36882.36
637.352	37019.08
637.706	36718.98
638.06	37024.05
638.413	36797.39
638.767	36825.64
639.121	36891.85
639.474	36823.16
639.828	36784.29
640.181	36825.64
640.534	36918.29
640.888	36872.65
641.241	36635.36
641.594	36635.36
641.947	36829.71
642.301	36572.77
642.654	36608.47
643.007	36635.14
643.36	36588.13
643.713	36516.95
644.066	36608.92
644.419	36401.92
644.771	36226.34
645.124	35806.91
645.477	35716.29
645.83	35701.15
646.182	35529.86
646.535	35447.83
646.888	35386.58
647.24	35290.09
647.593	35435.85
647.945	35312.01
648.298	35198.11
648.65	35154.27
649.002	35018.01
649.355	35150.88
649.707	35093.48
650.059	35268.62
650.411	35602.62
650.763	35802.84
651.115	36117.64
651.467	35930.75
651.819	35950.41
652.171	35845.1
652.523	35811.66
652.875	35795.16
653.227	35655.73
653.578	35887.59
653.93	35773.24
654.282	35599.69
654.633	35526.47
654.985	35771.66
655.337	35697.99
655.688	35647.14
656.039	35791.54
656.391	35452.8
656.742	35521.72
657.094	35566.92
657.445	35639.68
657.796	35698.89
658.147	35536.64
658.498	35498.22
658.849	35555.62
659.2	35537.77
659.551	35359.92
659.902	35664.77
660.253	35557.88
660.604	35591.78
660.955	35496.64
661.306	35454.15
661.656	35478.78
662.007	35475.85
662.358	35354.27
662.708	35405.11
663.059	35410.54
663.409	35243.99
663.76	35483.08
664.11	35335.96
664.461	35365.79
664.811	35432.91
665.161	35391.56
665.511	35312.24
665.862	35338.45
666.212	35493.47
666.562	35305.91
666.912	35319.69
667.262	35285.12
667.612	35120.83
667.962	35349.97
668.312	35200.15
668.662	35372.35
669.011	35175.97
669.361	35131.45
669.711	35251.67
670.06	35131.45
670.41	35063.65
670.76	35076.99
671.109	35180.71
671.459	35119.47
671.808	35017.55
672.157	35168.28
672.507	34887.84
672.856	34928.97
673.205	35177.78
673.554	35055.52
673.904	35063.88
674.253	35108.4
674.602	34973.04
674.951	34498.7
675.3	34311.36
675.649	34896.88
675.998	34962.41
676.346	34933.26
676.695	34859.82
677.044	34758.13
677.393	34834.96
677.741	34861.85
678.09	34885.13
678.438	34751.12
678.787	34800.16
679.135	34816.2
679.484	34517.91
679.832	34605.14
680.181	34495.76
680.529	34561.07
680.877	34496.89
681.225	34399.72
681.573	34737.56
681.922	34312.71
682.27	34264.81
682.618	34239.5
682.966	34254.41
683.314	34258.93
683.661	34098.71
684.009	33960.86
684.357	34007.86
684.705	33914.76
685.053	33875.21
685.4	33792.5
685.748	33537.82
686.095	33643.35
686.443	33597.25
686.79	33527.2
687.138	33538.27
687.485	33639.28
687.832	33409.01
688.18	33552.96
688.527	33353.19
688.874	33261.44
689.221	33296.7
689.568	33209.01
689.915	33096.02
690.262	33058.28
690.609	33003.6
690.956	32819.19
691.303	32787.33
691.65	32581.23
691.997	32615.13
692.344	32520.44
692.69	32465.98
693.037	32442.48
693.383	32317.06
693.73	32394.8
694.077	32115.03
694.423	32025.32
694.769	32187.57
695.116	31877.75
695.462	31813.8
695.808	31771.31
696.155	31841.14
696.501	31600.02
696.847	31607.47
697.193	31316.86
697.539	31360.7
697.885	31125.9
698.231	31168.84
698.577	31296.75
698.923	31150.76
699.269	31016.98
699.614	30809.08
699.96	31021.5
700.306	30811.56
700.651	30678.23
700.997	30607.73
701.342	30615.18
701.688	30544.68
702.033	30501.29
702.379	30498.12
702.724	30343.78
703.069	30329.32
703.415	30096.1
703.76	30087.06
704.105	30183.33
704.45	29913.73
704.795	29861.08
705.14	29793.51
705.485	29789.89
705.83	29567.08
706.175	29671.03
706.52	29558.26
706.865	29513.97
707.209	29254.54
707.554	29164.15
707.899	29273.3
708.243	29197.82
708.588	29071.27
708.932	28915.79
709.277	28852.97
709.621	28931.16
709.966	28730.71
710.31	28923.48
710.654	28614.33
710.998	28691.17
711.342	28619.98
711.687	28461.79
712.031	28471.96
712.375	28349.25
712.719	28403.72
713.063	28219.99
713.407	28439.42
713.75	28217.28
714.094	28298.86
714.438	28015.48
714.782	28133.89
715.125	27890.96
715.469	28031.3
715.812	27773.22
716.156	27822.49
716.499	27843.51
716.843	27744.07
717.186	27569.61
717.53	27667.92
717.873	27631.53
718.216	27593.12
718.559	27419.79
718.902	27401.26
719.246	27470.41
719.589	27399.22
719.932	27191.32
720.275	27210.08
720.617	27086.24
720.96	27041.49
721.303	27028.39
721.646	27093.02
721.989	26841.5
722.331	26939.35
722.674	26836.3
723.016	26963.98
723.359	26828.84
723.701	26881.04
724.044	26688.51
724.386	26581.39
724.729	26705.68
725.071	26588.62
725.413	26697.32
725.755	26561.28
726.097	26405.35
726.439	26419.14
726.782	26548.85
727.124	26373.94
727.465	26261.85
727.807	26291.46
728.149	26156.09
728.491	26115.87
728.833	26193.38
729.175	26051.46
729.516	26073.83
729.858	25939.83
730.199	26014.85
730.541	25862.09
730.882	25895.31
731.224	25984.57
731.565	25862.77
731.906	25814.41
732.248	25778.47
732.589	25641.53
732.93	25579.38
733.271	25627.29
733.612	25628.65
733.953	25612.83
734.294	25541.42
734.635	25477.69
734.976	25443.57
735.317	25272.95
735.658	25300.3
735.999	25391.59
736.339	25209.45
736.68	25255.78
737.021	25232.05
737.361	25064.37
737.702	25244.25
738.042	25173.07
738.383	25148.66
738.723	25049
739.063	24994.99
739.404	25080.64
739.744	25053.07
740.084	24813.75
740.424	24928.78
740.764	24946.18
741.104	24891.94
741.444	24818.95
741.784	24642.69
742.124	24808.1
742.464	24593.2
742.804	24725.4
743.143	24626.64
743.483	24624.15
743.823	24549.81
744.162	24444.95
744.502	24487.66
744.841	24340.77
745.181	24459.87
745.52	24275.46
745.86	24315.24
746.199	24256.71
746.538	24233.2
746.877	24225.3
747.216	24285.18
747.556	24021.68
747.895	24052.87
748.234	23964.06
748.573	24019.42
748.911	23945.75
749.25	23871.41
749.589	23870.5
749.928	23846.55
750.267	23830.5
750.605	23807.23
750.944	23724.97
751.283	23650.4
751.621	23571.98
751.96	23616.27
752.298	23556.39
752.636	23573.79
752.975	23420.8
753.313	23371.08
753.651	23454.69
753.989	23232.33
754.327	23278.2
754.666	23158.43
755.004	23314.36
755.342	23179
755.679	23084.99
756.017	22928.83
756.355	23069.39
756.693	22834.82
757.031	23004.08
757.368	22819.23
757.706	22731.55
758.044	22753.02
758.381	22729.97
758.719	22503.76
759.056	22600.03
759.394	22569.75
759.731	22383.76
760.068	22358.45
760.405	22307.61
760.743	22264.89
761.08	22259.7
761.417	22122.53
761.754	22165.69
762.091	22087.5
762.428	21952.36
762.765	21789.65
763.102	21946.94
763.438	21663.78
763.775	21591.24
764.112	21677.57
764.449	21685.7
764.785	21586.72
765.122	21437.12
765.458	21395.54
765.795	21306.05
766.131	21318.48
766.467	21104.02
766.804	21093.63
767.14	21063.8
767.476	21119.84
767.812	20935.21
768.148	20990.8
768.485	20727.53
768.821	20740.19
769.157	20654.77
769.492	20543.36
769.828	20562.57
770.164	20494.55
770.5	20445.73
770.836	20334.32
771.171	20258.62
771.507	20202.12
771.842	20056.82
772.178	20026.31
772.513	19967.55
772.849	19982.92
773.184	19887.1
773.519	19885.52
773.855	19831.51
774.19	19697.28
774.525	19610.73
774.86	19536.83
775.195	19524.4
775.53	19480.56
775.865	19352.43
776.2	19222.94
776.535	19017.3
776.87	19122.15
777.205	18964.19
777.539	18934.13
777.874	19026.11
778.209	18721.49
778.543	18728.72
778.878	18641.94
779.212	18580.02
779.547	18449.85
779.881	18429.52
780.215	18458.67
780.55	18378.44
780.884	18306.35
781.218	18167.83
781.552	18261.84
781.886	18053.93
782.22	17952.24
782.554	17980.04
782.888	17921.96
783.222	17707.73
783.556	17728.52
783.889	17688.74
784.223	17468.86
784.557	17506.38
784.89	17497.11
785.224	17366.27
785.557	17357.45
785.891	17227.51
786.224	17246.72
786.558	17204.24
786.891	17054.18
787.224	16993.17
787.557	17009.21
787.891	16873.85
788.224	16910.69
788.557	16934.64
788.89	16798.37
789.223	16738.94
789.556	16589.11
789.888	16474.99
790.221	16498.72
790.554	16361.32
790.887	16427.08
791.219	16315.22
791.552	16329.46
791.884	16213.75
792.217	16123.59
792.549	16175.11
792.882	16015.79
793.214	15925.4
793.546	15992.74
793.879	15848.79
794.211	15708.46
794.543	15816.7
794.875	15754.56
795.207	15689.25
795.539	15697.61
795.871	15731.73
796.203	15445.64
796.535	15443.38
796.867	15341.46
797.198	15314.8
797.53	15361.8
797.862	15336.26
798.193	15239.54
798.525	15173.1
798.856	15218.98
799.188	14996.39
799.519	15066.89
799.85	14940.57
800.182	14916.39
800.513	14927.91
800.844	14795.49
801.175	14918.42
801.506	14815.15
801.837	14713.23
802.168	14680.24
802.499	14637.75
802.83	14512.1
803.161	14531.99
803.491	14511.88
803.822	14530.18
804.153	14469.62
804.483	14333.13
804.814	14251.32
805.145	14227.82
805.475	14183.07
805.805	14198.89
806.136	14125.67
806.466	14157.54
806.796	14091.55
807.126	14013.81
807.457	13971.78
807.787	13933.59
808.117	13851.1
808.447	13859.47
808.777	13922.74
809.107	13831.67
809.436	13787.83
809.766	13774.5
810.096	13716.87
810.426	13721.39
810.755	13718.45
811.085	13586.7
811.414	13615.18
811.744	13578.34
812.073	13435.3
812.403	13408.63
812.732	13352.13
813.061	13378.35
813.39	13285.7
813.719	13200.05
814.049	13319.82
814.378	13203.66
814.707	13264.45
815.036	13129.09
815.365	13031.69
815.693	12975.87
816.022	13011.8
816.351	12941.3
816.68	12926.16
817.008	12940.39
817.337	12916.44
817.665	12751.47
817.994	12767.74
818.322	12785.37
818.651	12720.74
818.979	12684.58
819.307	12785.82
819.636	12712.6
819.964	12569.1
820.292	12661.98
820.62	12567.52
820.948	12598.93
821.276	12644.58
821.604	12577.24
821.932	12560.07
822.259	12587.41
822.587	12497.24
822.915	12599.39
823.243	12526.62
823.57	12479.84
823.898	12591.02
824.225	12498.82
824.553	12521.42
824.88	12509.45
825.207	12634.41
825.535	12555.32
825.862	12600.06
826.189	12461.76
826.516	12581.08
826.843	12522.78
827.17	12562.33
827.497	12497.92
827.824	12528.2
828.151	12526.39
828.478	12503.12
828.805	12540.63
829.131	12393.06
829.458	12376.12
829.785	12440.97
830.111	12512.83
830.438	12527.07
830.764	12457.47
831.09	12466.06
831.417	12366.17
831.743	12520.97
832.069	12436.23
832.395	12284.59
832.722	12429.22
833.048	12301.54
833.374	12433.29
833.7	12238.04
834.026	12355.1
834.351	12346.29
834.677	12374.08
835.003	12403.01
835.329	12379.28
835.654	12327.3
835.98	12259.51
836.306	12311.71
836.631	12224.48
836.956	12246.85
837.282	12253.41
837.607	12196.01
837.932	12154.2
838.258	12145.61
838.583	12107.42
838.908	12133.86
839.233	12179.74
839.558	12005.5
839.883	12047.31
840.208	11976.35
840.533	11957.37
840.858	11975.9
841.182	11980.19
841.507	11882.57
841.832	11896.81
842.156	11837.15
842.481	11847.99
842.805	11862.68
843.13	11798.5
843.454	11779.07
843.778	11737.94
844.103	11669.92
844.427	11638.73
844.751	11688.45
845.075	11570.03
845.399	11629.47
845.723	11501.79
846.047	11545.18
846.371	11451.39
846.695	11427.89
847.019	11362.36
847.343	11307.44
847.666	11327.1
847.99	11244.62
848.313	11205.07
848.637	11170.27
848.96	11191.29
849.284	11061.35
849.607	11033.33
849.931	11022.48
850.254	10946.1
850.577	10820
850.9	10761.02
851.223	10768.47
851.546	10688.48
851.869	10631.98
852.192	10720.34
852.515	10588.14
852.838	10596.05
853.161	10538.65
853.483	10503.4
853.806	10405.09
854.129	10462.49
854.451	10430.86
854.774	10256.17
855.096	10243.74
855.419	10292.1
855.741	10195.16
856.063	10218.66
856.385	10180.24
856.708	10119.68
857.03	10118.55
857.352	10094.37
857.674	10073.12
857.996	10014.6
858.318	9988.16
858.64	9989.06
858.961	9910.64
859.283	9978.44
859.605	9876.52
859.926	9834.26
860.248	9884.66
860.57	9842.4
860.891	9854.6
861.212	9843.3
861.534	9783.64
861.855	9681.5
862.176	9687.6
862.498	9763.53
862.819	9745
863.14	9627.26
863.461	9634.49
863.782	9596.75
864.103	9621.84
864.424	9605.79
864.745	9571.9
865.065	9535.74
865.386	9457.55
865.707	9519.92
866.027	9545.23
866.348	9546.36
866.668	9486.47
866.989	9466.59
867.309	9403.99
867.63	9386.36
867.95	9365.35
868.27	9347.04
868.59	9436.76
868.91	9407.38
869.23	9365.57
869.55	9304.56
869.87	9373.71
870.19	9264.33
870.51	9269.3
870.83	9311.56
871.15	9252.81
871.469	9206.48
871.789	9265.46
872.109	9206.03
872.428	9211.68
872.748	9207.16
873.067	9198.57
873.386	9173.04
873.706	9165.58
874.025	9076.99
874.344	9079.25
874.663	9098.91
874.982	9095.52
875.301	8995.64
875.62	9019.37
875.939	8957.67
876.258	9029.54
876.577	8887.39
876.896	8946.6
877.214	8923.32
877.533	8919.26
877.852	8915.87
878.17	8934.85
878.489	8931.91
878.807	8892.59
879.125	8906.38
879.444	8832.25
879.762	8826.6
880.08	8848.52
880.398	8762.65
880.716	8865.93
881.034	8802.65
881.352	8762.65
881.67	8712.03
881.988	8724.91
882.306	8704.12
882.624	8686.95
882.941	8611.02
883.259	8629.1
883.577	8550.91
883.894	8477.46
884.212	8521.08
884.529	8539.83
884.846	8438.37
885.164	8569.21
885.481	8484.47
885.798	8499.61
886.115	8440.63
886.432	8411.93
886.75	8421.64
887.067	8385.03
887.383	8367.41
887.7	8326.28
888.017	8336.9
888.334	8335.32
888.651	8353.17
888.967	8258.03
889.284	8208.99
889.6	8251.03
889.917	8142.78
890.233	8221.87
890.55	8122.44
890.866	8172.84
891.182	8094.42
891.498	8124.02
891.815	8083.35
892.131	8083.35
892.447	8030.01
892.763	7994.76
893.079	7987.53
893.395	7917.93
893.71	7970.36
894.026	7910.02
894.342	7919.28
894.657	7858.04
894.973	7844.71
895.289	7797.93
895.604	7785.95
895.92	7762.9
896.235	7720.87
896.55	7695.33
896.865	7705.73
897.181	7626.41
897.496	7714.99
897.811	7639.97
898.126	7622.57
898.441	7559.07
898.756	7477.94
899.071	7408.56
899.386	7459.86
899.7	7437.71
900.015	7379.41
900.33	7353.65
900.644	7410.6
900.959	7305.51
901.273	7288.11
901.588	7351.61
901.902	7249.92
902.216	7183.94
902.531	7187.55
902.845	7144.39
903.159	7171.28
903.473	7108.91
903.787	7026.65
904.101	6990.27
904.415	7099.42
904.729	6975.13
905.042	6961.57
905.356	6940.55
905.67	6924.96
905.984	6934
906.297	6871.63
906.611	6810.84
906.924	6891.51
907.237	6801.8
907.551	6792.31
907.864	6770.84
908.177	6769.71
908.491	6731.97
908.804	6658.53
909.117	6674.57
909.43	6633.22
909.743	6607.68
910.056	6582.14
910.368	6556.38
910.681	6534.46
910.994	6490.62
911.307	6431.64
911.619	6413.11
911.932	6446.78
912.244	6389.83
912.557	6430.73
912.869	6333.56
913.181	6309.83
913.494	6273.22
913.806	6263.51
914.118	6260.12
914.43	6179.89
914.742	6157.75
915.054	6157.75
915.366	6211.76
915.678	6112.33
915.99	6069.39
916.302	6054.47
916.613	6016.06
916.925	6004.31
917.236	6052.44
917.548	5993.68
917.859	5927.92
918.171	5950.75
918.482	5899.45
918.794	5880.24
919.105	5876.85
919.416	5778.55
919.727	5832.11
920.038	5768.61
920.349	5697.87
920.66	5768.61
920.971	5769.06
921.282	5701.04
921.593	5667.82
921.903	5641.38
922.214	5602.96
922.525	5561.83
922.835	5566.35
923.146	5541.27
923.456	5541.72
923.767	5546.24
924.077	5478.22
924.387	5433.02
924.697	5480.25
925.008	5440.93
925.318	5394.15
925.628	5395.06
925.938	5370.2
926.248	5273.48
926.558	5278.45
926.867	5292.01
927.177	5264.89
927.487	5207.94
927.796	5197.32
928.106	5148.96
928.416	5132.69
928.725	5150.09
929.034	5063.99
929.344	5134.72
929.653	5130.43
929.962	5043.43
930.271	5069.19
930.581	5037.1
930.89	5046.59
931.199	4940.38
931.508	4960.04
931.817	4949.87
932.125	4895.41
932.434	4872.13
932.743	4872.13
933.051	4806.37
933.36	4854.28
933.669	4777.9
933.977	4780.61
934.286	4744
934.594	4801.17
934.902	4742.42
935.21	4687.73
935.519	4718.92
935.827	4663.55
936.135	4687.28
936.443	4623.1
936.751	4622.65
937.059	4553.27
937.367	4532.71
937.674	4560.05
937.982	4517.56
938.29	4493.84
938.597	4551.01
938.905	4469.43
939.213	4431.47
939.52	4422.2
939.827	4416.78
940.135	4372.71
940.442	4329.32
940.749	4319.6
941.056	4363.44
941.363	4299.49
941.67	4280.51
941.977	4277.8
942.284	4272.15
942.591	4265.14
942.898	4275.31
943.205	4226.05
943.511	4175.2
943.818	4155.77
944.125	4108.54
944.431	4113.73
944.738	4187.18
945.044	4096.78
945.35	4069.22
945.657	4079.38
945.963	4046.16
946.269	4022.66
946.575	4029.22
946.881	3991.03
947.187	4002.55
947.493	3957.13
947.799	3968.65
948.105	3965.26
948.41	3918.94
948.716	3903.57
949.022	3870.58
949.327	3878.03
949.633	3787.87
949.938	3827.87
950.244	3846.4
950.549	3769.79
950.854	3779.96
951.16	3784.48
951.465	3770.24
951.77	3740.18
952.075	3721.88
952.38	3693.41
952.685	3709
952.99	3706.29
953.294	3630.36
953.599	3618.15
953.904	3625.16
954.209	3608.44
954.513	3602.11
954.818	3606.18
955.122	3602.56
955.426	3546.29
955.731	3537.03
956.035	3493.64
956.339	3508.78
956.643	3468.33
956.948	3478.95
957.252	3441.43
957.556	3449.12
957.86	3460.42
958.163	3425.16
958.467	3412.96
958.771	3386.52
959.075	3357.37
959.378	3366.41
959.682	3315.11
959.985	3321.89
960.289	3326.64
960.592	3298.39
960.896	3280.31
961.199	3294.32
961.502	3250.25
961.805	3246.64
962.108	3216.58
962.411	3198.28
962.714	3156.24
963.017	3128.67
963.32	3209.12
963.623	3205.28
963.926	3164.83
964.228	3118.05
964.531	3088.45
964.833	3143.59
965.136	3085.74
965.438	3089.58
965.741	3067.21
966.043	3056.81
966.345	3047.32
966.648	3044.38
966.95	3066.3
967.252	3019.75
967.554	3016.14
967.856	2974.33
968.158	2959.41
968.46	2984.27
968.761	2933.43
969.063	2916.7
969.365	2909.92
969.666	2922.35
969.968	2870.15
970.269	2871.28
970.571	2862.02
970.872	2859.98
971.174	2857.27
971.475	2835.8
971.776	2803.49
972.077	2797.16
972.378	2816.82
972.679	2775.24
972.98	2751.96
973.281	2783.6
973.582	2767.55
973.883	2771.17
974.183	2726.2
974.484	2718.52
974.785	2694.56
975.085	2685.97
975.386	2702.7
975.686	2685.07
975.986	2703.6
976.287	2671.06
976.587	2651.85
976.887	2608.24
977.187	2594.23
977.487	2612.76
977.787	2595.36
978.087	2580.44
978.387	2551.06
978.687	2552.87
978.987	2530.27
979.286	2517.84
979.586	2510.39
979.885	2552.19
980.185	2521.69
980.484	2507.9
980.784	2494.57
981.083	2496.15
981.382	2464.51
981.682	2448.01
981.981	2440.33
982.28	2447.56
982.579	2419.09
982.878	2417.28
983.177	2363.27
983.475	2384.74
983.774	2348.58
984.073	2361.46
984.372	2326.66
984.67	2356.04
984.969	2316.72
985.267	2349.49
985.566	2317.4
985.864	2279.21
986.162	2284.86
986.461	2284.18
986.759	2257.51
987.057	2257.96
987.355	2226.78
987.653	2237.62
987.951	2221.13
988.249	2195.82
988.547	2215.03
988.844	2224.52
989.142	2190.39
989.44	2183.16
989.737	2190.17
990.035	2152.88
990.332	2126.67
990.63	2136.16
990.927	2142.26
991.224	2134.12
991.521	2120.79
991.819	2152.2
992.116	2095.71
992.413	2089.61
992.71	2074.69
993.006	2071.3
993.303	2061.58
993.6	2088.93
993.897	2048.03
994.193	2052.54
994.49	1998.99
994.787	2006.22
995.083	2001.02
995.379	1983.62
995.676	1980.23
995.972	1989.5
996.268	1983.85
996.565	1961.25
996.861	1954.92
997.157	1947.01
997.453	1921.25
997.749	1931.19
998.044	1918.76
998.34	1911.98
998.636	1901.14
998.932	1911.98
999.227	1859.78
999.523	1862.72
999.818	1877.63
1000.114	1848.48
1000.409	1810.52
1000.704	1841.48
1001	1813.91
1001.295	1802.83
1001.59	1795.38
1001.885	1784.98
1002.18	1764.87
1002.475	1806
1002.77	1736.85
1003.065	1719.45
1003.359	1722.38
1003.654	1769.84
1003.949	1690.75
1004.243	1732.78
1004.538	1708.37
1004.832	1675.83
1005.127	1679.9
1005.421	1695.04
1005.715	1654.59
1006.009	1657.53
1006.304	1685.55
1006.598	1666.11
1006.892	1634.7
1007.186	1633.57
1007.48	1624.31
1007.773	1610.52
1008.067	1587.02
1008.361	1568.94
1008.655	1596.51
1008.948	1562.84
1009.242	1588.6
1009.535	1580.47
1009.829	1556.29
1010.122	1550.41
1010.415	1485.55
1010.708	1530.52
1011.001	1518.32
1011.295	1497.53
1011.588	1488.94
1011.881	1499.57
1012.173	1495.27
1012.466	1486.01
1012.759	1478.55
1013.052	1448.94
1013.344	1451.2
1013.637	1451.88
1013.93	1454.37
1014.222	1436.74
1014.514	1451.43
1014.807	1432.67
1015.099	1414.82
1015.391	1403.3
1015.683	1415.5
1015.976	1373.92
1016.268	1387.48
1016.56	1354.94
1016.851	1373.24
1017.143	1327.59
1017.435	1330.3
1017.727	1348.61
1018.018	1300.02
1018.31	1326.46
1018.602	1296.41
1018.893	1296.63
1019.185	1294.37
1019.476	1286.24
1019.767	1302.28
1020.058	1255.28
1020.35	1289.18
1020.641	1270.19
1020.932	1261.61
1021.223	1286.46
1021.514	1241.94
1021.804	1213.92
1022.095	1194.71
1022.386	1222.51
1022.677	1182.51
1022.967	1206.01
1023.258	1183.64
1023.548	1194.49
1023.839	1210.31
1024.129	1144.32
1024.419	1178.9
1024.709	1147.03
1025	1122.17
1025.29	1111.33
1025.58	1123.3
1025.87	1118.56
1026.16	1129.86
1026.449	1108.16
1026.739	1124.43
1027.029	1107.49
1027.319	1087.6
1027.608	1086.24
1027.898	1062.97
1028.187	1065.68
1028.477	1086.69
1028.766	1044.21
1029.055	1050.31
1029.344	1037.43
1029.634	1020.71
1029.923	1020.48
1030.212	1053.02
1030.501	1036.98
1030.79	1015.96
1031.078	1009.86
1031.367	1008.96
1031.656	1010.09
1031.945	1001.95
1032.233	976.42
1032.522	979.13
1032.81	956.3
1033.099	958.79
1033.387	945.46
1033.675	923.76
1033.963	941.39
1034.251	945.91
1034.54	949.52
1034.828	950.2
1035.116	917.43
1035.403	930.31
1035.691	923.54
1035.979	919.92
1036.267	909.52
1036.554	873.14
1036.842	903.2
1037.129	870.2
1037.417	864.55
1037.704	879.24
1037.992	864.33
1038.279	879.47
1038.566	841.73
1038.853	841.73
1039.14	841.73
