Data from hue_22_FLMS001491_00013.txt Node
Date: Tue Feb 07 17:09:40 GMT 2017
User: dcchb
Spectrometer: FLMS00149
Trigger mode: 0
Integration Time (sec): 2.000000E-2
Scans to average: 10
Electric dark correction enabled: true
Nonlinearity correction enabled: false
Boxcar width: 0
XAxis mode: Wavelengths
Number of Pixels in Spectrum: 2048
>>>>>Begin Spectral Data<<<<<
341.393	-4.01
341.776	-4.01
342.16	-4.01
342.543	-65.03
342.927	-78.59
343.31	-58.93
343.693	-89.88
344.077	-68.19
344.46	-59.83
344.843	-67.29
345.226	-35.2
345.61	-19.83
345.993	-21.86
346.376	7.51
346.759	28.76
347.142	-4.92
347.525	64.46
347.908	60.62
348.291	74.4
348.674	88.87
349.057	101.3
349.44	132.03
349.823	128.64
350.206	162.99
350.588	183.1
350.971	208.64
351.354	218.58
351.737	250.22
352.119	264.23
352.502	273.72
352.884	271.01
353.267	278.69
353.65	286.83
354.032	299.26
354.414	306.04
354.797	311.46
355.179	319.6
355.562	312.82
355.944	332.93
356.326	320.05
356.709	353.95
357.091	360.05
357.473	343.78
357.855	355.75
358.238	344.23
358.62	346.71
359.002	352.82
359.384	356.88
359.766	308.52
360.148	346.71
360.53	364.57
360.912	345.13
361.294	319.37
361.676	315.3
362.057	346.49
362.439	341.74
362.821	339.93
363.203	322.76
363.584	350.56
363.966	343.78
364.348	332.25
364.729	327.96
365.111	349.2
365.493	323.44
365.874	320.95
366.256	318.47
366.637	302.2
367.019	306.94
367.4	311.91
367.781	330.67
368.163	311.01
368.544	329.09
368.925	335.64
369.306	327.51
369.688	318.69
370.069	336.54
370.45	311.69
370.831	336.77
371.212	302.87
371.593	327.73
371.974	333.16
372.355	344
372.736	326.15
373.117	308.52
373.498	329.31
373.879	340.84
374.26	315.53
374.641	332.93
375.021	314.85
375.402	329.31
375.783	312.36
376.163	333.38
376.544	336.09
376.925	328.86
377.305	332.48
377.686	315.53
378.066	335.64
378.447	332.48
378.827	320.27
379.208	327.51
379.588	338.13
379.968	349.88
380.349	334.28
380.729	332.48
381.109	368.86
381.489	339.03
381.87	367.5
382.25	347.62
382.63	357.56
383.01	353.27
383.39	350.33
383.77	336.77
384.15	336.77
384.53	365.47
384.91	356.43
385.29	352.14
385.67	367.73
386.049	379.26
386.429	354.62
386.809	365.92
387.189	371.12
387.568	360.5
387.948	367.96
388.328	342.19
388.707	361.4
389.087	371.12
389.466	394.85
389.846	380.16
390.225	366.15
390.605	385.36
390.984	368.63
391.363	376.09
391.743	393.04
392.122	374.96
392.501	386.94
392.881	391.46
393.26	400.95
393.639	401.18
394.018	398.46
394.397	395.07
394.776	386.49
395.155	390.33
395.534	398.92
395.913	373.61
396.292	392.81
396.671	411.12
397.05	389.42
397.429	406.15
397.808	389.65
398.186	392.81
398.565	418.35
398.944	406.15
399.323	406.83
399.701	412.48
400.08	405.7
400.458	406.6
400.837	427.84
401.215	419.93
401.594	403.21
401.972	399.14
402.351	437.11
402.729	421.06
403.107	431.23
403.486	444.56
403.864	428.97
404.242	424.45
404.62	439.82
404.999	438.24
405.377	426.49
405.755	437.11
406.133	457.45
406.511	435.75
406.889	452.7
407.267	451.57
407.645	463.1
408.023	455.86
408.401	453.15
408.779	475.07
409.156	463.55
409.534	465.13
409.912	499.03
410.29	469.2
410.667	482.53
411.045	488.18
411.422	465.35
411.8	461.51
412.178	477.33
412.555	496.99
412.933	482.76
413.31	504.9
413.687	471
414.065	483.89
414.442	502.64
414.819	501.29
415.197	531.57
415.574	529.08
415.951	510.33
416.328	531.79
416.705	537.9
417.082	502.19
417.46	526.37
417.837	500.38
418.214	531.34
418.591	556.88
418.967	532.47
419.344	553.49
419.721	549.19
420.098	548.29
420.475	560.72
420.852	540.38
421.228	548.52
421.605	542.19
421.982	555.07
422.358	553.26
422.735	548.97
423.111	561.17
423.488	566.82
423.864	561.85
424.241	597.33
424.617	588.06
424.994	568.63
425.37	579.25
425.746	592.81
426.123	601.4
426.499	587.16
426.875	603.88
427.251	616.76
427.627	634.39
428.003	619.02
428.379	617.22
428.756	652.47
429.132	649.53
429.507	646.82
429.883	632.58
430.259	660.38
430.635	651.34
431.011	652.92
431.387	671.23
431.763	697.67
432.138	667.16
432.514	696.76
432.89	675.97
433.265	689.98
433.641	684.11
434.016	706.48
434.392	715.07
434.767	724.56
435.143	736.31
435.518	742.86
435.894	733.6
436.269	756.19
436.644	747.83
437.02	750.55
437.395	759.36
437.77	753.03
438.145	784.89
438.52	776.76
438.895	788.06
439.271	795.29
439.646	778.12
440.021	789.64
440.395	820.83
440.77	787.38
441.145	808.4
441.52	840.26
441.895	829.19
442.27	835.29
442.645	841.16
443.019	866.47
443.394	820.6
443.769	865.57
444.143	839.58
444.518	862.18
444.892	850.43
445.267	875.06
445.641	897.43
446.016	861.95
446.39	893.37
446.764	880.49
447.139	905.8
447.513	900.15
447.887	882.52
448.262	913.03
448.636	891.78
449.01	933.82
449.384	901.28
449.758	926.81
450.132	935.63
450.506	933.82
450.88	966.58
451.254	930.65
451.628	988.05
452.002	940.82
452.376	996.19
452.75	986.02
453.123	990.31
453.497	993.02
453.871	1010.88
454.244	1011.56
454.618	1023.31
454.992	1032.35
455.365	1032.57
455.739	1075.96
456.112	1078.9
456.486	1066.92
456.859	1106.92
457.232	1083.42
457.606	1092.68
457.979	1115.51
458.352	1114.83
458.725	1122.96
459.099	1118.45
459.472	1188.05
459.845	1176.3
460.218	1158.67
460.591	1201.61
460.964	1206.8
461.337	1256.97
461.71	1230.08
462.083	1248.16
462.456	1275.28
462.829	1275.28
463.201	1298.1
463.574	1302.17
463.947	1308.95
464.32	1326.8
464.692	1325.9
465.065	1366.35
465.438	1358.44
465.81	1381.04
466.183	1413.58
466.555	1447.25
466.928	1437.08
467.3	1448.61
467.672	1442.96
468.045	1471.88
468.417	1553.69
468.789	1531.09
469.161	1523.63
469.534	1572.9
469.906	1574.93
470.278	1592.78
470.65	1604.53
471.022	1641.37
471.394	1668.71
471.766	1692.22
472.138	1696.74
472.51	1734.25
472.882	1771.76
473.253	1791.87
473.625	1821.25
473.997	1861.93
474.369	1872.55
474.74	1855.83
475.112	1929.27
475.484	1948.48
475.855	2010.4
476.227	2020.57
476.598	2065.54
476.97	2078.87
477.341	2131.53
477.713	2155.03
478.084	2156.16
478.455	2247
478.827	2277.28
479.198	2336.49
479.569	2325.19
479.94	2407.9
480.311	2406.32
480.682	2528.58
481.053	2510.95
481.424	2582.59
481.795	2604.28
482.166	2628.24
482.537	2687.44
482.908	2725.86
483.279	2795.24
483.65	2856.7
484.021	2881.11
484.391	2954.33
484.762	2997.27
485.133	3002.46
485.503	3081.56
485.874	3126.08
486.244	3175.79
486.615	3232.51
486.985	3265.06
487.356	3336.24
487.726	3413.98
488.097	3459.63
488.467	3499.63
488.837	3559.51
489.207	3624.14
489.578	3648.1
489.948	3680.41
490.318	3756.34
490.688	3767.87
491.058	3831.59
491.428	3872.5
491.798	3953.85
492.168	3992.72
492.538	4019.61
492.908	4079.72
493.278	4115.2
493.648	4126.05
494.017	4233.39
494.387	4238.14
494.757	4278.14
495.126	4366.04
495.496	4362.2
495.866	4432.48
496.235	4441.07
496.605	4512.93
496.974	4527.17
497.344	4573.27
497.713	4597.45
498.082	4661.63
498.452	4722.19
498.821	4757.67
499.19	4770.55
499.559	4787.05
499.928	4835.64
500.298	4835.64
500.667	4835.64
501.036	4897.55
501.405	4962.41
501.774	4967.16
502.143	5006.25
502.512	5063.65
502.88	5044.44
503.249	5096.42
503.618	5128.96
503.987	5156.98
504.356	5191.11
504.724	5229.75
505.093	5254.61
505.462	5303.42
505.83	5286.92
506.199	5343.19
506.567	5348.16
506.936	5369.86
507.304	5459.12
507.672	5489.63
508.041	5521.72
508.409	5530.08
508.777	5504.09
509.145	5621.83
509.514	5592.68
509.882	5625.9
510.25	5620.25
510.618	5690.08
510.986	5710.41
511.354	5726.01
511.722	5786.12
512.09	5811.2
512.458	5793.35
512.826	5823.41
513.193	5841.94
513.561	5921.71
513.929	5931.2
514.297	5990.18
514.664	6009.16
515.032	6013.46
515.4	6099.33
515.767	6067.92
516.135	6128.48
516.502	6037.19
516.869	6184.07
517.237	6194.7
517.604	6193.34
517.972	6253.9
518.339	6243.51
518.706	6303.17
519.073	6293.45
519.44	6366.22
519.808	6354.24
520.175	6410.51
520.542	6469.26
520.909	6476.27
521.276	6513.11
521.643	6525.31
522.009	6562.14
522.376	6638.3
522.743	6599.66
523.11	6754
523.477	6790.84
523.843	6797.84
524.21	6812.98
524.577	6864.96
524.943	6878.29
525.31	6935.92
525.676	6975.24
526.043	7052.53
526.409	7059.53
526.776	7077.16
527.142	7133.88
527.508	7220.21
527.874	7144.5
528.241	7214.1
528.607	7305.4
528.973	7276.02
529.339	7335.68
529.705	7439.63
530.071	7422.01
530.437	7469.46
530.803	7478.73
531.169	7494.1
531.535	7500.88
531.901	7566.41
532.267	7615.68
532.632	7676.01
532.998	7699.52
533.364	7737.03
533.73	7737.93
534.095	7842.56
534.461	7835.78
534.826	7890.02
535.192	7941.77
535.557	8032.39
535.923	8004.59
536.288	7978.6
536.653	8048.66
537.019	8019.51
537.384	8099.05
537.749	8154.19
538.114	8183.12
538.479	8173.63
538.845	8191.03
539.21	8250.24
539.575	8226.28
539.94	8371.14
540.305	8337.24
540.67	8395.32
541.034	8389.44
541.399	8435.99
541.764	8436.67
542.129	8455.43
542.494	8510.57
542.858	8607.29
543.223	8600.96
543.587	8602.09
543.952	8602.32
544.316	8705.36
544.681	8708.3
545.045	8775.19
545.41	8840.05
545.774	8832.82
546.138	8819.94
546.503	8868.75
546.867	8897
547.231	9017.67
547.595	9017.67
547.959	8982.87
548.324	8952.14
548.688	9050.44
549.052	9105.81
549.416	9098.57
549.779	9176.31
550.143	9175.63
550.507	9258.34
550.871	9205.24
551.235	9222.19
551.599	9300.15
551.962	9374.95
552.326	9435.97
552.689	9358.68
553.053	9384.67
553.417	9421.96
553.78	9549.64
554.143	9535.4
554.507	9597.09
554.87	9624.89
555.234	9678.9
555.597	9647.26
555.96	9734.26
556.323	9705.79
556.686	9741.27
557.05	9788.95
557.413	9878.89
557.776	9823.53
558.139	9974.94
558.502	9937.42
558.865	9937.65
559.228	9995.05
559.59	10027.36
559.953	10035.95
560.316	10213.35
560.679	10163.86
561.041	10216.29
561.404	10223.74
561.767	10322.5
562.129	10298.09
562.492	10373.12
562.854	10369.05
563.217	10415.15
563.579	10525.66
563.941	10486.79
564.304	10534.47
564.666	10611.98
565.028	10652.21
565.39	10663.96
565.753	10656.73
566.115	10774.91
566.477	10769.49
566.839	10819.66
567.201	10864.86
567.563	10884.52
567.925	11002.71
568.287	10946.44
568.648	11005.19
569.01	11041.8
569.372	11081.57
569.734	11141.23
570.095	11215.81
570.457	11196.6
570.819	11316.14
571.18	11237.05
571.542	11311.4
571.903	11366.54
572.265	11485.63
572.626	11505.52
572.987	11521.79
573.349	11613.31
573.71	11617.15
574.071	11688.34
574.432	11763.36
574.794	11883.13
575.155	11894.66
575.516	11916.58
575.877	12024.83
576.238	12081.55
576.599	12150.92
576.96	12149.79
577.32	12154.54
577.681	12428.43
578.042	12504.81
578.403	12479.73
578.763	12659.84
579.124	12696.9
579.485	12837.46
579.845	12971.47
580.206	13011.92
580.566	13083.55
580.927	13277.9
581.287	13512.47
581.648	13511.34
582.008	13668.85
582.368	13749.53
582.728	13880.82
583.089	14080.59
583.449	14262.51
583.809	14398.32
584.169	14603.97
584.529	14666.34
584.889	14988.14
585.249	15043.73
585.609	15292.99
585.969	15616.37
586.329	15794.44
586.688	15952.41
587.048	16147.2
587.408	16377.93
587.768	16615.66
588.127	16754.64
588.487	17078.48
588.846	17423.1
589.206	17540.39
589.565	17816.09
589.925	18061.28
590.284	18364.77
590.643	18617.87
591.003	18897.86
591.362	19327.68
591.721	19468.25
592.08	19732.64
592.44	20141.45
592.799	20410.14
593.158	20653.3
593.517	20969.45
593.876	21414.41
594.235	21638.13
594.593	21867.73
594.952	22162.19
595.311	22356.76
595.67	22836.07
596.029	23207.81
596.387	23591.07
596.746	23995.81
597.104	24194.67
597.463	24465.63
597.822	24971.38
598.18	25132.28
598.538	25425.6
598.897	25807.97
599.255	26078.92
599.613	26692.69
599.972	26832.57
600.33	27160.92
600.688	27482.95
601.046	27757.74
601.404	28234.57
601.762	28310.95
602.12	28888.11
602.478	29124.26
602.836	29379.17
603.194	29571.48
603.552	29811.25
603.91	30135.76
604.268	30578.91
604.625	30779.13
604.983	31163.08
605.341	31373.92
605.698	31758.77
606.056	32123.96
606.413	32297.74
606.771	32704.06
607.128	32967.33
607.485	33048.23
607.843	33332.74
608.2	33723.24
608.557	34005.94
608.914	34295.88
609.272	34668.52
609.629	34965.24
609.986	35090.89
610.343	35247.04
610.7	35827.82
611.057	35841.6
611.414	36072.1
611.771	36212.21
612.127	36636.61
612.484	36862.36
612.841	37140.55
613.198	37110.72
613.554	37449.92
613.911	37763.36
614.267	37925.16
614.624	38115.21
614.98	38217.58
615.337	38670.68
615.693	38813.27
616.05	38983.44
616.406	39276.99
616.762	39201.06
617.118	39401.96
617.475	39607.6
617.831	39909.74
618.187	40020.47
618.543	40190.19
618.899	40576.39
619.255	40387.24
619.611	40661.13
619.967	40923.5
620.323	41239.2
620.678	41144.96
621.034	41111.97
621.39	41431.06
621.746	41352.87
622.101	41846.87
622.457	41713.54
622.812	41954.89
623.168	42045.96
623.523	42084.37
623.879	42409.79
624.234	42195.11
624.589	42499.5
624.945	42621.99
625.3	42655.66
625.655	42694.3
626.01	42847.74
626.365	42946.5
626.72	43068.98
627.075	42951.7
627.43	43119.6
627.785	43081.18
628.14	43327.5
628.495	43379.25
628.85	43317.11
629.205	43259.94
629.559	43608.18
629.914	43334.74
630.269	43573.37
630.623	43526.82
630.978	43587.61
631.332	43760.26
631.687	43811.79
632.041	43587.38
632.396	43750.77
632.75	43742.64
633.104	43976.53
633.459	43661.51
633.813	43838.9
634.167	43816.31
634.521	43842.75
634.875	43874.84
635.229	43939.01
635.583	43611.34
635.937	43681.17
636.291	43772.46
636.645	43807.94
636.999	43780.6
637.352	43929.75
637.706	43745.57
638.06	43832.12
638.413	43758.68
638.767	43772.01
639.121	43884.55
639.474	43763.88
639.828	43718.23
640.181	43846.36
640.534	43774.5
640.888	43736.08
641.241	43598.46
641.594	43729.75
641.947	43779.24
642.301	43704.9
642.654	43786.93
643.007	43706.48
643.36	43824.67
643.713	43709.19
644.066	43899.02
644.419	43679.59
644.771	43407.5
645.124	43004.8
645.477	42885.03
645.83	42805.03
646.182	42735.66
646.535	42599.61
646.888	42674.41
647.24	42461.31
647.593	42866.95
647.945	42639.39
648.298	42473.97
648.65	42360.07
649.002	42340.19
649.355	42664.02
649.707	42335.21
650.059	42687.75
650.411	43084.57
650.763	43104.69
651.115	43513.26
651.467	43441.85
651.819	43356.43
652.171	43292.25
652.523	43269.88
652.875	43306.94
653.227	43134.97
653.578	43370.44
653.93	43267.17
654.282	43098.58
654.633	43043.67
654.985	43116.44
655.337	43188.53
655.688	43265.36
656.039	43389.42
656.391	43033.95
656.742	43022.88
657.094	43213.38
657.445	43135.87
657.796	43273.27
658.147	43095.87
658.498	42998.7
658.849	43149.2
659.2	42958.93
659.551	42799.61
659.902	43030.11
660.253	42927.74
660.604	43158.7
660.955	42804.58
661.306	43041.64
661.656	42976.78
662.007	43057
662.358	43081.18
662.708	42965.25
663.059	43007.97
663.409	42659.27
663.76	43009.77
664.11	42989.89
664.461	43103.1
664.811	43006.84
665.161	43106.72
665.511	42806.39
665.862	42895.43
666.212	42953.5
666.562	42873.05
666.912	42892.26
667.262	42811.13
667.612	42852.26
667.962	42938.81
668.312	42933.62
668.662	42989.43
669.011	42830.34
669.361	42764.13
669.711	42920.96
670.06	42813.85
670.41	42761.87
670.76	42659.27
671.109	42816.11
671.459	42678.71
671.808	42687.07
672.157	42790.57
672.507	42650.69
672.856	42601.87
673.205	42657.92
673.554	42725.71
673.904	42552.84
674.253	42820.17
674.602	42544.25
674.951	42022.68
675.3	41912.85
675.649	42548.32
675.998	42507.19
676.346	42425.61
676.695	42584.47
677.044	42300.19
677.393	42464.48
677.741	42606.85
678.09	42470.13
678.438	42193.52
678.787	42377.47
679.135	42424.03
679.484	42190.13
679.832	42273.3
680.181	42010.93
680.529	42256.57
680.877	42098.84
681.225	42116.24
681.573	42149.91
681.922	41997.37
682.27	41748.11
682.618	41893.87
682.966	41837.15
683.314	41901.55
683.661	41652.52
684.009	41463.83
684.357	41488.01
684.705	41435.13
685.053	41483.94
685.4	41304.28
685.748	41155.81
686.095	41240.1
686.443	41148.35
686.79	41161.23
687.138	41164.62
687.485	41114.91
687.832	41064.97
688.18	40956.04
688.527	40740.45
688.874	40695.26
689.221	40603.51
689.568	40742.04
689.915	40709.04
690.262	40375.94
690.609	40386.79
690.956	40263.86
691.303	40340.01
691.65	40095.5
691.997	40032.68
692.344	39860.03
692.69	39687.6
693.037	39722.4
693.383	39493.03
693.73	39548.4
694.077	39461.84
694.423	39455.97
694.769	39191.57
695.116	39271.57
695.462	39065.47
695.808	38960.39
696.155	39164.68
696.501	38832.26
696.847	38814.18
697.193	38565.37
697.539	38812.14
697.885	38510.68
698.231	38286.28
698.577	38354.98
698.923	38261.65
699.269	38139.17
699.614	38016.68
699.96	37814.88
700.306	37845.39
700.651	37751.38
700.997	37625.96
701.342	37684.72
701.688	37486.98
702.033	37459.18
702.379	37335.57
702.724	37270.26
703.069	37397.27
703.415	37000.21
703.76	36963.15
704.105	36940.78
704.45	36840.22
704.795	36707.11
705.14	36514.8
705.485	36567.23
705.83	36450.17
706.175	36437.97
706.52	36446.78
706.865	36242.27
707.209	36253.11
707.554	36053.8
707.899	36178.77
708.243	35860.58
708.588	35927.93
708.932	35709.4
709.277	35565.45
709.621	35734.03
709.966	35457.2
710.31	35571.1
710.654	35185.35
710.998	35484.55
711.342	35313.93
711.687	35113.94
712.031	35017.67
712.375	34944.22
712.719	34990.77
713.063	34948.06
713.407	34991.23
713.75	34703.55
714.094	34688.41
714.438	34560.73
714.782	34599.6
715.125	34435.76
715.469	34495.42
715.812	34378.36
716.156	34186.28
716.499	34239.61
716.843	34154.41
717.186	34064.47
717.53	34150.8
717.873	34123.45
718.216	34089.33
718.559	33920.52
718.902	33679.4
719.246	33824.48
719.589	33682.11
719.932	33575.9
720.275	33564.37
720.617	33513.98
720.96	33463.36
721.303	33506.52
721.646	33540.42
721.989	33210.48
722.331	33370.25
722.674	33217.04
723.016	33147.21
723.359	33168.9
723.701	33088.68
724.044	32897.04
724.386	32801.45
724.729	32890.04
725.071	32817.27
725.413	32808.69
725.755	32881.23
726.097	32679.88
726.439	32533.44
726.782	32502.93
727.124	32600.78
727.465	32467.68
727.807	32506.32
728.149	32451.41
728.491	32307.68
728.833	32445.98
729.175	32229.72
729.516	32177.74
729.858	32155.14
730.199	32081.92
730.541	32164.41
730.882	32064.3
731.224	32131.42
731.565	31908.37
731.906	31879.22
732.248	31961.7
732.589	31699.56
732.93	31689.39
733.271	31709.51
733.612	31606.68
733.953	31700.69
734.294	31582.28
734.635	31566.01
734.976	31615.95
735.317	31246.69
735.658	31375.95
735.999	31372.11
736.339	31374.6
736.68	31487.59
737.021	31346.12
737.361	31087.15
737.702	31297.99
738.042	31128.73
738.383	31050.31
738.723	31133.25
739.063	30966.47
739.404	31027.94
739.744	31107.49
740.084	30789.53
740.424	30867.27
740.764	30836.08
741.104	30925.8
741.444	30591.57
741.784	30547.05
742.124	30752.47
742.464	30617.56
742.804	30562.42
743.143	30592.7
743.483	30540.72
743.823	30301.41
744.162	30467.73
744.502	30406.49
744.841	30229.54
745.181	30309.77
745.52	30160.85
745.86	30319.26
746.199	30141.18
746.538	30144.57
746.877	30087.4
747.216	30183.9
747.556	30165.59
747.895	30053.05
748.234	29796.34
748.573	29862.32
748.911	29880.17
749.25	29888.08
749.589	29667.07
749.928	29724.47
750.267	29820.52
750.605	29594.31
750.944	29686.73
751.283	29641.76
751.621	29482.22
751.96	29332.84
752.298	29443.58
752.636	29470.92
752.975	29314.99
753.313	29122
753.651	29300.75
753.989	29058.95
754.327	29099.63
754.666	28951.61
755.004	28933.53
755.342	28983.93
755.679	28924.04
756.017	28663.94
756.355	28876.13
756.693	28653.99
757.031	28752.97
757.368	28496.48
757.706	28577.38
758.044	28297.39
758.381	28394.34
758.719	28283.61
759.056	28380.1
759.394	28258.07
759.731	28029.6
760.068	28072.31
760.405	28049.49
760.743	27857.4
761.08	27961.36
761.417	27681.59
761.754	27668.03
762.091	27580.35
762.428	27577.64
762.765	27445.89
763.102	27543.97
763.438	27238.66
763.775	27223.75
764.112	27235.5
764.449	27232.56
764.785	27014.26
765.122	26994.15
765.458	26841.61
765.795	26848.39
766.131	26751.67
766.467	26576.31
766.804	26574.72
767.14	26404.56
767.476	26501.28
767.812	26319.82
768.148	26340.38
768.485	26124.12
768.821	26061.07
769.157	26006.38
769.492	25896.55
769.828	25898.36
770.164	25679.83
770.5	25639.61
770.836	25652.49
771.171	25452.04
771.507	25456.11
771.842	25160.98
772.178	25220.64
772.513	25134.54
772.849	25073.97
773.184	24909.91
773.519	24940.42
773.855	24869.69
774.19	24721.67
774.525	24589.01
774.86	24719.18
775.195	24602.12
775.53	24479.19
775.865	24247.55
776.2	24152.19
776.535	24035.81
776.87	24014.34
777.205	23881.69
777.539	23792.88
777.874	23941.12
778.209	23700
778.543	23567.57
778.878	23449.61
779.212	23566.89
779.547	23243.97
779.881	23445.77
780.215	23166.9
780.55	23188.6
780.884	22986.57
781.218	22950.19
781.552	23015.5
781.886	22905.22
782.22	22798.33
782.554	22662.96
782.888	22458
783.222	22429.3
783.556	22342.97
783.889	22244.67
784.223	22022.3
784.557	21978.24
784.89	22188.85
785.224	21949.54
785.557	21813.49
785.891	21848.97
786.224	21648.3
786.558	21803.78
786.891	21550
787.224	21458.02
787.557	21330.8
787.891	21324.69
788.224	21318.59
788.557	21227.52
788.89	21177.13
789.223	21238.14
789.556	21003.57
789.888	20945.27
790.221	20820.3
790.554	20701.43
790.887	20683.58
791.219	20647.88
791.552	20577.14
791.884	20470.7
792.217	20454.21
792.549	20311.16
792.882	20245.4
793.214	20218.96
793.546	20254.44
793.879	20038.4
794.211	19926.76
794.543	20063.03
794.875	19913.21
795.207	19940.32
795.539	19828.69
795.871	19683.61
796.203	19628.92
796.535	19540.11
796.867	19464.86
797.198	19409.49
797.53	19379.43
797.862	19286.33
798.193	19215.14
798.525	19124.98
798.856	19167.69
799.188	19018.54
799.519	18940.58
799.85	18766.57
800.182	18887.24
800.513	18860.13
800.844	18677.08
801.175	18798.88
801.506	18757.98
801.837	18597.53
802.168	18557.53
802.499	18476.63
802.83	18362.51
803.161	18295.39
803.491	18282.74
803.822	18348.5
804.153	18220.82
804.483	18049.3
804.814	17986.93
805.145	17969.08
805.475	18020.15
805.805	17872.81
806.136	17934.95
806.466	18016.08
806.796	17903.54
807.126	17728.4
807.457	17670.55
807.787	17681.17
808.117	17531.57
808.447	17480.73
808.777	17567.73
809.107	17404.57
809.436	17359.83
809.766	17285.93
810.096	17303.33
810.426	17219.26
810.755	17335.87
811.085	17278.02
811.414	17171.81
811.744	17020.63
812.073	16927.3
812.403	16883.91
812.732	16829.9
813.061	16899.5
813.39	16791.03
813.719	16759.16
814.049	16901.08
814.378	16732.05
814.707	16672.16
815.036	16671.48
815.365	16523.46
815.693	16441.88
816.022	16409.79
816.351	16313.98
816.68	16365.73
817.008	16321.89
817.337	16253.41
817.665	16137.71
817.994	16207.09
818.322	16270.14
818.651	16096.58
818.979	16083.7
819.307	16124.15
819.636	16140.88
819.964	16013.87
820.292	16046.64
820.62	15928.68
820.948	15933.65
821.276	15977.94
821.604	15892.97
821.932	15884.38
822.259	15962.8
822.587	15794.44
822.915	15844.16
823.243	15865.63
823.57	15793.99
823.898	15932.29
824.225	15831.5
824.553	15822.24
824.88	15889.36
825.207	15933.42
825.535	15820.88
825.862	15875.12
826.189	15754.9
826.516	15918.51
826.843	15889.58
827.17	15910.15
827.497	15794.9
827.824	15836.48
828.151	15867.66
828.478	15861.11
828.805	15863.37
829.131	15702.47
829.458	15860.43
829.785	15687.1
830.111	15743.15
830.438	15805.06
830.764	15824.5
831.09	15732.75
831.417	15634.45
831.743	15743.37
832.069	15759.87
832.395	15704.05
832.722	15721.45
833.048	15721.23
833.374	15664.96
833.7	15556.94
834.026	15607.56
834.351	15594.67
834.677	15653.43
835.003	15644.84
835.329	15614.79
835.654	15565.75
835.98	15614.11
836.306	15510.61
836.631	15479.42
836.956	15601.68
837.282	15538.86
837.607	15549.93
837.932	15457.5
838.258	15372.53
838.583	15410.27
838.908	15288.69
839.233	15364.4
839.558	15286.66
839.883	15202.37
840.208	15135.93
840.533	15203.27
840.858	15128.47
841.182	15107
841.507	15050.06
841.832	15023.39
842.156	15020.68
842.481	15053.22
842.805	14987.01
843.13	15015.03
843.454	15035.59
843.778	14822.94
844.103	14821.36
844.427	14792.44
844.751	14747.92
845.075	14653.91
845.399	14732.1
845.723	14623.63
846.047	14651.87
846.371	14498.43
846.695	14490.07
847.019	14348.38
847.343	14323.75
847.666	14285.78
847.99	14114.49
848.313	14234.48
848.637	14107.03
848.96	14097.76
849.284	13969.18
849.607	13908.17
849.931	13873.14
850.254	13810.31
850.577	13746.36
850.9	13561.51
851.223	13607.83
851.546	13496.42
851.869	13570.1
852.192	13546.37
852.515	13403.55
852.838	13395.64
853.161	13378.69
853.483	13341.4
853.806	13234.06
854.129	13211.01
854.451	13186.6
854.774	13036.78
855.096	13113.84
855.419	13090.79
855.741	13033.39
856.063	13024.12
856.385	12945.93
856.708	12853.73
857.03	12796.78
857.352	12780.29
857.674	12758.82
857.996	12720.17
858.318	12646.28
858.64	12732.15
858.961	12603.34
859.283	12503
859.605	12501.87
859.926	12528.31
860.248	12498.48
860.57	12402.44
860.891	12475.66
861.212	12312.73
861.534	12288.55
861.855	12341.88
862.176	12361.09
862.498	12338.04
862.819	12341.88
863.14	12205.84
863.461	12207.19
863.782	12087.42
864.103	12162.67
864.424	12096.91
864.745	12216.46
865.065	12049.46
865.386	12050.81
865.707	12020.31
866.027	11977.59
866.348	11970.14
866.668	11996.58
866.989	11901.44
867.309	11891.95
867.63	11919.52
867.95	11873.64
868.27	11830.48
868.59	11847.2
868.91	11794.32
869.23	11819.63
869.55	11755.23
869.87	11800.65
870.19	11758.84
870.51	11778.73
870.83	11771.72
871.15	11726.3
871.469	11623.93
871.789	11671.16
872.109	11667.09
872.428	11544.84
872.748	11621.22
873.067	11605.4
873.386	11617.38
873.706	11545.06
874.025	11445.18
874.344	11436.82
874.663	11456.48
874.982	11439.3
875.301	11385.29
875.62	11379.87
875.939	11347.1
876.258	11388.91
876.577	11329.02
876.896	11287.22
877.214	11242.25
877.533	11259.65
877.852	11317.95
878.17	11304.39
878.489	11242.25
878.807	11216.94
879.125	11178.75
879.444	11238.41
879.762	11158.18
880.08	11174
880.398	11051.52
880.716	11204.73
881.034	11028.92
881.352	11076.38
881.67	11057.17
881.988	11047.22
882.306	10945.98
882.624	10883.84
882.941	10987.11
883.259	10861.47
883.577	10921.8
883.894	10840.45
884.212	10792.54
884.529	10830.05
884.846	10795.03
885.164	10766.78
885.481	10750.06
885.798	10760.9
886.115	10699.66
886.432	10647.91
886.75	10668.93
887.067	10696.72
887.383	10550.29
887.7	10599.33
888.017	10503.96
888.334	10549.16
888.651	10489.72
888.967	10405.21
889.284	10429.16
889.6	10421.93
889.917	10272.1
890.233	10438.43
890.55	10307.36
890.866	10328.82
891.182	10241.14
891.498	10191.2
891.815	10193.23
892.131	10134.25
892.447	10144.65
892.763	10042.73
893.079	10036.85
893.395	9977.42
893.71	9994.82
894.026	9981.26
894.342	9990.53
894.657	9826.46
894.973	9866.92
895.289	9825.33
895.604	9802.28
895.92	9812.68
896.235	9714.15
896.55	9712.12
896.865	9701.04
897.181	9692.91
897.496	9713.7
897.811	9598.45
898.126	9626.02
898.441	9538.11
898.756	9617.66
899.071	9507.15
899.386	9479.36
899.7	9369.08
900.015	9381.05
900.33	9294.5
900.644	9325.69
900.959	9335.18
901.273	9235.75
901.588	9243.66
901.902	9173.37
902.216	9122.98
902.531	9116.65
902.845	9066.26
903.159	9061.74
903.473	9011.34
903.787	8957.34
904.101	8935.19
904.415	8934.51
904.729	8935.64
905.042	8833.95
905.356	8818.81
905.67	8790.79
905.984	8778.81
906.297	8686.61
906.611	8621.98
906.924	8653.61
907.237	8612.03
907.551	8614.75
907.864	8530
908.177	8533.39
908.491	8481.19
908.804	8383.34
909.117	8384.92
909.43	8272.61
909.743	8361.64
910.056	8242.55
910.368	8247.3
910.681	8231.03
910.994	8231.48
911.307	8163.68
911.619	8156
911.932	8196.68
912.244	8094.53
912.557	8048.21
912.869	7963.91
913.181	7941.54
913.494	7943.35
913.806	7918.72
914.118	7799.4
914.43	7831.49
914.742	7817.7
915.054	7791.26
915.366	7766.63
915.678	7734.09
915.99	7694.32
916.302	7634.21
916.613	7631.27
916.925	7577.48
917.236	7626.75
917.548	7519.18
917.859	7489.58
918.171	7460.88
918.482	7444.15
918.794	7394.89
919.105	7412.97
919.416	7372.52
919.727	7369.13
920.038	7335.46
920.349	7298.62
920.66	7251.17
920.971	7218.85
921.282	7158.74
921.593	7085.52
921.903	7112.41
922.214	7046.65
922.525	7017.5
922.835	6949.93
923.146	6879.2
923.456	6969.82
923.767	6919.65
924.077	6914.68
924.387	6844.4
924.697	6789.93
925.008	6814.11
925.318	6735.02
925.628	6781.35
925.938	6738.64
926.248	6583.39
926.558	6647.34
926.867	6671.52
927.177	6600.56
927.487	6572.77
927.796	6497.74
928.106	6524.18
928.416	6448.7
928.725	6452.77
929.034	6422.71
929.344	6437.4
929.653	6396.27
929.962	6355.6
930.271	6293.22
930.581	6277.18
930.89	6251.19
931.199	6208.71
931.508	6181.36
931.817	6214.13
932.125	6156.05
932.434	6169.61
932.743	6041.71
933.051	6028.37
933.36	6022.95
933.669	6013.46
933.977	5965.78
934.286	5938.66
934.594	5911.31
934.902	5884.87
935.21	5853.91
935.519	5860.69
935.827	5840.81
936.135	5800.36
936.443	5751.09
936.751	5775.72
937.059	5756.52
937.367	5768.49
937.674	5719.91
937.982	5719.91
938.29	5631.77
938.597	5653.02
938.905	5579.12
939.213	5538.67
939.52	5543.87
939.827	5543.41
940.135	5515.39
940.442	5459.8
940.749	5497.77
941.056	5478.78
941.363	5370.08
941.67	5402.63
941.977	5301.61
942.284	5329.86
942.591	5328.73
942.898	5297.54
943.205	5257.32
943.511	5238.56
943.818	5249.86
944.125	5142.52
944.431	5162.86
944.738	5106.14
945.044	5091
945.35	5050.55
945.657	5025.46
945.963	5018.91
946.269	4995.18
946.575	4974.16
946.881	5002.41
947.187	4948.85
947.493	4963.32
947.799	4945.69
948.105	4921.96
948.41	4856.88
948.716	4827.73
949.022	4857.1
949.327	4849.65
949.633	4778.91
949.938	4791.34
950.244	4779.59
950.549	4745.69
950.854	4703.44
951.16	4677
951.465	4673.61
951.77	4673.15
952.075	4679.26
952.38	4659.37
952.685	4596.09
952.99	4588.41
953.294	4540.95
953.599	4538.24
953.904	4480.84
954.209	4514.97
954.513	4498.92
954.818	4442.88
955.122	4446.04
955.426	4429.54
955.731	4404.01
956.035	4406.49
956.339	4357.23
956.643	4412.14
956.948	4337.8
957.252	4287.4
957.556	4300.06
957.86	4232.94
958.163	4245.82
958.467	4253.73
958.771	4182.32
959.075	4225.03
959.378	4187.07
959.682	4197.69
959.985	4141.19
960.289	4112.26
960.592	4107.29
960.896	4113.85
961.199	4086.5
961.502	4065.26
961.805	4044.7
962.108	4043.79
962.411	4012.83
962.714	3964.25
963.017	3986.62
963.32	3983.91
963.623	3967.18
963.926	3892.38
964.228	3855.1
964.531	3856.9
964.833	3865.94
965.136	3854.42
965.438	3844.7
965.741	3787.75
966.043	3785.72
966.345	3775.55
966.648	3748.21
966.95	3777.58
967.252	3736.68
967.554	3741.43
967.856	3707.76
968.158	3655.78
968.46	3673.86
968.761	3641.09
969.063	3615.1
969.365	3617.36
969.666	3663.24
969.968	3586.63
970.269	3584.6
970.571	3519.96
970.872	3604.26
971.174	3505.28
971.475	3505.95
971.776	3474.77
972.077	3470.47
972.378	3413.53
972.679	3452.4
972.98	3450.59
973.281	3384.83
973.582	3389.12
973.883	3377.82
974.183	3366.07
974.484	3372.62
974.785	3365.17
975.085	3361.32
975.386	3333.3
975.686	3277.03
975.986	3293.3
976.287	3260.31
976.587	3253.08
976.887	3256.47
977.187	3227.32
977.487	3194.32
977.787	3200.42
978.087	3184.83
978.387	3162.01
978.687	3158.17
978.987	3148.9
979.286	3139.86
979.586	3135.57
979.885	3098.73
980.185	3083.14
980.484	3093.53
980.784	3066.64
981.083	3057.15
981.382	2990.03
981.682	3000.2
981.981	2980.54
982.28	3017.15
982.579	2932.86
982.878	2950.49
983.177	2925.4
983.475	2926.53
983.774	2878.4
984.073	2901.45
984.372	2914.56
984.67	2877.95
984.969	2879.98
985.267	2880.43
985.566	2848.34
985.864	2860.77
986.162	2864.84
986.461	2783.03
986.759	2778.29
987.057	2783.49
987.355	2746.88
987.653	2731.74
987.951	2714.79
988.249	2746.42
988.547	2718.63
988.844	2676.82
989.142	2724.28
989.44	2678.4
989.737	2669.59
990.035	2699.42
990.332	2662.59
990.63	2651.06
990.927	2629.14
991.224	2600.89
991.521	2583.04
991.819	2559.09
992.116	2549.59
992.413	2583.49
992.71	2535.58
993.006	2530.61
993.303	2528.8
993.6	2525.87
993.897	2524.51
994.193	2497.84
994.49	2457.62
994.787	2463.04
995.083	2412.87
995.379	2436.83
995.676	2449.48
995.972	2416.04
996.268	2403.38
996.565	2383.04
996.861	2386.66
997.157	2354.57
997.453	2355.7
997.749	2372.42
998.044	2314.57
998.34	2331.97
998.636	2347.11
998.932	2320.22
999.227	2278.64
999.523	2316.15
999.818	2247.91
1000.114	2241.81
1000.409	2240.45
1000.704	2201.58
1001	2226.21
1001.295	2208.59
1001.59	2172.43
1001.885	2199.09
1002.18	2168.81
1002.475	2158.42
1002.77	2167.91
1003.065	2141.7
1003.359	2120.9
1003.654	2111.41
1003.949	2107.12
1004.243	2102.6
1004.538	2062.38
1004.832	2100.34
1005.127	2037.29
1005.421	2035.71
1005.715	2068.48
1006.009	2015.37
1006.304	2033.22
1006.598	2009.95
1006.892	1998.2
1007.186	1952.1
1007.48	1966.56
1007.773	1935.37
1008.067	1951.64
1008.361	1903.06
1008.655	1912.1
1008.948	1898.99
1009.242	1898.09
1009.535	1895.37
1009.829	1898.99
1010.122	1839.33
1010.415	1874.81
1010.708	1865.32
1011.001	1846.79
1011.295	1831.65
1011.588	1822.83
1011.881	1806.34
1012.173	1794.81
1012.466	1776.73
1012.759	1779.9
1013.052	1769.5
1013.344	1776.51
1013.637	1773.57
1013.93	1749.39
1014.222	1709.16
1014.514	1723.18
1014.807	1708.94
1015.099	1655.15
1015.391	1704.87
1015.683	1676.62
1015.976	1669.39
1016.268	1627.81
1016.56	1643.63
1016.851	1617.19
1017.143	1613.57
1017.435	1632.56
1017.727	1607.25
1018.018	1592.11
1018.31	1574.7
1018.602	1568.83
1018.893	1565.89
1019.185	1567.02
1019.476	1550.07
1019.767	1521.82
1020.058	1528.83
1020.35	1515.5
1020.641	1500.81
1020.932	1509.17
1021.223	1508.27
1021.514	1481.15
1021.804	1473.01
1022.095	1461.26
1022.386	1467.14
1022.677	1434.14
1022.967	1408.61
1023.258	1423.75
1023.548	1383.07
1023.839	1380.81
1024.129	1403.64
1024.419	1399.34
1024.709	1360.7
1025	1408.16
1025.29	1362.96
1025.58	1344.43
1025.87	1336.97
1026.16	1331.09
1026.449	1288.16
1026.739	1292.23
1027.029	1297.65
1027.319	1281.38
1027.608	1298.33
1027.898	1291.77
1028.187	1228.72
1028.477	1249.52
1028.766	1247.26
1029.055	1238.22
1029.344	1232.57
1029.634	1217.43
1029.923	1220.14
1030.212	1213.58
1030.501	1194.15
1030.79	1175.84
1031.078	1153.92
1031.367	1167.26
1031.656	1189.63
1031.945	1175.39
1032.233	1159.35
1032.522	1136.75
1032.81	1137.65
1033.099	1117.99
1033.387	1112.12
1033.675	1146.02
1033.963	1126.81
1034.251	1103.53
1034.54	1109.18
1034.828	1075.06
1035.116	1079.35
1035.403	1078.67
1035.691	1049.07
1035.979	1065.11
1036.267	1064.66
1036.554	1032.57
1036.842	1046.81
1037.129	1048.39
1037.417	1010.43
1037.704	1017.88
1037.992	1015.62
1038.279	1037.77
1038.566	988.96
1038.853	988.96
1039.14	988.96
