Data from hue_110_FLMS001491_00082.txt Node
Date: Tue Feb 07 17:01:56 GMT 2017
User: dcchb
Spectrometer: FLMS00149
Trigger mode: 0
Integration Time (sec): 2.000000E-2
Scans to average: 10
Electric dark correction enabled: true
Nonlinearity correction enabled: false
Boxcar width: 0
XAxis mode: Wavelengths
Number of Pixels in Spectrum: 2048
>>>>>Begin Spectral Data<<<<<
341.393	-16.26
341.776	-16.26
342.16	-16.26
342.543	-61
342.927	-60.1
343.31	-70.72
343.693	-61.91
344.077	-69.59
344.46	-56.48
344.843	-56.71
345.226	-39.76
345.61	-6.99
345.993	-24.62
346.376	-7.44
346.759	26
347.142	17.19
347.525	39.34
347.908	56.74
348.291	71.88
348.674	85.89
349.057	97.19
349.44	144.87
349.823	150.74
350.206	158.65
350.588	198.88
350.971	213.57
351.354	215.38
351.737	233.68
352.119	249.27
352.502	268.71
352.884	286.11
353.267	261.25
353.65	292.21
354.032	306.9
354.414	299.44
354.797	301.48
355.179	320.68
355.562	318.2
355.944	320.91
356.326	318.88
356.709	316.62
357.091	341.02
357.473	333.11
357.855	353
358.238	338.54
358.62	338.76
359.002	310.06
359.384	333.34
359.766	341.25
360.148	335.6
360.53	336.5
360.912	319.78
361.294	344.19
361.676	321.36
362.057	332.89
362.439	297.18
362.821	323.62
363.203	325.43
363.584	311.42
363.966	331.3
364.348	338.76
364.729	311.64
365.111	301.93
365.493	311.87
365.874	323.17
366.256	298.76
366.637	307.35
367.019	315.49
367.4	310.29
367.781	309.61
368.163	302.83
368.544	310.06
368.925	325.2
369.306	324.98
369.688	319.78
370.069	321.36
370.45	311.19
370.831	306.22
371.212	296.73
371.593	285.66
371.974	312.77
372.355	299.89
372.736	296.5
373.117	315.49
373.498	314.36
373.879	318.2
374.26	310.06
374.641	296.73
375.021	318.42
375.402	329.27
375.783	306.9
376.163	313.9
376.544	335.6
376.925	329.95
377.305	300.57
377.686	330.63
378.066	324.98
378.447	336.28
378.827	335.82
379.208	309.38
379.588	342.6
379.968	323.17
380.349	339.44
380.729	324.75
381.109	334.69
381.489	331.08
381.87	322.04
382.25	323.85
382.63	335.6
383.01	320.68
383.39	322.72
383.77	353.9
384.15	348.03
384.53	337.41
384.91	330.63
385.29	343.28
385.67	354.81
386.049	353.23
386.429	354.13
386.809	355.03
387.189	352.1
387.568	341.7
387.948	352.77
388.328	355.49
388.707	358.87
389.087	366.11
389.466	367.01
389.846	343.06
390.225	372.21
390.605	365.43
390.984	362.72
391.363	355.03
391.743	366.11
392.122	378.76
392.501	369.27
392.881	356.61
393.26	393.68
393.639	369.72
394.018	384.64
394.397	381.25
394.776	372.66
395.155	388.7
395.534	382.83
395.913	380.57
396.292	369.95
396.671	389.16
397.05	382.6
397.429	390.96
397.808	393.68
398.186	380.34
398.565	374.24
398.944	396.39
399.323	382.83
399.701	390.74
400.08	395.94
400.458	393.22
400.837	391.42
401.215	402.94
401.594	394.35
401.972	414.24
402.351	404.75
402.729	408.59
403.107	410.4
403.486	416.5
403.864	425.77
404.242	394.13
404.62	413.56
404.999	392.55
405.377	421.25
405.755	411.3
406.133	413.34
406.511	423.73
406.889	416.95
407.267	429.61
407.645	428.93
408.023	428.93
408.401	421.92
408.779	437.74
409.156	476.84
409.534	435.26
409.912	448.36
410.29	451.08
410.667	460.34
411.045	445.2
411.422	465.99
411.8	425.54
412.178	450.4
412.555	481.13
412.933	452.43
413.31	484.97
413.687	497.85
414.065	474.8
414.442	491.98
414.819	495.82
415.197	506.67
415.574	484.3
415.951	469.61
416.328	479.55
416.705	484.3
417.082	503.05
417.46	501.02
417.837	508.93
418.214	500.79
418.591	531.3
418.967	519.32
419.344	504.18
419.721	528.14
420.098	522.26
420.475	508.93
420.852	517.51
421.228	535.59
421.605	532.88
421.982	544.86
422.358	547.8
422.735	556.38
423.111	567.23
423.488	538.76
423.864	539.89
424.241	551.19
424.617	574.24
424.994	564.29
425.37	552.54
425.746	566.33
426.123	590.28
426.499	570.62
426.875	575.14
427.251	580.11
427.627	581.69
428.003	599.55
428.379	587.12
428.756	605.65
429.132	608.36
429.507	620.56
429.883	623.95
430.259	604.74
430.635	637.51
431.011	639.77
431.387	636.38
431.763	652.88
432.138	645.42
432.514	663.05
432.89	667.57
433.265	690.84
433.641	697.17
434.016	691.07
434.392	679.77
434.767	698.53
435.143	712.31
435.518	723.16
435.894	722.26
436.269	712.54
436.644	693.33
437.02	720.67
437.395	729.94
437.77	711.63
438.145	738.07
438.52	723.84
438.895	755.25
439.271	743.72
439.646	774.01
440.021	796.6
440.395	775.59
440.77	763.16
441.145	764.74
441.52	816.26
441.895	783.72
442.27	800.67
442.645	803.16
443.019	802.48
443.394	807.45
443.769	811.97
444.143	816.26
444.518	827.56
444.892	818.3
445.267	813.1
445.641	855.58
446.016	847.45
446.39	855.13
446.764	849.71
447.139	854.68
447.513	862.36
447.887	875.25
448.262	858.3
448.636	886.32
449.01	871.63
449.384	884.96
449.758	878.86
450.132	896.26
450.506	920.67
450.88	911.85
451.254	911.18
451.628	915.02
452.002	923.38
452.376	940.1
452.75	937.84
453.123	969.71
453.497	981.91
453.871	1003.6
454.244	963.15
454.618	999.99
454.992	993.66
455.365	1019.87
455.739	1014
456.112	1047.22
456.486	1068.69
456.859	1071.85
457.232	1096.26
457.606	1089.03
457.979	1109.59
458.352	1111.4
458.725	1169.02
459.099	1141
459.472	1155.92
459.845	1163.83
460.218	1197.27
460.591	1211.06
460.964	1183.26
461.337	1234.78
461.71	1270.49
462.083	1248.34
462.456	1248.34
462.829	1276.14
463.201	1306.87
463.574	1298.06
463.947	1319.08
464.32	1342.8
464.692	1342.13
465.065	1406.3
465.438	1417.38
465.81	1405.85
466.183	1426.87
466.555	1472.97
466.928	1492.18
467.3	1464.83
467.672	1528.11
468.045	1539.86
468.417	1561.55
468.789	1562.68
469.161	1616.02
469.534	1663.02
469.906	1687.65
470.278	1681.55
470.65	1719.97
471.022	1799.29
471.394	1782.57
471.766	1814.43
472.138	1864.15
472.51	1929.45
472.882	1955.22
473.253	1945.95
473.625	2006.52
473.997	2023.24
474.369	2094.42
474.74	2125.83
475.112	2168.32
475.484	2213.06
475.855	2311.59
476.227	2322.21
476.598	2415.09
476.97	2448.76
477.341	2542.77
477.713	2595.65
478.084	2634.97
478.455	2694.41
478.827	2768.53
479.198	2867.06
479.569	2895.31
479.94	3025.25
480.311	3108.63
480.682	3179.37
481.053	3253.26
481.424	3362.41
481.795	3420.94
482.166	3513.14
482.537	3590.43
482.908	3709.97
483.279	3774.15
483.65	3925.79
484.021	4043.07
484.391	4147.7
484.762	4185.89
485.133	4313.57
485.503	4441.71
485.874	4521.93
486.244	4653.23
486.615	4806.67
486.985	4942.26
487.356	5074.23
487.726	5122.14
488.097	5331.63
488.467	5368.46
488.837	5554.22
489.207	5714.67
489.578	5830.82
489.948	5944.72
490.318	6132.96
490.688	6173.86
491.058	6338.83
491.428	6558.03
491.798	6614.76
492.168	6795.54
492.538	6896.1
492.908	7061.52
493.278	7173.61
493.648	7281.63
494.017	7442.98
494.387	7592.13
494.757	7648.17
495.126	7848.17
495.496	7981.27
495.866	8051.55
496.235	8256.07
496.605	8350.76
496.974	8397.31
497.344	8563.86
497.713	8675.27
498.082	8782.83
498.452	8958.87
498.821	8985.31
499.19	9113.67
499.559	9245.42
499.928	9351.18
500.298	9411.74
500.667	9614
501.036	9629.59
501.405	9789.14
501.774	9822.81
502.143	9924.05
502.512	9995.91
502.88	10203.81
503.249	10196.81
503.618	10333.98
503.987	10426.86
504.356	10518.16
504.724	10514.54
505.093	10677.47
505.462	10653.97
505.83	10770.58
506.199	10847.86
506.567	11040.85
506.936	11004.7
507.304	11180.51
507.672	11293.95
508.041	11365.14
508.409	11404.91
508.777	11511.12
509.145	11551.57
509.514	11598.58
509.882	11625.25
510.25	11728.97
510.618	11801.29
510.986	11844
511.354	11943.65
511.722	12021.17
512.09	12102.29
512.458	12107.49
512.826	12215.29
513.193	12188.62
513.561	12289.41
513.929	12340.48
514.297	12414.83
514.664	12513.81
515.032	12444.21
515.4	12558.55
515.767	12658.89
516.135	12757.19
516.502	12628.38
516.869	12777.53
517.237	12806.91
517.604	12822.73
517.972	12885.55
518.339	12923.06
518.706	12970.52
519.073	12968.03
519.44	13004.64
519.808	13124.64
520.175	13096.17
520.542	13122.83
520.909	13292.77
521.276	13200.35
521.643	13267.01
522.009	13318.31
522.376	13354.69
522.743	13375.48
523.11	13471.75
523.477	13594.91
523.843	13543.84
524.21	13677.85
524.577	13771.4
524.943	13680.56
525.31	13856.6
525.676	13848.01
526.043	13912.19
526.409	13890.95
526.776	14033.32
527.142	13983.38
527.508	13967.1
527.874	14046.88
528.241	13957.16
528.607	13937.73
528.973	14105.63
529.339	14032.64
529.705	14083.49
530.071	14225.63
530.437	14152.86
530.803	14116.48
531.169	14198.96
531.535	14188.12
531.901	14136.14
532.267	14151.28
532.632	14106.31
532.998	14127.55
533.364	14179.98
533.73	14099.98
534.095	14204.84
534.461	14213.65
534.826	14223.14
535.192	14159.19
535.557	14219.3
535.923	14172.52
536.288	14223.14
536.653	14148.12
537.019	14095.24
537.384	14011.17
537.749	14080.1
538.114	14054.79
538.479	13876.03
538.845	14015.69
539.21	13941.57
539.575	13923.49
539.94	13942.7
540.305	13903.38
540.67	13835.36
541.034	13918.07
541.399	13908.8
541.764	13734.57
542.129	13803.72
542.494	13725.75
542.858	13779.99
543.223	13815.47
543.587	13756.49
543.952	13678.98
544.316	13648.02
544.681	13698.64
545.045	13616.61
545.41	13604.85
545.774	13560.79
546.138	13528.25
546.503	13584.06
546.867	13422.94
547.231	13509.72
547.595	13418.19
547.959	13348.82
548.324	13371.87
548.688	13330.06
549.052	13378.65
549.416	13349.49
549.779	13237.41
550.143	13223.85
550.507	13320.57
550.871	13250.29
551.235	13207.12
551.599	13244.64
551.962	13141.36
552.326	13163.51
552.689	13183.17
553.053	13024.53
553.417	13074.92
553.78	13203.96
554.143	13062.72
554.507	12949.96
554.87	13133.91
555.234	13142.04
555.597	12954.02
555.96	13007.36
556.323	13037.64
556.686	13001.93
557.05	12930.97
557.413	12910.86
557.776	12974.36
558.139	13031.99
558.502	12949.05
558.865	12956.96
559.228	12968.03
559.59	12964.87
559.953	12926.45
560.316	12987.7
560.679	12990.18
561.041	13008.49
561.404	12952.22
561.767	13111.31
562.129	12985.44
562.492	13073.12
562.854	13086.9
563.217	13012.1
563.579	13079.22
563.941	13064.76
564.304	13033.57
564.666	13091.42
565.028	13170.52
565.39	13093.91
565.753	13082.83
566.115	13150.4
566.477	13129.16
566.839	13201.02
567.201	13201.02
567.563	13202.15
567.925	13233.56
568.287	13266.56
568.648	13191.76
569.01	13322.15
569.372	13257.07
569.734	13254.58
570.095	13198.09
570.457	13295.48
570.819	13317.86
571.18	13379.78
571.542	13326.22
571.903	13404.63
572.265	13384.07
572.626	13462.49
572.987	13406.44
573.349	13442.82
573.71	13480.56
574.071	13471.3
574.432	13454.35
574.794	13534.57
575.155	13539.32
575.516	13401.7
575.877	13485.08
576.238	13457.97
576.599	13444.86
576.96	13591.75
577.32	13512.2
577.681	13583.16
578.042	13528.25
578.403	13490.51
578.763	13543.84
579.124	13556.04
579.485	13569.6
579.845	13651.86
580.206	13530.51
580.566	13550.39
580.927	13567.34
581.287	13550.62
581.648	13503.61
582.008	13518.3
582.368	13537.74
582.728	13543.16
583.089	13514.69
583.449	13521.01
583.809	13512.88
584.169	13495.93
584.529	13452.77
584.889	13566.89
585.249	13420.9
585.609	13420
585.969	13413.45
586.329	13466.55
586.688	13454.8
587.048	13436.95
587.408	13410.96
587.768	13476.5
588.127	13414.8
588.487	13406.67
588.846	13448.47
589.206	13373.22
589.565	13419.77
589.925	13460.9
590.284	13419.32
590.643	13356.05
591.003	13448.93
591.362	13411.41
591.721	13401.47
592.08	13399.44
592.44	13328.25
592.799	13432.43
593.158	13364.86
593.517	13374.13
593.876	13423.39
594.235	13310.17
594.593	13305.65
594.952	13257.74
595.311	13262.26
595.67	13330.51
596.029	13339.1
596.387	13303.17
596.746	13358.53
597.104	13237.41
597.463	13243.28
597.822	13268.37
598.18	13185.88
598.538	13251.87
598.897	13316.73
599.255	13210.06
599.613	13395.82
599.972	13295.94
600.33	13337.74
600.688	13247.58
601.046	13298.2
601.404	13302.26
601.762	13258.65
602.12	13328.25
602.478	13349.27
602.836	13333.9
603.194	13240.12
603.552	13259.1
603.91	13202.15
604.268	13234.47
604.625	13218.88
604.983	13297.07
605.341	13205.99
605.698	13263.39
606.056	13312.88
606.413	13236.05
606.771	13291.19
607.128	13319.89
607.485	13256.61
607.843	13283.51
608.2	13378.65
608.557	13407.8
608.914	13311.98
609.272	13363.28
609.629	13372.77
609.986	13377.74
610.343	13279.89
610.7	13373.67
611.057	13344.97
611.414	13345.65
611.771	13434.24
612.127	13506.55
612.484	13391.07
612.841	13509.94
613.198	13430.4
613.554	13505.2
613.911	13521.69
614.267	13506.55
614.624	13477.17
614.98	13549.94
615.337	13542.26
615.693	13552.88
616.05	13534.8
616.406	13610.96
616.762	13542.03
617.118	13604.4
617.475	13620.45
617.831	13596.94
618.187	13696.83
618.543	13568.24
618.899	13704.06
619.255	13727.11
619.611	13643.27
619.967	13678.75
620.323	13780.44
620.678	13693.67
621.034	13671.52
621.39	13640.79
621.746	13644.63
622.101	13846.88
622.457	13655.47
622.812	13690.5
623.168	13733.66
623.523	13736.6
623.879	13754.23
624.234	13638.75
624.589	13744.51
624.945	13658.64
625.3	13723.27
625.655	13693.21
626.01	13706.32
626.365	13669.71
626.72	13679.43
627.075	13633.33
627.43	13717.39
627.785	13602.59
628.14	13684.85
628.495	13615.93
628.85	13681.69
629.205	13649.15
629.559	13641.69
629.914	13627.9
630.269	13672.87
630.623	13615.93
630.978	13528.25
631.332	13685.53
631.687	13631.97
632.041	13629.71
632.396	13572.54
632.75	13539.09
633.104	13496.83
633.459	13493.9
633.813	13456.84
634.167	13538.19
634.521	13506.1
634.875	13482.15
635.229	13466.78
635.583	13395.14
635.937	13399.21
636.291	13313.11
636.645	13408.25
636.999	13288.48
637.352	13415.48
637.706	13231.08
638.06	13352.88
638.413	13345.88
638.767	13356.5
639.121	13320.57
639.474	13165.32
639.828	13264.3
640.181	13240.12
640.534	13241.25
640.888	13168.71
641.241	13137.52
641.594	13184.07
641.947	13190.18
642.301	13151.98
642.654	13209.38
643.007	13184.07
643.36	13125.54
643.713	13121.03
644.066	13225.2
644.419	13098.2
644.771	13111.76
645.124	12927.13
645.477	12902.5
645.83	12856.63
646.182	12728.94
646.535	12807.36
646.888	12763.97
647.24	12754.48
647.593	12808.04
647.945	12719.45
648.298	12639
648.65	12599.91
649.002	12573.02
649.355	12642.85
649.707	12609.4
650.059	12690.08
650.411	12900.69
650.763	12823.63
651.115	13008.49
651.467	12929.39
651.819	12992.44
652.171	12965.1
652.523	12919
652.875	12934.36
653.227	12911.99
653.578	12991.31
653.93	13023.4
654.282	12914.02
654.633	12939.56
654.985	12895.95
655.337	12927.58
655.688	12950.18
656.039	13027.47
656.391	12922.61
656.742	12962.61
657.094	12994.02
657.445	12971.2
657.796	12862.73
658.147	12962.39
658.498	12882.61
658.849	12993.57
659.2	12914.48
659.551	12912.22
659.902	12986.11
660.253	13000.12
660.604	13034.25
660.955	13002.61
661.306	13000.58
661.656	13051.2
662.007	12993.12
662.358	13111.53
662.708	13031.76
663.059	13090.07
663.409	12967.81
663.76	13022.27
664.11	12978.88
664.461	13002.61
664.811	13010.97
665.161	12996.28
665.511	12983.4
665.862	12971.2
666.212	13111.31
666.562	13068.6
666.912	13038.99
667.262	12975.49
667.612	12987.24
667.962	13052.78
668.312	13036.73
668.662	13101.14
669.011	13057.07
669.361	13044.64
669.711	13044.87
670.06	13000.8
670.41	13023.17
670.76	12973.68
671.109	13002.38
671.459	12996.06
671.808	13066.56
672.157	12918.32
672.507	12989.28
672.856	12937.08
673.205	12960.13
673.554	12947.24
673.904	12876.96
674.253	12924.87
674.602	12901.14
674.951	12731.43
675.3	12659.34
675.649	12876.96
675.998	12829.51
676.346	12834.25
676.695	12851.65
677.044	12768.49
677.393	12787.47
677.741	12883.74
678.09	12777.08
678.438	12754.03
678.787	12774.82
679.135	12768.72
679.484	12700.25
679.832	12762.39
680.181	12665.67
680.529	12658.66
680.877	12700.7
681.225	12617.31
681.573	12711.32
681.922	12578.44
682.27	12563.53
682.618	12518.78
682.966	12531.66
683.314	12544.77
683.661	12494.83
684.009	12363.76
684.357	12470.42
684.705	12403.08
685.053	12425
685.4	12353.81
685.748	12274.72
686.095	12295.96
686.443	12241.73
686.79	12186.36
687.138	12246.25
687.485	12226.59
687.832	12203.76
688.18	12171.67
688.527	12133.48
688.874	12101.16
689.221	12025.01
689.568	11955.86
689.915	11991.34
690.262	11951.11
690.609	11953.6
690.956	11872.7
691.303	11849.87
691.65	11728.97
691.997	11771.46
692.344	11716.09
692.69	11670.67
693.037	11652.36
693.383	11584.57
693.73	11567.62
694.077	11511.8
694.423	11543.21
694.769	11488.3
695.116	11423.89
695.462	11379.15
695.808	11318.36
696.155	11341.41
696.501	11269.55
696.847	11307.74
697.193	11173.28
697.539	11262.32
697.885	11182.54
698.231	11120.85
698.577	11129.21
698.923	11043.57
699.269	10973.06
699.614	10864.59
699.96	10898.48
700.306	10905.26
700.651	10871.14
700.997	10701.88
701.342	10812.61
701.688	10729.45
702.033	10739.17
702.379	10660.98
702.724	10589.57
703.069	10649.45
703.415	10493.07
703.76	10560.64
704.105	10513.64
704.45	10488.78
704.795	10446.97
705.14	10342.12
705.485	10401.32
705.83	10347.09
706.175	10306.64
706.52	10251.95
706.865	10193.42
707.209	10206.3
707.554	10197.49
707.899	10190.71
708.243	10120.88
708.588	10044.27
708.932	10016.7
709.277	10042.69
709.621	10067.09
709.966	10011.05
710.31	9946.87
710.654	9874.1
710.998	9875.91
711.342	9850.38
711.687	9843.37
712.031	9799.08
712.375	9822.58
712.719	9756.59
713.063	9747.55
713.407	9766.31
713.75	9708.69
714.094	9676.6
714.438	9651.51
714.782	9705.3
715.125	9661.68
715.469	9642.92
715.812	9614.9
716.156	9543.04
716.499	9541.68
716.843	9576.03
717.186	9464.62
717.53	9566.77
717.873	9534.45
718.216	9461.69
718.559	9476.15
718.902	9377.85
719.246	9415.59
719.589	9395.25
719.932	9395.47
720.275	9382.14
720.617	9344.18
720.96	9435.25
721.303	9429.6
721.646	9315.25
721.989	9291.3
722.331	9332.2
722.674	9328.36
723.016	9257.85
723.359	9284.52
723.701	9306.89
724.044	9247
724.386	9151.19
724.729	9286.1
725.071	9282.03
725.413	9242.93
725.755	9274.8
726.097	9145.99
726.439	9192.09
726.782	9243.39
727.124	9204.97
727.465	9138.53
727.807	9209.49
728.149	9144.86
728.491	9185.54
728.833	9162.94
729.175	9120.45
729.516	9151.86
729.858	9179.43
730.199	9105.09
730.541	9111.86
730.882	9084.97
731.224	9071.41
731.565	9096.05
731.906	9123.62
732.248	9103.28
732.589	9097.63
732.93	9059.44
733.271	9129.04
733.612	9087.91
733.953	9131.98
734.294	9025.77
734.635	9104.41
734.976	9117.97
735.317	9010.62
735.658	9050.85
735.999	9143.05
736.339	9134.92
736.68	9126.78
737.021	9084.97
737.361	9050.62
737.702	9152.99
738.042	9107.57
738.383	9089.72
738.723	9124.29
739.063	9090.17
739.404	9163.16
739.744	9148.25
740.084	9117.51
740.424	9120
740.764	9099.66
741.104	9168.59
741.444	9227.79
741.784	9104.41
742.124	9191.64
742.464	9208.13
742.804	9172.65
743.143	9213.78
743.483	9262.14
743.823	9296.27
744.162	9269.6
744.502	9371.07
744.841	9337.62
745.181	9356.83
745.52	9364.97
745.86	9382.82
746.199	9471.4
746.538	9508.01
746.877	9585.3
747.216	9660.55
747.556	9658.07
747.895	9705.07
748.234	9658.07
748.573	9758.63
748.911	9828
749.25	9893.09
749.589	9918.17
749.928	10091.05
750.267	10131.95
750.605	10137.83
750.944	10226.64
751.283	10260.08
751.621	10411.94
751.96	10478.16
752.298	10579.62
752.636	10595.22
752.975	10683.12
753.313	10714.53
753.651	10995.43
753.989	11023
754.327	11113.62
754.666	11187.06
755.004	11334.63
755.342	11465.25
755.679	11609.2
756.017	11639.48
756.355	11908.18
756.693	11910.89
757.031	12121.5
757.368	12162.63
757.706	12359.01
758.044	12440.14
758.381	12614.6
758.719	12709.74
759.056	13033.34
759.394	13040.12
759.731	13163.28
760.068	13261.13
760.405	13449.6
760.743	13605.98
761.08	13800.78
761.417	13845.75
761.754	14095.69
762.091	14172.97
762.428	14367.55
762.765	14516.02
763.102	14744.71
763.438	14827.19
763.775	14928.21
764.112	15112.84
764.449	15380.4
764.785	15381.98
765.122	15362.32
765.458	15621.52
765.795	15770.22
766.131	15904.45
766.467	16084.56
766.804	16146.93
767.14	16299.7
767.476	16437.77
767.812	16464.44
768.148	16640.03
768.485	16707.6
768.821	16740.82
769.157	16929.29
769.492	17035.05
769.828	17193.23
770.164	17127.02
770.5	17275.72
770.836	17396.39
771.171	17423.51
771.507	17527.24
771.842	17497.63
772.178	17673.45
772.513	17671.19
772.849	17809.72
773.184	17883.16
773.519	17931.29
773.855	17962.48
774.19	18017.17
774.525	18012.65
774.86	18153.21
775.195	18219.65
775.53	18243.83
775.865	18242.92
776.2	18183.94
776.535	18238.86
776.87	18258.97
777.205	18319.76
777.539	18266.65
777.874	18290.15
778.209	18356.59
778.543	18394.33
778.878	18320.89
779.212	18444.95
779.547	18422.35
779.881	18442.47
780.215	18369.7
780.55	18519.98
780.884	18470.49
781.218	18397.5
781.552	18498.06
781.886	18381.68
782.22	18362.24
782.554	18386.2
782.888	18240.44
783.222	18241.79
783.556	18329.25
783.889	18285.86
784.223	18227.33
784.557	18181.23
784.89	18309.14
785.224	18243.38
785.557	18137.84
785.891	18219.2
786.224	18141.23
786.558	18104.4
786.891	18023.72
787.224	17910.28
787.557	17951.63
787.891	18046.32
788.224	18000.67
788.557	17978.3
788.89	18014
789.223	17947.56
789.556	17851.97
789.888	17755.48
790.221	17819.21
790.554	17678.65
790.887	17755.71
791.219	17694.01
791.552	17638.65
791.884	17558.42
792.217	17652.43
792.549	17549.84
792.882	17442.49
793.214	17391.87
793.546	17456.05
793.879	17400.01
794.211	17215.83
794.543	17319.56
794.875	17270.29
795.207	17322.72
795.539	17253.12
795.871	17143.29
796.203	17094.25
796.535	17060.81
796.867	17046.8
797.198	17010.41
797.53	16939.91
797.862	16946.91
798.193	16969.06
798.525	16796.63
798.856	16847.48
799.188	16579.47
799.519	16634.83
799.85	16585.79
800.182	16597.09
800.513	16610.2
800.844	16492.24
801.175	16595.96
801.506	16594.83
801.837	16468.06
802.168	16430.09
802.499	16335.4
802.83	16215.86
803.161	16250.21
803.491	16191.23
803.822	16345.35
804.153	16166.82
804.483	16065.13
804.814	16018.58
805.145	16134.05
805.475	16021.74
805.805	16024.23
806.136	16039.14
806.466	15990.78
806.796	15940.16
807.126	15785.59
807.457	15706.04
807.787	15745.14
808.117	15728.64
808.447	15722.09
808.777	15649.55
809.107	15614.97
809.436	15540.62
809.766	15605.71
810.096	15555.09
810.426	15431.7
810.755	15489.55
811.085	15441.42
811.414	15419.72
811.744	15365.71
812.073	15202.55
812.403	15272.38
812.732	15156.9
813.061	15230.35
813.39	15104.48
813.719	15063.12
814.049	15174.08
814.378	15046.17
814.707	15009.11
815.036	15058.6
815.365	14930.02
815.693	14913.52
816.022	14876.46
816.351	14850.7
816.68	14814.09
817.008	14746.07
817.337	14716.01
817.665	14638.5
817.994	14690.48
818.322	14773.41
818.651	14625.62
818.979	14593.75
819.307	14636.92
819.636	14566.18
819.964	14492.97
820.292	14605.28
820.62	14537.03
820.948	14452.52
821.276	14519.41
821.604	14481.67
821.932	14497.26
822.259	14477.83
822.587	14491.16
822.915	14426.3
823.243	14460.88
823.57	14383.82
823.898	14502.46
824.225	14432.18
824.553	14442.8
824.88	14491.84
825.207	14429.24
825.535	14479.41
825.862	14501.78
826.189	14434.66
826.516	14484.38
826.843	14485.06
827.17	14521.89
827.497	14524.6
827.824	14502.68
828.151	14523.47
828.478	14509.24
828.805	14539.74
829.131	14449.13
829.458	14507.88
829.785	14411.61
830.111	14537.71
830.438	14456.58
830.764	14466.07
831.09	14536.58
831.417	14428.56
831.743	14521.21
832.069	14416.81
832.395	14331.84
832.722	14481.67
833.048	14417.94
833.374	14338.85
833.7	14397.15
834.026	14338.39
834.351	14432.85
834.677	14414.32
835.003	14374.55
835.329	14363.93
835.654	14372.29
835.98	14271.96
836.306	14269.47
836.631	14238.51
836.956	14273.09
837.282	14288.23
837.607	14262.24
837.932	14144.27
838.258	14133.43
838.583	14102.02
838.908	14109.25
839.233	14091.62
839.558	14106.08
839.883	13965.75
840.208	13936.82
840.533	13904.28
840.858	13987.67
841.182	13966.88
841.507	13985.86
841.832	13866.54
842.156	13827.22
842.481	13780.89
842.805	13737.73
843.13	13758.52
843.454	13794.23
843.778	13692.08
844.103	13715.81
844.427	13662.03
844.751	13716.72
845.075	13594.01
845.399	13577.06
845.723	13537.74
846.047	13435.59
846.371	13425.65
846.695	13441.24
847.019	13292.77
847.343	13183.85
847.666	13175.71
847.99	13090.74
848.313	13167.58
848.637	13002.16
848.96	13009.16
849.284	13006.45
849.607	12879.22
849.931	12910.18
850.254	12745.67
850.577	12721.04
850.9	12595.16
851.223	12663.64
851.546	12493.24
851.869	12513.13
852.192	12506.35
852.515	12472.68
852.838	12363.3
853.161	12328.28
853.483	12365.56
853.806	12299.8
854.129	12195.17
854.451	12154.5
854.774	12155.17
855.096	12100.71
855.419	12071.34
855.741	11994.5
856.063	11976.65
856.385	11996.99
856.708	11870.66
857.03	11892.81
857.352	11822.3
857.674	11821.4
857.996	11792.02
858.318	11770.55
858.64	11761.74
858.961	11665.7
859.283	11629.31
859.605	11585.25
859.926	11606.49
860.248	11518.58
860.57	11491.46
860.891	11488.98
861.212	11410.79
861.534	11387.96
861.855	11369.43
862.176	11424.57
862.498	11360.85
862.819	11380.96
863.14	11309.55
863.461	11305.93
863.782	11311.13
864.103	11283.79
864.424	11195.2
864.745	11233.84
865.065	11174.18
865.386	11105.26
865.707	11135.77
866.027	11144.58
866.348	11108.42
866.668	11157.69
866.989	11011.93
867.309	10986.62
867.63	11055.54
867.95	11063
868.27	10904.13
868.59	10973.06
868.91	10932.16
869.23	10923.12
869.55	10907.07
869.87	11021.19
870.19	10866.17
870.51	10867.98
870.83	10866.62
871.15	10857.81
871.469	10827.98
871.789	10802.22
872.109	10764.93
872.428	10802.22
872.748	10782.33
873.067	10736
873.386	10715.44
873.706	10656.01
874.025	10635.21
874.344	10622.11
874.663	10672.95
874.982	10577.14
875.301	10578.72
875.62	10562
875.939	10492.39
876.258	10582.56
876.577	10498.95
876.896	10498.5
877.214	10453.3
877.533	10444.03
877.852	10483.13
878.17	10424.6
878.489	10427.31
878.807	10455.33
879.125	10445.39
879.444	10418.5
879.762	10425.73
880.08	10355.67
880.398	10310.03
880.716	10260.08
881.034	10311.38
881.352	10296.24
881.67	10236.58
881.988	10263.7
882.306	10169.01
882.624	10173.31
882.941	10156.13
883.259	10057.6
883.577	10161.55
883.894	10098.73
884.212	10118.84
884.529	10045.85
884.846	10004.04
885.164	9982.12
885.481	9948
885.798	9980.32
886.115	9924.5
886.432	9855.57
886.75	9861.9
887.067	9835.69
887.383	9808.34
887.7	9806.31
888.017	9762.24
888.334	9784.62
888.651	9710.27
888.967	9693.77
889.284	9676.6
889.6	9701.23
889.917	9615.81
890.233	9592.08
890.55	9538.97
890.866	9581.01
891.182	9474.57
891.498	9486.09
891.815	9463.72
892.131	9449.71
892.447	9406.32
892.763	9423.95
893.079	9294.68
893.395	9288.81
893.71	9333.33
894.026	9277.51
894.342	9244.97
894.657	9181.02
894.973	9164.97
895.289	9157.74
895.604	9124.29
895.92	9063.73
896.235	9062.15
896.55	8968.14
896.865	8978.76
897.181	8988.48
897.496	8978.99
897.811	8905.77
898.126	8851.53
898.441	8840.69
898.756	8780.8
899.071	8691.09
899.386	8743.74
899.7	8617.87
900.015	8646.79
900.33	8542.39
900.644	8574.25
900.959	8597.08
901.273	8553.24
901.588	8536.06
901.902	8497.19
902.216	8430.3
902.531	8416.06
902.845	8383.3
903.159	8334.71
903.473	8302.17
903.787	8269.85
904.101	8200.25
904.415	8287.03
904.729	8179.23
905.042	8165
905.356	8209.74
905.67	8112.34
905.984	8118.44
906.297	8035.51
906.611	8015.62
906.924	8026.7
907.237	8013.81
907.551	7972.69
907.864	7954.38
908.177	7875.29
908.491	7842.07
908.804	7789.87
909.117	7731.56
909.43	7706.93
909.743	7739.7
910.056	7678
910.368	7685.46
910.681	7591.45
910.994	7591.68
911.307	7588.06
911.619	7471.46
911.932	7483.89
912.244	7417.45
912.557	7451.34
912.869	7345.13
913.181	7300.16
913.494	7374.51
913.806	7369.09
914.118	7256.09
914.43	7261.07
914.742	7256.55
915.054	7188.53
915.366	7146.27
915.678	7111.01
915.99	7106.49
916.302	7021.98
916.613	7010.23
916.925	7045.25
917.236	6926.84
917.548	6965.48
917.859	6956.44
918.171	6935.88
918.482	6846.84
918.794	6795.32
919.105	6906.95
919.416	6801.64
919.727	6775.2
920.038	6768.65
920.349	6676.67
920.66	6684.36
920.971	6657.01
921.282	6622.89
921.593	6581.31
921.903	6468.54
922.214	6533.85
922.525	6525.27
922.835	6490.69
923.146	6432.61
923.456	6476.91
923.767	6360.98
924.077	6368.21
924.387	6321.43
924.697	6327.08
925.008	6276.23
925.318	6263.35
925.628	6269.68
925.938	6190.81
926.248	6204.37
926.558	6154.88
926.867	6126.18
927.177	6124.6
927.487	6094.09
927.796	6057.48
928.106	6100.87
928.416	6040.76
928.725	5983.81
929.034	5949.91
929.344	5938.62
929.653	5939.97
929.962	5864.04
930.271	5869.92
930.581	5872.63
930.89	5804.61
931.199	5736.13
931.508	5723.03
931.817	5809.13
932.125	5740.43
932.434	5677.38
932.743	5638.96
933.051	5622.47
933.36	5637.61
933.669	5546.31
933.977	5543.37
934.286	5550.15
934.594	5530.49
934.902	5513.09
935.21	5453.2
935.519	5504.73
935.827	5436.93
936.135	5441
936.443	5389.02
936.751	5401.68
937.059	5368.69
937.367	5328.46
937.674	5303.83
937.982	5314
938.29	5226.32
938.597	5282.36
938.905	5206.66
939.213	5203.27
939.52	5117.62
939.827	5187.9
940.135	5132.76
940.442	5037.85
940.749	5049.15
941.056	5119.88
941.363	5025.19
941.67	5004.4
941.977	4980.22
942.284	4923.5
942.591	4946.78
942.898	4956.04
943.205	4915.37
943.511	4915.82
943.818	4894.12
944.125	4848.02
944.431	4850.51
944.738	4829.94
945.044	4798.76
945.35	4788.59
945.657	4792.2
945.963	4717.4
946.269	4705.88
946.575	4714.92
946.881	4667.69
947.187	4682.38
947.493	4647.8
947.799	4623.17
948.105	4607.58
948.41	4544.75
948.716	4597.63
949.022	4529.84
949.327	4535.04
949.633	4469.95
949.938	4456.17
950.244	4482.16
950.549	4459.78
950.854	4422.72
951.16	4377.3
951.465	4417.3
951.77	4358.54
952.075	4367.58
952.38	4367.81
952.685	4301.6
952.99	4315.61
953.294	4270.41
953.599	4256.85
953.904	4252.33
954.209	4196.06
954.513	4209.62
954.818	4171.66
955.122	4157.87
955.426	4140.92
955.731	4146.57
956.035	4094.82
956.339	4117.87
956.643	4089.17
956.948	4047.59
957.252	4033.81
957.556	4072
957.86	3987.48
958.163	3985.67
958.467	3945
958.771	3989.06
959.075	3943.41
959.378	3962.17
959.682	3913.81
959.985	3911.78
960.289	3859.57
960.592	3867.71
960.896	3836.75
961.199	3818.22
961.502	3797.43
961.805	3749.97
962.108	3755.62
962.411	3774.38
962.714	3721.5
963.017	3684.66
963.32	3704.1
963.623	3723.76
963.926	3656.64
964.228	3680.6
964.531	3664.78
964.833	3608.51
965.136	3585.68
965.438	3576.87
965.741	3557.89
966.043	3572.12
966.345	3552.92
966.648	3550.88
966.95	3496.19
967.252	3498.91
967.554	3488.06
967.856	3470.21
968.158	3406.48
968.46	3436.08
968.761	3443.54
969.063	3426.59
969.365	3388.17
969.666	3396.76
969.968	3338.23
970.269	3352.47
970.571	3363.32
970.872	3329.87
971.174	3330.55
971.475	3306.14
971.776	3281.06
972.077	3253.26
972.378	3282.41
972.679	3253.94
972.98	3273.83
973.281	3211.68
973.582	3201.51
973.883	3175.07
974.183	3152.25
974.484	3188.18
974.785	3136.65
975.085	3126.49
975.386	3107.05
975.686	3082.42
975.986	3086.71
976.287	3081.52
976.587	3044.91
976.887	3074.06
977.187	3013.95
977.487	3037.67
977.787	2995.64
978.087	2995.19
978.387	2976.43
978.687	2975.53
978.987	2962.65
979.286	2926.26
979.586	2957.68
979.885	2922.42
980.185	2895.53
980.484	2870.45
980.784	2865.02
981.083	2855.98
981.382	2830.9
981.682	2810.56
981.981	2793.16
982.28	2819.6
982.579	2800.17
982.878	2780.51
983.177	2765.82
983.475	2748.19
983.774	2756.1
984.073	2738.7
984.372	2727.17
984.67	2725.82
984.969	2697.34
985.267	2723.56
985.566	2672.26
985.864	2674.97
986.162	2661.19
986.461	2648.31
986.759	2651.47
987.057	2608.08
987.355	2595.43
987.653	2613.73
987.951	2582.09
988.249	2594.3
988.547	2561.98
988.844	2558.36
989.142	2547.52
989.44	2522.21
989.737	2525.82
990.035	2501.42
990.332	2496.45
990.63	2477.46
990.927	2472.72
991.224	2489.21
991.521	2461.87
991.819	2472.49
992.116	2442.89
992.413	2413.51
992.71	2375.32
993.006	2354.53
993.303	2384.36
993.6	2383.68
993.897	2383
994.193	2358.82
994.49	2359.73
994.787	2302.78
995.083	2299.61
995.379	2292.38
995.676	2264.36
995.972	2300.74
996.268	2283.57
996.565	2248.77
996.861	2216.23
997.157	2227.98
997.453	2220.97
997.749	2256
998.044	2214.65
998.34	2154.53
998.636	2168.09
998.932	2130.35
999.227	2141.2
999.523	2149.56
999.818	2127.87
1000.114	2144.59
1000.409	2116.79
1000.704	2084.93
1001	2085.16
1001.295	2071.37
1001.59	2053.52
1001.885	2086.96
1002.18	2028.66
1002.475	2026.63
1002.77	2023.92
1003.065	2006.29
1003.359	2009.68
1003.654	1997.93
1003.949	1972.39
1004.243	1989.34
1004.538	1960.64
1004.832	1907.53
1005.127	1909.57
1005.421	1948.44
1005.715	1903.69
1006.009	1888.55
1006.304	1886.07
1006.598	1863.47
1006.892	1868.89
1007.186	1839.29
1007.48	1817.82
1007.773	1825.5
1008.067	1833.19
1008.361	1798.16
1008.655	1805.62
1008.948	1805.62
1009.242	1789.8
1009.535	1789.35
1009.829	1770.82
1010.122	1798.84
1010.415	1757.93
1010.708	1719.06
1011.001	1708.44
1011.295	1717.48
1011.588	1684.94
1011.881	1687.43
1012.173	1691.72
1012.466	1688.56
1012.759	1651.72
1013.052	1687.88
1013.344	1653.76
1013.637	1652.4
1013.93	1618.28
1014.222	1632.29
1014.514	1623.02
1014.807	1616.24
1015.099	1572.63
1015.391	1571.72
1015.683	1605.85
1015.976	1557.26
1016.268	1533.76
1016.56	1518.84
1016.851	1557.94
1017.143	1518.62
1017.435	1517.49
1017.727	1528.11
1018.018	1504.16
1018.31	1519.07
1018.602	1478.17
1018.893	1458.73
1019.185	1451.95
1019.476	1437.26
1019.767	1427.55
1020.058	1437.26
1020.35	1416.25
1020.641	1407.43
1020.932	1415.34
1021.223	1404.72
1021.514	1372.86
1021.804	1378.96
1022.095	1351.62
1022.386	1380.09
1022.677	1354.33
1022.967	1338.74
1023.258	1336.48
1023.548	1327.44
1023.839	1297.83
1024.129	1319.53
1024.419	1326.76
1024.709	1284.5
1025	1293.09
1025.29	1265.52
1025.58	1295.8
1025.87	1246.54
1026.16	1274.33
1026.449	1255.57
1026.739	1230.72
1027.029	1214.9
1027.319	1201.34
1027.608	1195.01
1027.898	1211.73
1028.187	1202.69
1028.477	1166.99
1028.766	1195.24
1029.055	1166.54
1029.344	1170.15
1029.634	1162.92
1029.923	1164.73
1030.212	1169.25
1030.501	1153.43
1030.79	1128.12
1031.078	1117.27
1031.367	1119.08
1031.656	1107.33
1031.945	1098.06
1032.233	1099.42
1032.522	1081.57
1032.81	1060.1
1033.099	1070.04
1033.387	1081.12
1033.675	1073.66
1033.963	1041.57
1034.251	1035.24
1034.54	1036.15
1034.828	1036.15
1035.116	1033.21
1035.403	1033.89
1035.691	1014
1035.979	999.76
1036.267	999.99
1036.554	994.56
1036.842	987.33
1037.129	985.07
1037.417	962.93
1037.704	969.71
1037.992	965.64
1038.279	967.67
1038.566	940.55
1038.853	940.55
1039.14	940.55
