Data from hue_00_FLMS001491_50.txt Node
Date: Mon Feb 06 15:29:47 GMT 2017
User: dcchb
Spectrometer: FLMS00149
Trigger mode: 0
Integration Time (sec): 2.000000E-2
Scans to average: 10
Electric dark correction enabled: true
Nonlinearity correction enabled: false
Boxcar width: 0
XAxis mode: Wavelengths
Number of Pixels in Spectrum: 2048
>>>>>Begin Spectral Data<<<<<
341.393	-5.35
341.776	-5.35
342.16	-5.35
342.543	-79.7
342.927	-56.65
343.31	-68.85
343.693	-97.1
344.077	-74.28
344.46	-55.52
344.843	-57.1
345.226	-48.29
345.61	-22.53
345.993	-3.77
346.376	9.34
346.759	19.73
347.142	21.54
347.525	43.91
347.908	64.93
348.291	58.6
348.674	97.02
349.057	112.38
349.44	135.21
349.823	135.66
350.206	164.36
350.588	218.6
350.971	205.04
351.354	231.25
351.737	243.45
352.119	264.24
352.502	253.62
352.884	302.66
353.267	291.81
353.65	294.53
354.032	310.57
354.414	300.63
354.797	313.51
355.179	315.77
355.562	333.17
355.944	331.14
356.326	328.2
356.709	353.96
357.091	320.74
357.473	325.94
357.855	348.31
358.238	337.01
358.62	340.85
359.002	337.46
359.384	357.35
359.766	346.73
360.148	325.94
360.53	345.82
360.912	343.34
361.294	348.08
361.676	356.22
362.057	335.2
362.439	335.2
362.821	309.44
363.203	320.97
363.584	318.48
363.966	316.9
364.348	338.14
364.729	316.67
365.111	321.42
365.493	338.14
365.874	311.93
366.256	327.07
366.637	305.15
367.019	311.47
367.4	311.93
367.781	319.16
368.163	313.28
368.544	301.76
368.925	312.6
369.306	340.63
369.688	316.45
370.069	300.18
370.45	321.42
370.831	315.77
371.212	318.48
371.593	311.7
371.974	318.71
372.355	316.67
372.736	316.45
373.117	301.98
373.498	317.35
373.879	313.73
374.26	314.41
374.641	314.41
375.021	326.39
375.402	342.66
375.783	310.34
376.163	307.41
376.544	329.55
376.925	341.98
377.305	340.17
377.686	337.91
378.066	330.68
378.447	332.04
378.827	315.32
379.208	336.11
379.588	325.26
379.968	347.41
380.349	314.41
380.729	348.54
381.109	355.09
381.489	357.58
381.87	332.04
382.25	341.3
382.63	312.15
383.01	337.01
383.39	345.82
383.77	356.9
384.15	353.96
384.53	347.63
384.91	349.89
385.29	343.11
385.67	360.51
386.049	353.73
386.429	332.72
386.809	353.51
387.189	335.43
387.568	334.98
387.948	361.64
388.328	351.7
388.707	355.32
389.087	371.36
389.466	344.92
389.846	351.02
390.225	352.83
390.605	346.5
390.984	355.09
391.363	361.19
391.743	377.01
392.122	383.34
392.501	357.35
392.881	336.78
393.26	352.38
393.639	377.46
394.018	387.63
394.397	352.83
394.776	377.91
395.155	380.4
395.534	370.91
395.913	384.69
396.292	363.9
396.671	389.21
397.05	369.33
397.429	384.02
397.808	389.21
398.186	377.24
398.565	353.96
398.944	382.21
399.323	380.17
399.701	376.78
400.08	376.33
400.458	394.86
400.837	391.25
401.215	406.84
401.594	384.92
401.972	373.62
402.351	412.04
402.729	393.73
403.107	380.63
403.486	406.84
403.864	403.22
404.242	409.55
404.62	402.09
404.999	393.51
405.377	397.8
405.755	405.71
406.133	416.78
406.511	408.87
406.889	405.71
407.267	417.91
407.645	442.32
408.023	444.13
408.401	405.03
408.779	437.35
409.156	442.09
409.534	422.43
409.912	436.67
410.29	463.34
410.667	442.32
411.045	440.06
411.422	465.82
411.8	465.37
412.178	471.92
412.555	478.25
412.933	463.56
413.31	467.63
413.687	457.46
414.065	465.6
414.442	470.34
414.819	482.54
415.197	481.41
415.574	466.73
415.951	466.05
416.328	481.87
416.705	489.78
417.082	488.19
417.46	499.27
417.837	483.45
418.214	492.04
418.591	492.71
418.967	479.15
419.344	496.55
419.721	495.2
420.098	496.33
420.475	500.62
420.852	538.59
421.228	522.54
421.605	522.32
421.982	511.24
422.358	538.59
422.735	530.23
423.111	525.03
423.488	527.06
423.864	530.68
424.241	548.08
424.617	554.63
424.994	552.82
425.37	552.37
425.746	538.14
426.123	540.62
426.499	555.76
426.875	582.43
427.251	566.61
427.627	555.08
428.003	578.36
428.379	567.29
428.756	600.73
429.132	595.76
429.507	609.77
429.883	596.67
430.259	614.07
430.635	592.82
431.011	610.45
431.387	617.23
431.763	620.39
432.138	612.03
432.514	622.43
432.89	630.56
433.265	631.01
433.641	634.86
434.016	658.81
434.392	664.46
434.767	678.24
435.143	652.71
435.518	640.73
435.894	704.91
436.269	682.54
436.644	692.71
437.02	695.19
437.395	702.65
437.77	709.2
438.145	712.37
438.52	714.4
438.895	702.2
439.271	673.27
439.646	701.07
440.021	715.98
440.395	716.66
440.77	720.73
441.145	741.52
441.52	732.71
441.895	750.56
442.27	752.82
442.645	759.82
443.019	762.54
443.394	778.58
443.769	759.6
444.143	768.41
444.518	778.36
444.892	775.64
445.267	789.88
445.641	777.23
446.016	770.9
446.39	779.71
446.764	781.07
447.139	801.18
447.513	795.3
447.887	784.91
448.262	822.42
448.636	809.09
449.01	794.4
449.384	785.81
449.758	834.17
450.132	810.9
450.506	815.42
450.88	857
451.254	865.81
451.628	841.18
452.002	870.78
452.376	855.64
452.75	864.45
453.123	872.14
453.497	861.29
453.871	872.59
454.244	916.88
454.618	889.76
454.992	927.73
455.365	916.2
455.739	932.25
456.112	915.98
456.486	947.39
456.859	927.28
457.232	952.36
457.606	943.77
457.979	938.58
458.352	974.28
458.725	1000.95
459.099	984.23
459.472	986.03
459.845	1006.6
460.218	1002.3
460.591	1027.61
460.964	1025.81
461.337	1029.65
461.71	1057.9
462.083	1093.83
462.456	1068.97
462.829	1093.38
463.201	1087.05
463.574	1100.38
463.947	1085.69
464.32	1136.31
464.692	1146.71
465.065	1181.51
465.438	1172.24
465.81	1190.1
466.183	1193.26
466.555	1177.67
466.928	1185.35
467.3	1214.95
467.672	1238
468.045	1264.44
468.417	1269.64
468.789	1248.85
469.161	1292.01
469.534	1317.32
469.906	1325.69
470.278	1344.89
470.65	1348.74
471.022	1381.05
471.394	1395.74
471.766	1420.82
472.138	1410.2
472.51	1435.06
472.882	1474.61
473.253	1461.28
473.625	1496.75
473.997	1515.51
474.369	1557.54
474.74	1575.17
475.112	1585.34
475.484	1654.26
475.855	1642.29
476.227	1692.68
476.598	1700.82
476.97	1716.64
477.341	1751.44
477.713	1772.91
478.084	1829.18
478.455	1833.69
478.827	1884.99
479.198	1913.92
479.569	1926.57
479.94	1970.41
480.311	1944.65
480.682	2048.83
481.053	2073.69
481.424	2113.46
481.795	2131.31
482.166	2174.25
482.537	2182.61
482.908	2224.87
483.279	2264.64
483.65	2320.01
484.021	2317.52
484.391	2378.54
484.762	2413.57
485.133	2440.46
485.503	2473.23
485.874	2520
486.244	2538.76
486.615	2602.04
486.985	2617.4
487.356	2642.94
487.726	2687.23
488.097	2712.77
488.467	2769.26
488.837	2823.27
489.207	2866.21
489.578	2905.98
489.948	2934
490.318	2971.97
490.688	2993.44
491.058	3070.27
491.428	3091.97
491.798	3117.28
492.168	3166.54
492.538	3188.69
492.908	3214.45
493.278	3270.04
493.648	3285.18
494.017	3366.99
494.387	3353.88
494.757	3393.43
495.126	3406.31
495.496	3428
495.866	3477.72
496.235	3495.12
496.605	3536.02
496.974	3525.4
497.344	3591.61
497.713	3584.38
498.082	3601.78
498.452	3661.44
498.821	3677.04
499.19	3729.01
499.559	3771.95
499.928	3768.11
500.298	3822.79
500.667	3839.52
501.036	3835
501.405	3853.08
501.774	3867.77
502.143	3944.15
502.512	3948.22
502.88	3923.36
503.249	3964.71
503.618	3960.64
503.987	3985.73
504.356	4045.39
504.724	4049.68
505.093	4055.33
505.462	4064.37
505.83	4088.55
506.199	4144.14
506.567	4171.49
506.936	4174.42
507.304	4186.85
507.672	4218.49
508.041	4251.94
508.409	4297.58
508.777	4279.51
509.145	4314.08
509.514	4338.94
509.882	4370.35
510.25	4353.18
510.618	4394.31
510.986	4379.16
511.354	4410.12
511.722	4416.45
512.09	4461.42
512.458	4461.2
512.826	4487.64
513.193	4535.54
513.561	4519.73
513.929	4521.53
514.297	4622.55
514.664	4568.09
515.032	4593.85
515.4	4612.6
515.767	4653.06
516.135	4640.63
516.502	4629.1
516.869	4722.66
517.237	4711.13
517.604	4698.93
517.972	4715.88
518.339	4771.7
518.706	4742.32
519.073	4776.67
519.44	4794.97
519.808	4841.07
520.175	4807.63
520.542	4868.64
520.909	4867.51
521.276	4893.5
521.643	4923.56
522.009	4969.43
522.376	4972.37
522.743	4996.1
523.11	5006.94
523.477	5052.59
523.843	5107.28
524.21	5077.68
524.577	5121.52
524.943	5152.93
525.31	5189.09
525.676	5192.93
526.043	5219.37
526.409	5266.82
526.776	5326.03
527.142	5323.09
527.508	5335.3
527.874	5352.92
528.241	5374.17
528.607	5424.11
528.973	5487.61
529.339	5476.54
529.705	5470.89
530.071	5533.71
530.437	5542.3
530.803	5576.65
531.169	5528.51
531.535	5604.22
531.901	5617.55
532.267	5706.81
532.632	5668.4
532.998	5730.09
533.364	5734.84
533.73	5782.52
534.095	5766.25
534.461	5802.86
534.826	5894.38
535.192	5865
535.557	5899.8
535.923	5946.81
536.288	5894.6
536.653	6035.84
537.019	5972.79
537.384	5984.77
537.749	6073.36
538.114	6036.97
538.479	6043.08
538.845	6116.07
539.21	6093.24
539.575	6076.3
539.94	6119.91
540.305	6180.02
540.67	6227.25
541.034	6216.86
541.399	6287.81
541.764	6240.13
542.129	6289.17
542.494	6315.16
542.858	6344.08
543.223	6312.9
543.587	6406.91
543.952	6435.16
544.316	6384.76
544.681	6437.87
545.045	6431.31
545.41	6501.37
545.774	6554.93
546.138	6542.27
546.503	6528.71
546.867	6633.79
547.231	6648.26
547.595	6635.15
547.959	6688.03
548.324	6648.48
548.688	6736.16
549.052	6761.7
549.416	6734.58
549.779	6740.46
550.143	6811.64
550.507	6805.54
550.871	6856.84
551.235	6791.53
551.599	6888.03
551.962	6931.19
552.326	6937.29
552.689	6922.15
553.053	6980.9
553.417	7022.26
553.78	7069.26
554.143	7049.15
554.507	7051.86
554.87	7083.5
555.234	7158.53
555.597	7153.55
555.96	7161.92
556.323	7152.2
556.686	7208.24
557.05	7245.98
557.413	7237.62
557.776	7323.95
558.139	7338.41
558.502	7296.6
558.865	7342.93
559.228	7375.02
559.59	7417.05
559.953	7404.85
560.316	7464.06
560.679	7464.51
561.041	7564.17
561.404	7510.38
561.767	7576.59
562.129	7577.72
562.492	7699.53
562.854	7610.04
563.217	7565.97
563.579	7746.76
563.941	7688.68
564.304	7724.16
564.666	7815.46
565.028	7777.95
565.39	7811.39
565.753	7833.54
566.115	7925.06
566.477	7899.75
566.839	7873.76
567.201	7970.93
567.563	7985.17
567.925	8032.85
568.287	8015.68
568.648	8079.41
569.01	8070.14
569.372	8143.81
569.734	8073.08
570.095	8199.63
570.457	8283.02
570.819	8253.41
571.18	8256.12
571.542	8273.53
571.903	8426.97
572.265	8407.08
572.626	8411.15
572.987	8438.49
573.349	8562.11
573.71	8587.42
574.071	8633.74
574.432	8672.16
574.794	8716.68
575.155	8743.57
575.516	8844.58
575.877	8835.54
576.238	8939.5
576.599	8996.22
576.96	8999.38
577.32	9103.33
577.681	9202.99
578.042	9266.04
578.403	9339.03
578.763	9461.06
579.124	9575.41
579.485	9604.34
579.845	9737.67
580.206	9768.85
580.566	9938.11
580.927	10016.76
581.287	10122.74
581.648	10229.41
582.008	10387.14
582.368	10528.83
582.728	10668.26
583.089	10752.33
583.449	10908.94
583.809	11119.78
584.169	11289.49
584.529	11372.2
584.889	11673.66
585.249	11741
585.609	11861.23
585.969	12099.64
586.329	12268
586.688	12506.41
587.048	12741.2
587.408	12817.36
587.768	13113.85
588.127	13290.12
588.487	13525.82
588.846	13832.25
589.206	13924.68
589.565	14129.64
589.925	14440.14
590.284	14716.75
590.643	14925.33
591.003	15190.63
591.362	15554.46
591.721	15657.06
592.08	15857.05
592.44	16173.66
592.799	16478.96
593.158	16741.78
593.517	17085.72
593.876	17364.36
594.235	17581.53
594.593	17892.26
594.952	18166.6
595.311	18364.56
595.67	18647.72
596.029	19070.98
596.387	19348.49
596.746	19682.04
597.104	19877.97
597.463	20172.2
597.822	20457.39
598.18	20645.63
598.538	20954.77
598.897	21394.99
599.255	21415.78
599.613	22020.28
599.972	22152.03
600.33	22463.21
600.688	22567.39
601.046	23041.05
601.404	23349.51
601.762	23603.97
602.12	23951.08
602.478	24247.34
602.836	24302.71
603.194	24549.26
603.552	24901.34
603.91	25062.46
604.268	25392.4
604.625	25514.2
604.983	25848.2
605.341	25999.61
605.698	26320.51
606.056	26569.09
606.413	26789.2
606.771	27157.55
607.128	27486.35
607.485	27555.28
607.843	27754.37
608.2	28091.76
608.557	28418.98
608.914	28450.4
609.272	28794.79
609.629	29048.12
609.986	29243.82
610.343	29327.44
610.7	29762.45
611.057	29820.08
611.414	30155.66
611.771	30353.62
612.127	30531.92
612.484	30657.8
612.841	30926.04
613.198	31011.01
613.554	31202.41
613.911	31478.11
614.267	31648.5
614.624	31782.29
614.98	31958.33
615.337	32249.62
615.693	32309.5
616.05	32340.69
616.406	32785.2
616.762	32774.8
617.118	32883.05
617.475	33028.35
617.831	33273.55
618.187	33343.15
618.543	33473.31
618.899	33919.63
619.255	33870.59
619.611	34110.81
619.967	34111.26
620.323	34238.72
620.678	34281.88
621.034	34229.68
621.39	34385.16
621.746	34529.56
622.101	34929.55
622.457	34758.93
622.812	34899.27
623.168	35077.57
623.523	35185.36
623.879	35377.22
624.234	35124.57
624.589	35418.12
624.945	35556.2
625.3	35607.72
625.655	35614.28
626.01	35714.84
626.365	35804.55
626.72	35806.81
627.075	36013.13
627.43	35985.79
627.785	35950.76
628.14	36167.03
628.495	36111.44
628.85	36146.92
629.205	35999.58
629.559	36329.96
629.914	36318.89
630.269	36315.05
630.623	36250.87
630.978	36293.58
631.332	36549.39
631.687	36599.11
632.041	36476.4
632.396	36583.97
632.75	36626.9
633.104	36514.36
633.459	36442.05
633.813	36578.54
634.167	36541.26
634.521	36538.32
634.875	36697.41
635.229	36536.51
635.583	36468.94
635.937	36485.66
636.291	36503.97
636.645	36537.87
636.999	36588.71
637.352	36685.43
637.706	36454.03
638.06	36583.52
638.413	36597.98
638.767	36598.88
639.121	36733.34
639.474	36452.22
639.828	36408.83
640.181	36586
640.534	36622.61
640.888	36647.69
641.241	36442.5
641.594	36379.68
641.947	36599.11
642.301	36486.34
642.654	36452.9
643.007	36494.25
643.36	36539.9
643.713	36385.33
644.066	36512.56
644.419	36207.25
644.771	36010.88
645.124	35752.58
645.477	35647.72
645.83	35516.2
646.182	35435.3
646.535	35359.37
646.888	35444.34
647.24	35270.78
647.593	35422.64
647.945	35327.05
648.298	35287.28
648.65	35076.89
649.002	35206.15
649.355	35345.36
649.707	35226.94
650.059	35397.56
650.411	35790.77
650.763	35787.6
651.115	36231.66
651.467	36133.58
651.819	36142.62
652.171	36123.87
652.523	35973.14
652.875	35968.62
653.227	35858.56
653.578	36093.36
653.93	36073.25
654.282	35836.42
654.633	35722.07
654.985	35854.5
655.337	35769.98
655.688	35851.56
656.039	36047.26
656.391	35779.02
656.742	35765.23
657.094	35784.67
657.445	35861.27
657.796	35720.49
658.147	35672.13
658.498	35773.82
658.849	35769.75
659.2	35768.85
659.551	35615.18
659.902	35784.21
660.253	35732.01
660.604	35859.47
660.955	35576.99
661.306	35831.44
661.656	35617.44
662.007	35613.6
662.358	35728.62
662.708	35743.76
663.059	35619.47
663.409	35529.31
663.76	35707.38
664.11	35581.51
664.461	35702.18
664.811	35614.95
665.161	35648.4
665.511	35520.94
665.862	35598.23
666.212	35710.54
666.562	35664.22
666.912	35595.07
667.262	35542.19
667.612	35573.37
667.962	35567.72
668.312	35570.89
668.662	35673.03
669.011	35612.69
669.361	35598
669.711	35581.96
670.06	35519.36
670.41	35335.41
670.76	35307.16
671.109	35550.32
671.459	35618.8
671.808	35407.05
672.157	35476.88
672.507	35339.48
672.856	35278.24
673.205	35377.67
673.554	35468.52
673.904	35320.05
674.253	35514.62
674.602	35339.71
674.951	34845.03
675.3	34587.18
675.649	35300.16
675.998	35131.58
676.346	35183.55
676.695	35327.28
677.044	35134.51
677.393	35295.64
677.741	35223.78
678.09	35100.62
678.438	34934.29
678.787	35110.79
679.135	35286.83
679.484	34875.99
679.832	35069.66
680.181	34815.88
680.529	34999.38
680.877	34769.1
681.225	34699.95
681.573	34922.32
681.922	34798.25
682.27	34615.66
682.618	34669.89
682.966	34519.84
683.314	34779.95
683.661	34607.52
684.009	34379.51
684.357	34341.77
684.705	34292.73
685.053	34186.29
685.4	34295.67
685.748	34150.59
686.095	34113.75
686.443	33944.04
686.79	33881.21
687.138	33985.17
687.485	33977.03
687.832	33861.78
688.18	33866.3
688.527	33690.94
688.874	33572.75
689.221	33596.7
689.568	33513.54
689.915	33395.12
690.262	33505.4
690.609	33238.97
690.956	33100.44
691.303	33224.06
691.65	33104.06
691.997	33063.83
692.344	32883.95
692.69	32996.94
693.037	32913.1
693.383	32690.06
693.73	32798.08
694.077	32670.85
694.423	32550.18
694.769	32519.67
695.116	32348.15
695.462	32429.05
695.808	32250.52
696.155	32313.35
696.501	32082.62
696.847	32106.12
697.193	31817.31
697.539	31976.63
697.885	31706.81
698.231	31666.36
698.577	31488.06
698.923	31449.87
699.269	31363.09
699.614	31128.29
699.96	31176.43
700.306	31214.17
700.651	31031.35
700.997	30982.76
701.342	30955.64
701.688	30894.17
702.033	30874.51
702.379	30778.47
702.724	30581.41
703.069	30753.61
703.415	30409.44
703.76	30508.19
704.105	30449.67
704.45	30390.46
704.795	30091.26
705.14	30079.51
705.485	30105.27
705.83	29909.79
706.175	30000.64
706.52	29928.55
706.865	29836.12
707.209	29844.26
707.554	29625.05
707.899	29815.11
708.243	29655.11
708.588	29568.78
708.932	29326.31
709.277	29330.6
709.621	29392.07
709.966	29054.22
710.31	29233.65
710.654	28926.09
710.998	28981.23
711.342	29035.69
711.687	28960.44
712.031	28737.85
712.375	28621.92
712.719	28686.77
713.063	28548.02
713.407	28677.96
713.75	28583.5
714.094	28622.14
714.438	28441.36
714.782	28508.7
715.125	28320.91
715.469	28409.04
715.812	28244.98
716.156	28066.9
716.499	28069.62
716.843	28054.47
717.186	28020.12
717.53	28081.14
717.873	28084.98
718.216	27957.75
718.559	27810.19
718.902	27661.26
719.246	27751.21
719.589	27658.78
719.932	27534.04
720.275	27532.23
720.617	27541.95
720.96	27417.2
721.303	27351.44
721.646	27391.89
721.989	27341.95
722.331	27353.7
722.674	27335.17
723.016	27244.78
723.359	27170.66
723.701	27237.77
724.044	27022.64
724.386	26985.8
724.729	27151.67
725.071	26928.4
725.413	26870.55
725.755	26873.94
726.097	26874.17
726.439	26609.77
726.782	26666.04
727.124	26774.96
727.465	26679.37
727.807	26652.25
728.149	26606.15
728.491	26462.88
728.833	26620.39
729.175	26435.99
729.516	26362.99
729.858	26403.44
730.199	26449.32
730.541	26267.4
730.882	26363.22
731.224	26439.38
731.565	26170.91
731.906	26091.59
732.248	26208.87
732.589	26024.47
732.93	25974.98
733.271	26055.66
733.612	25975.88
733.953	25989.9
734.294	25915.32
734.635	25761.43
734.976	25856.57
735.317	25623.13
735.658	25680.53
735.999	25593.52
736.339	25608.66
736.68	25645.72
737.021	25701.54
737.361	25517.14
737.702	25551.72
738.042	25585.16
738.383	25416.35
738.723	25471.49
739.063	25369.57
739.404	25404.15
739.744	25389.23
740.084	25270.82
740.424	25371.15
740.764	25226.07
741.104	25324.38
741.444	25146.98
741.784	25167.54
742.124	25111.05
742.464	25175.91
742.804	25042.35
743.143	24945.4
743.483	25003.25
743.823	24916.93
744.162	24777.72
744.502	24941.34
744.841	24823.6
745.181	24810.27
745.52	24738.63
745.86	24792.64
746.199	24652.3
746.538	24749.25
746.877	24758.29
747.216	24652.98
747.556	24693.88
747.895	24566.66
748.234	24573.44
748.573	24490.95
748.911	24521.91
749.25	24469.26
749.589	24293.22
749.928	24327.11
750.267	24310.84
750.605	24300.67
750.944	24192.43
751.283	24177.74
751.621	24234.91
751.96	24069.49
752.298	24099.1
752.636	24026.56
752.975	23851.42
753.313	23845.55
753.651	24013.22
753.989	23764.64
754.327	23779.33
754.666	23598.32
755.004	23807.58
755.342	23655.04
755.679	23662.27
756.017	23606.23
756.355	23573.69
756.693	23511.99
757.031	23490.75
757.368	23334.15
757.706	23234.04
758.044	23345.67
758.381	23297.54
758.719	23176.18
759.056	23195.62
759.394	23112.68
759.731	22943.65
760.068	23141.61
760.405	22875.18
760.743	22801.28
761.08	22859.81
761.417	22718.57
761.754	22708.85
762.091	22655.29
762.428	22575.75
762.765	22483.55
763.102	22426.83
763.438	22314.29
763.775	22333.04
764.112	22345.02
764.449	22393.38
764.785	22207.4
765.122	22102.09
765.458	21944.8
765.795	21818.25
766.131	21957.01
766.467	21884.24
766.804	21745.04
767.14	21745.71
767.476	21618.71
767.812	21544.14
768.148	21553.4
768.485	21419.39
768.821	21399.51
769.157	21389.11
769.492	21180.3
769.828	21269.12
770.164	21026.64
770.5	20984.6
770.836	20991.38
771.171	20813.08
771.507	20769.69
771.842	20559.53
772.178	20589.36
772.513	20551.62
772.849	20574.22
773.184	20396.82
773.519	20441.57
773.855	20252.19
774.19	20172.2
774.525	20197.73
774.86	20176.04
775.195	20118.19
775.53	20015.14
775.865	19943.95
776.2	19746.9
776.535	19706.9
776.87	19618.54
777.205	19599.33
777.539	19419.22
777.874	19533.12
778.209	19416.28
778.543	19310.98
778.878	19268.49
779.212	19158.66
779.547	19094.26
779.881	19154.6
780.215	19041.6
780.55	19035.5
780.884	18885.22
781.218	18880.25
781.552	18827.6
781.886	18720.26
782.22	18574.72
782.554	18565.68
782.888	18357.1
783.222	18363.2
783.556	18147.16
783.889	18284.34
784.223	18145.13
784.557	18055.42
784.89	18102.42
785.224	18016.32
785.557	17887.96
785.891	17856.1
786.224	17810.45
786.558	17741.98
786.891	17592.6
787.224	17538.14
787.557	17574.75
787.891	17480.29
788.224	17420.63
788.557	17476.67
788.89	17287.3
789.223	17309.9
789.556	17158.49
789.888	17215.21
790.221	17057.93
790.554	17034.2
790.887	16835.79
791.219	16894.54
791.552	16878.04
791.884	16850.7
792.217	16713.08
792.549	16735.45
792.882	16572.06
793.214	16494.1
793.546	16440.99
793.879	16386.53
794.211	16257.27
794.543	16361.9
794.875	16278.96
795.207	16379.07
795.539	16200.77
795.871	16161.45
796.203	16015.02
796.535	15965.75
796.867	15943.61
797.198	15831.29
797.53	15848.47
797.862	15788.58
798.193	15797.85
798.525	15705.19
798.856	15696.61
799.188	15602.82
799.519	15549.27
799.85	15367.58
800.182	15535.71
800.513	15427.24
800.844	15316.5
801.175	15396.5
801.506	15304.07
801.837	15215.94
802.168	15088.04
802.499	15151.54
802.83	15047.58
803.161	15032.9
803.491	15017.75
803.822	15044.65
804.153	14911.77
804.483	14826.57
804.814	14747.03
805.145	14726.01
805.475	14638.78
805.805	14622.51
806.136	14681.49
806.466	14598.78
806.796	14533.02
807.126	14440.82
807.457	14411.22
807.787	14406.02
808.117	14299.36
808.447	14302.97
808.777	14336.19
809.107	14290.99
809.436	14309.07
809.766	14200.15
810.096	14139.13
810.426	14169.19
810.755	14079.7
811.085	14093.03
811.414	13980.72
811.744	13977.1
812.073	13839.93
812.403	13933.72
812.732	13852.59
813.061	13791.12
813.39	13805.13
813.719	13713.38
814.049	13811.23
814.378	13745.92
814.707	13613.72
815.036	13681.07
815.365	13535.99
815.693	13482.43
816.022	13455.31
816.351	13365.37
816.68	13358.59
817.008	13375.54
817.337	13316.33
817.665	13274.98
817.994	13288.53
818.322	13249.44
818.651	13164.47
818.979	13133.28
819.307	13220.06
819.636	13168.99
819.964	13068.43
820.292	13076.34
820.62	12993.4
820.948	13065.94
821.276	13000.18
821.604	12991.37
821.932	13052.16
822.259	13030.24
822.587	12997.92
822.915	12934.19
823.243	13030.46
823.57	12987.53
823.898	12960.63
824.225	12919.73
824.553	12993.4
824.88	13020.75
825.207	13005.15
825.535	12976
825.862	12877.7
826.189	12997.47
826.516	13009.45
826.843	13023.91
827.17	12961.76
827.497	12933.52
827.824	12962.67
828.151	12940.52
828.478	12922.89
828.805	12978.94
829.131	13010.58
829.458	12915.66
829.785	12853.74
830.111	12919.05
830.438	12990.69
830.764	12887.87
831.09	12992.05
831.417	12881.09
831.743	12925.38
832.069	12901.43
832.395	12927.19
832.722	12921.09
833.048	12875.89
833.374	12812.39
833.7	12841.77
834.026	12850.58
834.351	12842.22
834.677	12813.74
835.003	12895.78
835.329	12794.76
835.654	12767.87
835.98	12715.22
836.306	12661.88
836.631	12652.85
836.956	12679.51
837.282	12712.73
837.607	12659.62
837.932	12613.3
838.258	12560.42
838.583	12571.27
838.908	12475.22
839.233	12518.39
839.558	12577.82
839.883	12487.65
840.208	12392.29
840.533	12472.96
840.858	12435.22
841.182	12425.96
841.507	12316.13
841.832	12345.51
842.156	12325.62
842.481	12270.93
842.805	12360.2
843.13	12214.21
843.454	12206.3
843.778	12192.52
844.103	12181.45
844.427	12068.68
844.751	12152.97
845.075	12064.16
845.399	11994.78
845.723	11954.78
846.047	11990.04
846.371	11846.99
846.695	11849.02
847.019	11812.87
847.343	11719.99
847.666	11669.82
847.99	11675.24
848.313	11653.32
848.637	11568.13
848.96	11595.02
849.284	11539.2
849.607	11405.87
849.931	11409.26
850.254	11260.11
850.577	11335.37
850.9	11214.69
851.223	11109.61
851.546	11043.17
851.869	11021.02
852.192	11083.4
852.515	10997.52
852.838	10994.36
853.161	10981.48
853.483	10935.38
853.806	10836.4
854.129	10859.9
854.451	10814.7
854.774	10713.69
855.096	10732.22
855.419	10644.99
855.741	10693.57
856.063	10577.19
856.385	10589.85
856.708	10558.89
857.03	10528.61
857.352	10558.66
857.674	10454.94
857.996	10431.21
858.318	10352.34
858.64	10356.18
858.961	10405.9
859.283	10304.43
859.605	10238.45
859.926	10281.38
860.248	10267.6
860.57	10187.15
860.891	10217.43
861.212	10131.78
861.534	10099.24
861.855	10142.4
862.176	10053.37
862.498	10140.59
862.819	10072.8
863.14	10029.19
863.461	10000.26
863.782	9979.02
864.103	9921.84
864.424	9947.83
864.745	9924.78
865.065	9896.99
865.386	9846.82
865.707	9883.88
866.027	9876.42
866.348	9758.91
866.668	9848.17
866.989	9728.85
867.309	9751
867.63	9726.59
867.95	9761.4
868.27	9644.34
868.59	9715.75
868.91	9706.48
869.23	9680.04
869.55	9636.65
869.87	9603.89
870.19	9652.47
870.51	9630.78
870.83	9687.73
871.15	9531.35
871.469	9568.63
871.789	9576.32
872.109	9515.75
872.428	9464.91
872.748	9545.81
873.067	9472.59
873.386	9480.73
873.706	9388.3
874.025	9454.06
874.344	9402.99
874.663	9405.02
874.982	9357.11
875.301	9389.2
875.62	9338.58
875.939	9369.54
876.258	9373.38
876.577	9309.66
876.896	9296.1
877.214	9283.44
877.533	9229.21
877.852	9298.13
878.17	9239.6
878.489	9263.33
878.807	9244.35
879.125	9228.53
879.444	9191.47
879.762	9225.36
880.08	9181.07
880.398	9123.9
880.716	9115.99
881.034	9168.64
881.352	9108.08
881.67	9077.8
881.988	9049.1
882.306	9023.79
882.624	9013.62
882.941	8997.57
883.259	8919.61
883.577	8858.59
883.894	8943.79
884.212	8908.31
884.529	8924.13
884.846	8843
885.164	8811.59
885.481	8820.4
885.798	8821.99
886.115	8761.65
886.432	8788.54
886.75	8709.45
887.067	8728.43
887.383	8650.01
887.7	8673.74
888.017	8669.45
888.334	8632.16
888.651	8583.57
888.967	8587.64
889.284	8580.41
889.6	8491.6
889.917	8472.16
890.233	8525.27
890.55	8423.8
890.866	8454.54
891.182	8366.86
891.498	8378.16
891.815	8365.95
892.131	8332.96
892.447	8317.37
892.763	8320.53
893.079	8253.19
893.395	8297.93
893.71	8174.32
894.026	8187.2
894.342	8192.62
894.657	8161.66
894.973	8122.57
895.289	8074.21
895.604	8102.68
895.92	8035.11
896.235	8025.4
896.55	8014.1
896.865	7982.46
897.181	7993.08
897.496	7951.5
897.811	7853.42
898.126	7818.4
898.441	7829.02
898.756	7801.9
899.071	7815.91
899.386	7763.26
899.7	7736.59
900.015	7659.3
900.33	7694.33
900.644	7682.35
900.959	7666.31
901.273	7545.63
901.588	7548.8
901.902	7545.18
902.216	7459.76
902.531	7495.69
902.845	7484.85
903.159	7385.19
903.473	7368.92
903.787	7321.23
904.101	7306.77
904.415	7369.14
904.729	7271.97
905.042	7247.11
905.356	7314.68
905.67	7232.87
905.984	7158.53
906.297	7168.02
906.611	7189.26
906.924	7144.06
907.237	7070.85
907.551	7084.63
907.864	7021.58
908.177	7029.94
908.491	6965.09
908.804	6975.25
909.117	6909.72
909.43	6892.77
909.743	6872.43
910.056	6839.21
910.368	6825.88
910.681	6750.18
910.994	6791.08
911.307	6702.04
911.619	6688.71
911.932	6716.28
912.244	6618.43
912.557	6574.14
912.869	6601.48
913.181	6577.75
913.494	6505.89
913.806	6486.23
914.118	6464.99
914.43	6495.04
914.742	6447.36
915.054	6418.66
915.366	6339.56
915.678	6350.41
915.99	6317.19
916.302	6253.92
916.613	6294.37
916.925	6337.53
917.236	6294.14
917.548	6222.05
917.859	6164.65
918.171	6134.6
918.482	6117.42
918.794	6122.62
919.105	6112
919.416	6006.47
919.727	6023.42
920.038	6022.51
920.349	5952
920.66	5956.07
920.971	5917.43
921.282	5925.34
921.593	5854.83
921.903	5825.23
922.214	5843.08
922.525	5777.32
922.835	5772.8
923.146	5742.07
923.456	5716.53
923.767	5731.45
924.077	5692.12
924.387	5641.05
924.697	5648.06
925.008	5607.15
925.318	5577.55
925.628	5558.79
925.938	5557.44
926.248	5482.64
926.558	5467.72
926.867	5415.52
927.177	5436.09
927.487	5382.53
927.796	5385.92
928.106	5402.41
928.416	5307.95
928.725	5384.79
929.034	5312.93
929.344	5304.56
929.653	5277.22
929.962	5242.64
930.271	5215.98
930.581	5267.5
930.89	5182.53
931.199	5174.17
931.508	5124.23
931.817	5145.7
932.125	5122.87
932.434	5034.29
932.743	5072.03
933.051	5015.53
933.36	5030.67
933.669	4976.21
933.977	4943.67
934.286	4997.23
934.594	4921.75
934.902	4877.46
935.21	4917.46
935.519	4819.6
935.827	4855.08
936.135	4837.68
936.443	4769.66
936.751	4782.54
937.059	4779.61
937.367	4764.92
937.674	4768.31
937.982	4735.09
938.29	4667.07
938.597	4705.26
938.905	4648.76
939.213	4615.99
939.52	4621.87
939.827	4589.1
940.135	4561.31
940.442	4537.8
940.749	4540.06
941.056	4520.18
941.363	4455.32
941.67	4482.44
941.977	4470.69
942.284	4429.78
942.591	4423.68
942.898	4416.45
943.205	4383.01
943.511	4350.92
943.818	4323.35
944.125	4284.03
944.431	4354.08
944.738	4307.08
945.044	4255.55
945.35	4279.51
945.657	4213.75
945.963	4206.97
946.269	4185.95
946.575	4164.03
946.881	4131.49
947.187	4156.35
947.493	4112.28
947.799	4099.4
948.105	4052.62
948.41	4031.38
948.716	4055.33
949.022	3998.38
949.327	4056.01
949.633	3957.48
949.938	3989.8
950.244	3953.86
950.549	3913.64
950.854	3938.95
951.16	3905.5
951.465	3855.34
951.77	3894.66
952.075	3857.14
952.38	3872.29
952.685	3825.28
952.99	3800.65
953.294	3794.32
953.599	3799.74
953.904	3761.55
954.209	3738.96
954.513	3762.68
954.818	3744.38
955.122	3708
955.426	3661.67
955.731	3637.49
956.035	3623.25
956.339	3625.96
956.643	3636.13
956.948	3611.28
957.252	3576.93
957.556	3580.77
957.86	3588.22
958.163	3550.26
958.467	3549.36
958.771	3514.1
959.075	3526.98
959.378	3483.14
959.682	3480.21
959.985	3456.02
960.289	3442.01
960.592	3384.61
960.896	3420.32
961.199	3434.56
961.502	3364.5
961.805	3417.61
962.108	3333.54
962.411	3363.82
962.714	3303.71
963.017	3291.28
963.32	3298.06
963.623	3262.13
963.926	3264.39
964.228	3234.56
964.531	3242.02
964.833	3242.02
965.136	3211.06
965.438	3223.04
965.741	3191.17
966.043	3179.87
966.345	3127.22
966.648	3134
966.95	3134
967.252	3134.23
967.554	3094.68
967.856	3110.72
968.158	3093.55
968.46	3107.79
968.761	3089.03
969.063	3051.06
969.365	3068.46
969.666	3044.28
969.968	3011.74
970.269	3018.75
970.571	2984.62
970.872	2957.51
971.174	2964.74
971.475	2930.39
971.776	2941.01
972.077	2903.05
972.378	2905.08
972.679	2867.34
972.98	2871.86
973.281	2879.32
973.582	2844.06
973.883	2862.14
974.183	2834.8
974.484	2797.51
974.785	2796.38
975.085	2790.05
975.386	2799.09
975.686	2775.14
975.986	2762.94
976.287	2769.26
976.587	2734.46
976.887	2712.77
977.187	2681.58
977.487	2669.83
977.787	2669.6
978.087	2658.08
978.387	2672.77
978.687	2665.09
978.987	2652.66
979.286	2618.31
979.586	2648.59
979.885	2580.34
980.185	2587.8
980.484	2590.06
980.784	2556.16
981.083	2553.68
981.382	2516.84
981.682	2534.69
981.981	2529.04
982.28	2544.64
982.579	2528.37
982.878	2484.53
983.177	2471.42
983.475	2461.93
983.774	2454.24
984.073	2425.77
984.372	2445.43
984.67	2444.3
984.969	2423.74
985.267	2437.07
985.566	2385.09
985.864	2423.28
986.162	2397.97
986.461	2343.06
986.759	2364.53
987.057	2347.35
987.355	2354.13
987.653	2348.26
987.951	2320.91
988.249	2282.72
988.547	2296.28
988.844	2282.72
989.142	2241.82
989.44	2271.88
989.737	2244.53
990.035	2258.54
990.332	2226.45
990.63	2240.46
990.927	2207.24
991.224	2207.47
991.521	2209.05
991.819	2198.66
992.116	2145.1
992.413	2147.81
992.71	2149.84
993.006	2153.69
993.303	2141.03
993.6	2140.58
993.897	2139
994.193	2103.97
994.49	2088.38
994.787	2097.64
995.083	2064.65
995.379	2046.34
995.676	2062.62
995.972	2025.33
996.268	2035.05
996.565	2033.92
996.861	1994.37
997.157	1995.5
997.453	2013.8
997.749	2004.99
998.044	2026.46
998.34	1978.78
998.636	1981.04
998.932	1927.03
999.227	1964.76
999.523	1963.41
999.818	1911.88
1000.114	1913.92
1000.409	1883.18
1000.704	1856.74
1001	1913.92
1001.295	1904.88
1001.59	1827.37
1001.885	1851.77
1002.18	1840.7
1002.475	1847.25
1002.77	1828.72
1003.065	1788.72
1003.359	1814.03
1003.654	1791.44
1003.949	1806.35
1004.243	1782.4
1004.538	1747.6
1004.832	1773.81
1005.127	1770.87
1005.421	1730.65
1005.715	1744.66
1006.009	1741.49
1006.304	1721.38
1006.598	1720.93
1006.892	1690.65
1007.186	1663.3
1007.48	1652.46
1007.773	1659.24
1008.067	1691.33
1008.361	1670.76
1008.655	1638.9
1008.948	1620.82
1009.242	1640.25
1009.535	1598.22
1009.829	1579.46
1010.122	1602.06
1010.415	1608.16
1010.708	1589.63
1011.001	1598.67
1011.295	1594.15
1011.588	1540.14
1011.881	1519.8
1012.173	1534.27
1012.466	1509.18
1012.759	1513.48
1013.052	1514.83
1013.344	1505.34
1013.637	1488.17
1013.93	1473.7
1014.222	1490.88
1014.514	1476.19
1014.807	1460.15
1015.099	1453.59
1015.391	1443.65
1015.683	1415.85
1015.976	1424.21
1016.268	1414.5
1016.56	1397.32
1016.851	1416.53
1017.143	1391.45
1017.435	1379.7
1017.727	1360.94
1018.018	1374.27
1018.31	1362.07
1018.602	1345.35
1018.893	1329.08
1019.185	1388.51
1019.476	1350.09
1019.767	1313.71
1020.058	1309.41
1020.35	1313.93
1020.641	1260.15
1020.932	1281.17
1021.223	1296.76
1021.514	1270.77
1021.804	1262.41
1022.095	1275.07
1022.386	1282.3
1022.677	1255.4
1022.967	1209.53
1023.258	1228.06
1023.548	1233.48
1023.839	1229.42
1024.129	1216.76
1024.419	1180.6
1024.709	1203.65
1025	1141.51
1025.29	1182.86
1025.58	1149.19
1025.87	1136.54
1026.16	1175.63
1026.449	1142.64
1026.739	1133.6
1027.029	1123.43
1027.319	1116.65
1027.608	1118.69
1027.898	1107.61
1028.187	1103.54
1028.477	1095.18
1028.766	1080.04
1029.055	1074.62
1029.344	1049.99
1029.634	1072.13
1029.923	1060.16
1030.212	1066.71
1030.501	1048.63
1030.79	1046.37
1031.078	1023.32
1031.367	997.78
1031.656	1023.77
1031.945	1003.66
1032.233	1030.1
1032.522	1003.89
1032.81	976.09
1033.099	981.51
1033.387	984.23
1033.675	963.44
1033.963	980.38
1034.251	957.79
1034.54	988.52
1034.828	971.8
1035.116	957.33
1035.403	936.09
1035.691	932.93
1035.979	934.06
1036.267	946.94
1036.554	946.49
1036.842	920.27
1037.129	933.15
1037.417	909.88
1037.704	901.06
1037.992	903.1
1038.279	923.66
1038.566	905.58
1038.853	905.58
1039.14	905.58
