Data from hue_350_FLMS001491_98.txt Node
Date: Mon Feb 06 15:38:47 GMT 2017
User: dcchb
Spectrometer: FLMS00149
Trigger mode: 0
Integration Time (sec): 2.000000E-2
Scans to average: 10
Electric dark correction enabled: true
Nonlinearity correction enabled: false
Boxcar width: 0
XAxis mode: Wavelengths
Number of Pixels in Spectrum: 2048
>>>>>Begin Spectral Data<<<<<
341.393	-0.58
341.776	-0.58
342.16	-0.58
342.543	-54.81
342.927	-64.76
343.31	-73.57
343.693	-53.46
344.077	-65.89
344.46	-46.23
344.843	-45.1
345.226	-40.13
345.61	-36.96
345.993	-53.46
346.376	1.68
346.759	5.75
347.142	9.14
347.525	35.35
347.908	57.27
348.291	76.03
348.674	105.18
349.057	124.39
349.44	139.08
349.823	130.04
350.206	163.03
350.588	189.02
350.971	205.97
351.354	225.86
351.737	240.77
352.119	271.5
352.502	258.62
352.884	278.06
353.267	252.3
353.65	284.61
354.032	316.47
354.414	290.71
354.797	291.16
355.179	326.42
355.562	304.27
355.944	311.5
356.326	328.9
356.709	319.41
357.091	326.87
357.473	321.9
357.855	314.21
358.238	351.95
358.62	336.81
359.002	333.65
359.384	357.83
359.766	335.23
360.148	338.17
360.53	333.88
360.912	342.69
361.294	334.55
361.676	319.64
362.057	333.65
362.439	324.38
362.821	307.66
363.203	327.77
363.584	324.84
363.966	335.68
364.348	317.6
364.729	325.51
365.111	315.12
365.493	323.03
365.874	325.97
366.256	319.64
366.637	316.02
367.019	309.92
367.4	318.96
367.781	304.95
368.163	307.89
368.544	298.17
368.925	306.31
369.306	307.44
369.688	316.25
370.069	292.07
370.45	303.59
370.831	286.65
371.212	285.74
371.593	323.48
371.974	291.84
372.355	308.57
372.736	304.27
373.117	299.75
373.498	313.31
373.879	318.06
374.26	331.62
374.641	310.37
375.021	341.33
375.402	329.58
375.783	314.67
376.163	320.99
376.544	317.83
376.925	313.54
377.305	309.92
377.686	293.65
378.066	313.99
378.447	322.8
378.827	350.37
379.208	323.71
379.588	323.03
379.968	322.58
380.349	310.15
380.729	331.84
381.109	327.32
381.489	316.47
381.87	324.61
382.25	317.38
382.63	324.61
383.01	355.34
383.39	323.71
383.77	316.47
384.15	311.05
384.53	329.81
384.91	352.86
385.29	337.72
385.67	342.24
386.049	357.15
386.429	335.23
386.809	344.04
387.189	358.96
387.568	353.99
387.948	335.01
388.328	337.27
388.707	362.35
389.087	343.14
389.466	356.7
389.846	384.04
390.225	356.02
390.605	343.37
390.984	362.35
391.363	355.12
391.743	354.21
392.122	364.16
392.501	362.8
392.881	369.81
393.26	373.87
393.639	379.98
394.018	379.3
394.397	349.47
394.776	356.25
395.155	344.72
395.534	355.12
395.913	370.71
396.292	365.06
396.671	368.68
397.05	377.94
397.429	360.99
397.808	380.43
398.186	378.62
398.565	382.01
398.944	380.65
399.323	392.18
399.701	383.14
400.08	377.72
400.458	365.06
400.837	384.5
401.215	393.76
401.594	391.95
401.972	397.6
402.351	382.24
402.729	403.93
403.107	380.2
403.486	410.94
403.864	398.73
404.242	381.33
404.62	406.19
404.999	416.13
405.377	403.48
405.755	405.29
406.133	408.45
406.511	403.7
406.889	399.18
407.267	437.6
407.645	432.86
408.023	414.55
408.401	436.7
408.779	411.61
409.156	421.1
409.534	445.74
409.912	432.18
410.29	427.43
410.667	419.52
411.045	452.06
411.422	434.44
411.8	468.34
412.178	457.04
412.555	462.01
412.933	480.09
413.31	487.32
413.687	476.24
414.065	460.88
414.442	474.44
414.819	477.37
415.197	473.76
415.574	460.65
415.951	500.88
416.328	495.23
416.705	467.21
417.082	489.8
417.46	489.13
417.837	478.05
418.214	493.19
418.591	515.11
418.967	525.96
419.344	491.61
419.721	498.62
420.098	518.73
420.475	508.33
420.852	522.35
421.228	508.33
421.605	544.94
421.982	529.8
422.358	520.76
422.735	544.72
423.111	549.69
423.488	554.21
423.864	554.66
424.241	562.12
424.617	543.36
424.994	567.77
425.37	554.66
425.746	592.63
426.123	556.69
426.499	562.34
426.875	593.53
427.251	583.81
427.627	598.5
428.003	563.7
428.379	597.82
428.756	609.12
429.132	578.61
429.507	619.97
429.883	619.97
430.259	617.03
430.635	642.34
431.011	638.27
431.387	610.03
431.763	657.48
432.138	637.6
432.514	655.9
432.89	651.16
433.265	670.59
433.641	655.45
434.016	660.65
434.392	672.17
434.767	679.18
435.143	675.11
435.518	688.22
435.894	710.36
436.269	713.53
436.644	709.46
437.02	716.46
437.395	690.93
437.77	732.96
438.145	722.57
438.52	726.63
438.895	725.5
439.271	714.66
439.646	769.34
440.021	737.25
440.395	739.51
440.77	755.33
441.145	759.17
441.52	779.51
441.895	756.46
442.27	776.35
442.645	763.47
443.019	763.02
443.394	783.58
443.769	800.53
444.143	780.42
444.518	775.45
444.892	789
445.267	833.07
445.641	807.99
446.016	808.89
446.39	797.37
446.764	842.34
447.139	824.48
447.513	831.26
447.887	807.31
448.262	838.27
448.636	844.6
449.01	859.96
449.384	833.52
449.758	843.92
450.132	855.22
450.506	871.26
450.88	871.94
451.254	866.52
451.628	867.65
452.002	869.91
452.376	881.88
452.75	895.67
453.123	868.78
453.497	913.52
453.871	917.36
454.244	903.35
454.618	951.71
454.992	932.73
455.365	925.27
455.739	932.73
456.112	979.06
456.486	948.77
456.859	991.26
457.232	989
457.606	989.9
457.979	983.12
458.352	1023.8
458.725	1013.86
459.099	1007.3
459.472	1059.28
459.845	1044.82
460.218	1053.63
460.591	1071.48
460.964	1060.18
461.337	1095.21
461.71	1104.02
462.083	1101.76
462.456	1097.02
462.829	1100.18
463.201	1109.45
463.574	1116.91
463.947	1158.26
464.32	1179.73
464.692	1190.8
465.065	1186.06
465.438	1170.46
465.81	1200.29
466.183	1227.41
466.555	1268.99
466.928	1242.33
467.3	1247.07
467.672	1250.24
468.045	1316.22
468.417	1296.34
468.789	1302.44
469.161	1319.61
469.534	1322.32
469.906	1358.03
470.278	1376.11
470.65	1362.1
471.022	1397.58
471.394	1411.81
471.766	1449.78
472.138	1457.69
472.51	1504.24
472.882	1521.87
473.253	1520.96
473.625	1572.49
473.997	1570.91
474.369	1593.28
474.74	1618.36
475.112	1640.96
475.484	1672.82
475.855	1684.57
476.227	1688.64
476.598	1730.45
476.97	1778.13
477.341	1796.66
477.713	1854.97
478.084	1850.22
478.455	1871.01
478.827	1902.65
479.198	1929.99
479.569	1933.83
479.94	2002.08
480.311	2041.85
480.682	2056.09
481.053	2110.78
481.424	2146.71
481.795	2132.25
482.166	2190.32
482.537	2229.42
482.908	2249.08
483.279	2293.6
483.65	2344.22
484.021	2387.38
484.391	2435.74
484.762	2458.34
485.133	2484.33
485.503	2492.01
485.874	2553.7
486.244	2556.42
486.615	2640.48
486.985	2663.98
487.356	2726.81
487.726	2721.16
488.097	2770.87
488.467	2787.37
488.837	2856.97
489.207	2866.01
489.578	2896.97
489.948	2942.39
490.318	3003.18
490.688	3017.19
491.058	3071.66
491.428	3107.81
491.798	3124.76
492.168	3199.34
492.538	3247.92
492.908	3253.8
493.278	3292.67
493.648	3342.84
494.017	3336.73
494.387	3366.34
494.757	3408.37
495.126	3444.3
495.496	3443.4
495.866	3483.85
496.235	3501.93
496.605	3543.28
496.974	3553.45
497.344	3604.07
497.713	3633
498.082	3638.2
498.452	3677.29
498.821	3713.67
499.19	3681.13
499.559	3743.28
499.928	3803.16
500.298	3807.91
500.667	3857.85
501.036	3831.86
501.405	3898.3
501.774	3870.96
502.143	3910.5
502.512	3915.25
502.88	3972.2
503.249	3974.01
503.618	3993.67
503.987	4013.78
504.356	4026.21
504.724	4055.81
505.093	4056.26
505.462	4067.56
505.83	4080.9
506.199	4080.9
506.567	4113.66
506.936	4162.7
507.304	4241.12
507.672	4225.75
508.041	4208.58
508.409	4224.62
508.777	4291.96
509.145	4337.61
509.514	4225.3
509.882	4320.66
510.25	4354.56
510.618	4348.01
510.986	4426.42
511.354	4388.68
511.722	4450.6
512.09	4405.63
512.458	4443.37
512.826	4467.33
513.193	4494.22
513.561	4529.7
513.929	4538.74
514.297	4581.67
514.664	4566.53
515.032	4585.52
515.4	4649.47
515.767	4676.81
516.135	4658.96
516.502	4625.06
516.869	4775.11
517.237	4711.39
517.604	4665.74
517.972	4715.46
518.339	4775.11
518.706	4766.53
519.073	4798.84
519.44	4797.71
519.808	4787.54
520.175	4853.53
520.542	4848.11
520.909	4882.46
521.276	4924.94
521.643	4942.12
522.009	4957.03
522.376	4976.24
522.743	4973.98
523.11	5020.08
523.477	5043.36
523.843	5060.08
524.21	5082
524.577	5124.71
524.943	5120.87
525.31	5195.22
525.676	5197.02
526.043	5225.95
526.409	5252.16
526.776	5305.95
527.142	5316.12
527.508	5281.99
527.874	5355.44
528.241	5389.56
528.607	5435.89
528.973	5420.75
529.339	5391.82
529.705	5445.61
530.071	5502.55
530.437	5499.16
530.803	5571.93
531.169	5633.4
531.535	5588.65
531.901	5618.93
532.267	5635.88
532.632	5706.39
532.998	5726.95
533.364	5759.04
533.73	5752.49
534.095	5794.3
534.461	5803.56
534.826	5863.67
535.192	5856.67
535.557	5942.32
535.923	5921.75
536.288	5927.17
536.653	6004.46
537.019	5967.85
537.384	5959.94
537.749	5956.55
538.114	6082.88
538.479	6037.91
538.845	6048.3
539.21	6107.51
539.575	6127.62
539.94	6175.98
540.305	6177.56
540.67	6182.54
541.034	6234.74
541.399	6229.99
541.764	6285.81
542.129	6297.56
542.494	6329.42
542.858	6376.65
543.223	6365.81
543.587	6382.98
543.952	6418.46
544.316	6451.23
544.681	6452.36
545.045	6471.12
545.41	6509.76
545.774	6515.41
546.138	6531.9
546.503	6578.91
546.867	6593.15
547.231	6592.02
547.595	6629.53
547.959	6645.35
548.324	6710.66
548.688	6700.49
549.052	6785.23
549.416	6782.97
549.779	6741.62
550.143	6812.8
550.507	6918.56
550.871	6888.73
551.235	6801.05
551.599	6943.19
551.962	6920.14
552.326	6934.83
552.689	6939.58
553.053	6972.12
553.417	7023.64
553.78	7081.95
554.143	6961.27
554.507	7065
554.87	7104.77
555.234	7149.52
555.597	7070.42
555.96	7107.71
556.323	7222.51
556.686	7268.38
557.05	7254.15
557.413	7259.34
557.776	7263.86
558.139	7323.07
558.502	7339.79
558.865	7282.62
559.228	7460.47
559.59	7414.14
559.953	7412.79
560.316	7540.01
560.679	7502.5
561.041	7537.75
561.404	7566.91
561.767	7598.77
562.129	7597.87
562.492	7659.11
562.854	7678.54
563.217	7695.72
563.579	7634.47
563.941	7743.62
564.304	7807.8
564.666	7841.47
565.028	7808.03
565.39	7845.32
565.753	7853.68
566.115	7877.86
566.477	7902.04
566.839	7967.35
567.201	7997.4
567.563	7962.38
567.925	8079.66
568.287	8095.03
568.648	8120.56
569.01	8198.3
569.372	8252.54
569.734	8156.49
570.095	8304.74
570.457	8229.71
570.819	8341.12
571.18	8398.07
571.542	8348.81
571.903	8417.73
572.265	8421.35
572.626	8488.69
572.987	8524.62
573.349	8551.06
573.71	8572.75
574.071	8617.27
574.432	8693.66
574.794	8775.01
575.155	8794.9
575.516	8890.71
575.877	8892.97
576.238	8918.06
576.599	9104.27
576.96	9097.71
577.32	9135.23
577.681	9250.93
578.042	9314.66
578.403	9437.14
578.763	9474.65
579.124	9572.28
579.485	9669.9
579.845	9777.92
580.206	9865.6
580.566	10000.29
580.927	10054.98
581.287	10209.32
581.648	10223.33
582.008	10471.91
582.368	10485.7
582.728	10692.25
583.089	10816.31
583.449	10941.05
583.809	11035.06
584.169	11248.16
584.529	11354.38
584.889	11620.81
585.249	11692.45
585.609	11877.3
585.969	12167.24
586.329	12287.91
586.688	12479.09
587.048	12703.27
587.408	12904.84
587.768	13104.16
588.127	13312.97
588.487	13500.08
588.846	13796.12
589.206	13912.95
589.565	14095.55
589.925	14467.06
590.284	14550.22
590.643	14924.9
591.003	15261.84
591.362	15555.4
591.721	15726.24
592.08	16045.78
592.44	16218.88
592.799	16591.08
593.158	16811.63
593.517	16993.32
593.876	17360.32
594.235	17646.19
594.593	17840.53
594.952	18243.01
595.311	18413.85
595.67	18680.51
596.029	19089.09
596.387	19363.43
596.746	19659.47
597.104	19794.38
597.463	20146.91
597.822	20437.53
598.18	20765.43
598.538	20940.34
598.897	21345.53
599.255	21446.09
599.613	22066.19
599.972	22202.9
600.33	22535.33
600.688	22682.44
601.046	23091.02
601.404	23396.09
601.762	23565.81
602.12	24026.59
602.478	24286.92
602.836	24477.87
603.194	24604.65
603.552	24857.75
603.91	25140.45
604.268	25418.41
604.625	25650.27
604.983	26153.99
605.341	26130.03
605.698	26505.16
606.056	26856.79
606.413	26997.36
606.771	27286.39
607.128	27607.28
607.485	27711.69
607.843	27854.96
608.2	28243.65
608.557	28482.97
608.914	28640.02
609.272	29078.66
609.629	29221.48
609.986	29619.89
610.343	29540.34
610.7	30073.21
611.057	30122.02
611.414	30347.1
611.771	30492.63
612.127	30726.07
612.484	30873.86
612.841	31176.68
613.198	31236.34
613.554	31465.49
613.911	31668.64
614.267	31871.13
614.624	32033.61
614.98	32221.62
615.337	32511.79
615.693	32656.64
616.05	32750.65
616.406	32978.67
616.762	32947.26
617.118	33106.12
617.475	33371.65
617.831	33622.04
618.187	33585.66
618.543	33827.01
618.899	34009.83
619.255	34160.33
619.611	34251.18
619.967	34402.36
620.323	34616.14
620.678	34662.24
621.034	34738.85
621.39	34722.58
621.746	34716.47
622.101	35271.04
622.457	35001.44
622.812	35251.6
623.168	35438.26
623.523	35543.57
623.879	35695.88
624.234	35627.41
624.589	35863.34
624.945	35977.91
625.3	35980.17
625.655	36109.21
626.01	36147.17
626.365	36138.36
626.72	36352.82
627.075	36376.54
627.43	36311.91
627.785	36381.97
628.14	36441.17
628.495	36563.66
628.85	36660.83
629.205	36488.18
629.559	36783.99
629.914	36755.29
630.269	36812.92
630.623	36770.43
630.978	36686.82
631.332	36898.11
631.687	36943.53
632.041	36870.54
632.396	36913.03
632.75	36838.23
633.104	37016.53
633.459	36804.33
633.813	36809.98
634.167	36969.75
634.521	36901.5
634.875	36928.85
635.229	36993.25
635.583	36880.94
635.937	36928.17
636.291	36981.95
636.645	37072.8
636.999	36858.11
637.352	37059.46
637.706	36854.05
638.06	37031.44
638.413	37054.72
638.767	36954.16
639.121	37162.06
639.474	36828.74
639.828	36830.32
640.181	37002.29
640.534	37047.49
640.888	36898.79
641.241	36901.73
641.594	36927.49
641.947	36964.1
642.301	36923.2
642.654	37028.5
643.007	36976.98
643.36	36950.09
643.713	36924.33
644.066	36997.77
644.419	36692.47
644.771	36576.09
645.124	36272.59
645.477	36108.75
645.83	36038.02
646.182	35842.77
646.535	35706.73
646.888	35816.33
647.24	35685.71
647.593	35937.91
647.945	35773.62
648.298	35676.22
648.65	35483.01
649.002	35467.64
649.355	35714.41
649.707	35698.6
650.059	35831.02
650.411	36211.58
650.763	36248.64
651.115	36612.92
651.467	36424
651.819	36556.65
652.171	36499.7
652.523	36473.72
652.875	36566.37
653.227	36423.1
653.578	36637.33
653.93	36464.9
654.282	36343.55
654.633	36220.62
654.985	36279.82
655.337	36291.57
655.688	36353.49
656.039	36399.82
656.391	36199.83
656.742	36164.35
657.094	36273.04
657.445	36300.39
657.796	36301.74
658.147	36040.96
658.498	36267.85
658.849	36218.58
659.2	36100.62
659.551	36039.83
659.902	36246.38
660.253	36046.83
660.604	36165.48
660.955	36036.21
661.306	36301.74
661.656	36088.19
662.007	36035.54
662.358	36083.9
662.708	36005.03
663.059	36040.96
663.409	35837.12
663.76	36130.67
664.11	36087.51
664.461	36181.75
664.811	36010.9
665.161	36163.22
665.511	35953.73
665.862	36078.25
666.212	36071.24
666.562	36101.52
666.912	36089.77
667.262	36042.54
667.612	36005.93
667.962	36010.23
668.312	36039.6
668.662	36078.47
669.011	35988.98
669.361	36036.44
669.711	35997.34
670.06	36102.43
670.41	35883.68
670.76	35849.33
671.109	36026.95
671.459	35992.6
671.808	35750.35
672.157	35973.84
672.507	35703.34
672.856	35638.03
673.205	35661.99
673.554	36013.39
673.904	35822.89
674.253	35839.83
674.602	35699.5
674.951	35311.71
675.3	35173.86
675.649	35652.72
675.998	35670.12
676.346	35624.02
676.695	35763.45
677.044	35406.4
677.393	35601.87
677.741	35541.09
678.09	35419.51
678.438	35459.51
678.787	35441.65
679.135	35485.49
679.484	35178.16
679.832	35530.46
680.181	35217.48
680.529	35301.77
680.877	35307.42
681.225	35128.89
681.573	35399.17
681.922	35138.16
682.27	35110.14
682.618	35091.38
682.966	34918.5
683.314	34995.34
683.661	35051.61
684.009	34765.51
684.357	34601.9
684.705	34747.21
685.053	34598.29
685.4	34591.05
685.748	34575.23
686.095	34445.97
686.443	34511.96
686.79	34285.53
687.138	34337.73
687.485	34351.29
687.832	34283.72
688.18	34220.67
688.527	34109.48
688.874	33967.79
689.221	33989.26
689.568	33909.26
689.915	33819.77
690.262	33790.17
690.609	33695.26
690.956	33611.19
691.303	33625.66
691.65	33363.74
691.997	33409.84
692.344	33398.54
692.69	33215.72
693.037	33228.38
693.383	33091.21
693.73	33128.49
694.077	32890.31
694.423	32961.27
694.769	32903.64
695.116	32788.84
695.462	32681.5
695.808	32596.08
696.155	32679.24
696.501	32491.67
696.847	32474.05
697.193	32123.32
697.539	32318.8
697.885	32072.02
698.231	31901.63
698.577	31907.06
698.923	32015.3
699.269	31708.64
699.614	31653.05
699.96	31493.51
700.306	31578.93
700.651	31382.78
700.997	31390.23
701.342	31381.65
701.688	31310.24
702.033	31167.19
702.379	31176.68
702.724	31035.67
703.069	31126.29
703.415	30739.63
703.76	30771.72
704.105	30704.15
704.45	30767.88
704.795	30537.38
705.14	30404.27
705.485	30381.67
705.83	30319.75
706.175	30454.21
706.52	30266.42
706.865	30088.12
707.209	30064.62
707.554	29952.76
707.899	29976.94
708.243	29808.81
708.588	29766.55
708.932	29608.81
709.277	29718.19
709.621	29566.33
709.966	29522.49
710.31	29511.19
710.654	29293.79
710.998	29270.97
711.342	29444.52
711.687	29215.38
712.031	29102.16
712.375	29131.08
712.719	29057.87
713.063	29023.52
713.407	29039.34
713.75	28828.72
714.094	28881.83
714.438	28668.27
714.782	28802.28
715.125	28516.19
715.469	28674.83
715.812	28529.29
716.156	28367.04
716.499	28411.1
716.843	28482.06
717.186	28403.19
717.53	28404.1
717.873	28377.43
718.216	28241.84
718.559	28119.13
718.902	27864.22
719.246	28080.26
719.589	27873.26
719.932	27957.33
720.275	27885.92
720.617	27747.39
720.96	27699.03
721.303	27783.1
721.646	27870.55
721.989	27504.23
722.331	27758.01
722.674	27579.26
723.016	27558.24
723.359	27567.96
723.701	27519.6
724.044	27398.25
724.386	27184.02
724.729	27295.43
725.071	27344.01
725.413	27358.02
725.755	27180.63
726.097	27094.98
726.439	26955.77
726.782	26974.76
727.124	27045.94
727.465	26949.22
727.807	26918.94
728.149	26820.18
728.491	26822.9
728.833	26891.6
729.175	26756.91
729.516	26700.19
729.858	26595.56
730.199	26624.48
730.541	26591.49
730.882	26608.66
731.224	26587.65
731.565	26399.63
731.906	26483.92
732.248	26375.22
732.589	26387.43
732.93	26130.71
733.271	26338.16
733.612	26278.05
733.953	26264.94
734.294	26212.74
734.635	26069.47
734.976	26111.95
735.317	26002.13
735.658	26049.13
735.999	25975.01
736.339	25948.34
736.68	26102.24
737.021	25921.68
737.361	25886.65
737.702	26021.79
738.042	25902.69
738.383	25671.06
738.723	25832.19
739.063	25599.43
739.404	25675.58
739.744	25591.06
740.084	25479.43
740.424	25561.46
740.764	25483.95
741.104	25514.68
741.444	25474.01
741.784	25402.37
742.124	25375.7
742.464	25358.53
742.804	25208.25
743.143	25249.38
743.483	25296.83
743.823	25167.12
744.162	25109.5
744.502	25254.35
744.841	25180.45
745.181	25060.46
745.52	25112.88
745.86	25036.95
746.199	24961.7
746.538	24841.25
746.877	24945.21
747.216	25008.25
747.556	24932.78
747.895	24804.87
748.234	24778.43
748.573	24726.45
748.911	24653.46
749.25	24578.44
749.589	24590.19
749.928	24548.61
750.267	24583.86
750.605	24475.39
750.944	24495.27
751.283	24359.91
751.621	24454.15
751.96	24204.43
752.298	24290.99
752.636	24209.18
752.975	24170.99
753.313	24012.12
753.651	24202.85
753.989	24074.72
754.327	24152.46
754.666	23871.34
755.004	23957.44
755.342	24003.54
755.679	23859.36
756.017	23732.81
756.355	23788.63
756.693	23793.82
757.031	23705.24
757.368	23526.94
757.706	23498.46
758.044	23543.66
758.381	23515.19
758.719	23401.52
759.056	23503.44
759.394	23332.82
759.731	23161.52
760.068	23098.47
760.405	23084.92
760.743	23065.93
761.08	23062.32
761.417	22961.98
761.754	22968.99
762.091	22869.55
762.428	22620.52
762.765	22574.42
763.102	22763.34
763.438	22521.77
763.775	22365.16
764.112	22305.73
764.449	22501.43
764.785	22445.84
765.122	22237.25
765.458	22232.73
765.795	22096.92
766.131	22075.9
766.467	22025.96
766.804	21895.57
767.14	21842.01
767.476	21866.87
767.812	21731.05
768.148	21696.25
768.485	21533.32
768.821	21436.15
769.157	21505.97
769.492	21434.56
769.828	21392.53
770.164	21229.15
770.5	21107.11
770.836	21105.98
771.171	20988.7
771.507	20962.71
771.842	20793.45
772.178	20730.85
772.513	20769.27
772.849	20758.42
773.184	20555.72
773.519	20648.82
773.855	20451.09
774.19	20436.17
774.525	20320.92
774.86	20289.06
775.195	20274.14
775.53	20124.77
775.865	19933.81
776.2	19913.25
776.535	19732.69
776.87	19865.34
777.205	19616.76
777.539	19718.9
777.874	19727.49
778.209	19560.49
778.543	19408.63
778.878	19309.87
779.212	19300.38
779.547	19268.29
779.881	19223.77
780.215	19106.04
780.55	19189.65
780.884	18889.09
781.218	18888.42
781.552	18965.93
781.886	18817.68
782.22	18749.89
782.554	18730
782.888	18468.54
783.222	18358.71
783.556	18321.43
783.889	18273.06
784.223	18185.84
784.557	18074.88
784.89	18232.39
785.224	18105.61
785.557	18059.29
785.891	17921.44
786.224	17900.42
786.558	17894.77
786.891	17775.9
787.224	17709.92
787.557	17624.72
787.891	17625.17
788.224	17608.22
788.557	17640.31
788.89	17536.13
789.223	17406.87
789.556	17380.88
789.888	17310.6
790.221	17146.31
790.554	17138.63
790.887	17015.47
791.219	16923.5
791.552	16919.88
791.884	16894.57
792.217	16888.92
792.549	16761.24
792.882	16688.02
793.214	16579.78
793.546	16552.66
793.879	16642.6
794.211	16360.12
794.543	16426.79
794.875	16357.63
795.207	16483.73
795.539	16279.22
795.871	16296.17
796.203	16136.85
796.535	16100.01
796.867	16065.44
797.198	16054.14
797.53	15959.45
797.862	15873.35
798.193	15975.95
798.525	15840.36
798.856	15835.84
799.188	15706.35
799.519	15638.56
799.85	15558.79
800.182	15557.88
800.513	15472.01
800.844	15492.57
801.175	15574.83
801.506	15388.85
801.837	15328.06
802.168	15216.87
802.499	15251.68
802.83	15163.09
803.161	15199.47
803.491	15071.34
803.822	15091.68
804.153	15043.77
804.483	14921.06
804.814	14818.01
805.145	14766.49
805.475	14728.98
805.805	14801.97
806.136	14785.92
806.466	14687.17
806.796	14608.08
807.126	14589.77
807.457	14579.6
807.787	14501.86
808.117	14400.62
808.447	14365.82
808.777	14462.32
809.107	14335.77
809.436	14329.89
809.766	14366.27
810.096	14269.78
810.426	14190.01
810.755	14157.24
811.085	14169.44
811.414	14158.37
811.744	14020.52
812.073	13994.31
812.403	14100.97
812.732	13915.44
813.061	13874.99
813.39	13857.14
813.719	13811.26
814.049	13844.03
814.378	13773.52
814.707	13712.51
815.036	13666.86
815.365	13656.24
815.693	13506.41
816.022	13598.84
816.351	13493.08
816.68	13489.01
817.008	13353.87
817.337	13330.14
817.665	13359.3
817.994	13434.77
818.322	13382.12
818.651	13285.4
818.979	13207.89
819.307	13335.79
819.636	13316.58
819.964	13147.32
820.292	13234.33
820.62	13221.45
820.948	13196.59
821.276	13180.77
821.604	13108.23
821.932	13144.61
822.259	13127.21
822.587	13055.57
822.915	13138.51
823.243	13114.78
823.57	13028.23
823.898	13109.36
824.225	13036.82
824.553	13081.79
824.88	13030.49
825.207	13052.19
825.535	12989.36
825.862	13066.42
826.189	12947.78
826.516	13034.78
826.843	13135.8
827.17	13105.52
827.497	13040.66
827.824	13143.26
828.151	13061.68
828.478	13086.76
828.805	13079.08
829.131	12989.36
829.458	13041.11
829.785	12954.33
830.111	12984.16
830.438	13062.81
830.764	13058.29
831.09	13088.57
831.417	12947.1
831.743	13013.54
832.069	12972.87
832.395	13014.22
832.722	12977.38
833.048	12887.44
833.374	12912.98
833.7	12854
834.026	12835.02
834.351	12928.8
834.677	12860.55
835.003	12889.25
835.329	12853.77
835.654	12827.56
835.98	12791.85
836.306	12762.48
836.631	12748.01
836.956	12740.33
837.282	12727
837.607	12655.81
837.932	12616.49
838.258	12681.12
838.583	12663.95
838.908	12572.65
839.233	12591.63
839.558	12541.24
839.883	12456.49
840.208	12536.94
840.533	12489.04
840.858	12518.41
841.182	12478.64
841.507	12438.42
841.832	12327.46
842.156	12409.49
842.481	12381.02
842.805	12310.96
843.13	12262.83
843.454	12207.01
843.778	12240
844.103	12196.61
844.427	12168.82
844.751	12217.4
845.075	12113
845.399	12009.27
845.723	12072.78
846.047	12061.48
846.371	11849.05
846.695	11997.52
847.019	11864.42
847.343	11789.39
847.666	11766.12
847.99	11682.28
848.313	11694.03
848.637	11595.5
848.96	11608.83
849.284	11556.63
849.607	11497.42
849.931	11489.06
850.254	11440.25
850.577	11308.5
850.9	11267.37
851.223	11241.84
851.546	11172.69
851.869	11152.57
852.192	11168.84
852.515	11101.95
852.838	11050.43
853.161	11021.5
853.483	10958.91
853.806	10925.46
854.129	10957.78
854.451	10840.27
854.774	10778.8
855.096	10772.47
855.419	10761.17
855.741	10731.57
856.063	10619.93
856.385	10556.88
856.708	10600.72
857.03	10528.41
857.352	10598.24
857.674	10547.39
857.996	10496.55
858.318	10432.14
858.64	10398.92
858.961	10375.65
859.283	10429.2
859.605	10374.52
859.926	10325.48
860.248	10309.66
860.57	10260.17
860.891	10318.92
861.212	10147.85
861.534	10149.44
861.855	10158.93
862.176	10125.26
862.498	10061.53
862.819	10127.29
863.14	10086.16
863.461	10019.5
863.782	9976.33
864.103	10001.19
864.424	9940.18
864.745	10012.72
865.065	9946.05
865.386	9875.55
865.707	9892.72
866.027	9915.32
866.348	9866.51
866.668	9863.57
866.989	9795.77
867.309	9799.62
867.63	9834.64
867.95	9819.05
868.27	9709.9
868.59	9764.59
868.91	9738.83
869.23	9717.58
869.55	9700.18
869.87	9741.99
870.19	9691.14
870.51	9701.76
870.83	9684.59
871.15	9590.58
871.469	9648.21
871.789	9625.16
872.109	9607.76
872.428	9533.18
872.748	9632.39
873.067	9676
873.386	9582.9
873.706	9536.57
874.025	9484.14
874.344	9412.96
874.663	9472.62
874.982	9418.61
875.301	9449.79
875.62	9410.7
875.939	9349.01
876.258	9344.26
876.577	9299.74
876.896	9299.97
877.214	9329.12
877.533	9280.31
877.852	9285.96
878.17	9321.89
878.489	9258.16
878.807	9263.58
879.125	9290.48
879.444	9222
879.762	9200.53
880.08	9227.65
880.398	9168.45
880.716	9176.13
881.034	9150.14
881.352	9136.36
881.67	9055.68
881.988	9103.36
882.306	9126.64
882.624	9057.26
882.941	9093.87
883.259	9013.65
883.577	8987.43
883.894	8925.97
884.212	8930.49
884.529	8903.59
884.846	8901.79
885.164	8890.03
885.481	8855.23
885.798	8804.39
886.115	8782.24
886.432	8808.68
886.75	8790.83
887.067	8796.03
887.383	8742.47
887.7	8762.58
888.017	8742.47
888.334	8712.41
888.651	8651.62
888.967	8639.42
889.284	8617.27
889.6	8613.21
889.917	8514.9
890.233	8495.02
890.55	8482.59
890.866	8505.64
891.182	8517.62
891.498	8432.42
891.815	8377.28
892.131	8445.07
892.447	8331.86
892.763	8292.76
893.079	8284.63
893.395	8275.36
893.71	8275.81
894.026	8256.15
894.342	8238.07
894.657	8141.35
894.973	8140.9
895.289	8134.57
895.604	8158.53
895.92	8049.83
896.235	8078.08
896.55	8019.1
896.865	8003.96
897.181	7967.8
897.496	7966.22
897.811	7905.88
898.126	7975.71
898.441	7886.67
898.756	7896.16
899.071	7754.92
899.386	7854.36
899.7	7737.52
900.015	7713.57
900.33	7698.65
900.644	7707.01
900.959	7670.63
901.273	7647.81
901.588	7574.59
901.902	7593.8
902.216	7510.18
902.531	7486.23
902.845	7496.85
903.159	7485.33
903.473	7393.8
903.787	7387.48
904.101	7348.38
904.415	7387.25
904.729	7321.26
905.042	7290.75
905.356	7290.08
905.67	7284.88
905.984	7241.94
906.297	7222.51
906.611	7147.26
906.924	7202.17
907.237	7163.75
907.551	7081.49
907.864	7089.86
908.177	7026.35
908.491	7052.34
908.804	6985.9
909.117	6932.35
909.43	6855.96
909.743	6846.92
910.056	6914.95
910.368	6826.13
910.681	6796.08
910.994	6819.13
911.307	6794.04
911.619	6723.09
911.932	6697.32
912.244	6639.7
912.557	6674.27
912.869	6632.47
913.181	6587.04
913.494	6549.08
913.806	6556.08
914.118	6534.84
914.43	6498.01
914.742	6516.09
915.054	6434.05
915.366	6406.71
915.678	6397.44
915.99	6358.58
916.302	6313.15
916.613	6286.94
916.925	6328.07
917.236	6241.06
917.548	6231.8
917.859	6246.49
918.171	6189.99
918.482	6141.41
918.794	6117.45
919.105	6120.16
919.416	6068.41
919.727	6115.19
920.038	6048.3
920.349	5995.65
920.66	5958.13
920.971	5972.37
921.282	5959.04
921.593	5908.64
921.903	5867.74
922.214	5821.64
922.525	5855.76
922.835	5817.12
923.146	5747.07
923.456	5768.53
923.767	5735.54
924.077	5697.12
924.387	5665.26
924.697	5658.71
925.008	5648.09
925.318	5587.97
925.628	5614.41
925.938	5585.94
926.248	5508.2
926.558	5474.53
926.867	5475.89
927.177	5558.14
927.487	5470.69
927.796	5390.47
928.106	5363.8
928.416	5371.71
928.725	5356.79
929.034	5314.99
929.344	5305.95
929.653	5299.62
929.962	5258.49
930.271	5241.32
930.581	5242.45
930.89	5211.26
931.199	5171.49
931.508	5137.82
931.817	5167.87
932.125	5115.22
932.434	5098.95
932.743	5060.3
933.051	4997.93
933.36	5051.72
933.669	4959.52
933.977	4992.96
934.286	4956.35
934.594	4973.75
934.902	4877.48
935.21	4892.85
935.519	4905.28
935.827	4853.08
936.135	4827.99
936.443	4778.28
936.751	4784.38
937.059	4779.41
937.367	4715.46
937.674	4743.93
937.982	4721.78
938.29	4743.03
938.597	4732.86
938.905	4628.68
939.213	4613.54
939.52	4566.98
939.827	4625.97
940.135	4566.31
940.442	4573.31
940.749	4558.85
941.056	4535.8
941.363	4484.95
941.67	4470.49
941.977	4485.86
942.284	4451.96
942.591	4429.13
942.898	4372.41
943.205	4374.45
943.511	4395.24
943.818	4367.44
944.125	4295.81
944.431	4311.4
944.738	4289.25
945.044	4301.23
945.35	4233.21
945.657	4209.93
945.963	4235.92
946.269	4174.23
946.575	4198.63
946.881	4163.61
947.187	4152.98
947.493	4111.18
947.799	4082.7
948.105	4085.42
948.41	4048.81
948.716	4088.13
949.022	4030.5
949.327	4016.26
949.633	4018.75
949.938	3989.6
950.244	3934.23
950.549	3964.97
950.854	3942.37
951.16	3907.79
951.465	3902.14
951.77	3912.54
952.075	3922.93
952.38	3874.35
952.685	3844.97
952.99	3863.5
953.294	3828.92
953.599	3793.67
953.904	3744.41
954.209	3773.11
954.513	3774.69
954.818	3693.56
955.122	3702.37
955.426	3699.66
955.731	3661.92
956.035	3647.69
956.339	3665.99
956.643	3635.26
956.948	3610.85
957.252	3609.72
957.556	3545.77
957.86	3558.42
958.163	3578.99
958.467	3569.5
958.771	3557.52
959.075	3535.37
959.378	3463.06
959.682	3493.34
959.985	3468.48
960.289	3444.08
960.592	3466.22
960.896	3448.14
961.199	3396.85
961.502	3403.85
961.805	3387.13
962.108	3357.52
962.411	3344.42
962.714	3353.01
963.017	3337.86
963.32	3306.9
963.623	3273.69
963.926	3279.56
964.228	3254.02
964.531	3296.51
964.833	3255.83
965.136	3194.59
965.438	3176.29
965.741	3189.62
966.043	3189.62
966.345	3189.85
966.648	3155.95
966.95	3153.24
967.252	3115.72
967.554	3130.19
967.856	3103.29
968.158	3072.79
968.46	3093.58
968.761	3069.62
969.063	3060.36
969.365	3035.95
969.666	3042.73
969.968	3021.26
970.269	2999.34
970.571	2998.66
970.872	2961.15
971.174	2969.06
971.475	2965.44
971.776	2932.9
972.077	2915.95
972.378	2902.17
972.679	2900.14
972.98	2901.04
973.281	2867.82
973.582	2859.68
973.883	2858.1
974.183	2827.82
974.484	2800.03
974.785	2841.83
975.085	2812
975.386	2765.68
975.686	2754.83
975.986	2740.37
976.287	2722.29
976.587	2729.07
976.887	2700.37
977.187	2729.97
977.487	2688.16
977.787	2684.1
978.087	2683.42
978.387	2660.37
978.687	2658.56
978.987	2650.65
979.286	2646.36
979.586	2640.71
979.885	2587.38
980.185	2603.42
980.484	2550.77
980.784	2597.54
981.083	2553.03
981.382	2556.19
981.682	2568.39
981.981	2533.59
982.28	2532.46
982.579	2475.06
982.878	2534.5
983.177	2486.14
983.475	2468.73
983.774	2462.63
984.073	2449.3
984.372	2418.34
984.67	2437.77
984.969	2410.43
985.267	2457.44
985.566	2395.52
985.864	2383.09
986.162	2428.06
986.461	2408.85
986.759	2351.45
987.057	2322.98
987.355	2322.3
987.653	2322.3
987.951	2271.45
988.249	2308.29
988.547	2318
988.844	2294.28
989.142	2277.55
989.44	2249.31
989.737	2255.41
990.035	2252.02
990.332	2249.31
990.63	2244.11
990.927	2196.65
991.224	2206.82
991.521	2197.78
991.819	2178.12
992.116	2157.33
992.413	2180.83
992.71	2141.29
993.006	2148.29
993.303	2130.89
993.6	2123.88
993.897	2119.37
994.193	2111.68
994.49	2144
994.787	2076.2
995.083	2083.66
995.379	2057.45
995.676	2101.96
995.972	2081.63
996.268	2019.71
996.565	2054.73
996.861	2045.92
997.157	1984
997.453	1972.48
997.749	1962.76
998.044	2000.5
998.34	1960.5
998.636	1986.94
998.932	1951.69
999.227	1941.74
999.523	1930.22
999.818	1919.6
1000.114	1926.83
1000.409	1911.69
1000.704	1900.61
1001	1891.57
1001.295	1873.5
1001.59	1858.81
1001.885	1875.3
1002.18	1857
1002.475	1831.01
1002.77	1837.79
1003.065	1800.73
1003.359	1805.02
1003.654	1801.41
1003.949	1837.56
1004.243	1775.19
1004.538	1793.95
1004.832	1741.97
1005.127	1731.58
1005.421	1732.26
1005.715	1739.71
1006.009	1708.98
1006.304	1713.73
1006.598	1693.39
1006.892	1740.39
1007.186	1705.14
1007.48	1692.03
1007.773	1651.13
1008.067	1657
1008.361	1649.55
1008.655	1637.12
1008.948	1605.03
1009.242	1642.77
1009.535	1617.68
1009.829	1614.97
1010.122	1605.93
1010.415	1588.31
1010.708	1585.82
1011.001	1568.87
1011.295	1597.8
1011.588	1531.81
1011.881	1578.81
1012.173	1531.58
1012.466	1503.11
1012.759	1509.44
1013.052	1523.22
1013.344	1493.39
1013.637	1474.64
1013.93	1461.53
1014.222	1470.34
1014.514	1500.17
1014.807	1427.63
1015.099	1431.7
1015.391	1441.19
1015.683	1431.7
1015.976	1399.61
1016.268	1424.02
1016.56	1416.56
1016.851	1375.66
1017.143	1444.13
1017.435	1393.73
1017.727	1374.3
1018.018	1378.59
1018.31	1348.09
1018.602	1362.77
1018.893	1318.03
1019.185	1303.12
1019.476	1333.4
1019.767	1306.73
1020.058	1312.38
1020.35	1303.12
1020.641	1318.26
1020.932	1325.71
1021.223	1277.58
1021.514	1280.97
1021.804	1249.78
1022.095	1238.71
1022.386	1237.35
1022.677	1240.52
1022.967	1228.99
1023.258	1251.37
1023.548	1225.38
1023.839	1220.41
1024.129	1182.21
1024.419	1194.42
1024.709	1202.1
1025	1177.02
1025.29	1163.23
1025.58	1173.4
1025.87	1153.74
1026.16	1132.05
1026.449	1152.61
1026.739	1151.93
1027.029	1172.05
1027.319	1147.19
1027.608	1117.81
1027.898	1098.83
1028.187	1098.6
1028.477	1103.57
1028.766	1058.6
1029.055	1099.28
1029.344	1060.41
1029.634	1057.92
1029.923	1077.58
1030.212	1074.65
1030.501	1062.9
1030.79	1031.94
1031.078	1036
1031.367	1022.44
1031.656	1015.89
1031.945	996.23
1032.233	1007.53
1032.522	996.46
1032.81	1003.24
1033.099	981.54
1033.387	977.25
1033.675	964.37
1033.963	959.62
1034.251	963.92
1034.54	943.8
1034.828	932.05
1035.116	914.2
1035.403	942.9
1035.691	927.53
1035.979	918.04
1036.267	927.31
1036.554	918.94
1036.842	921.88
1037.129	915.56
1037.417	907.19
1037.704	886.86
1037.992	899.96
1038.279	884.37
1038.566	884.82
1038.853	884.82
1039.14	884.82
