Data from hue_22_FLMS001491_00060.txt Node
Date: Tue Feb 07 17:10:20 GMT 2017
User: dcchb
Spectrometer: FLMS00149
Trigger mode: 0
Integration Time (sec): 2.000000E-2
Scans to average: 10
Electric dark correction enabled: true
Nonlinearity correction enabled: false
Boxcar width: 0
XAxis mode: Wavelengths
Number of Pixels in Spectrum: 2048
>>>>>Begin Spectral Data<<<<<
341.393	-10.82
341.776	-10.82
342.16	-10.82
342.543	-51.95
342.927	-60.31
343.31	-53.76
343.693	-52.4
344.077	-69.57
344.46	-62.57
344.843	-56.24
345.226	-54.66
345.61	-32.06
345.993	-26.41
346.376	6.81
346.759	7.03
347.142	23.3
347.525	33.47
347.908	64.43
348.291	81.16
348.674	80.7
349.057	110.76
349.44	131.55
349.823	134.26
350.206	171.1
350.588	187.14
350.971	215.62
351.354	226.69
351.737	228.5
352.119	243.19
352.502	269.63
352.884	299
353.267	287.7
353.65	305.1
354.032	301.26
354.414	334.03
354.797	325.44
355.179	320.7
355.562	343.52
355.944	322.73
356.326	353.01
356.709	326.8
357.091	368.61
357.473	359.57
357.855	330.19
358.238	332.45
358.62	357.31
359.002	340.81
359.384	339.91
359.766	349.85
360.148	343.75
360.53	334.93
360.912	334.48
361.294	342.62
361.676	337.42
362.057	350.53
362.439	324.99
362.821	321.6
363.203	321.83
363.584	342.62
363.966	330.87
364.348	321.38
364.729	321.6
365.111	312.34
365.493	343.3
365.874	334.71
366.256	332.9
366.637	322.73
367.019	283.41
367.4	320.25
367.781	330.19
368.163	336.06
368.544	320.7
368.925	332.22
369.306	309.62
369.688	324.77
370.069	338.78
370.45	330.19
370.831	325.9
371.212	313.24
371.593	304.88
371.974	330.87
372.355	312.11
372.736	315.95
373.117	328.38
373.498	317.31
373.879	343.75
374.26	344.88
374.641	321.6
375.021	337.87
375.402	309.85
375.783	333.58
376.163	339.23
376.544	332.9
376.925	309.62
377.305	325.67
377.686	354.6
378.066	341.26
378.447	349.17
378.827	319.79
379.208	344.2
379.588	344.2
379.968	327.7
380.349	350.75
380.729	351.88
381.109	328.83
381.489	337.42
381.87	339.68
382.25	354.14
382.63	357.76
383.01	362.28
383.39	341.71
383.77	332.45
384.15	342.84
384.53	350.75
384.91	329.51
385.29	364.31
385.67	361.6
386.049	360.7
386.429	383.3
386.809	358.44
387.189	350.75
387.568	369.51
387.948	348.95
388.328	359.11
388.707	354.14
389.087	362.5
389.466	346.01
389.846	369.06
390.225	381.49
390.605	367.93
390.984	381.04
391.363	378.32
391.743	369.96
392.122	378.78
392.501	365.67
392.881	374.26
393.26	380.36
393.639	384.88
394.018	374.26
394.397	386.91
394.776	382.84
395.155	387.81
395.534	393.24
395.913	390.75
396.292	364.31
396.671	384.42
397.05	391.43
397.429	401.83
397.808	399.57
398.186	420.36
398.565	403.18
398.944	408.38
399.323	402.5
399.701	393.69
400.08	411.54
400.458	412.67
400.837	407.25
401.215	413.8
401.594	409.28
401.972	422.84
402.351	414.03
402.729	408.38
403.107	419.68
403.486	414.93
403.864	408.61
404.242	426.01
404.62	443.86
404.999	430.98
405.377	416.97
405.755	440.24
406.133	422.84
406.511	421.71
406.889	439.79
407.267	445.89
407.645	440.47
408.023	447.47
408.401	443.41
408.779	460.81
409.156	467.36
409.534	466.46
409.912	463.07
410.29	452.22
410.667	469.39
411.045	461.49
411.422	433.46
411.8	469.17
412.178	483.41
412.555	464.2
412.933	475.5
413.31	486.57
413.687	472.33
414.065	495.83
414.442	513.01
414.819	482.95
415.197	495.38
415.574	506.68
415.951	501.03
416.328	512.56
416.705	502.39
417.082	510.75
417.46	502.16
417.837	500.35
418.214	517.98
418.591	525.89
418.967	521.37
419.344	516.85
419.721	531.77
420.098	530.86
420.475	541.71
420.852	529.73
421.228	549.17
421.605	536.51
421.982	557.75
422.358	559.56
422.735	562.95
423.111	568.83
423.488	550.52
423.864	550.07
424.241	569.5
424.617	567.7
424.994	574.7
425.37	571.99
425.746	588.49
426.123	581.93
426.499	570.41
426.875	586.91
427.251	589.17
427.627	559.34
428.003	593.46
428.379	602.05
428.756	620.12
429.132	583.29
429.507	614.02
429.883	623.06
430.259	645.44
430.635	630.97
431.011	640.69
431.387	626.68
431.763	672.1
432.138	642.05
432.514	650.18
432.89	644.98
433.265	633.01
433.641	653.34
434.016	679.78
434.392	696.51
434.767	681.37
435.143	694.47
435.518	698.77
435.894	716.62
436.269	680.01
436.644	721.59
437.02	729.27
437.395	723.85
437.77	713
438.145	749.61
438.52	734.25
438.895	745.55
439.271	732.21
439.646	745.09
440.021	760.23
440.395	760.69
440.77	745.32
441.145	767.01
441.52	797.75
441.895	789.61
442.27	794.58
442.645	783.06
443.019	789.61
443.394	788.93
443.769	793.23
444.143	814.02
444.518	786
444.892	804.75
445.267	837.07
445.641	825.77
446.016	820.35
446.39	829.84
446.764	837.07
447.139	834.81
447.513	813.79
447.887	837.52
448.262	829.61
448.636	868.71
449.01	869.38
449.384	859.67
449.758	859.21
450.132	868.71
450.506	870.51
450.88	921.36
451.254	871.87
451.628	909.16
452.002	907.35
452.376	922.04
452.75	902.38
453.123	921.36
453.497	921.13
453.871	941.47
454.244	961.13
454.618	934.24
454.992	965.88
455.365	967.69
455.739	992.32
456.112	997.97
456.486	998.65
456.859	988.7
457.232	1020.34
457.606	1029.83
457.979	1055.37
458.352	1067.8
458.725	1069.83
459.099	1067.34
459.472	1091.07
459.845	1078.19
460.218	1094.69
460.591	1098.76
460.964	1120.9
461.337	1120.9
461.71	1154.8
462.083	1160.45
462.456	1155.25
462.829	1167.91
463.201	1190.96
463.574	1222.82
463.947	1214.23
464.32	1239.77
464.692	1268.02
465.065	1246.1
465.438	1254.46
465.81	1296.72
466.183	1259.88
466.555	1310.28
466.928	1304.17
467.3	1345.3
467.672	1381.91
468.045	1385.98
468.417	1381.46
468.789	1402.48
469.161	1391.86
469.534	1422.82
469.906	1444.06
470.278	1463.27
470.65	1487.9
471.022	1509.14
471.394	1531.51
471.766	1561.8
472.138	1587.11
472.51	1613.09
472.882	1599.08
473.253	1657.61
473.625	1686.54
473.997	1719.53
474.369	1715.01
474.74	1725.86
475.112	1790.49
475.484	1784.39
475.855	1810.83
476.227	1840.88
476.598	1930.37
476.97	1911.16
477.341	1975.57
477.713	1979.86
478.084	2017.15
478.455	2059.18
478.827	2075.45
479.198	2132.4
479.569	2156.36
479.94	2213.98
480.311	2232.96
480.682	2256.47
481.053	2320.19
481.424	2351.15
481.795	2385.73
482.166	2448.1
482.537	2518.83
482.908	2562.67
483.279	2566.29
483.65	2624.82
484.021	2678.83
484.391	2705.27
484.762	2740.3
485.133	2775.55
485.503	2807.64
485.874	2914.08
486.244	2923.57
486.615	3001.53
486.985	3017.58
487.356	3088.31
487.726	3135.77
488.097	3190.23
488.467	3206.05
488.837	3253.05
489.207	3326.04
489.578	3366.95
489.948	3449.43
490.318	3444.01
490.688	3460.73
491.058	3569.88
491.428	3590.22
491.798	3661.63
492.168	3738.69
492.538	3767.84
492.908	3832.02
493.278	3801.06
493.648	3918.34
494.017	3934.61
494.387	3969.87
494.757	4001.73
495.126	4074.05
495.496	4079.24
495.866	4120.15
496.235	4147.26
496.605	4167.38
496.974	4201.73
497.344	4264.55
497.713	4305.45
498.082	4330.54
498.452	4371.89
498.821	4418.67
499.19	4390.2
499.559	4474.26
499.928	4446.24
500.298	4494.6
500.667	4567.59
501.036	4559.91
501.405	4629.51
501.774	4643.52
502.143	4687.36
502.512	4680.36
502.88	4772.11
503.249	4767.13
503.618	4809.85
503.987	4788.15
504.356	4800.35
504.724	4857.75
505.093	4924.42
505.462	4893.23
505.83	4933.01
506.199	4987.92
506.567	5039.22
506.936	5010.74
507.304	5090.97
507.672	5102.49
508.041	5132.55
508.409	5150.18
508.777	5197.86
509.145	5204.19
509.514	5243.05
509.882	5234.24
510.25	5286.67
510.618	5304.97
510.986	5326.22
511.354	5369.6
511.722	5347.01
512.09	5447.79
512.458	5419.32
512.826	5451.18
513.193	5422.94
513.561	5479.43
513.929	5550.84
514.297	5616.83
514.664	5582.71
515.032	5643.72
515.4	5674
515.767	5678.97
516.135	5715.81
516.502	5682.14
516.869	5744.06
517.237	5725.75
517.604	5782.25
517.972	5814.34
518.339	5842.81
518.706	5837.61
519.073	5841.46
519.44	5931.4
519.808	5949.25
520.175	5918.06
520.542	6020.66
520.909	6065.18
521.276	6000.32
521.643	6053.2
522.009	6132.97
522.376	6172.52
522.743	6189.47
523.11	6267.66
523.477	6262.69
523.843	6316.7
524.21	6366.19
524.577	6379.97
524.943	6462.23
525.31	6398.5
525.676	6448.9
526.043	6445.28
526.409	6564.83
526.776	6579.97
527.142	6610.02
527.508	6579.29
527.874	6686.86
528.241	6672.62
528.607	6704.26
528.973	6776.57
529.339	6802.56
529.705	6770.92
530.071	6942.67
530.437	6855.44
530.803	6913.52
531.169	6982.9
531.535	7047.75
531.901	7026.06
532.267	7067.41
532.632	7079.84
532.998	7161.87
533.364	7157.58
533.73	7163.91
534.095	7187.41
534.461	7259.05
534.826	7340.4
535.192	7287.75
535.557	7332.26
535.923	7366.39
536.288	7427.4
536.653	7409.32
537.019	7425.6
537.384	7489.32
537.749	7501.07
538.114	7529.1
538.479	7573.61
538.845	7619.49
539.21	7594.4
539.575	7603.22
539.94	7695.19
540.305	7713.72
540.67	7750.33
541.034	7810.22
541.399	7835.53
541.764	7815.87
542.129	7919.14
542.494	7880.72
542.858	7931.8
543.223	7885.92
543.587	7999.37
543.952	8026.71
544.316	8101.51
544.681	8035.3
545.045	8096.09
545.41	8111.91
545.774	8214.05
546.138	8208.63
546.503	8243.65
546.867	8226.7
547.231	8337.21
547.595	8325.01
547.959	8320.04
548.324	8356.87
548.688	8385.12
549.052	8451.56
549.416	8490.88
549.779	8446.81
550.143	8492.46
550.507	8576.07
550.871	8547.83
551.235	8584.89
551.599	8653.13
551.962	8669.18
552.326	8672.34
552.689	8765.22
553.053	8741.72
553.417	8737.88
553.78	8875.95
554.143	8817.42
554.507	8864.2
554.87	8928.61
555.234	8950.08
555.597	8896.07
555.96	8953.69
556.323	9029.17
556.686	9041.15
557.05	9114.82
557.413	9027.81
557.776	9154.82
558.139	9216.28
558.502	9275.04
558.865	9203.18
559.228	9262.84
559.59	9258.32
559.953	9302.16
560.316	9482.04
560.679	9326.79
561.041	9381.25
561.404	9522.04
561.767	9575.82
562.129	9493.34
562.492	9557.97
562.854	9630.28
563.217	9678.19
563.579	9683.16
563.941	9708.93
564.304	9780.11
564.666	9797.28
565.028	9822.37
565.39	9818.53
565.753	9942.59
566.115	9890.62
566.477	9970.84
566.839	10083.83
567.201	10056.71
567.563	10069.37
567.925	10178.29
568.287	10087.45
568.648	10218.74
569.01	10236.14
569.372	10322.69
569.734	10261
570.095	10309.36
570.457	10418.06
570.819	10458.74
571.18	10430.94
571.542	10504.16
571.903	10484.27
572.265	10616.47
572.626	10681.1
572.987	10745.51
573.349	10752.29
573.71	10825.73
574.071	10833.64
574.432	10950.7
574.794	10998.84
575.155	10994.32
575.516	11043.35
575.877	11104.82
576.238	11149.57
576.599	11364.48
576.96	11345.72
577.32	11444.02
577.681	11500.97
578.042	11567.18
578.403	11688.31
578.763	11741.87
579.124	11908.42
579.485	11948.41
579.845	12139.14
580.206	12161.29
580.566	12201.52
580.927	12439.02
581.287	12540.49
581.648	12682.63
582.008	12867.03
582.368	12967.37
582.728	13074.94
583.089	13285.33
583.449	13393.12
583.809	13564.19
584.169	13735.03
584.529	13969.6
584.889	14160.11
585.249	14304.06
585.609	14434.45
585.969	14646.42
586.329	14869.47
586.688	15154.43
587.048	15354.65
587.408	15449.79
587.768	15725.26
588.127	15954.64
588.487	16238.25
588.846	16556.2
589.206	16766.14
589.565	16981.05
589.925	17288.61
590.284	17498.1
590.643	17771.76
591.003	18196.84
591.362	18450.62
591.721	18684.96
592.08	19005.63
592.44	19311.84
592.799	19531.04
593.158	19935.32
593.517	20200.85
593.876	20533.73
594.235	20718.58
594.593	21069.76
594.952	21434.04
595.311	21595.39
595.67	21975.95
596.029	22431.3
596.387	22801.46
596.746	23021.12
597.104	23384.5
597.463	23752.4
597.822	24034.88
598.18	24227.87
598.538	24537.91
598.897	24959.15
599.255	24988.07
599.613	25666.02
599.972	25899.69
600.33	26200.7
600.688	26406.57
601.046	26686.33
601.404	27241.35
601.762	27457.16
602.12	27978.95
602.478	28171.72
602.836	28518.15
603.194	28542.55
603.552	28993.16
603.91	29149.32
604.268	29581.4
604.625	29724.67
604.983	30132.12
605.341	30353.13
605.698	30707.02
606.056	31055.48
606.413	31196.04
606.771	31584.73
607.128	31879.42
607.485	31906.53
607.843	32332.29
608.2	32557.82
608.557	32863.57
608.914	33124.36
609.272	33541.52
609.629	33780.61
609.986	34009.53
610.343	33964.11
610.7	34523.19
611.057	34681.15
611.414	34734.26
611.771	34984.19
612.127	35285.2
612.484	35397.29
612.841	35775.58
613.198	35772.42
613.554	35981.68
613.911	36382.8
614.267	36557.71
614.624	36615.11
614.98	36853.3
615.337	37251.03
615.693	37338.26
616.05	37479.72
616.406	37861.41
616.762	37845.59
617.118	37887.62
617.475	38066.82
617.831	38264.56
618.187	38428.4
618.543	38729.41
618.899	39040.81
619.255	38910.19
619.611	39123.07
619.967	39339.33
620.323	39524.41
620.678	39565.99
621.034	39664.07
621.39	39650.51
621.746	39728.93
622.101	40284.84
622.457	39960.79
622.812	40225.86
623.168	40436.93
623.523	40493.88
623.879	40887.09
624.234	40535.69
624.589	40718.28
624.945	40901.78
625.3	41065.84
625.655	41046.63
626.01	41101.09
626.365	41336.79
626.72	41252.95
627.075	41400.07
627.43	41474.19
627.785	41296.8
628.14	41631.02
628.495	41596.67
628.85	41639.39
629.205	41629.22
629.559	41819.72
629.914	41727.97
630.269	41811.13
630.623	41956.21
630.978	41869.44
631.332	42026.72
631.687	42174.29
632.041	41939.04
632.396	42146.94
632.75	42031.69
633.104	42174.29
633.459	41851.36
633.813	42178.81
634.167	42158.69
634.521	42104.46
634.875	42171.35
635.229	42177
635.583	42019.26
635.937	42054.97
636.291	42008.87
636.645	42108.75
636.999	42022.43
637.352	42296.09
637.706	42035.08
638.06	42362.08
638.413	42159.82
638.767	42101.07
639.121	42182.87
639.474	41968.42
639.828	42148.07
640.181	42048.64
640.534	42159.15
640.888	42009.09
641.241	41897.23
641.594	41992.82
641.947	41994.63
642.301	42040.96
642.654	42071.92
643.007	42079.6
643.36	42049.77
643.713	42010.9
644.066	42137.23
644.419	41964.57
644.771	41716.45
645.124	41343.35
645.477	41322.33
645.83	41071.72
646.182	40874.66
646.535	40947.2
646.888	41006.63
647.24	40743.14
647.593	41069.68
647.945	40893.87
648.298	40738.39
648.65	40646.87
649.002	40648
649.355	40925.05
649.707	40724.83
650.059	40831.05
650.411	41359.39
650.763	41428.09
651.115	41688.2
651.467	41565.94
651.819	41588.31
652.171	41591.93
652.523	41541.31
652.875	41468.99
653.227	41324.59
653.578	41658.82
653.93	41479.62
654.282	41537.47
654.633	41438.49
654.985	41386.96
655.337	41578.14
655.688	41453.18
656.039	41638.93
656.391	41313.52
656.742	41463.34
657.094	41417.7
657.445	41565.71
657.796	41422.22
658.147	41331.82
658.498	41361.2
658.849	41479.84
659.2	41339.05
659.551	41263.8
659.902	41365.27
660.253	41245.27
660.604	41324.14
660.955	41093.86
661.306	41451.59
661.656	41362.33
662.007	41359.84
662.358	41245.72
662.708	41306.51
663.059	41319.62
663.409	41064.03
663.76	41280.07
664.11	41350.13
664.461	41390.35
664.811	41324.37
665.161	41292.5
665.511	41199.85
665.862	41366.17
666.212	41261.54
666.562	41282.78
666.912	41087.76
667.262	41237.14
667.612	41216.35
667.962	41218.15
668.312	41058.16
668.662	41314.87
669.011	41123.24
669.361	41059.97
669.711	41057.71
670.06	40962.79
670.41	41052.28
670.76	40909.24
671.109	41151.49
671.459	40978.61
671.808	41003.92
672.157	41153.75
672.507	40845.96
672.856	40863.81
673.205	41014.32
673.554	41017.93
673.904	40962.34
674.253	41201.88
674.602	40970.25
674.951	40395.8
675.3	40332.98
675.649	40887.77
675.998	40784.49
676.346	40729.35
676.695	41001.44
677.044	40653.87
677.393	40786.3
677.741	40874.43
678.09	40683.7
678.438	40579.98
678.787	40584.5
679.135	40548.57
679.484	40311.06
679.832	40598.28
680.181	40241.91
680.529	40477.61
680.877	40414.11
681.225	40325.97
681.573	40578.85
681.922	40219.54
682.27	40210.72
682.618	40266.31
682.966	40122.59
683.314	40270.83
683.661	40038.3
684.009	39875.14
684.357	39863.16
684.705	39693.9
685.053	39820
685.4	39712.88
685.748	39622.94
686.095	39736.61
686.443	39505.66
686.79	39293.01
687.138	39578.2
687.485	39493.91
687.832	39217.3
688.18	39225.89
688.527	39145.44
688.874	39081.03
689.221	39049.4
689.568	38874.26
689.915	38875.39
690.262	38840.81
690.609	38859.35
690.956	38550.43
691.303	38528.51
691.65	38487.83
691.997	38546.36
692.344	38224.11
692.69	38312.24
693.037	38291.22
693.383	37884.68
693.73	38089.65
694.077	37761.07
694.423	37898.24
694.769	37661.18
695.116	37658.7
695.462	37642.2
695.808	37330.8
696.155	37586.84
696.501	37230.46
696.847	37242.66
697.193	36890.36
697.539	37137.13
697.885	36919.06
698.231	36834.31
698.577	36773.75
698.923	36722.23
699.269	36553.19
699.614	36372.41
699.96	36383.93
700.306	36541.67
700.651	36235.69
700.997	36192.97
701.342	36153.88
701.688	36070.04
702.033	35814.68
702.379	35943.94
702.724	35723.16
703.069	35781.01
703.415	35450.85
703.76	35547.57
704.105	35566.1
704.45	35286.78
704.795	35141.25
705.14	35069.61
705.485	35050.86
705.83	34757.08
706.175	34990.75
706.52	34767.25
706.865	34793.24
707.209	34643.64
707.554	34520.93
707.899	34708.95
708.243	34399.35
708.588	34479.8
708.932	34134.27
709.277	34174.72
709.621	34239.58
709.966	33899.02
710.31	34090.66
710.654	33795.52
710.998	33961.17
711.342	33753.94
711.687	33738.12
712.031	33604.12
712.375	33535.87
712.719	33563.67
713.063	33490.67
713.407	33538.58
713.75	33410.45
714.094	33349.43
714.438	33257.46
714.782	33182.43
715.125	33122.32
715.469	33173.62
715.812	32967.52
716.156	32849.79
716.499	32879.84
716.843	32829.45
717.186	32644.82
717.53	32879.39
717.873	32852.95
718.216	32708.09
718.559	32490.7
718.902	32209.35
719.246	32255
719.589	32309.24
719.932	32216.36
720.275	32140.65
720.617	32081.9
720.96	32210.25
721.303	32086.87
721.646	32116.92
721.989	31929.13
722.331	31950.6
722.674	31849.81
723.016	31878.74
723.359	31749.02
723.701	31704.05
724.044	31606.88
724.386	31538.86
724.729	31630.16
725.071	31580.21
725.413	31549.48
725.755	31412.08
726.097	31202.82
726.439	31228.59
726.782	31231.52
727.124	31394.68
727.465	31112.2
727.807	31027.01
728.149	31092.54
728.491	30842.83
728.833	30987.69
729.175	30921.93
729.516	30892.32
729.858	30861.36
730.199	30861.14
730.541	30680.58
730.882	30790.63
731.224	30816.62
731.565	30503.41
731.906	30617.08
732.248	30672.44
732.589	30418.21
732.93	30337.54
733.271	30333.92
733.612	30402.84
733.953	30398.78
734.294	30317.65
734.635	30072.23
734.976	30217.31
735.317	30107.03
735.658	30182.96
735.999	30176.86
736.339	29992.91
736.68	29996.75
737.021	30093.47
737.361	29819.58
737.702	29980.03
738.042	29871.56
738.383	29690.32
738.723	29839.92
739.063	29728.96
739.404	29880.37
739.744	29753.82
740.084	29548.4
740.424	29592.24
740.764	29579.36
741.104	29730.32
741.444	29531.23
741.784	29414.4
742.124	29427.28
742.464	29373.04
742.804	29361.52
743.143	29333.49
743.483	29216.21
743.823	29084.69
744.162	29103.9
744.502	29051.69
744.841	29143.89
745.181	29232.71
745.52	29044.24
745.86	28990
746.199	28969.66
746.538	29013.73
746.877	28912.04
747.216	29031.81
747.556	28904.8
747.895	28780.51
748.234	28849.89
748.573	28700.52
748.911	28719.27
749.25	28641.99
749.589	28466.85
749.928	28524.48
750.267	28626.62
750.605	28462.78
750.944	28496.45
751.283	28345.72
751.621	28388.89
751.96	28209.46
752.298	28192.73
752.636	28180.53
752.975	28049.23
753.313	28110.7
753.651	28159.29
753.989	27850.37
754.327	27878.84
754.666	27837.26
755.004	27854.66
755.342	27851.5
755.679	27806.98
756.017	27755.23
756.355	27771.73
756.693	27613.77
757.031	27550.49
757.368	27421.68
757.706	27409.93
758.044	27288.35
758.381	27367.9
758.719	27209.03
759.056	27115.47
759.394	27207
759.731	27002.48
760.068	27015.36
760.405	26896.27
760.743	26824.86
761.08	26882.03
761.417	26641.59
761.754	26664.19
762.091	26633.23
762.428	26500.35
762.765	26381.03
763.102	26562.04
763.438	26319.34
763.775	26198.44
764.112	26288.38
764.449	26172.45
764.785	26147.82
765.122	25919.8
765.458	25805.45
765.795	25823.53
766.131	25807.49
766.467	25699.01
766.804	25649.98
767.14	25446.14
767.476	25478
767.812	25381.28
768.148	25418.12
768.485	25134.28
768.821	25104.68
769.157	24982.2
769.492	24991.24
769.828	24932.03
770.164	24713.73
770.5	24647.74
770.836	24610.23
771.171	24529.55
771.507	24525.71
771.842	24180.18
772.178	24240.75
772.513	24180.41
772.849	24130.92
773.184	24079.62
773.519	23944.94
773.855	23774.09
774.19	23833.53
774.525	23778.16
774.86	23704.26
775.195	23673.3
775.53	23507.66
775.865	23434.67
776.2	23184.5
776.535	23098.86
776.87	23077.16
777.205	22968.01
777.539	22934.11
777.874	22966.66
778.209	22810.73
778.543	22708.81
778.878	22588.36
779.212	22471.98
779.547	22352.89
779.881	22516.05
780.215	22351.53
780.55	22320.12
780.884	22082.16
781.218	22168.71
781.552	22058.88
781.886	21987.25
782.22	21966.68
782.554	21726.24
782.888	21638.1
783.222	21533.7
783.556	21458.22
783.889	21391.78
784.223	21255.51
784.557	21202.18
784.89	21336.64
785.224	21121.51
785.557	21078.34
785.891	20934.85
786.224	20822.08
786.558	21003.09
786.891	20702.08
787.224	20645.36
787.557	20763.1
787.891	20630.22
788.224	20453.73
788.557	20453.95
788.89	20526.04
789.223	20433.39
789.556	20260.29
789.888	20132.83
790.221	20101.87
790.554	19949.33
790.887	19869.79
791.219	19848.09
791.552	19776.91
791.884	19757.47
792.217	19616.69
792.549	19638.16
792.882	19457.14
793.214	19350.03
793.546	19502.57
793.879	19365.17
794.211	19178.73
794.543	19253.76
794.875	19121.79
795.207	19257.38
795.539	19186.87
795.871	18999.3
796.203	18928.12
796.535	18812.19
796.867	18763.15
797.198	18693.77
797.53	18739.65
797.862	18579.88
798.193	18683.38
798.525	18503.72
798.856	18436.83
799.188	18316.61
799.519	18173.11
799.85	18117.52
800.182	18161.13
800.513	18136.95
800.844	17951.65
801.175	18109.16
801.506	18051.53
801.837	17961.36
802.168	17884.08
802.499	17745.55
802.83	17732.9
803.161	17701.71
803.491	17631.43
803.822	17581.49
804.153	17574.48
804.483	17423.52
804.814	17376.52
805.145	17453.81
805.475	17375.39
805.805	17347.37
806.136	17263.98
806.466	17210.65
806.796	17235.51
807.126	17135.17
807.457	17005.23
807.787	16943.76
808.117	16870.09
808.447	16903.54
808.777	16897.66
809.107	16777.67
809.436	16731.79
809.766	16727.72
810.096	16687.73
810.426	16621.29
810.755	16581.06
811.085	16499.03
811.414	16452.7
811.744	16467.39
812.073	16369.54
812.403	16363.89
812.732	16248.41
813.061	16257.91
813.39	16139.72
813.719	16141.3
814.049	16139.49
814.378	16127.06
814.707	16109.21
815.036	16025.14
815.365	15984.92
815.693	15767.75
816.022	15881.64
816.351	15797.8
816.68	15743.8
817.008	15812.49
817.337	15653.85
817.665	15513.07
817.994	15577.25
818.322	15569.11
818.651	15537.25
818.979	15466.06
819.307	15532.95
819.636	15483.69
819.964	15374.77
820.292	15494.31
820.62	15435.55
820.948	15296.35
821.276	15389
821.604	15340.64
821.932	15371.38
822.259	15323.02
822.587	15372.51
822.915	15296.12
823.243	15399.62
823.57	15332.96
823.898	15273.3
824.225	15274.2
824.553	15263.58
824.88	15268.55
825.207	15250.93
825.535	15268.1
825.862	15247.76
826.189	15182
826.516	15276.91
826.843	15312.39
827.17	15324.82
827.497	15339.96
827.824	15282.56
828.151	15250.02
828.478	15269.23
828.805	15289.57
829.131	15196.01
829.458	15139.07
829.785	15079.18
830.111	15169.12
830.438	15246.41
830.764	15160.08
831.09	15266.75
831.417	15138.39
831.743	15160.53
832.069	15192.62
832.395	15184.94
832.722	15140.87
833.048	15021.1
833.374	15135.68
833.7	15021.78
834.026	15053.64
834.351	15057.71
834.677	15052.51
835.003	15032.4
835.329	14997.83
835.654	15011.84
835.98	14983.36
836.306	15041.67
836.631	14918.96
836.956	14941.78
837.282	14946.75
837.607	14873.99
837.932	14786.08
838.258	14844.84
838.583	14880.09
838.908	14712.86
839.233	14747.21
839.558	14674.9
839.883	14719.42
840.208	14572.98
840.533	14634.67
840.858	14648
841.182	14617.95
841.507	14614.56
841.832	14487.33
842.156	14497.73
842.481	14464.96
842.805	14504.96
843.13	14418.86
843.454	14428.58
843.778	14301.8
844.103	14278.07
844.427	14299.77
844.751	14238.07
845.075	14254.34
845.399	14077.17
845.723	14149.94
846.047	14138.41
846.371	13973.45
846.695	14034.46
847.019	13861.58
847.343	13747.24
847.666	13680.12
847.99	13751.98
848.313	13575.94
848.637	13632.89
848.96	13646.45
849.284	13574.81
849.607	13427.02
849.931	13431.09
850.254	13322.39
850.577	13218.44
850.9	13216.18
851.223	13162.85
851.546	13126.91
851.869	13027.48
852.192	13096.41
852.515	12961.27
852.838	12831.78
853.161	12867.71
853.483	12805.79
853.806	12715.4
854.129	12769.18
854.451	12687.38
854.774	12583.2
855.096	12597.44
855.419	12546.14
855.741	12524.67
856.063	12416.2
856.385	12402.64
856.708	12415.3
857.03	12345.69
857.352	12335.75
857.674	12343.88
857.996	12235.41
858.318	12144.34
858.64	12199.26
858.961	12177.56
859.283	12116.32
859.605	12071.35
859.926	12058.02
860.248	11969.43
860.57	11967.62
860.891	11966.04
861.212	11891.69
861.534	11933.73
861.855	11877.91
862.176	11777.8
862.498	11880.62
862.819	11799.72
863.14	11743
863.461	11718.36
863.782	11634.52
864.103	11723.56
864.424	11652.6
864.745	11739.83
865.065	11680.63
865.386	11647.86
865.707	11546.39
866.027	11594.3
866.348	11541.87
866.668	11633.17
866.989	11548.43
867.309	11420.29
867.63	11465.72
867.95	11452.16
868.27	11414.42
868.59	11357.92
868.91	11328.54
869.23	11277.02
869.55	11316.11
869.87	11300.07
870.19	11291.48
870.51	11327.64
870.83	11352.72
871.15	11188.43
871.469	11304.36
871.789	11249
872.109	11259.39
872.428	11225.72
872.748	11190.69
873.067	11124.71
873.386	11163.35
873.706	11138.27
874.025	11030.47
874.344	11028.89
874.663	11072.51
874.982	10947.09
875.301	11058.72
875.62	10990.7
875.939	11022.79
876.258	11003.58
876.577	10891.27
876.896	10943.92
877.214	10839.07
877.533	10898.95
877.852	10812.17
878.17	10804.26
878.489	10827.99
878.807	10836.58
879.125	10879.29
879.444	10804.72
879.762	10852.62
880.08	10772.63
880.398	10696.7
880.716	10737.83
881.034	10661.22
881.352	10648.11
881.67	10697.83
881.988	10617.38
882.306	10601.78
882.624	10492.86
882.941	10521.56
883.259	10516.36
883.577	10403.82
883.894	10443.37
884.212	10444.95
884.529	10435.01
884.846	10413.09
885.164	10414.22
885.481	10386.2
885.798	10373.99
886.115	10251.06
886.432	10212.42
886.75	10261.68
887.067	10181.46
887.383	10205.41
887.7	10207.22
888.017	10127.45
888.334	10203.83
888.651	10091.74
888.967	10031.85
889.284	10052.42
889.6	10096.26
889.917	9977.17
890.233	9998.41
890.55	9907.56
890.866	9919.77
891.182	9864.63
891.498	9870.05
891.815	9857.4
892.131	9752.99
892.447	9713.67
892.763	9740.56
893.079	9705.08
893.395	9666.44
893.71	9589.15
894.026	9559.1
894.342	9574.69
894.657	9534.92
894.973	9543.96
895.289	9506.9
895.604	9520.91
895.92	9360.46
896.235	9390.52
896.55	9469.61
896.865	9376.5
897.181	9309.84
897.496	9316.17
897.811	9242.27
898.126	9197.53
898.441	9202.05
898.756	9159.11
899.071	9113.91
899.386	9153.23
899.7	9063.97
900.015	9044.31
900.33	8972.67
900.644	8976.97
900.959	8973.8
901.273	8895.16
901.588	8865.33
901.902	8837.54
902.216	8750.08
902.531	8714.83
902.845	8769.52
903.159	8751.21
903.473	8663.98
903.787	8668.05
904.101	8535.17
904.415	8668.05
904.729	8580.59
905.042	8572.68
905.356	8495.4
905.67	8478.45
905.984	8492.46
906.297	8421.5
906.611	8334.95
906.924	8394.84
907.237	8316.87
907.551	8263.99
907.864	8246.14
908.177	8260.83
908.491	8202.3
908.804	8160.04
909.117	8150.77
909.43	8098.8
909.743	7988.74
910.056	7965.24
910.368	7985.13
910.681	7975.19
910.994	7892.25
911.307	7889.09
911.619	7842.76
911.932	7849.31
912.244	7755.76
912.557	7726.38
912.869	7689.09
913.181	7692.71
913.494	7659.26
913.806	7580.39
914.118	7582.43
914.43	7542.43
914.742	7563.22
915.054	7497.23
915.366	7451.81
915.678	7514.18
915.99	7392.15
916.302	7349.44
916.613	7344.92
916.925	7328.88
917.236	7364.58
917.548	7229.22
917.859	7267.86
918.171	7189.22
918.482	7197.58
918.794	7123.91
919.105	7169.56
919.416	7094.3
919.727	7090.69
920.038	7051.37
920.349	7054.08
920.66	7006.62
920.971	6957.13
921.282	6918.49
921.593	6901.54
921.903	6891.37
922.214	6808.21
922.525	6781.54
922.835	6793.75
923.146	6704.26
923.456	6767.99
923.767	6620.87
924.077	6707.42
924.387	6628.55
924.697	6555.34
925.008	6623.13
925.318	6503.81
925.628	6540.65
925.938	6486.41
926.248	6403.7
926.558	6404.61
926.867	6411.84
927.177	6368.22
927.487	6354.66
927.796	6269.02
928.106	6245.74
928.416	6279.86
928.725	6256.36
929.034	6207.32
929.344	6181.33
929.653	6174.78
929.962	6121.9
930.271	6036.93
930.581	6090.94
930.89	6036.93
931.199	6008.23
931.508	5921.23
931.817	6006.88
932.125	5983.15
932.434	5949.48
932.743	5877.61
933.051	5855.02
933.36	5836.71
933.669	5783.38
933.977	5821.12
934.286	5758.75
934.594	5764.4
934.902	5719.65
935.21	5684.62
935.519	5686.21
935.827	5704.29
936.135	5660.9
936.443	5564.85
936.751	5582.25
937.059	5564.85
937.367	5542.26
937.674	5526.66
937.982	5508.36
938.29	5502.48
938.597	5457.74
938.905	5412.54
939.213	5398.98
939.52	5333.22
939.827	5373.22
940.135	5326.22
940.442	5307.69
940.749	5285.31
941.056	5304.97
941.363	5195.82
941.67	5216.84
941.977	5149.27
942.284	5147.92
942.591	5122.15
942.898	5118.31
943.205	5081.25
943.511	5086.45
943.818	5020.69
944.125	5050.74
944.431	5011.87
944.738	4983.85
945.044	5003.29
945.35	4983.63
945.657	4857.3
945.963	4866.34
946.269	4924.87
946.575	4872.67
946.881	4871.31
947.187	4839.9
947.493	4797.42
947.799	4825.66
948.105	4756.29
948.41	4749.96
948.716	4728.72
949.022	4672.9
949.327	4672.67
949.633	4663.63
949.938	4610.75
950.244	4639
950.549	4615.5
950.854	4589.96
951.16	4557.2
951.465	4472.9
951.77	4545.45
952.075	4504.99
952.38	4479.91
952.685	4501.15
952.99	4478.1
953.294	4425.67
953.599	4398.1
953.904	4385
954.209	4318.78
954.513	4373.7
954.818	4336.64
955.122	4296.41
955.426	4254.15
955.731	4217.54
956.035	4248.05
956.339	4234.04
956.643	4255.51
956.948	4179.58
957.252	4204.44
957.556	4156.3
957.86	4131.9
958.163	4105.91
958.467	4080.15
958.771	4070.2
959.075	4080.6
959.378	4053.26
959.682	4047.15
959.985	4033.82
960.289	4006.25
960.592	3960.6
960.896	3904.78
961.199	3941.62
961.502	3916.76
961.805	3936.87
962.108	3880.38
962.411	3871.79
962.714	3846.71
963.017	3874.5
963.32	3864.79
963.623	3818.91
963.926	3818.46
964.228	3795.86
964.531	3748.4
964.833	3751.34
965.136	3693.26
965.438	3697.78
965.741	3701.17
966.043	3644
966.345	3682.64
966.648	3615.53
966.95	3661.4
967.252	3611.01
967.554	3607.84
967.856	3584.11
968.158	3570.56
968.46	3534.85
968.761	3528.75
969.063	3546.83
969.365	3489.43
969.666	3495.08
969.968	3460.05
970.269	3480.84
970.571	3462.54
970.872	3447.4
971.174	3404.23
971.475	3401.75
971.776	3388.87
972.077	3372.59
972.378	3323.78
972.679	3361.75
972.98	3319.49
973.281	3344.35
973.582	3299.6
973.883	3296.89
974.183	3275.42
974.484	3262.32
974.785	3222.32
975.085	3244.91
975.386	3250.79
975.686	3216.44
975.986	3223.67
976.287	3186.61
976.587	3132.15
976.887	3123.11
977.187	3128.99
977.487	3147.52
977.787	3067.29
978.087	3087.63
978.387	3080.4
978.687	3047.18
978.987	3068.2
979.286	3034.52
979.586	3018.48
979.885	3012.6
980.185	3004.02
980.484	2941.42
980.784	2916.34
981.083	2957.46
981.382	2942.78
981.682	2933.96
981.981	2894.64
982.28	2886.73
982.579	2889.44
982.878	2887.18
983.177	2852.16
983.475	2859.39
983.774	2806.96
984.073	2813.51
984.372	2810.12
984.67	2781.65
984.969	2766.28
985.267	2756.79
985.566	2782.33
985.864	2751.82
986.162	2751.37
986.461	2719.5
986.759	2725.15
987.057	2665.95
987.355	2672.05
987.653	2669.79
987.951	2661.65
988.249	2674.31
988.547	2653.97
988.844	2592.05
989.142	2587.76
989.44	2594.99
989.737	2567.87
990.035	2544.37
990.332	2538.04
990.63	2557.02
990.927	2542.79
991.224	2522.9
991.521	2542.11
991.819	2498.95
992.116	2468.44
992.413	2480.42
992.71	2478.16
993.006	2478.16
993.303	2460.98
993.6	2449.23
993.897	2454.65
994.193	2406.52
994.49	2392.06
994.787	2390.47
995.083	2378.27
995.379	2346.63
995.676	2373.07
995.972	2305.28
996.268	2331.94
996.565	2286.07
996.861	2327.2
997.157	2315
997.453	2264.6
997.749	2303.47
998.044	2261.21
998.34	2259.86
998.636	2232.06
998.932	2219.86
999.227	2200.65
999.523	2217.15
999.818	2200.2
1000.114	2205.62
1000.409	2197.03
1000.704	2178.28
1001	2150.71
1001.295	2160.42
1001.59	2134.44
1001.885	2142.57
1002.18	2114.1
1002.475	2091.5
1002.77	2088.79
1003.065	2073.87
1003.359	2082.46
1003.654	2049.01
1003.949	2050.82
1004.243	2000.2
1004.538	2000.43
1004.832	2024.16
1005.127	1993.65
1005.421	2004.27
1005.715	1979.19
1006.009	1956.59
1006.304	1975.8
1006.598	1945.29
1006.892	1948.23
1007.186	1925.18
1007.48	1903.48
1007.773	1896.93
1008.067	1892.41
1008.361	1860.77
1008.655	1873.65
1008.948	1830.49
1009.242	1840.88
1009.535	1834.56
1009.829	1844.05
1010.122	1819.64
1010.415	1806.08
1010.708	1816.03
1011.001	1792.3
1011.295	1748.23
1011.588	1748
1011.881	1742.58
1012.173	1750.26
1012.466	1720.21
1012.759	1719.31
1013.052	1715.24
1013.344	1727.67
1013.637	1717.05
1013.93	1714.11
1014.222	1641.79
1014.514	1692.87
1014.807	1666.65
1015.099	1631.85
1015.391	1643.37
1015.683	1624.39
1015.976	1606.99
1016.268	1586.88
1016.56	1618.06
1016.851	1612.64
1017.143	1572.87
1017.435	1568.57
1017.727	1562.02
1018.018	1558.63
1018.31	1531.29
1018.602	1522.02
1018.893	1504.4
1019.185	1517.95
1019.476	1521.12
1019.767	1507.11
1020.058	1462.59
1020.35	1461.46
1020.641	1444.51
1020.932	1452.87
1021.223	1396.6
1021.514	1452.65
1021.804	1444.28
1022.095	1428.47
1022.386	1425.08
1022.677	1377.17
1022.967	1385.75
1023.258	1357.05
1023.548	1401.57
1023.839	1347.56
1024.129	1361.8
1024.419	1349.82
1024.709	1314.57
1025	1329.48
1025.29	1309.37
1025.58	1296.49
1025.87	1288.13
1026.16	1299.43
1026.449	1258.07
1026.739	1270.5
1027.029	1268.47
1027.319	1250.84
1027.608	1254.46
1027.898	1247.45
1028.187	1245.19
1028.477	1222.37
1028.766	1222.14
1029.055	1201.58
1029.344	1201.58
1029.634	1227.34
1029.923	1185.99
1030.212	1191.18
1030.501	1181.24
1030.79	1188.47
1031.078	1148.02
1031.367	1153.67
1031.656	1147.34
1031.945	1139.89
1032.233	1183.05
1032.522	1140.34
1032.81	1099.66
1033.099	1112.77
1033.387	1099.89
1033.675	1081.13
1033.963	1105.31
1034.251	1084.07
1034.54	1046.1
1034.828	1049.49
1035.116	1044.52
1035.403	1067.8
1035.691	1049.94
1035.979	1034.8
1036.267	1051.07
1036.554	1021.47
1036.842	1019.66
1037.129	1006.33
1037.417	971.53
1037.704	971.75
1037.992	987.57
1038.279	981.25
1038.566	978.08
1038.853	978.08
1039.14	978.08
