Data from hue_00_FLMS001491_81.txt Node
Date: Mon Feb 06 15:30:21 GMT 2017
User: dcchb
Spectrometer: FLMS00149
Trigger mode: 0
Integration Time (sec): 2.000000E-2
Scans to average: 10
Electric dark correction enabled: true
Nonlinearity correction enabled: false
Boxcar width: 0
XAxis mode: Wavelengths
Number of Pixels in Spectrum: 2048
>>>>>Begin Spectral Data<<<<<
341.393	-13.47
341.776	-13.47
342.16	-13.47
342.543	-45.11
342.927	-47.15
343.31	-80.14
343.693	-71.55
344.077	-65.22
344.46	-75.62
344.843	-43.08
345.226	-41.27
345.61	-20.93
345.993	-13.93
346.376	-14.15
346.759	6.86
347.142	40.08
347.525	42.12
347.908	59.07
348.291	75.34
348.674	100.42
349.057	102
349.44	111.72
349.823	165.28
350.206	163.92
350.588	203.02
350.971	220.87
351.354	228.55
351.737	238.95
352.119	240.98
352.502	278.27
352.884	270.13
353.267	285.5
353.65	283.69
354.032	312.62
354.414	309.68
354.797	295.44
355.179	322.34
355.562	341.77
355.944	324.6
356.326	332.28
356.709	335.22
357.091	338.38
357.473	344.26
357.855	342.22
358.238	349
358.62	346.97
359.002	348.78
359.384	350.58
359.766	320.75
360.148	353.52
360.53	331.38
360.912	332.05
361.294	318.95
361.676	333.18
362.057	347.87
362.439	338.38
362.821	339.06
363.203	321.66
363.584	345.39
363.966	309.91
364.348	323.69
364.729	330.7
365.111	300.19
365.493	330.92
365.874	315.56
366.256	334.09
366.637	318.27
367.019	336.57
367.4	318.72
367.781	308.33
368.163	339.74
368.544	297.48
368.925	316.46
369.306	314.88
369.688	300.64
370.069	312.17
370.45	325.27
370.831	326.63
371.212	312.17
371.593	334.31
371.974	318.27
372.355	312.39
372.736	313.75
373.117	313.3
373.498	308.33
373.879	313.52
374.26	334.09
374.641	330.7
375.021	334.31
375.402	295.67
375.783	346.06
376.163	327.99
376.544	334.31
376.925	321.66
377.305	339.74
377.686	349.23
378.066	308.55
378.447	322.34
378.827	338.83
379.208	360.3
379.588	334.77
379.968	336.57
380.349	350.81
380.729	332.73
381.109	341.77
381.489	343.35
381.87	314.88
382.25	330.47
382.63	322.56
383.01	360.3
383.39	346.06
383.77	355.1
384.15	356.91
384.53	331.6
384.91	334.99
385.29	365.95
385.67	332.05
386.049	341.09
386.429	358.27
386.809	357.14
387.189	352.39
387.568	342.22
387.948	359.85
388.328	369.11
388.707	362.34
389.087	356.23
389.466	360.75
389.846	368.44
390.225	347.65
390.605	376.35
390.984	342.45
391.363	365.27
391.743	382
392.122	376.35
392.501	356.23
392.881	379.06
393.26	383.8
393.639	373.63
394.018	364.59
394.397	380.19
394.776	371.37
395.155	384.26
395.534	351.49
395.913	378.83
396.292	395.78
396.671	387.65
397.05	377.02
397.429	380.87
397.808	392.84
398.186	398.72
398.565	379.06
398.944	389.23
399.323	377.93
399.701	374.99
400.08	390.13
400.458	390.36
400.837	390.81
401.215	410.47
401.594	409.11
401.972	407.31
402.351	398.94
402.729	411.15
403.107	410.7
403.486	394.65
403.864	405.95
404.242	411.37
404.62	416.8
404.999	409.34
405.377	420.19
405.755	421.99
406.133	436.68
406.511	413.41
406.889	407.53
407.267	428.32
407.645	434.2
408.023	440.07
408.401	437.81
408.779	431.26
409.156	445.95
409.534	445.04
409.912	449.79
410.29	437.14
410.667	445.27
411.045	433.97
411.422	452.5
411.8	449.34
412.178	455.67
412.555	464.71
412.933	471.71
413.31	460.64
413.687	450.24
414.065	487.76
414.442	480.07
414.819	502.44
415.197	487.08
415.574	490.47
415.951	480.75
416.328	481.2
416.705	476.23
417.082	480.52
417.46	487.98
417.837	502.44
418.214	494.31
418.591	513.07
418.967	504.93
419.344	480.3
419.721	530.92
420.098	525.04
420.475	526.4
420.852	546.74
421.228	539.28
421.605	524.14
421.982	534.99
422.358	532.05
422.735	529.56
423.111	548.32
423.488	546.06
423.864	550.35
424.241	563.01
424.617	548.09
424.994	574.98
425.37	545.61
425.746	566.62
426.123	549.9
426.499	561.43
426.875	564.59
427.251	580.41
427.627	574.31
428.003	581.31
428.379	563.23
428.756	599.62
429.132	591.93
429.507	616.57
429.883	602.33
430.259	598.71
430.635	610.01
431.011	600.97
431.387	645.04
431.763	635.77
432.138	647.53
432.514	650.01
432.89	653.17
433.265	667.64
433.641	641.42
434.016	663.34
434.392	646.4
434.767	661.08
435.143	671.71
435.518	678.03
435.894	664.02
436.269	687.3
436.644	690.46
437.02	682.33
437.395	673.06
437.77	696.79
438.145	695.89
438.52	706.28
438.895	717.35
439.271	712.61
439.646	737.24
440.021	766.84
440.395	741.08
440.77	733.4
441.145	744.47
441.52	763.91
441.895	741.08
442.27	773.4
442.645	761.87
443.019	766.62
443.394	734.98
443.769	774.08
444.143	764.81
444.518	772.95
444.892	774.75
445.267	759.39
445.641	795.09
446.016	790.8
446.39	783.12
446.764	802.78
447.139	805.94
447.513	791.25
447.887	826.73
448.262	822.66
448.636	829.22
449.01	836.67
449.384	820.85
449.758	827.63
450.132	864.92
450.506	860.85
450.88	847.52
451.254	855.66
451.628	859.05
452.002	873.06
452.376	878.03
452.75	859.05
453.123	885.03
453.497	909.67
453.871	890.68
454.244	920.29
454.618	917.12
454.992	920.06
455.365	930.23
455.739	923.68
456.112	962.09
456.486	952.6
456.859	964.81
457.232	984.24
457.606	972.49
457.979	986.27
458.352	1017.91
458.725	1000.28
459.099	1033.05
459.472	1031.92
459.845	1009.55
460.218	1049.55
460.591	1078.93
460.964	1044.8
461.337	1066.27
461.71	1075.99
462.083	1108.98
462.456	1077.8
462.829	1097.01
463.201	1122.99
463.574	1118.47
463.947	1096.55
464.32	1153.73
464.692	1159.38
465.065	1171.81
465.438	1182.65
465.81	1218.81
466.183	1215.42
466.555	1237.57
466.928	1242.99
467.3	1252.03
467.672	1300.16
468.045	1284.12
468.417	1294.97
468.789	1310.56
469.161	1318.24
469.534	1362.99
469.906	1350.11
470.278	1357.11
470.65	1412.03
471.022	1400.73
471.394	1427.17
471.766	1466.03
472.138	1461.06
472.51	1473.72
472.882	1486.15
473.253	1550.78
473.625	1551.91
473.997	1595.52
474.369	1581.96
474.74	1600.49
475.112	1628.52
475.484	1648.18
475.855	1694.5
476.227	1711
476.598	1726.82
476.97	1759.36
477.341	1833.71
477.713	1816.99
478.084	1853.14
478.455	1882.3
478.827	1909.19
479.198	1962.75
479.569	1950.09
479.94	2052.91
480.311	2034.38
480.682	2074.38
481.053	2136.53
481.424	2188.5
481.795	2211.78
482.166	2208.16
482.537	2254.71
482.908	2308.72
483.279	2311.21
483.65	2390.98
484.021	2435.95
484.391	2463.3
484.762	2487.03
485.133	2505.78
485.503	2564.99
485.874	2563.63
486.244	2626.46
486.615	2643.63
486.985	2699
487.356	2708.71
487.726	2782.16
488.097	2826
488.467	2856.05
488.837	2929.95
489.207	2953
489.578	3015.37
489.948	3024.41
490.318	3078.42
490.688	3048.14
491.058	3129.04
491.428	3185.76
491.798	3228.93
492.168	3284.97
492.538	3324.74
492.908	3333.33
493.278	3369.94
493.648	3439.32
494.017	3419.2
494.387	3477.28
494.757	3473.21
495.126	3527.68
495.496	3541.91
495.866	3594.11
496.235	3656.71
496.605	3646.77
496.974	3658.52
497.344	3693.77
497.713	3754.11
498.082	3755.69
498.452	3793.88
498.821	3803.83
499.19	3797.5
499.559	3881.56
499.928	3900.32
500.298	3912.07
500.667	3967.44
501.036	3952.75
501.405	3996.59
501.774	4004.5
502.143	4044.05
502.512	4014.44
502.88	4070.26
503.249	4089.69
503.618	4132.18
503.987	4140.54
504.356	4153.2
504.724	4204.04
505.093	4220.54
505.462	4191.84
505.83	4194.78
506.199	4246.98
506.567	4324.49
506.936	4279.97
507.304	4334.43
507.672	4369.46
508.041	4396.35
508.409	4341.67
508.777	4433.19
509.145	4487.42
509.514	4437.71
509.882	4502.79
510.25	4538.04
510.618	4510.7
510.986	4559.96
511.354	4580.08
511.722	4616.46
512.09	4631.83
512.458	4654.88
512.826	4679.06
513.193	4635.22
513.561	4656.69
513.929	4699.17
514.297	4765.61
514.664	4746.17
515.032	4770.58
515.4	4784.14
515.767	4830.24
516.135	4863.69
516.502	4774.87
516.869	4869.79
517.237	4937.81
517.604	4850.13
517.972	4882.89
518.339	4968.32
518.706	5000.63
519.073	4971.71
519.44	5013.51
519.808	5024.81
520.175	4983.23
520.542	5051.25
520.909	5072.04
521.276	5065.71
521.643	5103.91
522.009	5157.01
522.376	5182.32
522.743	5179.84
523.11	5244.01
523.477	5286.5
523.843	5289.66
524.21	5327.63
524.577	5363.11
524.943	5366.72
525.31	5408.08
525.676	5450.34
526.043	5435.65
526.409	5486.95
526.776	5533.72
527.142	5552.03
527.508	5545.93
527.874	5632.48
528.241	5651.01
528.607	5654.63
528.973	5694.85
529.339	5695.75
529.705	5801.06
530.071	5794.06
530.437	5801.74
530.803	5863.66
531.169	5882.42
531.535	5862.98
531.901	5874.51
532.267	5911.12
532.632	5955.63
532.998	5988.63
533.364	5977.55
533.73	6051.68
534.095	6078.12
534.461	6112.47
534.826	6099.36
535.192	6089.87
535.557	6169.87
535.923	6178.91
536.288	6199.92
536.653	6283.76
537.019	6213.03
537.384	6257.77
537.749	6284.89
538.114	6244.44
538.479	6279.69
538.845	6341.16
539.21	6393.59
539.575	6415.28
539.94	6415.51
540.305	6497.54
540.67	6420.03
541.034	6496.19
541.399	6552
541.764	6544.09
542.129	6587.26
542.494	6577.99
542.858	6610.53
543.223	6684.43
543.587	6677.2
543.952	6711.55
544.316	6744.31
544.681	6786.12
545.045	6787.7
545.41	6825.89
545.774	6855.95
546.138	6803.52
546.503	6904.31
546.867	6897.53
547.231	6999.9
547.595	6989.96
547.959	7005.1
548.324	7028.37
548.688	7010.97
549.052	7062.5
549.416	7081.48
549.779	7050.29
550.143	7125.32
550.507	7217.52
550.871	7203.74
551.235	7197.86
551.599	7181.36
551.962	7218.88
552.326	7320.12
552.689	7290.97
553.053	7307.46
553.417	7274.02
553.78	7403.73
554.143	7368.25
554.507	7413.68
554.87	7413.9
555.234	7449.38
555.597	7426.33
555.96	7488.93
556.323	7501.58
556.686	7513.11
557.05	7602.82
557.413	7542.03
557.776	7651.63
558.139	7669.71
558.502	7675.14
558.865	7689.83
559.228	7778.41
559.59	7740.22
559.953	7760.33
560.316	7881.91
560.679	7864.28
561.041	7946.32
561.404	7846.43
561.767	7991.74
562.129	7919.88
562.492	8001.91
562.854	8041.46
563.217	8050.04
563.579	8139.31
563.941	8130.27
564.304	8175.24
564.666	8188.57
565.028	8192.64
565.39	8261.56
565.753	8299.53
566.115	8274.9
566.477	8328.91
566.839	8364.16
567.201	8283.71
567.563	8415.46
567.925	8446.64
568.287	8460.2
568.648	8471.27
569.01	8520.54
569.372	8560.31
569.734	8517.6
570.095	8627.65
570.457	8637.37
570.819	8719.18
571.18	8714.21
571.542	8727.31
571.903	8815.22
572.265	8808.21
572.626	8859.74
572.987	8969.11
573.349	8940.64
573.71	9007.31
574.071	9058.15
574.432	9092.05
574.794	9218.15
575.155	9202.55
575.516	9230.58
575.877	9323.68
576.238	9345.83
576.599	9419.95
576.96	9500.85
577.32	9519.83
577.681	9736.78
578.042	9723.44
578.403	9795.99
578.763	9816.1
579.124	9933.83
579.485	9998.69
579.845	10170.66
580.206	10233.26
580.566	10350.77
580.927	10414.73
581.287	10580.82
581.648	10630.31
582.008	10837.54
582.368	10849.74
582.728	11127.93
583.089	11256.74
583.449	11304.65
583.809	11441.59
584.169	11600.01
584.529	11750.06
584.889	11957.06
585.249	12111.63
585.609	12236.37
585.969	12416.48
586.329	12600.21
586.688	12835.91
587.048	12960.2
587.408	13140.08
587.768	13350.69
588.127	13561.76
588.487	13699.84
588.846	14050.11
589.206	14081.3
589.565	14322.87
589.925	14613.94
590.284	14754.27
590.643	15147.48
591.003	15319.46
591.362	15618.66
591.721	15789.27
592.08	16088.7
592.44	16311.52
592.799	16593.55
593.158	16879.41
593.517	17109.47
593.876	17391.27
594.235	17492.73
594.593	17850.01
594.952	18095.65
595.311	18340.39
595.67	18614.06
596.029	19009.98
596.387	19246.58
596.746	19505.56
597.104	19657.87
597.463	19899.22
597.822	20298.31
598.18	20453.56
598.538	20746.66
598.897	21116.14
599.255	21206.76
599.613	21841.09
599.972	21880.87
600.33	22118.15
600.688	22346.62
601.046	22665.25
601.404	23016.88
601.762	23137.78
602.12	23498.45
602.478	23632.01
602.836	23933.47
603.194	24075.84
603.552	24369.61
603.91	24438.09
604.268	24887.34
604.625	24954
604.983	25358.97
605.341	25439.19
605.698	25722.12
606.056	26029.23
606.413	26230.58
606.771	26503.34
607.128	26755.54
607.485	26825.14
607.843	27023.33
608.2	27366.6
608.557	27634.61
608.914	27648.17
609.272	28036.41
609.629	28270.08
609.986	28570.63
610.343	28541.48
610.7	28990.51
611.057	29078.64
611.414	29221.69
611.771	29466.88
612.127	29642.7
612.484	29679.98
612.841	29991.61
613.198	30109.35
613.554	30291.27
613.911	30599.73
614.267	30751.59
614.624	30769.9
614.98	30851.48
615.337	31159.94
615.693	31276.1
616.05	31487.84
616.406	31728.29
616.762	31724.9
617.118	31759.02
617.475	31973.71
617.831	32021.62
618.187	32271.78
618.543	32469.51
618.899	32699.11
619.255	32717.19
619.611	32777.75
619.967	32926
620.323	33095.03
620.678	33216.16
621.034	33164.41
621.39	33314.46
621.746	33325.31
622.101	33717.84
622.457	33530.28
622.812	33829.48
623.168	33953.99
623.523	33964.16
623.879	34144.95
624.234	34027.21
624.589	34229.47
624.945	34237.6
625.3	34503.36
625.655	34413.64
626.01	34546.97
626.365	34553.98
626.72	34569.8
627.075	34574.54
627.43	34741.09
627.785	34762.79
628.14	34864.48
628.495	34977.92
628.85	34873.74
629.205	34728.21
629.559	35131.36
629.914	35014.76
630.269	35130.01
630.623	34986.28
630.978	35070.35
631.332	35185.83
631.687	35259.95
632.041	35210.23
632.396	35156.45
632.75	35154.64
633.104	35360.06
633.459	35192.38
633.813	35239.38
634.167	35255.88
634.521	35209.1
634.875	35330.91
635.229	35255.43
635.583	35147.41
635.937	35133.17
636.291	35222.89
636.645	35195.09
636.999	35212.72
637.352	35312.6
637.706	35022.21
638.06	35249.1
638.413	35344.01
638.767	35160.52
639.121	35463.11
639.474	35022.89
639.828	35141.76
640.181	35260.4
640.534	35432.6
640.888	35083.46
641.241	35085.26
641.594	35133.17
641.947	35271.47
642.301	35152.38
642.654	35176.56
643.007	35290.23
643.36	35106.05
643.713	35047.3
644.066	35168.65
644.419	34931.6
644.771	34784.93
645.124	34692.05
645.477	34401.44
645.83	34341.78
646.182	34202.58
646.535	34095.69
646.888	34160.54
647.24	34080.54
647.593	34224.27
647.945	34083.26
648.298	34010.04
648.65	33952.41
649.002	33755.58
649.355	33957.61
649.707	33963.71
650.059	34082.8
650.411	34430.59
650.763	34535.22
651.115	34847.98
651.467	34735.67
651.819	34821.54
652.171	34597.37
652.523	34713.75
652.875	34667.2
653.227	34540.87
653.578	34806.4
653.93	34638.95
654.282	34681.21
654.633	34484.83
654.985	34530.02
655.337	34455.22
655.688	34592.4
656.039	34608.67
656.391	34427.2
656.742	34348.79
657.094	34317.15
657.445	34607.31
657.796	34416.13
658.147	34401.89
658.498	34510.82
658.849	34576.12
659.2	34464.49
659.551	34311.5
659.902	34573.64
660.253	34492.74
660.604	34530.7
660.955	34396.69
661.306	34375
661.656	34442.12
662.007	34366.64
662.358	34324.15
662.708	34466.75
663.059	34375.9
663.409	34088
663.76	34431.95
664.11	34298.17
664.461	34382.23
664.811	34434.21
665.161	34447.99
665.511	34287.32
665.862	34371.61
666.212	34371.61
666.562	34452.74
666.912	34336.36
667.262	34226.76
667.612	34176.81
667.962	34333.65
668.312	34294.55
668.662	34351.27
669.011	34372.97
669.361	34250.71
669.711	34205.29
670.06	34208.9
670.41	34066.53
670.76	34023.14
671.109	34360.31
671.459	34132.29
671.808	34182.01
672.157	34285.51
672.507	33975.01
672.856	34028.12
673.205	34114.67
673.554	34104.5
673.904	33883.26
674.253	34184.72
674.602	34007.1
674.951	33612.31
675.3	33417.06
675.649	33991.28
675.998	33975.46
676.346	33914
676.695	34042.35
677.044	33897.72
677.393	33838.52
677.741	33818.63
678.09	33962.13
678.438	33787.9
678.787	33833.09
679.135	33884.84
679.484	33672.87
679.832	33784.96
680.181	33636.04
680.529	33695.92
680.877	33636.04
681.225	33558.52
681.573	33807.11
681.922	33542.03
682.27	33470.39
682.618	33468.58
682.966	33365.08
683.314	33389.72
683.661	33329.38
684.009	33294.12
684.357	33084.64
684.705	33151.98
685.053	33037.63
685.4	33125.32
685.748	32917.19
686.095	32950.4
686.443	32871.31
686.79	32767.36
687.138	32831.76
687.485	32814.14
687.832	32717.87
688.18	32645.33
688.527	32678.1
688.874	32622.96
689.221	32542.28
689.568	32410.31
689.915	32339.8
690.262	32493.92
690.609	32279.91
690.956	32176.87
691.303	32010.77
691.65	31853.94
691.997	31928.51
692.344	31742.53
692.69	31730.32
693.037	31714.73
693.383	31588.41
693.73	31597.67
694.077	31380.28
694.423	31324.91
694.769	31339.37
695.116	31251.24
695.462	31300.5
695.808	31029.78
696.155	31166.95
696.501	30974.41
696.847	30884.92
697.193	30765.38
697.539	30842.21
697.885	30601.99
698.231	30444.03
698.577	30520.86
698.923	30409.91
699.269	30298.5
699.614	30191.38
699.96	30039.52
700.306	30117.71
700.651	29935.79
700.997	29868
701.342	29834.78
701.688	29681.79
702.033	29702.13
702.379	29672.07
702.724	29608.8
703.069	29718.4
703.415	29405.19
703.76	29406.77
704.105	29246.32
704.45	29291.07
704.795	29210.16
705.14	29057.85
705.485	29089.26
705.83	28940.11
706.175	28983.96
706.52	28767.46
706.865	28779.22
707.209	28768.37
707.554	28634.36
707.899	28606.11
708.243	28551.65
708.588	28454.48
708.932	28316.4
709.277	28220.13
709.621	28317.31
709.966	28147.37
710.31	28242.96
710.654	27959.35
710.998	27931.1
711.342	27932.68
711.687	27865.11
712.031	27911.22
712.375	27777.21
712.719	27760.94
713.063	27649.53
713.407	27800.03
713.75	27645.01
714.094	27543.99
714.438	27502.41
714.782	27609.53
715.125	27375.64
715.469	27416.99
715.812	27252.25
716.156	27153.95
716.499	27141.29
716.843	27249.09
717.186	26974.74
717.53	27148.98
717.873	27068.3
718.216	27068.07
718.559	26918.25
718.902	26704.92
719.246	26749.66
719.589	26760.29
719.932	26654.53
720.275	26679.16
720.617	26591.7
720.96	26572.95
721.303	26456.79
721.646	26511.03
721.989	26311.71
722.331	26389.45
722.674	26394.42
723.016	26362.1
723.359	26226.74
723.701	26208.66
724.044	26173.63
724.386	26009.12
724.729	26094.31
725.071	25929.57
725.413	25916.47
725.755	26048.67
726.097	25904.49
726.439	25724.38
726.782	25817.71
727.124	25713.76
727.465	25703.36
727.807	25661.56
728.149	25689.58
728.491	25560.09
728.833	25657.49
729.175	25596.25
729.516	25559.41
729.858	25508.34
730.199	25471.28
730.541	25399.64
730.882	25422.02
731.224	25389.47
731.565	25217.73
731.906	25356.71
732.248	25244.39
732.589	25152.19
732.93	25164.39
733.271	25117.84
733.612	25165.98
733.953	25105.64
734.294	25017.96
734.635	25005.3
734.976	24969.37
735.317	24817.51
735.658	24923.27
735.999	24875.59
736.339	24741.81
736.68	24767.8
737.021	24785.42
737.361	24666.78
737.702	24752.88
738.042	24664.75
738.383	24628.82
738.723	24581.81
739.063	24539.1
739.404	24558.08
739.744	24509.95
740.084	24404.64
740.424	24481.7
740.764	24330.52
741.104	24456.39
741.444	24296.17
741.784	24243.29
742.124	24292.78
742.464	24300.91
742.804	24131.43
743.143	24159.45
743.483	24201.93
743.823	24013.46
744.162	24100.02
744.502	24016.63
744.841	23955.84
745.181	23935.5
745.52	23901.6
745.86	23996.52
746.199	23868.84
746.538	23689.63
746.877	23829.97
747.216	23713.13
747.556	23728.73
747.895	23695.05
748.234	23515.17
748.573	23657.77
748.911	23505.91
749.25	23534.16
749.589	23510.65
749.928	23557.43
750.267	23458.45
750.605	23427.49
750.944	23309.53
751.283	23312.24
751.621	23345.91
751.96	23187.05
752.298	23085.13
752.636	23123.32
752.975	23095.07
753.313	23005.81
753.651	23045.35
753.989	22926.71
754.327	22829.31
754.666	22904.79
755.004	22877.68
755.342	22882.19
755.679	22815.53
756.017	22691.24
756.355	22833.83
756.693	22629.77
757.031	22663.9
757.368	22552.94
757.706	22425.26
758.044	22426.39
758.381	22464.13
758.719	22412.15
759.056	22382.77
759.394	22255.54
759.731	22152.27
760.068	22170.8
760.405	21998.6
760.743	21946.17
761.08	21904.14
761.417	21952.5
761.754	21842.67
762.091	21771.94
762.428	21694.43
762.765	21481.33
763.102	21546.64
763.438	21481.55
763.775	21352.07
764.112	21423.02
764.449	21329.24
764.785	21339.64
765.122	21037.72
765.458	21042.7
765.795	20987.56
766.131	21046.99
766.467	20945.97
766.804	20981.68
767.14	20857.16
767.476	20685.87
767.812	20756.15
768.148	20722.48
768.485	20587.34
768.821	20497.4
769.157	20549.37
769.492	20459.21
769.828	20298.99
770.164	20234.58
770.5	20165.43
770.836	20195.03
771.171	20073.46
771.507	20037.98
771.842	19926.11
772.178	19842.73
772.513	19896.96
772.849	19746.23
773.184	19630.98
773.519	19648.83
773.855	19520.7
774.19	19478.67
774.525	19372.46
774.86	19327.49
775.195	19279.35
775.53	19177.21
775.865	19133.37
776.2	19011.11
776.535	18929.98
776.87	18812.25
777.205	18776.31
777.539	18773.38
777.874	18833.71
778.209	18625.81
778.543	18504
778.878	18503.78
779.212	18492.48
779.547	18277.12
779.881	18351.92
780.215	18137.23
780.55	18291.58
780.884	18164.35
781.218	18183.34
781.552	18092.04
781.886	17941.76
782.22	17883.46
782.554	17846.62
782.888	17696.12
783.222	17597.36
783.556	17596.46
783.889	17553.75
784.223	17454.54
784.557	17388.55
784.89	17332.96
785.224	17212.29
785.557	17192.63
785.891	17076.92
786.224	17145.62
786.558	17115.34
786.891	16900.21
787.224	16862.24
787.557	16859.53
787.891	16798.51
788.224	16771.4
788.557	16716.26
788.89	16645.07
789.223	16593.09
789.556	16534.34
789.888	16472.19
790.221	16391.97
790.554	16267.45
790.887	16227.91
791.219	16276.94
791.552	16149.94
791.884	16068.14
792.217	16032.66
792.549	16010.74
792.882	15966.22
793.214	15819.78
793.546	15833.34
793.879	15880.57
794.211	15647.36
794.543	15653.23
794.875	15641.48
795.207	15666.79
795.539	15566.91
795.871	15535.72
796.203	15440.13
796.535	15327.59
796.867	15272.9
797.198	15273.36
797.53	15305.22
797.862	15205.56
798.193	15145.45
798.525	15045.56
798.856	15110.87
799.188	14966.02
799.519	14876.08
799.85	14814.84
800.182	14898.22
800.513	14807.61
800.844	14689.87
801.175	14635.63
801.506	14756.76
801.837	14679.02
802.168	14576.2
802.499	14500.72
802.83	14368.29
803.161	14430.21
803.491	14373.49
803.822	14488.74
804.153	14356.77
804.483	14236.32
804.814	14167.4
805.145	14113.84
805.475	14145.93
805.805	14122.2
806.136	14057.12
806.466	14094.86
806.796	13981.86
807.126	13844.47
807.457	13897.8
807.787	13989.32
808.117	13865.93
808.447	13771.7
808.777	13798.59
809.107	13741.87
809.436	13726.73
809.766	13708.65
810.096	13633.17
810.426	13573.29
810.755	13647.64
811.085	13573.97
811.414	13462.78
811.744	13383.24
812.073	13401.54
812.403	13400.86
812.732	13232.96
813.061	13291.26
813.39	13147.31
813.719	13192.28
814.049	13201.09
814.378	13209.68
814.707	13108.67
815.036	13080.42
815.365	13066.41
815.693	12951.83
816.022	12948.22
816.351	12850.82
816.68	12802.46
817.008	12886.3
817.337	12733.76
817.665	12781.67
817.994	12759.3
818.322	12719.52
818.651	12623.03
818.979	12639.07
819.307	12675.91
819.636	12621.9
819.964	12527.66
820.292	12604.27
820.62	12512.52
820.948	12514.78
821.276	12616.7
821.604	12539.64
821.932	12499.42
822.259	12548.23
822.587	12498.97
822.915	12423.94
823.243	12565.18
823.57	12436.14
823.898	12477.5
824.225	12444.73
824.553	12399.53
824.88	12370.15
825.207	12525.18
825.535	12401.11
825.862	12507.1
826.189	12458.74
826.516	12455.35
826.843	12504.16
827.17	12422.81
827.497	12510.04
827.824	12440.66
828.151	12534.44
828.478	12455.35
828.805	12470.49
829.131	12426.2
829.458	12369.93
829.785	12378.29
830.111	12401.34
830.438	12479.3
830.764	12360.66
831.09	12447.22
831.417	12424.16
831.743	12410.83
832.069	12409.25
832.395	12340.33
832.722	12388.46
833.048	12347.56
833.374	12373.32
833.7	12273.89
834.026	12297.16
834.351	12258.75
834.677	12279.31
835.003	12337.39
835.329	12280.67
835.654	12233.21
835.98	12122.93
836.306	12214.45
836.631	12149.6
836.956	12195.24
837.282	12203.38
837.607	12098.07
837.932	12164.06
838.258	12051.75
838.583	12067.34
838.908	12043.38
839.233	12017.17
839.558	11979.88
839.883	11932.43
840.208	11947.34
840.533	11974.23
840.858	11954.57
841.182	11893.11
841.507	11847
841.832	11849.94
842.156	11816.5
842.481	11735.37
842.805	11790.28
843.13	11750.74
843.454	11715.93
843.778	11688.59
844.103	11698.99
844.427	11688.82
844.751	11636.61
845.075	11621.7
845.399	11565.43
845.723	11462.61
846.047	11450.86
846.371	11354.81
846.695	11396.4
847.019	11342.61
847.343	11316.85
847.666	11207.47
847.99	11202.28
848.313	11213.12
848.637	11117.98
848.96	11064.65
849.284	11096.74
849.607	10912.57
849.931	10854.26
850.254	10826.47
850.577	10887.71
850.9	10788.28
851.223	10786.69
851.546	10708.28
851.869	10588.96
852.192	10752.12
852.515	10575.4
852.838	10569.07
853.161	10575.4
853.483	10519.36
853.806	10461.73
854.129	10423.31
854.451	10432.13
854.774	10358.91
855.096	10299.93
855.419	10296.76
855.741	10245.01
856.063	10201.85
856.385	10144.9
856.708	10156.65
857.03	10077.56
857.352	10080.5
857.674	10049.31
857.996	10070.1
858.318	9904.23
858.64	9990.1
858.961	9917.34
859.283	9859.71
859.605	9801.18
859.926	9882.54
860.248	9854.06
860.57	9848.64
860.891	9829.88
861.212	9697.46
861.534	9754.18
861.855	9665.82
862.176	9684.12
862.498	9700.17
862.819	9651.13
863.14	9690.9
863.461	9619.49
863.782	9560.96
864.103	9534.07
864.424	9521.64
864.745	9587.18
865.065	9544.24
865.386	9447.75
865.707	9450.91
866.027	9541.75
866.348	9457.01
866.668	9452.72
866.989	9360.06
867.309	9381.53
867.63	9410.68
867.95	9375.66
868.27	9332.27
868.59	9325.72
868.91	9318.94
869.23	9248.2
869.55	9295.66
869.87	9224.25
870.19	9286.39
870.51	9206.62
870.83	9262.67
871.15	9243.91
871.469	9201.65
871.789	9294.98
872.109	9156.91
872.428	9158.26
872.748	9118.04
873.067	9160.97
873.386	9173.63
873.706	9166.17
874.025	9033.29
874.344	9036.46
874.663	9001.66
874.982	9069.68
875.301	9007.53
875.62	8998.04
875.939	8964.37
876.258	8978.61
876.577	8923.24
876.896	8903.81
877.214	8955.33
877.533	8932.51
877.852	8925.73
878.17	8903.13
878.489	8841.66
878.807	8843.69
879.125	8870.36
879.444	8793.3
879.762	8826.97
880.08	8844.37
880.398	8732.28
880.716	8793.98
881.034	8737.03
881.352	8753.75
881.67	8719.18
881.988	8651.16
882.306	8709.23
882.624	8629.69
882.941	8625.17
883.259	8633.3
883.577	8577.49
883.894	8526.64
884.212	8550.82
884.529	8557.6
884.846	8579.29
885.164	8464.49
885.481	8462.91
885.798	8504.27
886.115	8404.84
886.432	8451.61
886.75	8342.69
887.067	8384.95
887.383	8361.67
887.7	8286.19
888.017	8353.76
888.334	8354.67
888.651	8335.23
888.967	8235.57
889.284	8252.52
889.6	8218.4
889.917	8158.51
890.233	8131.62
890.55	8129.59
890.866	8150.15
891.182	8143.15
891.498	8107.67
891.815	8096.14
892.131	8021.34
892.447	8026.09
892.763	7977.05
893.079	7986.54
893.395	7954.9
893.71	7930.27
894.026	7902.48
894.342	7897.5
894.657	7818.41
894.973	7813.44
895.289	7796.49
895.604	7781.58
895.92	7697.96
896.235	7728.02
896.55	7660.45
896.865	7653.22
897.181	7592.2
897.496	7659.54
897.811	7601.24
898.126	7542.03
898.441	7516.27
898.756	7575.48
899.071	7486.89
899.386	7454.35
899.7	7419.55
900.015	7390.85
900.33	7352.66
900.644	7344.07
900.959	7297.75
901.273	7295.49
901.588	7305.66
901.902	7196.51
902.216	7202.61
902.531	7171.87
902.845	7192.21
903.159	7102.27
903.473	7143.17
903.787	7085.32
904.101	7021.37
904.415	7002.16
904.729	7035.61
905.042	6999.45
905.356	6884.65
905.67	6919.45
905.984	6943.86
906.297	6903.63
906.611	6841.71
906.924	6869.06
907.237	6728.72
907.551	6778.44
907.864	6793.8
908.177	6754.26
908.491	6734.6
908.804	6707.48
909.117	6655.28
909.43	6642.4
909.743	6574.83
910.056	6599.01
910.368	6608.27
910.681	6526.92
910.994	6496.41
911.307	6463.42
911.619	6392.46
911.932	6519.24
912.244	6340.48
912.557	6363.99
912.869	6330.99
913.181	6307.49
913.494	6275.85
913.806	6274.27
914.118	6227.49
914.43	6264.1
914.742	6228.62
915.054	6223.65
915.366	6165.57
915.678	6156.08
915.99	6079.7
916.302	6034.05
916.613	6049.64
916.925	6012.58
917.236	5987.27
917.548	5979.81
917.859	5984.79
918.171	5934.39
918.482	5892.81
918.794	5908.18
919.105	5878.57
919.416	5788.18
919.727	5812.81
920.038	5825.69
920.349	5788.18
920.66	5711.12
920.971	5713.15
921.282	5715.87
921.593	5650.33
921.903	5644.23
922.214	5604.23
922.525	5633.83
922.835	5592.71
923.146	5508.41
923.456	5521.75
923.767	5472.48
924.077	5447.17
924.387	5471.13
924.697	5483.78
925.008	5427.96
925.318	5389.32
925.628	5359.04
925.938	5339.61
926.248	5302.09
926.558	5288.76
926.867	5265.26
927.177	5296.44
927.487	5220.06
927.796	5197.01
928.106	5187.07
928.416	5171.47
928.725	5121.76
929.034	5137.8
929.344	5120.4
929.653	5060.52
929.962	5070.91
930.271	5038.82
930.581	4991.82
930.89	5006.05
931.199	4978.71
931.508	4932.61
931.817	4964.02
932.125	4932.16
932.434	4914.53
932.743	4836.57
933.051	4824.14
933.36	4839.28
933.669	4780.98
933.977	4849.67
934.286	4778.04
934.594	4749.11
934.902	4711.6
935.21	4705.95
935.519	4722.67
935.827	4725.16
936.135	4660.08
936.443	4595.22
936.751	4587.31
937.059	4582.11
937.367	4567.42
937.674	4540.08
937.982	4551.6
938.29	4489.23
938.597	4478.84
938.905	4450.82
939.213	4468.89
939.52	4439.06
939.827	4425.96
940.135	4392.74
940.442	4336.47
940.749	4374.21
941.056	4387.77
941.363	4291.5
941.67	4335.34
941.977	4249.01
942.284	4261.67
942.591	4271.38
942.898	4242.23
943.205	4242.01
943.511	4162.01
943.818	4193.87
944.125	4155.46
944.431	4136.93
944.738	4126.08
945.044	4059.41
945.35	4133.31
945.657	4087.43
945.963	4050.37
946.269	4023.26
946.575	4036.81
946.881	3997.27
947.187	3997.04
947.493	3972.41
947.799	3957.27
948.105	3925.41
948.41	3965.86
948.716	3912.98
949.022	3894.45
949.327	3887.44
949.633	3817.61
949.938	3845.41
950.244	3830.27
950.549	3808.12
950.854	3749.59
951.16	3796.6
951.465	3730.83
951.77	3768.57
952.075	3722.25
952.38	3678.63
952.685	3752.08
952.99	3697.61
953.294	3664.85
953.599	3653.32
953.904	3612.87
954.209	3616.71
954.513	3618.97
954.818	3545.75
955.122	3576.94
955.426	3580.78
955.731	3488.35
956.035	3497.85
956.339	3522.93
956.643	3517.28
956.948	3495.59
957.252	3489.03
957.556	3418.07
957.86	3417.85
958.163	3462.37
958.467	3363.84
958.771	3414.68
959.075	3398.87
959.378	3364.06
959.682	3358.19
959.985	3353.22
960.289	3310.28
960.592	3299.88
960.896	3296.27
961.199	3215.14
961.502	3266.44
961.805	3246.78
962.108	3300.34
962.411	3273.9
962.714	3265.31
963.017	3178.08
963.32	3205.65
963.623	3188.93
963.926	3141.47
964.228	3150.28
964.531	3142.83
964.833	3108.93
965.136	3094.92
965.438	3104.86
965.741	3053.11
966.043	3101.92
966.345	3065.09
966.648	3009.05
966.95	3004.98
967.252	2972.89
967.554	2990.97
967.856	2991.64
968.158	3004.07
968.46	2968.59
968.761	2945.09
969.063	2913
969.365	2908.26
969.666	2885.43
969.968	2876.17
970.269	2829.16
970.571	2871.2
970.872	2868.71
971.174	2851.76
971.475	2798.43
971.776	2815.38
972.077	2804.3
972.378	2803.63
972.679	2783.29
972.98	2778.54
973.281	2755.27
973.582	2762.05
973.883	2739.22
974.183	2705.78
974.484	2697.87
974.785	2697.19
975.085	2720.47
975.386	2675.04
975.686	2703.29
975.986	2647.7
976.287	2669.62
976.587	2626
976.887	2643.86
977.187	2626.46
977.487	2616.97
977.787	2595.95
978.087	2600.47
978.387	2581.49
978.687	2562.5
978.987	2564.09
979.286	2547.14
979.586	2565.22
979.885	2496.97
980.185	2498.32
980.484	2510.08
980.784	2493.58
981.083	2479.79
981.382	2466.23
981.682	2458.33
981.981	2489.96
982.28	2433.92
982.579	2397.54
982.878	2393.92
983.177	2419.68
983.475	2404.99
983.774	2375.16
984.073	2365.9
984.372	2364.54
984.67	2370.19
984.969	2337.2
985.267	2338.33
985.566	2307.82
985.864	2328.84
986.162	2293.13
986.461	2315.05
986.759	2266.01
987.057	2276.86
987.355	2259.46
987.653	2240.7
987.951	2236.18
988.249	2204.55
988.547	2189.41
988.844	2186.24
989.142	2210.2
989.44	2147.82
989.737	2164.1
990.035	2143.76
990.332	2137.88
990.63	2145.79
990.927	2156.41
991.224	2162.97
991.521	2155.51
991.819	2089.3
992.116	2087.04
992.413	2055.62
992.71	2090.65
993.006	2070.31
993.303	2066.25
993.6	2011.11
993.897	2046.36
994.193	2027.83
994.49	2011.11
994.787	2011.33
995.083	1978.34
995.379	1976.98
995.676	2013.14
995.972	1970.88
996.268	1946.02
996.565	1959.13
996.861	1950.99
997.157	1924.55
997.453	1944.21
997.749	1908.74
998.044	1923.2
998.34	1923.2
998.636	1910.77
998.932	1869.64
999.227	1868.28
999.523	1870.09
999.818	1844.56
1000.114	1861.96
1000.409	1840.26
1000.704	1831.22
1001	1806.82
1001.295	1826.48
1001.59	1812.47
1001.885	1782.64
1002.18	1770.66
1002.475	1764.11
1002.77	1797.55
1003.065	1767.27
1003.359	1755.74
1003.654	1769.53
1003.949	1757.1
1004.243	1738.34
1004.538	1731.34
1004.832	1717.1
1005.127	1729.76
1005.421	1663.32
1005.715	1685.01
1006.009	1657.67
1006.304	1681.85
1006.598	1653.6
1006.892	1665.8
1007.186	1648.4
1007.48	1628.74
1007.773	1652.02
1008.067	1619.03
1008.361	1607.27
1008.655	1580.16
1008.948	1578.12
1009.242	1555.07
1009.535	1552.59
1009.829	1563.43
1010.122	1561.4
1010.415	1543.1
1010.708	1524.11
1011.001	1515.07
1011.295	1522.3
1011.588	1508.07
1011.881	1508.75
1012.173	1513.04
1012.466	1470.78
1012.759	1474.62
1013.052	1458.58
1013.344	1448.41
1013.637	1447.05
1013.93	1418.58
1014.222	1453.61
1014.514	1393.72
1014.807	1413.83
1015.099	1428.97
1015.391	1396.21
1015.683	1405.7
1015.976	1405.47
1016.268	1395.75
1016.56	1358.92
1016.851	1343.55
1017.143	1357.56
1017.435	1349.2
1017.727	1335.87
1018.018	1351.91
1018.31	1326.38
1018.602	1308.07
1018.893	1313.04
1019.185	1317.56
1019.476	1290.9
1019.767	1286.83
1020.058	1283.44
1020.35	1283.21
1020.641	1257
1020.932	1251.35
1021.223	1239.37
1021.514	1228.08
1021.804	1227.62
1022.095	1221.52
1022.386	1217.91
1022.677	1198.47
1022.967	1218.58
1023.258	1176.78
1023.548	1187.85
1023.839	1196.44
1024.129	1179.04
1024.419	1167.51
1024.709	1144.91
1025	1159.38
1025.29	1171.81
1025.58	1124.12
1025.87	1110.34
1026.16	1126.61
1026.449	1126.38
1026.739	1130.68
1027.029	1115.76
1027.319	1087.74
1027.608	1087.74
1027.898	1072.82
1028.187	1064.46
1028.477	1053.62
1028.766	1068.08
1029.055	1058.59
1029.344	1049.1
1029.634	1044.8
1029.923	1042.77
1030.212	1037.57
1030.501	1019.94
1030.79	1019.49
1031.078	989.21
1031.367	986.73
1031.656	989.44
1031.945	1000.51
1032.233	987.63
1032.522	981.53
1032.81	961.64
1033.099	972.49
1033.387	995.09
1033.675	952.83
1033.963	950.34
1034.251	953.51
1034.54	923.45
1034.828	931.13
1035.116	931.59
1035.403	913.28
1035.691	939.5
1035.979	908.99
1036.267	899.27
1036.554	909.89
1036.842	911.93
1037.129	886.39
1037.417	897.91
1037.704	873.28
1037.992	871.47
1038.279	858.59
1038.566	858.14
1038.853	858.14
1039.14	858.14
