Data from hue_00_FLMS001491_35.txt Node
Date: Mon Feb 06 15:29:37 GMT 2017
User: dcchb
Spectrometer: FLMS00149
Trigger mode: 0
Integration Time (sec): 2.000000E-2
Scans to average: 10
Electric dark correction enabled: true
Nonlinearity correction enabled: false
Boxcar width: 0
XAxis mode: Wavelengths
Number of Pixels in Spectrum: 2048
>>>>>Begin Spectral Data<<<<<
341.393	-8.57
341.776	-8.57
342.16	-8.57
342.543	-52.64
342.927	-53.09
343.31	-79.76
343.693	-70.94
344.077	-52.19
344.46	-23.04
344.843	-51.96
345.226	-30.72
345.61	-25.07
345.993	-21.91
346.376	-9.03
346.759	-0.21
347.142	18.54
347.525	47.92
347.908	50.63
348.291	56.96
348.674	80.92
349.057	109.84
349.44	118.2
349.823	131.08
350.206	158.65
350.588	174.02
350.971	212.89
351.354	201.14
351.737	232.32
352.119	241.82
352.502	279.55
352.884	273
353.267	275.49
353.65	281.14
354.032	294.7
354.414	304.64
354.797	318.88
355.179	327.46
355.562	315.49
355.944	321.14
356.326	331.76
356.709	335.6
357.091	345.54
357.473	330.63
357.855	342.15
358.238	344.19
358.62	356.84
359.002	355.26
359.384	346.9
359.766	356.39
360.148	322.49
360.53	336.95
360.912	340.34
361.294	313
361.676	341.7
362.057	336.28
362.439	339.67
362.821	344.41
363.203	322.72
363.584	322.72
363.966	319.33
364.348	316.16
364.729	350.74
365.111	313.68
365.493	313.45
365.874	303.73
366.256	310.06
366.637	302.15
367.019	293.11
367.4	304.41
367.781	327.01
368.163	314.81
368.544	308.25
368.925	293.11
369.306	322.72
369.688	314.81
370.069	310.06
370.45	311.64
370.831	309.38
371.212	313.45
371.593	327.92
371.974	323.17
372.355	300.12
372.736	316.84
373.117	329.72
373.498	315.49
373.879	306.22
374.26	304.86
374.641	320.68
375.021	310.29
375.402	299.22
375.783	336.73
376.163	331.98
376.544	331.53
376.925	334.47
377.305	337.41
377.686	330.4
378.066	328.59
378.447	326.79
378.827	315.49
379.208	322.49
379.588	320.91
379.968	336.5
380.349	357.07
380.729	329.95
381.109	319.1
381.489	334.47
381.87	356.39
382.25	329.5
382.63	350.51
383.01	346.22
383.39	341.02
383.77	320.46
384.15	342.15
384.53	346.45
384.91	340.8
385.29	342.38
385.67	329.27
386.049	326.79
386.429	357.74
386.809	324.07
387.189	354.58
387.568	361.59
387.948	361.36
388.328	347.58
388.707	348.48
389.087	353.68
389.466	357.52
389.846	349.16
390.225	356.16
390.605	371.76
390.984	364.3
391.363	343.51
391.743	369.27
392.122	382.83
392.501	377.18
392.881	351.42
393.26	358.2
393.639	367.01
394.018	361.36
394.397	359.55
394.776	372.21
395.155	358.87
395.534	357.97
395.913	370.17
396.292	383.73
396.671	365.65
397.05	391.19
397.429	374.47
397.808	381.7
398.186	357.52
398.565	369.27
398.944	374.69
399.323	373.34
399.701	393.45
400.08	398.65
400.458	372.66
400.837	370.17
401.215	408.14
401.594	384.64
401.972	394.58
402.351	392.55
402.729	387.12
403.107	370.63
403.486	394.13
403.864	411.3
404.242	422.15
404.62	415.6
404.999	408.36
405.377	390.96
405.755	409.49
406.133	412.66
406.511	414.01
406.889	418.08
407.267	421.7
407.645	431.42
408.023	438.42
408.401	433.22
408.779	429.83
409.156	426.22
409.534	432.32
409.912	433.45
410.29	434.58
410.667	446.56
411.045	449.27
411.422	464.41
411.8	433.45
412.178	442.94
412.555	454.47
412.933	456.95
413.31	473.67
413.687	459.44
414.065	469.15
414.442	466.89
414.819	476.61
415.197	464.86
415.574	476.16
415.951	476.39
416.328	482.94
416.705	494.46
417.082	500.79
417.46	490.62
417.837	500.57
418.214	496.5
418.591	492.2
418.967	499.44
419.344	512.32
419.721	523.62
420.098	503.73
420.475	510.06
420.852	510.51
421.228	516.38
421.605	500.11
421.982	525.42
422.358	519.55
422.735	524.07
423.111	526.78
423.488	551.86
423.864	533.33
424.241	541.92
424.617	552.09
424.994	551.86
425.37	557.97
425.746	544.41
426.123	581.24
426.499	561.81
426.875	573.11
427.251	576.27
427.627	575.14
428.003	581.69
428.379	587.12
428.756	585.54
429.132	593.22
429.507	595.03
429.883	612.2
430.259	610.85
430.635	610.85
431.011	631.64
431.387	606.33
431.763	617.4
432.138	639.09
432.514	631.41
432.89	644.52
433.265	630.73
433.641	647.23
434.016	647.45
434.392	665.53
434.767	654.01
435.143	658.08
435.518	675.02
435.894	663.5
436.269	664.63
436.644	692.2
437.02	699.43
437.395	696.49
437.77	711.41
438.145	686.78
438.52	700.79
438.895	706.21
439.271	718.41
439.646	718.87
440.021	751.18
440.395	744.4
440.77	729.94
441.145	734.23
441.52	756.15
441.895	749.15
442.27	772.42
442.645	748.7
443.019	762.71
443.394	743.95
443.769	746.44
444.143	741.01
444.518	786.43
444.892	764.06
445.267	777.85
445.641	769.26
446.016	795.93
446.39	795.7
446.764	813.1
447.139	769.71
447.513	789.37
447.887	790.73
448.262	816.26
448.636	792.76
449.01	817.17
449.384	826.21
449.758	834.57
450.132	818.07
450.506	841.12
450.88	843.83
451.254	811.07
451.628	856.71
452.002	855.81
452.376	862.59
452.75	863.95
453.123	839.54
453.497	904.85
453.871	891.97
454.244	879.99
454.618	892.65
454.992	897.39
455.365	916.83
455.739	910.05
456.112	912.53
456.486	935.36
456.859	923.83
457.232	965.86
457.606	958.86
457.979	971.29
458.352	980.1
458.725	995.02
459.099	1007.9
459.472	1003.83
459.845	1002.47
460.218	1022.36
460.591	1038.4
460.964	1028.91
461.337	1040.21
461.71	1072.98
462.083	1082.25
462.456	1072.53
462.829	1070.95
463.201	1069.14
463.574	1102.36
463.947	1137.16
464.32	1129.02
464.692	1123.83
465.065	1135.8
465.438	1151.4
465.81	1174.9
466.183	1179.42
466.555	1187.33
466.928	1215.12
467.3	1188.01
467.672	1223.48
468.045	1247.89
468.417	1263.03
468.789	1287.21
469.161	1286.31
469.534	1308
469.906	1330.6
470.278	1347.1
470.65	1351.39
471.022	1373.09
471.394	1398.62
471.766	1420.32
472.138	1393.42
472.51	1484.72
472.882	1482.46
473.253	1457.83
473.625	1500.99
473.997	1560.43
474.369	1575.11
474.74	1592.74
475.112	1595.23
475.484	1629.12
475.855	1664.83
476.227	1653.76
476.598	1706.41
476.97	1710.93
477.341	1739.86
477.713	1797.93
478.084	1805.39
478.455	1853.52
478.827	1846.97
479.198	1913.86
479.569	1935.56
479.94	2006.74
480.311	1997.48
480.682	2038.38
481.053	2098.94
481.424	2139.62
481.795	2159.28
482.166	2162.67
482.537	2202.89
482.908	2265.04
483.279	2297.58
483.65	2317.69
484.021	2378.71
484.391	2406.28
484.762	2459.84
485.133	2455.32
485.503	2524.24
485.874	2581.64
486.244	2571.47
486.615	2611.47
486.985	2660.28
487.356	2698.93
487.726	2735.31
488.097	2818.02
488.467	2846.72
488.837	2893.05
489.207	2950.67
489.578	2949.99
489.948	3002.42
490.318	3024.79
490.688	3070.44
491.058	3101.63
491.428	3151.12
491.798	3142.3
492.168	3222.53
492.538	3250.55
492.908	3300.27
493.278	3325.12
493.648	3343.88
494.017	3378.46
494.387	3447.38
494.757	3452.8
495.126	3531.45
495.496	3473.6
495.866	3553.59
496.235	3587.04
496.605	3615.51
496.974	3643.53
497.344	3678.56
497.713	3690.31
498.082	3705.45
498.452	3751.55
498.821	3774.38
499.19	3745.9
499.559	3814.15
499.928	3841.04
500.298	3903.19
500.667	3911.55
501.036	3912.68
501.405	3931.89
501.774	3984.09
502.143	3980.25
502.512	4012.56
502.88	4058.89
503.249	4025.22
503.618	4036.74
503.987	4055.73
504.356	4091.88
504.724	4122.17
505.093	4157.87
505.462	4202.84
505.83	4208.27
506.199	4179.11
506.567	4237.19
506.936	4215.27
507.304	4293.23
507.672	4255.27
508.041	4295.49
508.409	4307.02
508.777	4382.72
509.145	4357.87
509.514	4417.07
509.882	4436.06
510.25	4468.6
510.618	4476.28
510.986	4445.09
511.354	4489.39
511.722	4539.56
512.09	4526.67
512.458	4558.54
512.826	4578.2
513.193	4592.66
513.561	4615.03
513.929	4607.35
514.297	4647.8
514.664	4637.86
515.032	4649.38
515.4	4711.3
515.767	4727.35
516.135	4693.68
516.502	4682.83
516.869	4795.59
517.237	4790.17
517.604	4822.94
517.972	4778.42
518.339	4796.95
518.706	4845.76
519.073	4850.73
519.44	4876.95
519.808	4876.04
520.175	4836.5
520.542	5008.02
520.909	4938.19
521.276	4926.66
521.643	4977.28
522.009	5005.98
522.376	5021.58
522.743	5016.83
523.11	5091.63
523.477	5129.37
523.843	5129.6
524.21	5196.04
524.577	5212.31
524.943	5184.28
525.31	5168.24
525.676	5247.11
526.043	5329.37
526.409	5295.02
526.776	5286.2
527.142	5363.26
527.508	5337.05
527.874	5404.84
528.241	5410.49
528.607	5399.87
528.973	5471.06
529.339	5511.73
529.705	5547.66
530.071	5596.03
530.437	5563.94
530.803	5630.15
531.169	5665.85
531.535	5641
531.901	5675.35
532.267	5666.53
532.632	5778.39
532.998	5747.43
533.364	5808.22
533.73	5825.62
534.095	5791.27
534.461	5828.11
534.826	5909.92
535.192	5899.75
535.557	5946.75
535.923	5989.01
536.288	5984.04
536.653	6014.55
537.019	5940.2
537.384	5995.11
537.749	6063.81
538.114	6106.52
538.479	6065.84
538.845	6164.82
539.21	6146.75
539.575	6139.51
539.94	6151.94
540.305	6237.14
540.67	6249.57
541.034	6270.13
541.399	6289.57
541.764	6223.58
542.129	6321.88
542.494	6343.12
542.858	6403.91
543.223	6404.14
543.587	6401.65
543.952	6461.09
544.316	6454.99
544.681	6483.23
545.045	6576.79
545.41	6566.62
545.774	6601.65
546.138	6623.34
546.503	6661.08
546.867	6663.79
547.231	6669.44
547.595	6757.58
547.959	6723.91
548.324	6767.52
548.688	6824.24
549.052	6760.51
549.416	6834.41
549.779	6815.2
550.143	6913.28
550.507	6897.91
550.871	6887.29
551.235	6931.58
551.599	6975.65
551.962	7032.6
552.326	6944.46
552.689	7015.42
553.053	6998.93
553.417	7049.55
553.78	7183.33
554.143	7058.13
554.507	7161.18
554.87	7172.71
555.234	7229.88
555.597	7167.28
555.96	7286.83
556.323	7247.06
556.686	7232.37
557.05	7294.96
557.413	7337.9
557.776	7384
558.139	7387.62
558.502	7340.39
558.865	7386.03
559.228	7458.8
559.59	7442.76
559.953	7454.28
560.316	7572.7
560.679	7584.67
561.041	7577.22
561.404	7612.92
561.767	7650.43
562.129	7652.02
562.492	7755.06
562.854	7662.64
563.217	7727.04
563.579	7774.27
563.941	7819.47
564.304	7870.77
564.666	7829.64
565.028	7853.59
565.39	7912.35
565.753	7955.96
566.115	7853.59
566.477	7988.96
566.839	8008.84
567.201	8066.24
567.563	8018.79
567.925	8114.83
568.287	8171.32
568.648	8160.48
569.01	8183.98
569.372	8256.29
569.734	8219.91
570.095	8311.21
570.457	8342.39
570.819	8367.03
571.18	8357.08
571.542	8412.9
571.903	8517.53
572.265	8587.58
572.626	8544.42
572.987	8661.03
573.349	8635.04
573.71	8683.18
574.071	8753.46
574.432	8809.27
574.794	8877.75
575.155	8868.93
575.516	8923.85
575.877	9023.05
576.238	9074.13
576.599	9185.76
576.96	9264.63
577.32	9275.93
577.681	9344.85
578.042	9465.53
578.403	9536.03
578.763	9598.86
579.124	9745.29
579.485	9862.13
579.845	9874.33
580.206	10015.34
580.566	10150.48
580.927	10274.09
581.287	10456.01
581.648	10498.5
582.008	10717.92
582.368	10776.23
582.728	10927.18
583.089	11128.31
583.449	11249.44
583.809	11353.84
584.169	11645.58
584.529	11775.07
584.889	12038.57
585.249	12160.6
585.609	12323.98
585.969	12650.98
586.329	12771.2
586.688	13017.3
587.048	13191.76
587.408	13466.78
587.768	13694.12
588.127	13972.98
588.487	14123.26
588.846	14481.44
589.206	14647.54
589.565	14867.19
589.925	15236
590.284	15487.06
590.643	15790.33
591.003	15985.36
591.362	16324.78
591.721	16555.29
592.08	16858.78
592.44	17123.86
592.799	17518.88
593.158	17709.38
593.517	18020.33
593.876	18319.31
594.235	18531.28
594.593	18974.2
594.952	19282.67
595.311	19469.11
595.67	19885.59
596.029	20300.5
596.387	20625.46
596.746	20998.56
597.104	21112.68
597.463	21416.17
597.822	21838.54
598.18	22012.99
598.538	22392.19
598.897	22819.53
599.255	22929.13
599.613	23427.19
599.972	23632.84
600.33	24045.26
600.688	24395.53
601.046	24605.69
601.404	25026.25
601.762	25256.98
602.12	25636.4
602.478	25895.38
602.836	26140.34
603.194	26352.09
603.552	26658.3
603.91	26857.39
604.268	27189.36
604.625	27427.54
604.983	27806.51
605.341	27969
605.698	28256.45
606.056	28649.88
606.413	28889.2
606.771	29224.1
607.128	29467.04
607.485	29509.07
607.843	29749.29
608.2	30160.13
608.557	30468.37
608.914	30467.46
609.272	31043.72
609.629	31218.4
609.986	31437.38
610.343	31499.98
610.7	31983.35
611.057	32184.03
611.414	32340.63
611.771	32549.21
612.127	32894.52
612.484	32985.59
612.841	33386.48
613.198	33321.85
613.554	33442.52
613.911	33905.79
614.267	34053.13
614.624	34200.02
614.98	34370.41
615.337	34513.91
615.693	34710.74
616.05	34828.48
616.406	35175.59
616.762	35225.98
617.118	35277.05
617.475	35465.75
617.831	35649.47
618.187	35871.16
618.543	35994.1
618.899	36261.89
619.255	36406.97
619.611	36378.49
619.967	36715.66
620.323	36885.15
620.678	37000.62
621.034	36988.87
621.39	37066.38
621.746	37133.28
622.101	37580.72
622.457	37410.78
622.812	37537.33
623.168	37751.79
623.523	37799.02
623.879	38082.63
624.234	37859.13
624.589	38022.29
624.945	38169.41
625.3	38283.53
625.655	38339.57
626.01	38401.72
626.365	38458.89
626.72	38604.87
627.075	38625.44
627.43	38642.61
627.785	38654.59
628.14	38719.67
628.495	38901.59
628.85	38826.11
629.205	38778.88
629.559	39173.22
629.914	39032.21
630.269	39105.2
630.623	38976.39
630.978	39078.76
631.332	39264.74
631.687	39283.95
632.041	39243.73
632.396	39312.65
632.75	39220
633.104	39286.89
633.459	39205.54
633.813	39229.94
634.167	39383.61
634.521	39367.79
634.875	39460.45
635.229	39401.46
635.583	39232.65
635.937	39260
636.291	39152.21
636.645	39328.25
636.999	39276.95
637.352	39556.71
637.706	39202.37
638.06	39453.67
638.413	39289.83
638.767	39245.31
639.121	39339.77
639.474	39151.08
639.828	39166.67
640.181	39278.76
640.534	39297.96
640.888	39273.11
641.241	39234.91
641.594	39212.32
641.947	39344.29
642.301	39244.41
642.654	39233.56
643.007	39349.49
643.36	39325.76
643.713	39147.46
644.066	39480.56
644.419	39071.98
644.771	38773.23
645.124	38622.5
645.477	38493.92
645.83	38379.8
646.182	38151.33
646.535	38130.31
646.888	38112.68
647.24	37799.47
647.593	38055.74
647.945	38105.9
648.298	37918.34
648.65	37959.69
649.002	37860.94
649.355	37946.14
649.707	37988.17
650.059	38053.93
650.411	38505.89
650.763	38553.58
651.115	38936.62
651.467	38804.87
651.819	38933.45
652.171	38765.1
652.523	38791.54
652.875	38842.38
653.227	38672.22
653.578	38728.49
653.93	38747.92
654.282	38628.15
654.633	38479.23
654.985	38593.8
655.337	38641.48
655.688	38681.71
656.039	38788.82
656.391	38313.58
656.742	38623.86
657.094	38469.06
657.445	38716.06
657.796	38633.35
658.147	38474.03
658.498	38516.29
658.849	38570.53
659.2	38492.56
659.551	38370.98
659.902	38650.75
660.253	38564.42
660.604	38573.46
660.955	38371.89
661.306	38586.57
661.656	38250.08
662.007	38353.36
662.358	38424.77
662.708	38452.11
663.059	38378.21
663.409	38265.45
663.76	38479.91
664.11	38398.1
664.461	38575.95
664.811	38379.57
665.161	38401.26
665.511	38315.62
665.862	38341.83
666.212	38476.97
666.562	38321.94
666.912	38392.9
667.262	38336.63
667.612	38318.1
667.962	38421.83
668.312	38309.74
668.662	38529.85
669.011	38335.96
669.361	38226.35
669.711	38213.02
670.06	38210.31
670.41	38119.92
670.76	38118.11
671.109	38136.41
671.459	38267.03
671.808	38312
672.157	38312.45
672.507	37987.04
672.856	38047.6
673.205	38063.87
673.554	38181.16
673.904	38099.8
674.253	38280.82
674.602	38064.78
674.951	37479.71
675.3	37351.35
675.649	38114.94
675.998	38079.46
676.346	38049.18
676.695	37921.95
677.044	37848.96
677.393	37915.18
677.741	37917.44
678.09	37809.19
678.438	37645.8
678.787	37731
679.135	37842.63
679.484	37573.94
679.832	37786.59
680.181	37464.34
680.529	37694.16
680.877	37477.67
681.225	37519.03
681.573	37708.4
681.922	37412.59
682.27	37320.61
682.618	37366.94
682.966	37212.59
683.314	37366.04
683.661	37118.81
684.009	37072.71
684.357	37093.5
684.705	36935.31
685.053	37053.96
685.4	36901.87
685.748	36745.49
686.095	36750.46
686.443	36738.94
686.79	36505.95
687.138	36676.79
687.485	36730.12
687.832	36470.69
688.18	36389.34
688.527	36459.62
688.874	36285.84
689.221	36285.61
689.568	36129.46
689.915	36087.43
690.262	36051.95
690.609	35901.44
690.956	35787.55
691.303	35780.99
691.65	35718.4
691.997	35673.43
692.344	35404.05
692.69	35509.14
693.037	35446.09
693.383	35128.81
693.73	35308.46
694.077	35116.83
694.423	35079.54
694.769	34966.55
695.116	34939.21
695.462	34754.58
695.808	34708.93
696.155	34905.31
696.501	34465.77
696.847	34480.01
697.193	34344.42
697.539	34529.05
697.885	34079.8
698.231	34135.61
698.577	34090.42
698.923	34028.95
699.269	33812.23
699.614	33699.02
699.96	33691.11
700.306	33653.59
700.651	33607.49
700.997	33377.44
701.342	33446.14
701.688	33384.9
702.033	33297.44
702.379	33317.56
702.724	33245.92
703.069	33145.13
703.415	32836.44
703.76	32828.76
704.105	32829.66
704.45	32845.7
704.795	32600.51
705.14	32424.7
705.485	32430.8
705.83	32337.92
706.175	32452.95
706.52	32332.72
706.865	32132.95
707.209	32025.16
707.554	32043.92
707.899	32116.46
708.243	31901.1
708.588	31853.87
708.932	31666.3
709.277	31612.29
709.621	31804.15
709.966	31496.14
710.31	31615.45
710.654	31279.87
710.998	31271.06
711.342	31293.43
711.687	31270.38
712.031	31224.5
712.375	30960.33
712.719	30983.83
713.063	31076.49
713.407	31095.92
713.75	30871.07
714.094	30860.9
714.438	30799.66
714.782	30692.09
715.125	30718.53
715.469	30713.78
715.812	30456.61
716.156	30364.87
716.499	30295.49
716.843	30434.69
717.186	30216.39
717.53	30413.23
717.873	30271.08
718.216	30235.83
718.559	30069.96
718.902	30031.31
719.246	30034.25
719.589	29950.64
719.932	29848.95
720.275	29782.06
720.617	29733.02
720.96	29634.72
721.303	29642.17
721.646	29599.01
721.989	29378.68
722.331	29517.66
722.674	29515.85
723.016	29409.18
723.359	29379.81
723.701	29413.93
724.044	29238.12
724.386	29107.05
724.729	29288.28
725.071	29084
725.413	29046.71
725.755	29054.84
726.097	28965.58
726.439	28875.19
726.782	28907.95
727.124	28887.62
727.465	28802.42
727.807	28754.29
728.149	28763.55
728.491	28630.45
728.833	28648.3
729.175	28589.09
729.516	28484.24
729.858	28386.61
730.199	28500.28
730.541	28500.51
730.882	28400.4
731.224	28378.93
731.565	28308.87
731.906	28280.4
732.248	28172.61
732.589	28034.76
732.93	28011.93
733.271	28021.42
733.612	28050.12
733.953	28011.48
734.294	27871.15
734.635	27849.68
734.976	27962.89
735.317	27783.92
735.658	27822.56
735.999	27797.25
736.339	27677.93
736.68	27862.11
737.021	27687.87
737.361	27609.01
737.702	27844.25
738.042	27635.22
738.383	27556.35
738.723	27601.55
739.063	27532.17
739.404	27433.42
739.744	27352.06
740.084	27337.15
740.424	27289.01
740.764	27235.91
741.104	27442.23
741.444	27161.11
741.784	27135.12
742.124	27147.32
742.464	27131.05
742.804	27031.39
743.143	27075.23
743.483	26990.94
743.823	26777.62
744.162	26877.5
744.502	26877.73
744.841	26802.47
745.181	26870.72
745.52	26756.37
745.86	26773.55
746.199	26699.65
746.538	26597.51
746.877	26655.81
747.216	26639.99
747.556	26567
747.895	26577.39
748.234	26422.6
748.573	26354.58
748.911	26315.48
749.25	26339.89
749.589	26248.82
749.928	26223.05
750.267	26196.39
750.605	26172.89
750.944	26201.59
751.283	26105.99
751.621	26233
751.96	25868.26
752.298	25950.29
752.636	25915.49
752.975	25796.85
753.313	25727.47
753.651	25850.18
753.989	25719.56
754.327	25690.64
754.666	25408.39
755.004	25529.74
755.342	25671.66
755.679	25526.8
756.017	25284.1
756.355	25404.54
756.693	25250.65
757.031	25399.8
757.368	25107.6
757.706	25207.03
758.044	25073.03
758.381	25135.17
758.719	25036.42
759.056	24982.18
759.394	24920.94
759.731	24727.95
760.068	24662.87
760.405	24682.98
760.743	24521.63
761.08	24629.42
761.417	24527.96
761.754	24425.13
762.091	24310.34
762.428	24296.55
762.765	24199.38
763.102	24253.61
763.438	24177.01
763.775	23919.16
764.112	23934.07
764.449	24028.08
764.785	23892.04
765.122	23676.68
765.458	23596.46
765.795	23570.24
766.131	23565.04
766.467	23501.54
766.804	23376.35
767.14	23338.61
767.476	23208.9
767.812	23241.89
768.148	23109.01
768.485	23050.93
768.821	22878.73
769.157	22918.73
769.492	22824.05
769.828	22805.97
770.164	22511.96
770.5	22541.79
770.836	22555.35
771.171	22445.3
771.507	22418.18
771.842	22168.02
772.178	22240.11
772.513	22166.21
772.849	22074.24
773.184	21984.29
773.519	22040.79
773.855	21881.25
774.19	21862.26
774.525	21699.56
774.86	21652.33
775.195	21544.76
775.53	21450.07
775.865	21431.32
776.2	21350.41
776.535	21163.53
776.87	21142.74
777.205	21064.55
777.539	20935.73
777.874	21013.25
778.209	20785
778.543	20714.95
778.878	20689.19
779.212	20654.61
779.547	20519.02
779.881	20541.85
780.215	20410.78
780.55	20408.29
780.884	20247.62
781.218	20120.84
781.552	20258.24
781.886	20071.58
782.22	19997.68
782.554	19862.99
782.888	19793.62
783.222	19634.98
783.556	19644.47
783.889	19617.35
784.223	19486.96
784.557	19488.77
784.89	19443.34
785.224	19318.38
785.557	19298.49
785.891	19245.61
786.224	19160.87
786.558	19086.07
786.891	18937.37
787.224	18878.84
787.557	18818.5
787.891	18796.58
788.224	18758.16
788.557	18804.04
788.89	18662.35
789.223	18593.42
789.556	18503.93
789.888	18494.9
790.221	18402.92
790.554	18109.82
790.887	18341.68
791.219	18174.68
791.552	18090.39
791.884	18106.2
792.217	17966.32
792.549	17877.28
792.882	17823.95
793.214	17764.52
793.546	17802.48
793.879	17566.33
794.211	17591.19
794.543	17591.19
794.875	17503.96
795.207	17542.15
795.539	17346.68
795.871	17415.38
796.203	17313.23
796.535	17215.83
796.867	17119.79
797.198	17121.37
797.53	17065.78
797.862	17017.19
798.193	17001.83
798.525	16985.56
798.856	16948.04
799.188	16719.8
799.519	16727.03
799.85	16526.59
800.182	16665.34
800.513	16569.97
800.844	16460.6
801.175	16484.78
801.506	16451.56
801.837	16358
802.168	16304.9
802.499	16355.74
802.83	16222.64
803.161	16103.32
803.491	16091.34
803.822	16090.44
804.153	15978.58
804.483	15955.75
804.814	15799.15
805.145	15927.5
805.475	15864.91
805.805	15711.69
806.136	15726.83
806.466	15699.26
806.796	15594.41
807.126	15570.68
807.457	15457.23
807.787	15485.71
808.117	15402.32
808.447	15406.61
808.777	15418.14
809.107	15375.2
809.436	15317.35
809.766	15258.6
810.096	15215.43
810.426	15213.4
810.755	15180.41
811.085	15173.4
811.414	15087.75
811.744	14929.57
812.073	14972.28
812.403	14859.06
812.732	14881.66
813.061	14859.28
813.39	14733.41
813.719	14691.61
814.049	14825.84
814.378	14739.06
814.707	14624.71
815.036	14615.68
815.365	14540.2
815.693	14423.82
816.022	14474.66
816.351	14366.87
816.68	14347.66
817.008	14411.16
817.337	14322.8
817.665	14215.46
817.994	14271.96
818.322	14314.89
818.651	14145.4
818.979	14168.46
819.307	14211.84
819.636	14074.45
819.964	14005.75
820.292	14037.39
820.62	14032.41
820.948	14056.14
821.276	14038.74
821.604	13999.65
821.932	13985.86
822.259	13939.76
822.587	13962.81
822.915	13987.89
823.243	14030.15
823.57	13929.14
823.898	13969.82
824.225	13900.67
824.553	13883.94
824.88	13932.76
825.207	13908.12
825.535	13962.58
825.862	13930.27
826.189	13874.68
826.516	13999.87
826.843	13897.28
827.17	13978.18
827.497	13907.67
827.824	13872.87
828.151	13977.05
828.478	13970.04
828.805	14030.38
829.131	13882.59
829.458	13900.44
829.785	13810.72
830.111	13784.06
830.438	13937.5
830.764	13845.98
831.09	13856.15
831.417	13776.83
831.743	13810.5
832.069	13856.6
832.395	13770.5
832.722	13806.88
833.048	13687.79
833.374	13766.21
833.7	13701.35
834.026	13702.48
834.351	13674
834.677	13714.68
835.003	13733.21
835.329	13701.8
835.654	13737.73
835.98	13601.46
836.306	13521.69
836.631	13617.96
836.956	13587.23
837.282	13584.06
837.607	13544.74
837.932	13571.86
838.258	13529.6
838.583	13525.08
838.908	13437.4
839.233	13465.2
839.558	13502.26
839.883	13397.4
840.208	13381.36
840.533	13394.46
840.858	13392.2
841.182	13340.23
841.507	13391.53
841.832	13288.25
842.156	13246.45
842.481	13216.39
842.805	13128.93
843.13	13149.05
843.454	13132.78
843.778	13012.78
844.103	13059.11
844.427	13044.42
844.751	12991.08
845.075	12988.83
845.399	12933.91
845.723	12873.35
846.047	12848.04
846.371	12773.01
846.695	12735.05
847.019	12617.08
847.343	12575.95
847.666	12569.63
847.99	12476.97
848.313	12407.6
848.637	12434.49
848.96	12371.89
849.284	12357.66
849.607	12286.24
849.931	12196.3
850.254	12171.9
850.577	12088.96
850.9	12049.19
851.223	12051
851.546	11991.56
851.869	11872.02
852.192	11938.68
852.515	11862.3
852.838	11772.36
853.161	11789.53
853.483	11774.85
853.806	11715.64
854.129	11672.25
854.451	11624.79
854.774	11529.43
855.096	11467.96
855.419	11455.53
855.741	11473.38
856.063	11372.37
856.385	11356.55
856.708	11341.41
857.03	11271.13
857.352	11233.39
857.674	11273.84
857.996	11178.93
858.318	11069.55
858.64	11148.2
858.961	11094.64
859.283	11060.97
859.605	10976.22
859.926	11029.78
860.248	10982.1
860.57	10933.96
860.891	10972.38
861.212	10892.84
861.534	10825.72
861.855	10831.14
862.176	10859.16
862.498	10876.11
862.819	10797.24
863.14	10639.28
863.461	10759.73
863.782	10689.22
864.103	10650.81
864.424	10616.23
864.745	10660.52
865.065	10576.23
865.386	10595.89
865.707	10539.62
866.027	10578.72
866.348	10503.47
866.668	10547.53
866.989	10434.09
867.309	10458.5
867.63	10421.89
867.95	10488.55
868.27	10371.72
868.59	10500.98
868.91	10293.08
869.23	10349.57
869.55	10343.24
869.87	10374.2
870.19	10346.86
870.51	10302.57
870.83	10315
871.15	10294.88
871.469	10296.24
871.789	10225.73
872.109	10258.05
872.428	10237.26
872.748	10305.73
873.067	10167.88
873.386	10226.19
873.706	10193.64
874.025	10064.16
874.344	9984.38
874.663	10048.79
874.982	10030.48
875.301	10130.6
875.62	10040.65
875.939	9939.19
876.258	10056.02
876.577	9928.11
876.896	9959.53
877.214	9934.44
877.533	9964.72
877.852	9947.55
878.17	9971.5
878.489	9920.43
878.807	9950.94
879.125	9889.02
879.444	9861.9
879.762	9764.05
880.08	9796.37
880.398	9839.76
880.716	9756.37
881.034	9742.58
881.352	9759.98
881.67	9656.26
881.988	9726.31
882.306	9651.29
882.624	9662.81
882.941	9606.32
883.259	9558.86
883.577	9579.2
883.894	9506.43
884.212	9511.4
884.529	9526.32
884.846	9479.09
885.164	9433.21
885.481	9456.26
885.798	9437.51
886.115	9331.29
886.432	9347.56
886.75	9365.19
887.067	9315.25
887.383	9262.37
887.7	9310.73
888.017	9247.45
888.334	9302.82
888.651	9210.62
888.967	9197.74
889.284	9192.54
889.6	9148.7
889.917	9002.26
890.233	9063.28
890.55	9077.06
890.866	9037.74
891.182	8989.38
891.498	9002.94
891.815	8934.02
892.131	8949.61
892.447	8947.35
892.763	8828.48
893.079	8884.3
893.395	8820.57
893.71	8797.3
894.026	8750.52
894.342	8773.57
894.657	8709.39
894.973	8728.6
895.289	8691.31
895.604	8645.21
895.92	8579.9
896.235	8569.96
896.55	8587.58
896.865	8567.92
897.181	8541.48
897.496	8517.76
897.811	8473.46
898.126	8459
898.441	8436.18
898.756	8379.45
899.071	8402.28
899.386	8323.64
899.7	8285.9
900.015	8206.35
900.33	8196.41
900.644	8170.87
900.959	8169.52
901.273	8232.34
901.588	8100.59
901.902	8099.69
902.216	8038.45
902.531	8020.82
902.845	8042.06
903.159	7911.67
903.473	8009.75
903.787	7906.7
904.101	7838.68
904.415	7852.91
904.729	7826.93
905.042	7801.84
905.356	7773.37
905.67	7669.19
905.984	7719.13
906.297	7721.62
906.611	7625.35
906.924	7629.64
907.237	7625.12
907.551	7516.2
907.864	7545.58
908.177	7515.3
908.491	7477.33
908.804	7472.36
909.117	7464
909.43	7367.5
909.743	7315.53
910.056	7350.33
910.368	7308.3
910.681	7290.22
910.994	7185.81
911.307	7190.11
911.619	7114.86
911.932	7194.4
912.244	7143.56
912.557	7100.62
912.869	7050
913.181	7059.72
913.494	7014.29
913.806	6967.74
914.118	6950.79
914.43	6877.12
914.742	6930.23
915.054	6831.7
915.366	6840.74
915.678	6836.67
915.99	6743.34
916.302	6706.05
916.613	6744.47
916.925	6664.7
917.236	6725.49
917.548	6654.98
917.859	6647.3
918.171	6579.73
918.482	6572.72
918.794	6513.06
919.105	6495.89
919.416	6480.3
919.727	6432.84
920.038	6469
920.349	6363.91
920.66	6334.08
920.971	6324.59
921.282	6312.62
921.593	6293.86
921.903	6242.11
922.214	6258.83
922.525	6245.05
922.835	6156.69
923.146	6129.8
923.456	6140.64
923.767	6100.42
924.077	6084.15
924.387	6096.35
924.697	6007.99
925.008	6023.81
925.318	6022.23
925.628	5995.11
925.938	5951.04
926.248	5920.31
926.558	5932.97
926.867	5847.54
927.177	5832.18
927.487	5843.02
927.796	5773.87
928.106	5740.43
928.416	5733.42
928.725	5710.15
929.034	5710.37
929.344	5630.37
929.653	5616.36
929.962	5623.82
930.271	5615.01
930.581	5600.32
930.89	5535.01
931.199	5488.91
931.508	5489.59
931.817	5462.02
932.125	5478.51
932.434	5449.36
932.743	5370.04
933.051	5288.91
933.36	5320.1
933.669	5402.13
933.977	5297.28
934.286	5258.41
934.594	5257.5
934.902	5183.38
935.21	5208.46
935.519	5208.24
935.827	5183.15
936.135	5149.94
936.443	5076.04
936.751	5057.51
937.059	5028.36
937.367	4949.49
937.674	5014.57
937.982	5021.58
938.29	5027.45
938.597	5002.82
938.905	4961.47
939.213	4902.71
939.52	4859.1
939.827	4910.17
940.135	4857.51
940.442	4848.02
940.749	4829.72
941.056	4808.02
941.363	4773.9
941.67	4751.75
941.977	4764.18
942.284	4746.78
942.591	4699.55
942.898	4678.31
943.205	4682.38
943.511	4669.04
943.818	4631.98
944.125	4569.61
944.431	4584.07
944.738	4559.67
945.044	4566.67
945.35	4478.31
945.657	4497.3
945.963	4509.95
946.269	4436.73
946.575	4462.27
946.881	4425.89
947.187	4446
947.493	4412.78
947.799	4395.83
948.105	4394.7
948.41	4311.77
948.716	4385.66
949.022	4264.53
949.327	4317.19
949.633	4253.24
949.938	4251.65
950.244	4247.59
950.549	4187.47
950.854	4209.17
951.16	4161.49
951.465	4156.52
951.77	4135.95
952.075	4128.49
952.38	4078.78
952.685	4088.04
952.99	4055.73
953.294	4039.68
953.599	4019.12
953.904	3990.42
954.209	3948.38
954.513	3979.57
954.818	3955.16
955.122	3968.27
955.426	3907.26
955.731	3915.62
956.035	3910.65
956.339	3861.83
956.643	3906.8
956.948	3895.73
957.252	3825.45
957.556	3822.51
957.86	3773.93
958.163	3808.28
958.467	3785.9
958.771	3723.53
959.075	3726.7
959.378	3701.39
959.682	3731.67
959.985	3687.6
960.289	3676.75
960.592	3650.99
960.896	3640.82
961.199	3606.7
961.502	3603.76
961.805	3576.19
962.108	3568.96
962.411	3555.17
962.714	3551.11
963.017	3510.43
963.32	3519.47
963.623	3505.23
963.926	3476.08
964.228	3476.98
964.531	3444.9
964.833	3443.31
965.136	3424.78
965.438	3415.07
965.741	3349.53
966.043	3356.99
966.345	3395.86
966.648	3351.79
966.95	3335.97
967.252	3331.45
967.554	3328.74
967.856	3299.59
968.158	3260.49
968.46	3261.17
968.761	3289.42
969.063	3264.56
969.365	3227.05
969.666	3232.92
969.968	3180.27
970.269	3175.52
970.571	3145.47
970.872	3145.02
971.174	3114.96
971.475	3092.36
971.776	3128.52
972.077	3093.04
972.378	3077.45
972.679	3086.26
972.98	3046.26
973.281	3039.71
973.582	3026.83
973.883	3055.75
974.183	2971.46
974.484	2998.81
974.785	2964.68
975.085	2992.48
975.386	2969.43
975.686	2965.59
975.986	2911.12
976.287	2934.4
976.587	2869.54
976.887	2889.2
977.187	2871.35
977.487	2864.35
977.787	2848.98
978.087	2787.29
978.387	2807.17
978.687	2804.46
978.987	2784.8
979.286	2769.66
979.586	2764.69
979.885	2726.72
980.185	2739.83
980.484	2717
980.784	2721.07
981.083	2700.73
981.382	2677.91
981.682	2688.31
981.981	2665.48
982.28	2659.15
982.579	2639.27
982.878	2662.09
983.177	2606.95
983.475	2617.8
983.774	2600.17
984.073	2632.26
984.372	2568.31
984.67	2591.81
984.969	2577.57
985.267	2567.63
985.566	2539.61
985.864	2518.59
986.162	2504.13
986.461	2524.24
986.759	2487.86
987.057	2500.29
987.355	2451.02
987.653	2469.1
987.951	2443.34
988.249	2447.86
988.547	2435.43
988.844	2387.75
989.142	2398.6
989.44	2402.21
989.737	2403.57
990.035	2369.22
990.332	2371.25
990.63	2348.2
990.927	2340.74
991.224	2340.74
991.521	2316.56
991.819	2335.77
992.116	2298.71
992.413	2294.19
992.71	2247.19
993.006	2284.47
993.303	2279.05
993.6	2230.01
993.897	2242.44
994.193	2221.88
994.49	2223.46
994.787	2230.24
995.083	2190.69
995.379	2180.52
995.676	2173.74
995.972	2169.9
996.268	2143.91
996.565	2161.54
996.861	2163.12
997.157	2128.77
997.453	2111.37
997.749	2118.83
998.044	2083.35
998.34	2093.29
998.636	2082.45
998.932	2068.66
999.227	2050.36
999.523	2043.35
999.818	2056.01
1000.114	2004.71
1000.409	2019.62
1000.704	1990.47
1001	1979.17
1001.295	1960.41
1001.59	1953.64
1001.885	1939.17
1002.18	1931.04
1002.475	1941.43
1002.77	1928.78
1003.065	1949.57
1003.359	1896.24
1003.654	1878.38
1003.949	1875.45
1004.243	1885.84
1004.538	1825.05
1004.832	1839.29
1005.127	1865.73
1005.421	1851.72
1005.715	1824.37
1006.009	1811.04
1006.304	1786.41
1006.598	1822.11
1006.892	1775.79
1007.186	1757.48
1007.48	1767.2
1007.773	1776.01
1008.067	1748.67
1008.361	1749.12
1008.655	1721.78
1008.948	1721.32
1009.242	1698.73
1009.535	1697.82
1009.829	1706.86
1010.122	1674.09
1010.415	1662.12
1010.708	1662.57
1011.001	1683.36
1011.295	1637.26
1011.588	1629.35
1011.881	1615.11
1012.173	1616.02
1012.466	1600.65
1012.759	1580.54
1013.052	1590.71
1013.344	1598.39
1013.637	1581.67
1013.93	1581.89
1014.222	1564.27
1014.514	1532.18
1014.807	1550.48
1015.099	1531.5
1015.391	1539.86
1015.683	1510.03
1015.976	1459.64
1016.268	1469.13
1016.56	1468
1016.851	1461.9
1017.143	1461.9
1017.435	1427.77
1017.727	1444.27
1018.018	1426.87
1018.31	1448.34
1018.602	1411.28
1018.893	1397.04
1019.185	1400.2
1019.476	1372.86
1019.767	1401.33
1020.058	1380.32
1020.35	1364.05
1020.641	1365.4
1020.932	1360.88
1021.223	1322.92
1021.514	1344.16
1021.804	1296.48
1022.095	1314.33
1022.386	1287.89
1022.677	1326.08
1022.967	1290.6
1023.258	1279.3
1023.548	1280.66
1023.839	1277.95
1024.129	1261.22
1024.419	1244.28
1024.709	1240.66
1025	1248.57
1025.29	1246.76
1025.58	1224.84
1025.87	1219.19
1026.16	1224.84
1026.449	1183.49
1026.739	1193.66
1027.029	1182.81
1027.319	1180.32
1027.608	1201.56
1027.898	1175.35
1028.187	1134
1028.477	1139.65
1028.766	1117.72
1029.055	1143.03
1029.344	1117.27
1029.634	1103.94
1029.923	1122.24
1030.212	1117.05
1030.501	1099.87
1030.79	1078.4
1031.078	1101.91
1031.367	1078.63
1031.656	1080.66
1031.945	1072.75
1032.233	1066.43
1032.522	1051.74
1032.81	1027.33
1033.099	1033.66
1033.387	1046.54
1033.675	1017.61
1033.963	1020.55
1034.251	1016.03
1034.54	989.82
1034.828	972.42
1035.116	983.94
1035.403	976.94
1035.691	989.37
1035.979	958.63
1036.267	978.29
1036.554	972.19
1036.842	933.1
1037.129	943.49
1037.417	961.8
1037.704	952.08
1037.992	929.48
1038.279	937.39
1038.566	904.62
1038.853	904.62
1039.14	904.62
