Data from hue_190_FLMS001491_00016.txt Node
Date: Tue Feb 07 16:44:55 GMT 2017
User: dcchb
Spectrometer: FLMS00149
Trigger mode: 0
Integration Time (sec): 2.000000E-2
Scans to average: 10
Electric dark correction enabled: true
Nonlinearity correction enabled: false
Boxcar width: 0
XAxis mode: Wavelengths
Number of Pixels in Spectrum: 2048
>>>>>Begin Spectral Data<<<<<
341.393	-13.22
341.776	-13.22
342.16	-13.22
342.543	-39.21
342.927	-81.92
343.31	-77.85
343.693	-71.75
344.077	-69.72
344.46	-53.22
344.843	-51.41
345.226	-55.7
345.61	-24.75
345.993	-24.07
346.376	-10.96
346.759	22.26
347.142	12.77
347.525	38.98
347.908	52.32
348.291	89.6
348.674	114.69
349.057	108.81
349.44	110.62
349.823	134.57
350.206	165.31
350.588	201.01
350.971	201.24
351.354	239.43
351.737	228.13
352.119	258.86
352.502	266.55
352.884	260.9
353.267	277.85
353.65	295.92
354.032	305.42
354.414	322.36
354.797	312.2
355.179	330.27
355.562	323.27
355.944	307.45
356.326	331.86
356.709	304.51
357.091	326.88
357.473	360.56
357.855	334.12
358.238	323.49
358.62	339.77
359.002	340.67
359.384	331.4
359.766	346.54
360.148	337.05
360.53	339.99
360.912	354.23
361.294	328.69
361.676	332.53
362.057	317.62
362.439	296.15
362.821	336.83
363.203	320.33
363.584	287.79
363.966	341.57
364.348	318.75
364.729	309.71
365.111	320.56
365.493	332.08
365.874	313.78
366.256	318.75
366.637	309.26
367.019	307.68
367.4	316.94
367.781	328.69
368.163	326.21
368.544	301.8
368.925	319.43
369.306	313.1
369.688	302.93
370.069	339.54
370.45	304.51
370.831	331.18
371.212	321.01
371.593	329.37
371.974	336.38
372.355	334.12
372.736	330.5
373.117	312.42
373.498	324.62
373.879	313.78
374.26	315.81
374.641	297.73
375.021	326.88
375.402	323.27
375.783	346.09
376.163	310.39
376.544	319.43
376.925	322.36
377.305	305.19
377.686	322.14
378.066	339.54
378.447	300.22
378.827	337.05
379.208	332.76
379.588	322.14
379.968	338.41
380.349	339.54
380.729	337.51
381.109	325.53
381.489	332.99
381.87	339.31
382.25	354.23
382.63	325.08
383.01	354.91
383.39	339.77
383.77	361.69
384.15	337.05
384.53	328.24
384.91	338.18
385.29	344.06
385.67	339.09
386.049	346.54
386.429	349.26
386.809	364.62
387.189	356.94
387.568	366.43
387.948	376.6
388.328	358.75
388.707	367.79
389.087	371.4
389.466	390.16
389.846	348.13
390.225	357.84
390.605	365.3
390.984	376.6
391.363	349.03
391.743	383.15
392.122	367.33
392.501	385.64
392.881	380.22
393.26	380.44
393.639	383.38
394.018	390.84
394.397	359.43
394.776	376.6
395.155	386.09
395.534	375.92
395.913	399.88
396.292	399.2
396.671	369.59
397.05	390.84
397.429	404.62
397.808	404.62
398.186	424.51
398.565	393.55
398.944	396.26
399.323	411.63
399.701	413.66
400.08	426.77
400.458	393.77
400.837	412.08
401.215	413.21
401.594	431.51
401.972	412.53
402.351	414.57
402.729	434
403.107	419.31
403.486	428.12
403.864	449.82
404.242	447.11
404.62	438.75
404.999	449.14
405.377	435.58
405.755	434.68
406.133	443.04
406.511	455.24
406.889	496.37
407.267	479.65
407.645	472.87
408.023	482.81
408.401	481.46
408.779	496.37
409.156	510.83
409.534	535.47
409.912	493.21
410.29	528.69
410.667	537.27
411.045	541.12
411.422	551.74
411.8	563.04
412.178	557.16
412.555	541.12
412.933	555.58
413.31	572.3
413.687	591.28
414.065	591.06
414.442	611.17
414.819	621.11
415.197	603.03
415.574	617.27
415.951	642.13
416.328	646.2
416.705	668.34
417.082	655.24
417.46	663.82
417.837	674.45
418.214	667.44
418.591	671.73
418.967	704.5
419.344	683.26
419.721	699.08
420.098	701.79
420.475	725.07
420.852	746.76
421.228	754.44
421.605	780.21
421.982	777.72
422.358	790.6
422.735	806.65
423.111	803.93
423.488	828.57
423.864	841.67
424.241	851.62
424.617	897.72
424.994	892.07
425.37	885.74
425.746	888.45
426.123	930.26
426.499	921.44
426.875	937.94
427.251	962.35
427.627	974.78
428.003	994.89
428.379	1009.58
428.756	1024.72
429.132	1035.11
429.507	1032.85
429.883	1043.02
430.259	1061.33
430.635	1067.43
431.011	1078.5
431.387	1083.25
431.763	1116.24
432.138	1111.04
432.514	1162.57
432.89	1123.93
433.265	1181.55
433.641	1200.99
434.016	1224.49
434.392	1253.87
434.767	1255
435.143	1299.06
435.518	1315.56
435.894	1320.98
436.269	1354.88
436.644	1346.07
437.02	1413.41
437.395	1419.96
437.77	1405.73
438.145	1482.11
438.52	1455.67
438.895	1518.27
439.271	1498.83
439.646	1542.22
440.021	1556.91
440.395	1598.49
440.77	1581.09
441.145	1609.79
441.52	1656.34
441.895	1672.16
442.27	1684.59
442.645	1710.12
443.019	1740.63
443.394	1722.78
443.769	1747.41
444.143	1726.4
444.518	1803.46
444.892	1807.07
445.267	1796.68
445.641	1848.88
446.016	1866.05
446.39	1875.09
446.764	1866.05
447.139	1892.72
447.513	1915.77
447.887	1943.11
448.262	1937.69
448.636	1964.36
449.01	1962.77
449.384	1991.7
449.758	1988.99
450.132	2037.57
450.506	2054.75
450.88	2078.48
451.254	2066.5
451.628	2093.17
452.002	2127.97
452.376	2190.34
452.75	2181.75
453.123	2167.51
453.497	2200.73
453.871	2241.86
454.244	2274.86
454.618	2306.49
454.992	2296.32
455.365	2349.2
455.739	2379.94
456.112	2418.58
456.486	2438.47
456.859	2448.41
457.232	2526.6
457.606	2480.95
457.979	2544.68
458.352	2629.2
458.725	2632.36
459.099	2656.99
459.472	2633.49
459.845	2725.24
460.218	2725.92
460.591	2755.07
460.964	2770.44
461.337	2852.92
461.71	2881.17
462.083	2917.32
462.456	2964.55
462.829	2965.68
463.201	3063.08
463.574	3034.61
463.947	3060.37
464.32	3149.86
464.692	3166.58
465.065	3176.07
465.438	3236.41
465.81	3285.22
466.183	3287.94
466.555	3391.44
466.928	3415.84
467.3	3402.51
467.672	3502.39
468.045	3580.58
468.417	3589.17
468.789	3590.75
469.161	3654.93
469.534	3702.84
469.906	3817.64
470.278	3812.22
470.65	3888.6
471.022	3958.65
471.394	4037.52
471.766	4064.86
472.138	4096.73
472.51	4203.17
472.882	4296.72
473.253	4289.49
473.625	4348.02
473.997	4483.61
474.369	4532.88
474.74	4546.66
475.112	4642.02
475.484	4706.43
475.855	4774.22
476.227	4811.74
476.598	4966.54
476.97	5020.55
477.341	5082.47
477.713	5169.24
478.084	5256.7
478.455	5376.47
478.827	5448.33
479.198	5566.29
479.569	5633.86
479.94	5797.25
480.311	5810.13
480.682	5943.91
481.053	6040.86
481.424	6202.89
481.795	6214.19
482.166	6364.24
482.537	6405.37
482.908	6554.97
483.279	6663.89
483.65	6714.29
484.021	6860.95
484.391	6962.64
484.762	7000.61
485.133	7131
485.503	7151.34
485.874	7372.12
486.244	7365.8
486.615	7529.86
486.985	7672.68
487.356	7832.9
487.726	7820.47
488.097	7967.59
488.467	8011.65
488.837	8222.95
489.207	8296.62
489.578	8432.66
489.948	8399.21
490.318	8609.6
490.688	8633.33
491.058	8765.76
491.428	8901.8
491.798	8897.51
492.168	9041.01
492.538	9124.62
492.908	9239.19
493.278	9326.87
493.648	9311.51
494.017	9502.46
494.387	9517.15
494.757	9610.71
495.126	9638.05
495.496	9720.08
495.866	9801.21
496.235	9857.03
496.605	9941.09
496.974	9934.77
497.344	10031.26
497.713	10083.46
498.082	10143.35
498.452	10189.22
498.821	10287.07
499.19	10325.04
499.559	10394.42
499.928	10431.48
500.298	10496.79
500.667	10590.79
501.036	10528.88
501.405	10630.34
501.774	10562.55
502.143	10655.65
502.512	10701.98
502.88	10814.52
503.249	10768.87
503.618	10825.82
503.987	10835.53
504.356	10910.11
504.724	10911.24
505.093	10985.59
505.462	10951.69
505.83	11033.27
506.199	11146.94
506.567	11076.43
506.936	11078.69
507.304	11224.9
507.672	11246.14
508.041	11246.37
508.409	11321.62
508.777	11315.07
509.145	11404.11
509.514	11374.73
509.882	11441.17
510.25	11405.46
510.618	11491.34
510.986	11475.97
511.354	11493.14
511.722	11543.09
512.09	11678.45
512.458	11609.3
512.826	11688.17
513.193	11690.88
513.561	11691.33
513.929	11706.25
514.297	11779.46
514.664	11831.44
515.032	11761.61
515.4	11855.62
515.767	11805.9
516.135	11849.52
516.502	11751.44
516.869	11880.03
517.237	11881.61
517.604	11834.38
517.972	11891.1
518.339	11922.74
518.706	11817.88
519.073	11908.27
519.44	11927.71
519.808	12015.16
520.175	11919.57
520.542	12039.34
520.909	11972.45
521.276	11965
521.643	12077.54
522.009	12055.16
522.376	12133.81
522.743	12061.94
523.11	12118.66
523.477	12143.52
523.843	12181.04
524.21	12207.25
524.577	12204.09
524.943	12193.46
525.31	12222.84
525.676	12235.72
526.043	12290.41
526.409	12252.67
526.776	12206.35
527.142	12181.71
527.508	12251.32
527.874	12306.68
528.241	12238.66
528.607	12214.71
528.973	12238.89
529.339	12120.92
529.705	12214.93
530.071	12315.04
530.437	12156.63
530.803	12182.39
531.169	12241.15
531.535	12082.51
531.901	12103.75
532.267	12046.12
532.632	12002.74
532.998	11979.91
533.364	12074.82
533.73	11928.16
534.095	12008.38
534.461	11950.76
534.826	11967.93
535.192	11915.73
535.557	11851.78
535.923	11860.37
536.288	11741.95
536.653	11748.73
537.019	11647.49
537.384	11653.59
537.749	11588.06
538.114	11620.15
538.479	11511.45
538.845	11522.3
539.21	11511.22
539.575	11343.77
539.94	11374.5
540.305	11330.89
540.67	11309.19
541.034	11240.27
541.399	11185.36
541.764	11205.92
542.129	11149.88
542.494	11058.81
542.858	11010.22
543.223	10964.57
543.587	11001.18
543.952	10840.73
544.316	10891.58
544.681	10790.56
545.045	10777
545.41	10772.26
545.774	10735.2
546.138	10630.34
546.503	10565.71
546.867	10505.6
547.231	10542.43
547.595	10470.12
547.959	10436.22
548.324	10363.46
548.688	10292.27
549.052	10273.97
549.416	10225.61
549.779	10100.64
550.143	10061.54
550.507	10162.33
550.871	10086.4
551.235	10075.55
551.599	9966.4
551.962	9982.9
552.326	9907.65
552.689	9835.11
553.053	9842.79
553.417	9796.69
553.78	9866.07
554.143	9657.26
554.507	9645.28
554.87	9679.18
555.234	9634.21
555.597	9632.4
555.96	9621.1
556.323	9607.77
556.686	9502.24
557.05	9476.7
557.413	9517.38
557.776	9425.18
558.139	9376.82
558.502	9411.62
558.865	9304.28
559.228	9354.67
559.59	9366.65
559.953	9327.55
560.316	9389.24
560.679	9279.87
561.041	9286.42
561.404	9249.14
561.767	9352.64
562.129	9273.09
562.492	9309.92
562.854	9225.63
563.217	9239.87
563.579	9179.53
563.941	9217.5
564.304	9191.74
564.666	9312.18
565.028	9148.8
565.39	9250.27
565.753	9232.86
566.115	9252.98
566.477	9239.42
566.839	9196.26
567.201	9251.17
567.563	9193.09
567.925	9199.87
568.287	9220.21
568.648	9201.9
569.01	9236.25
569.372	9248.91
569.734	9170.27
570.095	9241.9
570.457	9203.03
570.819	9210.94
571.18	9213.88
571.542	9280.77
571.903	9217.27
572.265	9294.33
572.626	9221.11
572.987	9201
573.349	9262.69
573.71	9226.09
574.071	9214.33
574.432	9256.14
574.794	9238.06
575.155	9178.4
575.516	9189.48
575.877	9214.11
576.238	9241
576.599	9301.11
576.96	9209.81
577.32	9226.99
577.681	9242.58
578.042	9213.88
578.403	9219.76
578.763	9257.5
579.124	9189.7
579.485	9249.81
579.845	9257.5
580.206	9167.56
580.566	9148.12
580.927	9214.11
581.287	9298.63
581.648	9182.92
582.008	9150.61
582.368	9217.05
582.728	9175.46
583.089	9155.13
583.449	9097.73
583.809	9135.47
584.169	9147.9
584.529	9093.89
584.889	9137.5
585.249	9058.63
585.609	9064.73
585.969	9175.24
586.329	9133.21
586.688	9066.32
587.048	9095.47
587.408	8972.98
587.768	9018.41
588.127	9035.58
588.487	8966.88
588.846	9007.11
589.206	8953.32
589.565	8935.25
589.925	9000.55
590.284	8997.84
590.643	8987.9
591.003	9022.47
591.362	8990.84
591.721	8916.49
592.08	8876.94
592.44	9023.6
592.799	9025.86
593.158	8936.38
593.517	8924.17
593.876	8946.77
594.235	8892.76
594.593	8877.17
594.952	8927.34
595.311	8862.7
595.67	8923.49
596.029	8878.52
596.387	8966.2
596.746	8922.59
597.104	8884.17
597.463	8889.14
597.822	8879.88
598.18	8821.58
598.538	8863.61
598.897	8862.7
599.255	8864.06
599.613	8907.68
599.972	8869.26
600.33	8888.01
600.688	8834.01
601.046	8845.98
601.404	8807.79
601.762	8840.33
602.12	8907.45
602.478	8864.29
602.836	8849.82
603.194	8834.23
603.552	8801.69
603.91	8813.67
604.268	8844.4
604.625	8794.68
604.983	8845.53
605.341	8811.63
605.698	8869.03
606.056	8819.32
606.413	8828.81
606.771	8834.46
607.128	8808.24
607.485	8857.28
607.843	8799.88
608.2	8891.4
608.557	8846.21
608.914	8842.82
609.272	8869.48
609.629	8854.8
609.986	8918.52
610.343	8907.68
610.7	8907.68
611.057	8914
611.414	8914.23
611.771	8827.23
612.127	8963.95
612.484	8871.74
612.841	8902.03
613.198	8848.69
613.554	8901.12
613.911	8909.03
614.267	8916.71
614.624	8895.25
614.98	8901.57
615.337	8984.06
615.693	8953.55
616.05	8927.11
616.406	8947.22
616.762	8919.43
617.118	8976.15
617.475	8930.27
617.831	8922.36
618.187	8965.75
618.543	8960.1
618.899	9070.83
619.255	9001.01
619.611	9003.49
619.967	8972.53
620.323	8995.36
620.678	8995.13
621.034	8958.3
621.39	8933.89
621.746	8978.41
622.101	9000.1
622.457	8942.93
622.812	8999.65
623.168	9006.2
623.523	8981.35
623.879	9046.2
624.234	9008.69
624.589	8939.09
624.945	9069.71
625.3	9032.64
625.655	9002.36
626.01	9025.19
626.365	8974.57
626.72	9051.63
627.075	8990.84
627.43	8982.7
627.785	8909.26
628.14	9001.01
628.495	8977.96
628.85	8950.39
629.205	8923.95
629.559	8940.67
629.914	8940.89
630.269	8889.14
630.623	8955.58
630.978	8923.27
631.332	8859.32
631.687	8881.46
632.041	8896.6
632.396	8847.79
632.75	8940.67
633.104	8890.05
633.459	8846.66
633.813	8864.51
634.167	8832.88
634.521	8869.26
634.875	8870.61
635.229	8828.13
635.583	8741.8
635.937	8769.6
636.291	8789.94
636.645	8735.48
636.999	8742.48
637.352	8791.29
637.706	8708.81
638.06	8815.93
638.413	8728.25
638.767	8643.73
639.121	8690.28
639.474	8674.46
639.828	8612.09
640.181	8647.12
640.534	8608.47
640.888	8610.51
641.241	8664.29
641.594	8640.79
641.947	8614.12
642.301	8615.71
642.654	8622.26
643.007	8615.93
643.36	8609.38
643.713	8587.46
644.066	8517.4
644.419	8580
644.771	8481.47
645.124	8419.55
645.477	8427.69
645.83	8360.57
646.182	8361.48
646.535	8340.01
646.888	8303.85
647.24	8236.96
647.593	8319.67
647.945	8256.62
648.298	8270.86
648.65	8284.19
649.002	8257.75
649.355	8256.62
649.707	8278.54
650.059	8283.29
650.411	8419.1
650.763	8468.82
651.115	8531.64
651.467	8488.7
651.819	8491.87
652.171	8465.65
652.523	8422.94
652.875	8473.11
653.227	8413.68
653.578	8490.29
653.93	8437.41
654.282	8474.24
654.633	8450.96
654.985	8416.16
655.337	8467.46
655.688	8430.63
656.039	8471.53
656.391	8413.9
656.742	8468.14
657.094	8478.53
657.445	8503.84
657.796	8441.92
658.147	8445.99
658.498	8450.74
658.849	8482.6
659.2	8486.9
659.551	8446.22
659.902	8531.64
660.253	8471.75
660.604	8508.36
660.955	8527.12
661.306	8516.73
661.656	8451.19
662.007	8480.12
662.358	8551.07
662.708	8522.15
663.059	8497.74
663.409	8485.99
663.76	8558.08
664.11	8493.45
664.461	8551.07
664.811	8531.87
665.161	8534.35
665.511	8466.56
665.862	8556.95
666.212	8519.21
666.562	8493.67
666.912	8493.45
667.262	8544.75
667.612	8497.97
667.962	8565.76
668.312	8500.68
668.662	8560.11
669.011	8514.24
669.361	8543.62
669.711	8443.96
670.06	8501.36
670.41	8498.65
670.76	8462.04
671.109	8554.24
671.459	8479.89
671.808	8452.32
672.157	8486.44
672.507	8439.89
672.856	8394.47
673.205	8483.28
673.554	8485.77
673.904	8421.59
674.253	8484.18
674.602	8436.95
674.951	8293.23
675.3	8301.36
675.649	8401.02
675.998	8370.51
676.346	8383.17
676.695	8466.11
677.044	8388.37
677.393	8318.31
677.741	8334.36
678.09	8332.55
678.438	8357.63
678.787	8295.71
679.135	8299.56
679.484	8282.38
679.832	8306.56
680.181	8258.88
680.529	8270.86
680.877	8242.83
681.225	8246.68
681.573	8236.05
681.922	8250.97
682.27	8206.22
682.618	8182.27
682.966	8160.35
683.314	8150.86
683.661	8162.84
684.009	8112.22
684.357	8059.34
684.705	8063.63
685.053	8074.48
685.4	8073.12
685.748	8018.43
686.095	7988.83
686.443	7975.5
686.79	7963.07
687.138	7986.34
687.485	8007.81
687.832	7968.49
688.18	7894.59
688.527	7901.15
688.874	7874.93
689.221	7873.58
689.568	7818.44
689.915	7744.99
690.262	7742.06
690.609	7770.76
690.956	7699.35
691.303	7724.88
691.65	7689.85
691.997	7688.5
692.344	7574.15
692.69	7633.36
693.037	7582.29
693.383	7535.96
693.73	7524.43
694.077	7474.04
694.423	7467.49
694.769	7499.58
695.116	7429.52
695.462	7411.67
695.808	7409.86
696.155	7352.91
696.501	7377.32
696.847	7337.77
697.193	7260.26
697.539	7287.6
697.885	7198.34
698.231	7185.46
698.577	7179.81
698.923	7186.14
699.269	7123.77
699.614	7032.92
699.96	7064.79
700.306	6985.47
700.651	6979.59
700.997	7023.66
701.342	6993.6
701.688	6951.34
702.033	6893.49
702.379	6940.72
702.724	6890.78
703.069	6859.59
703.415	6787.28
703.76	6825.24
704.105	6784.79
704.45	6807.62
704.795	6735.98
705.14	6709.54
705.485	6637.68
705.83	6683.78
706.175	6625.02
706.52	6641.97
706.865	6630.45
707.209	6605.82
707.554	6568.08
707.899	6548.87
708.243	6544.35
708.588	6558.36
708.932	6534.4
709.277	6441.53
709.621	6479.26
709.966	6509.55
710.31	6402.88
710.654	6395.2
710.998	6380.06
711.342	6425.93
711.687	6361.08
712.031	6364.01
712.375	6305.48
712.719	6267.52
713.063	6307.52
713.407	6293.73
713.75	6305.71
714.094	6295.99
714.438	6272.72
714.782	6258.03
715.125	6246.73
715.469	6246.73
715.812	6223
716.156	6219.61
716.499	6224.36
716.843	6148.65
717.186	6110.46
717.53	6158.82
717.873	6199.72
718.216	6199.5
718.559	6134.64
718.902	6088.77
719.246	6081.76
719.589	6086.73
719.932	6113.85
720.275	6118.6
720.617	6080.63
720.96	6039.5
721.303	6039.28
721.646	6107.07
721.989	6070.46
722.331	6034.3
722.674	6081.54
723.016	6028.43
723.359	6083.12
723.701	6072.04
724.044	6002.67
724.386	5986.4
724.729	6008.54
725.071	6056.22
725.413	6049.45
725.755	6015.55
726.097	6009.9
726.439	5945.27
726.782	5989.11
727.124	6021.42
727.465	5985.49
727.807	5993.18
728.149	5956.11
728.491	5959.28
728.833	5954.76
729.175	5940.3
729.516	5987.75
729.858	5980.29
730.199	5979.62
730.541	6017.36
730.882	5960.41
731.224	5947.75
731.565	5973.97
731.906	5951.37
732.248	5993.18
732.589	5962.44
732.93	5935.32
733.271	5932.16
733.612	5938.04
733.953	6039.73
734.294	5994.98
734.635	5970.13
734.976	5951.37
735.317	5929.67
735.658	5931.71
735.999	5964.93
736.339	5989.33
736.68	6030.01
737.021	5946.85
737.361	5947.98
737.702	6034.08
738.042	5974.65
738.383	5965.38
738.723	6019.39
739.063	6021.88
739.404	6018.71
739.744	6006.28
740.084	6014.87
740.424	6012.61
740.764	6094.64
741.104	6062.55
741.444	6105.49
741.784	6050.35
742.124	6089.67
742.464	6121.08
742.804	6151.36
743.143	6120.86
743.483	6176
743.823	6168.76
744.162	6216.45
744.502	6282.21
744.841	6252.6
745.181	6273.62
745.52	6325.37
745.86	6363.34
746.199	6395.88
746.538	6451.92
746.877	6477.91
747.216	6546.61
747.556	6507.96
747.895	6663.44
748.234	6607.4
748.573	6630
748.911	6745.25
749.25	6822.31
749.589	6887.39
749.928	6871.8
750.267	6997.44
750.605	7082.64
750.944	7116.76
751.283	7189.53
751.621	7260.04
751.96	7289.64
752.298	7394.27
752.636	7514.04
752.975	7564.66
753.313	7732.11
753.651	7786.12
753.989	7871.77
754.327	8067.7
754.666	8144.98
755.004	8161.03
755.342	8347.92
755.679	8530.51
756.017	8645.08
756.355	8775.7
756.693	8866.32
757.031	9047.56
757.368	9114.22
757.706	9320.55
758.044	9443.25
758.381	9612.74
758.719	9707.65
759.056	9887.31
759.394	10066.29
759.731	10250.92
760.068	10339.5
760.405	10483.45
760.743	10698.59
761.08	10870.11
761.417	10993.27
761.754	11151.46
762.091	11351
762.428	11586.48
762.765	11656.08
763.102	11903.3
763.438	12049.29
763.775	12201.83
764.112	12408.15
764.449	12518.2
764.785	12789.16
765.122	12930.62
765.458	13003.61
765.795	13204.06
766.131	13408.12
766.467	13434.34
766.804	13665.74
767.14	13799.3
767.476	13965.85
767.812	14047.88
768.148	14308.89
768.485	14354.76
768.821	14528.77
769.157	14657.58
769.492	14836.56
769.828	14993.62
770.164	15037.01
770.5	15116.78
770.836	15369.43
771.171	15399.03
771.507	15550.21
771.842	15559.93
772.178	15665.24
772.513	15796.99
772.849	15900.49
773.184	15899.13
773.519	16079.69
773.855	16072.68
774.19	16225.22
774.525	16214.38
774.86	16445.1
775.195	16502.73
775.53	16505.89
775.865	16563.29
776.2	16559
776.535	16629.28
776.87	16755.15
777.205	16702.95
777.539	16814.59
777.874	16901.14
778.209	16890.97
778.543	16945.88
778.878	16932.32
779.212	16975.03
779.547	17094.13
779.881	17117.63
780.215	17057.29
780.55	17210.51
780.884	17149.04
781.218	17170.06
781.552	17218.64
781.886	17168.7
782.22	17216.61
782.554	17254.57
782.888	17118.08
783.222	17116.05
783.556	17140.45
783.889	17155.14
784.223	17094.35
784.557	17129.15
784.89	17246.44
785.224	17047.57
785.557	17075.6
785.891	17146.78
786.224	17184.97
786.558	17140.68
786.891	17095.48
787.224	17012.77
787.557	17020
787.891	17064.07
788.224	17084.41
788.557	17004.41
788.89	17085.09
789.223	17176.16
789.556	16988.82
789.888	17004.41
790.221	16962.15
790.554	16891.87
790.887	16969.61
791.219	16893
791.552	16844.64
791.884	16834.25
792.217	16819.78
792.549	16799.67
792.882	16744.53
793.214	16754.93
793.546	16785.89
793.879	16714.02
794.211	16632.9
794.543	16698.21
794.875	16620.92
795.207	16732.33
795.539	16589.51
795.871	16629.73
796.203	16421.83
796.535	16428.38
796.867	16420.92
797.198	16306.12
797.53	16408.72
797.862	16255.05
798.193	16344.32
798.525	16107.94
798.856	16199.91
799.188	16119.92
799.519	16137.77
799.85	15979.81
800.182	16084.66
800.513	16022.29
800.844	15942.74
801.175	16052.57
801.506	16013.93
801.837	15894.16
802.168	15871.56
802.499	15820.04
802.83	15810.77
803.161	15727.16
803.491	15679.93
803.822	15810.32
804.153	15655.97
804.483	15560.16
804.814	15602.87
805.145	15545.69
805.475	15537.78
805.805	15499.82
806.136	15500.04
806.466	15471.34
806.796	15367.62
807.126	15348.18
807.457	15300.73
807.787	15350.22
808.117	15284.46
808.447	15212.59
808.777	15319.48
809.107	15229.09
809.436	15153.61
809.766	15102.31
810.096	15113.39
810.426	15016.22
810.755	15012.37
811.085	15000.62
811.414	15003.11
811.744	14891.25
812.073	14915.65
812.403	14911.13
812.732	14872.49
813.061	14901.19
813.39	14776.9
813.719	14837.01
814.049	14761.76
814.378	14711.36
814.707	14699.39
815.036	14712.95
815.365	14715.88
815.693	14493.52
816.022	14580.29
816.351	14526.74
816.68	14473.86
817.008	14483.8
817.337	14346.63
817.665	14354.31
817.994	14457.81
818.322	14337.82
818.651	14234.99
818.979	14312.73
819.307	14353.86
819.636	14217.14
819.964	14209.91
820.292	14304.6
820.62	14260.75
820.948	14200.87
821.276	14250.13
821.604	14161.77
821.932	14240.64
822.259	14143.7
822.587	14244.94
822.915	14326.06
823.243	14312.96
823.57	14215.33
823.898	14170.59
824.225	14203.58
824.553	14174.2
824.88	14251.04
825.207	14233.86
825.535	14236.57
825.862	14253.98
826.189	14210.59
826.516	14162.9
826.843	14324.26
827.17	14254.65
827.497	14249.91
827.824	14284.48
828.151	14299.17
828.478	14228.44
828.805	14267.99
829.131	14250.36
829.458	14250.59
829.785	14167.65
830.111	14231.38
830.438	14317.48
830.764	14258.27
831.09	14249.46
831.417	14130.14
831.743	14235.9
832.069	14277.48
832.395	14097.14
832.722	14224.6
833.048	14076.58
833.374	14158.38
833.7	14042.91
834.026	14071.16
834.351	14077.03
834.677	14193.64
835.003	14028.9
835.329	14112.28
835.654	14026.86
835.98	13992.51
836.306	14069.12
836.631	14008.11
836.956	14075
837.282	14046.98
837.607	13977.82
837.932	13924.72
838.258	13952.06
838.583	13925.17
838.908	13875.91
839.233	13883.82
839.558	13900.09
839.883	13842.69
840.208	13762.91
840.533	13835.23
840.858	13755.46
841.182	13803.37
841.507	13771.28
841.832	13734.44
842.156	13639.53
842.481	13649.25
842.805	13570.6
843.13	13642.69
843.454	13554.11
843.778	13496.26
844.103	13432.98
844.427	13405.64
844.751	13430.49
845.075	13420.78
845.399	13330.16
845.723	13226.43
846.047	13323.38
846.371	13249.26
846.695	13197.05
847.019	13095.36
847.343	13095.36
847.666	12912.77
847.99	12976.27
848.313	12926.78
848.637	12873.9
848.96	12887.91
849.284	12861.7
849.607	12670.74
849.931	12647.46
850.254	12623.74
850.577	12548.03
850.9	12439.11
851.223	12433.46
851.546	12382.16
851.869	12331.54
852.192	12445.21
852.515	12277.98
852.838	12266.91
853.161	12173.35
853.483	12101.72
853.806	12151.88
854.129	12078.44
854.451	12022.85
854.774	12026.69
855.096	11911.21
855.419	11953.47
855.741	11893.36
856.063	11815.85
856.385	11827.82
856.708	11820.37
857.03	11670.99
857.352	11783.31
857.674	11702.4
857.996	11571.56
858.318	11594.16
858.64	11561.62
858.961	11572.46
859.283	11539.02
859.605	11482.75
859.926	11435.07
860.248	11383.32
860.57	11326.59
860.891	11352.13
861.212	11243.89
861.534	11291.12
861.855	11248.4
862.176	11303.09
862.498	11216.99
862.819	11209.08
863.14	11218.58
863.461	11171.12
863.782	11173.6
864.103	11062.42
864.424	11072.36
864.745	11111.01
865.065	11064.91
865.386	11029.88
865.707	11014.96
866.027	11029.2
866.348	11006.15
866.668	10976.55
866.989	10917.11
867.309	10903.78
867.63	10867.17
867.95	10922.31
868.27	10815.2
868.59	10850.9
868.91	10796.67
869.23	10792.82
869.55	10786.95
869.87	10834.86
870.19	10817.68
870.51	10840.05
870.83	10813.39
871.15	10685.93
871.469	10664.69
871.789	10744.24
872.109	10683.22
872.428	10552.38
872.748	10690.45
873.067	10644.13
873.386	10603.22
873.706	10612.94
874.025	10597.57
874.344	10577.91
874.663	10531.14
874.982	10510.57
875.301	10473.28
875.62	10511.25
875.939	10493.62
876.258	10481.65
876.577	10436
876.896	10488.88
877.214	10348.09
877.533	10370.01
877.852	10383.57
878.17	10323.46
878.489	10318.26
878.807	10318.71
879.125	10249.56
879.444	10298.15
879.762	10221.99
880.08	10252.95
880.398	10208.66
880.716	10263.8
881.034	10216.57
881.352	10171.82
881.67	10156
881.988	10187.87
882.306	10146.74
882.624	10056.57
882.941	9984.48
883.259	10003.01
883.577	9996.23
883.894	9994.88
884.212	10010.25
884.529	9995.1
884.846	9931.83
885.164	9965.5
885.481	9874.2
885.798	9933.86
886.115	9835.79
886.432	9781.1
886.75	9805.73
887.067	9804.15
887.383	9784.04
887.7	9745.85
888.017	9670.82
888.334	9677.15
888.651	9686.19
888.967	9632.4
889.284	9573.19
889.6	9578.39
889.917	9479.41
890.233	9561.22
890.55	9547.88
890.866	9460.88
891.182	9438.28
891.498	9479.64
891.815	9337.27
892.131	9396.7
892.447	9343.14
892.763	9224.28
893.079	9212.75
893.395	9229.93
893.71	9217.05
894.026	9140.44
894.342	9214.33
894.657	9138.4
894.973	9025.19
895.289	9109.48
895.604	9011.18
895.92	8953.32
896.235	8932.08
896.55	8999.65
896.865	8889.37
897.181	8890.27
897.496	8904.29
897.811	8813.67
898.126	8810.5
898.441	8741.35
898.756	8770.96
899.071	8744.97
899.386	8695.7
899.7	8594.92
900.015	8660
900.33	8468.14
900.644	8526.67
900.959	8570.06
901.273	8493
901.588	8404.64
901.902	8361.7
902.216	8421.81
902.531	8325.77
902.845	8302.95
903.159	8238.09
903.473	8220.01
903.787	8227.24
904.101	8183.85
904.415	8137.07
904.729	8133.68
905.042	8124.19
905.356	8076.28
905.67	8091.65
905.984	7973.46
906.297	7960.81
906.611	7978.21
906.924	7897.98
907.237	7939.79
907.551	7830.19
907.864	7877.19
908.177	7794.94
908.491	7748.84
908.804	7725.79
909.117	7663.64
909.43	7601.27
909.743	7595.17
910.056	7584.55
910.368	7577.09
910.681	7486.47
910.994	7479.92
911.307	7505.45
911.619	7358.79
911.932	7416.64
912.244	7358.11
912.557	7346.59
912.869	7334.16
913.181	7249.64
913.494	7278.79
913.806	7193.37
914.118	7152.47
914.43	7108.17
914.742	7178
915.054	7054.84
915.366	7145.91
915.678	7028.4
915.99	7016.43
916.302	6966.26
916.613	6965.58
916.925	6972.36
917.236	6903.43
917.548	6883.55
917.859	6932.36
918.171	6843.32
918.482	6757.45
918.794	6788.86
919.105	6802.87
919.416	6726.04
919.727	6667.06
920.038	6685.36
920.349	6599.49
920.66	6620.96
920.971	6617.11
921.282	6572.6
921.593	6517.23
921.903	6501.41
922.214	6396.33
922.525	6465.25
922.835	6428.64
923.146	6400.4
923.456	6383.45
923.767	6324.47
924.077	6348.65
924.387	6328.99
924.697	6249.89
925.008	6239.72
925.318	6277.24
925.628	6201.53
925.938	6185.71
926.248	6113.4
926.558	6053.29
926.867	6086.51
927.177	6070.69
927.487	6011.93
927.796	6004.7
928.106	5975.55
928.416	5955.66
928.725	5968.54
929.034	5903.01
929.344	5916.12
929.653	5870.92
929.962	5824.37
930.271	5839.28
930.581	5784.37
930.89	5780.3
931.199	5733.3
931.508	5735.33
931.817	5727.19
932.125	5737.36
932.434	5687.42
932.743	5631.6
933.051	5654.65
933.36	5615.11
933.669	5566.52
933.977	5609.01
934.286	5578.72
934.594	5528.33
934.902	5505.5
935.21	5494.66
935.519	5442.46
935.827	5417.37
936.135	5394.32
936.443	5379.63
936.751	5348.9
937.059	5349.35
937.367	5310.71
937.674	5274.1
937.982	5261.9
938.29	5247.43
938.597	5218.51
938.905	5174.44
939.213	5132.86
939.52	5198.62
939.827	5122.46
940.135	5105.29
940.442	5068.23
940.749	5051.96
941.056	5050.83
941.363	4974.9
941.67	5010.83
941.977	4977.84
942.284	4961.56
942.591	4968.8
942.898	4897.39
943.205	4885.63
943.511	4899.87
943.818	4827.1
944.125	4806.77
944.431	4844.73
944.738	4781.91
945.044	4744.62
945.35	4775.81
945.657	4672.98
945.963	4713.66
946.269	4662.82
946.575	4675.02
946.881	4629.82
947.187	4634.12
947.493	4636.6
947.799	4601.12
948.105	4569.03
948.41	4578.3
948.716	4527
949.022	4527.9
949.327	4514.57
949.633	4464.4
949.938	4494.68
950.244	4418.08
950.549	4362.48
950.854	4389.6
951.16	4368.13
951.465	4410.62
951.77	4304.63
952.075	4318.64
952.38	4297.63
952.685	4293.33
952.99	4258.31
953.294	4234.58
953.599	4225.54
953.904	4185.77
954.209	4175.14
954.513	4193.9
954.818	4173.34
955.122	4138.08
955.426	4119.1
955.731	4083.4
956.035	4069.38
956.339	4073.68
956.643	4044.75
956.948	3988.71
957.252	3990.06
957.556	4022.61
957.86	3967.92
958.163	3952.55
958.467	3973.12
958.771	3936.73
959.075	3892.21
959.378	3897.64
959.682	3889.73
959.985	3840.46
960.289	3837.53
960.592	3816.51
960.896	3817.41
961.199	3827.13
961.502	3846.79
961.805	3743.07
962.108	3743.74
962.411	3729.05
962.714	3729.05
963.017	3698.55
963.32	3684.08
963.623	3657.87
963.926	3651.32
964.228	3635.95
964.531	3639.11
964.833	3621.94
965.136	3594.59
965.438	3576.74
965.741	3598.21
966.043	3528.38
966.345	3505.78
966.648	3508.72
966.95	3514.82
967.252	3468.72
967.554	3476.86
967.856	3436.18
968.158	3435.28
968.46	3437.31
968.761	3417.42
969.063	3370.87
969.365	3379.69
969.666	3353.47
969.968	3349.18
970.269	3341.04
970.571	3327.03
970.872	3291.33
971.174	3318.44
971.475	3284.77
971.776	3251.1
972.077	3266.69
972.378	3221.27
972.679	3220.82
972.98	3202.97
973.281	3219.24
973.582	3202.51
973.883	3156.87
974.183	3161.16
974.484	3152.35
974.785	3084.1
975.085	3147.15
975.386	3157.54
975.686	3054.04
975.986	3053.59
976.287	3086.13
976.587	3025.8
976.887	3008.85
977.187	2996.19
977.487	3021.73
977.787	2999.13
978.087	2981.28
978.387	2986.93
978.687	2964.55
978.987	2950.09
979.286	2888.4
979.586	2938.11
979.885	2909.87
980.185	2906.25
980.484	2896.53
980.784	2844.78
981.083	2890.21
981.382	2841.39
981.682	2873.03
981.981	2833.94
982.28	2791.9
982.579	2765.92
982.878	2780.83
983.177	2794.16
983.475	2732.92
983.774	2734.73
984.073	2730.66
984.372	2709.65
984.67	2670.1
984.969	2726.14
985.267	2684.34
985.566	2681.4
985.864	2657.9
986.162	2614.28
986.461	2651.57
986.759	2598.91
987.057	2601.4
987.355	2530.44
987.653	2559.59
987.951	2609.08
988.249	2551.01
988.547	2560.95
988.844	2525.7
989.142	2498.35
989.44	2518.01
989.737	2477.56
990.035	2497.9
990.332	2482.99
990.63	2470.1
990.927	2461.97
991.224	2485.25
991.521	2418.35
991.819	2435.53
992.116	2405.7
992.413	2403.89
992.71	2400.73
993.006	2389.43
993.303	2346.72
993.6	2353.95
993.897	2337.45
994.193	2346.04
994.49	2341.07
994.787	2309.66
995.083	2296.78
995.379	2279.38
995.676	2261.75
995.972	2261.97
996.268	2278.47
996.565	2245.25
996.861	2240.05
997.157	2215.65
997.453	2204.35
997.749	2187.4
998.044	2191.69
998.34	2178.59
998.636	2161.64
998.932	2133.16
999.227	2140.4
999.523	2134.52
999.818	2136.1
1000.114	2083.67
1000.409	2125.03
1000.704	2092.26
1001	2066.5
1001.295	2047.52
1001.59	2049.55
1001.885	2064.24
1002.18	2011.59
1002.475	2037.35
1002.77	1994.86
1003.065	2003.22
1003.359	2001.87
1003.654	1971.81
1003.949	1946.28
1004.243	1926.39
1004.538	1930.23
1004.832	1927.97
1005.127	1930.68
1005.421	1920.06
1005.715	1927.29
1006.009	1906.73
1006.304	1875.77
1006.598	1854.98
1006.892	1887.75
1007.186	1852.04
1007.48	1819.95
1007.773	1837.8
1008.067	1798.48
1008.361	1826.73
1008.655	1807.07
1008.948	1808.2
1009.242	1781.31
1009.535	1786.28
1009.829	1731.14
1010.122	1748.54
1010.415	1738.6
1010.708	1730.01
1011.001	1705.6
1011.295	1693.18
1011.588	1695.89
1011.881	1676.45
1012.173	1693.63
1012.466	1657.7
1012.759	1650.92
1013.052	1671.26
1013.344	1654.53
1013.637	1610.47
1013.93	1655.21
1014.222	1602.33
1014.514	1609.11
1014.807	1583.12
1015.099	1608.88
1015.391	1581.09
1015.683	1559.39
1015.976	1551.03
1016.268	1539.96
1016.56	1524.14
1016.851	1513.75
1017.143	1534.99
1017.435	1502.67
1017.727	1493.86
1018.018	1504.71
1018.31	1455.44
1018.602	1471.49
1018.893	1467.65
1019.185	1459.96
1019.476	1452.28
1019.767	1462
1020.058	1420.64
1020.35	1424.71
1020.641	1399.85
1020.932	1397.36
1021.223	1403.01
1021.514	1388.55
1021.804	1396.01
1022.095	1349.23
1022.386	1357.59
1022.677	1345.84
1022.967	1325.05
1023.258	1342
1023.548	1319.63
1023.839	1331.6
1024.129	1280.76
1024.419	1306.52
1024.709	1275.11
1025	1288.21
1025.29	1263.13
1025.58	1265.39
1025.87	1251.15
1026.16	1252.51
1026.449	1249.12
1026.739	1240.08
1027.029	1213.64
1027.319	1203.7
1027.608	1203.47
1027.898	1233.3
1028.187	1172.29
1028.477	1205.28
1028.766	1177.03
1029.055	1173.64
1029.344	1170.7
1029.634	1178.39
1029.923	1142.46
1030.212	1140.42
1030.501	1119.18
1030.79	1138.84
1031.078	1125.28
1031.367	1094.32
1031.656	1107.2
1031.945	1068.11
1032.233	1101.78
1032.522	1083.93
1032.81	1073.31
1033.099	1073.08
1033.387	1058.84
1033.675	1052.74
1033.963	1034.89
1034.251	1059.97
1034.54	1045.96
1034.828	1037.15
1035.116	1039.63
1035.403	1016.36
1035.691	981.33
1035.979	1010.93
1036.267	992.86
1036.554	988.34
1036.842	992.86
1037.129	973.42
1037.417	972.74
1037.704	981.1
1037.992	953.08
1038.279	958.28
1038.566	981.33
1038.853	981.33
1039.14	981.33
