Data from hue_230_FLMS001491_00081.txt Node
Date: Tue Feb 07 16:37:50 GMT 2017
User: dcchb
Spectrometer: FLMS00149
Trigger mode: 0
Integration Time (sec): 2.000000E-2
Scans to average: 10
Electric dark correction enabled: true
Nonlinearity correction enabled: false
Boxcar width: 0
XAxis mode: Wavelengths
Number of Pixels in Spectrum: 2048
>>>>>Begin Spectral Data<<<<<
341.393	0.28
341.776	0.28
342.16	0.28
342.543	-52.15
342.927	-54.41
343.31	-65.03
343.693	-74.29
344.077	-63.44
344.46	-56.89
344.843	-47.63
345.226	-42.88
345.61	-34.07
345.993	-11.47
346.376	-28.19
346.759	4.58
347.142	18.14
347.525	31.47
347.908	76.44
348.291	93.39
348.674	82.99
349.057	116.89
349.44	129.09
349.823	130
350.206	168.64
350.588	183.78
350.971	205.7
351.354	227.62
351.737	222.2
352.119	231.91
352.502	253.61
352.884	273.95
353.267	272.14
353.65	275.98
354.032	280.5
354.414	301.52
354.797	304
355.179	325.25
355.562	327.96
355.944	320.95
356.326	316.88
356.709	318.92
357.091	329.54
357.473	340.16
357.855	325.47
358.238	332.25
358.62	312.14
359.002	331.35
359.384	352.36
359.766	337.45
360.148	343.1
360.53	325.92
360.912	316.66
361.294	321.63
361.676	347.62
362.057	322.53
362.439	316.21
362.821	309.2
363.203	315.98
363.584	325.02
363.966	306.72
364.348	313.95
364.729	317.56
365.111	301.97
365.493	347.17
365.874	295.87
366.256	289.54
366.637	295.64
367.019	315.08
367.4	282.53
367.781	309.43
368.163	294.29
368.544	275.3
368.925	282.31
369.306	309.65
369.688	299.48
370.069	310.1
370.45	304.23
370.831	299.26
371.212	299.71
371.593	299.48
371.974	298.58
372.355	286.83
372.736	305.36
373.117	304
373.498	313.49
373.879	308.52
374.26	306.49
374.641	301.74
375.021	321.4
375.402	302.2
375.783	303.1
376.163	323.44
376.544	310.1
376.925	332.25
377.305	319.6
377.686	310.1
378.066	328.86
378.447	310.78
378.827	297.9
379.208	316.21
379.588	327.73
379.968	296.32
380.349	330.22
380.729	325.25
381.109	336.32
381.489	324.12
381.87	306.94
382.25	331.35
382.63	359.14
383.01	320.95
383.39	337
383.77	318.01
384.15	325.02
384.53	337
384.91	337.9
385.29	325.7
385.67	352.36
386.049	347.17
386.429	344.23
386.809	344.68
387.189	339.48
387.568	348.07
387.948	363.66
388.328	346.94
388.707	348.97
389.087	348.75
389.466	351.01
389.846	349.65
390.225	355.98
390.605	348.52
390.984	335.19
391.363	367.5
391.743	361.4
392.122	358.01
392.501	357.56
392.881	377.45
393.26	361.63
393.639	372.25
394.018	350.33
394.397	361.85
394.776	387.84
395.155	370.67
395.534	393.27
395.913	359.6
396.292	381.97
396.671	388.07
397.05	366.15
397.429	395.53
397.808	368.41
398.186	384.91
398.565	362.53
398.944	378.58
399.323	398.69
399.701	377.22
400.08	383.1
400.458	406.6
400.837	400.5
401.215	399.82
401.594	419.48
401.972	415.64
402.351	424.9
402.729	416.09
403.107	421.51
403.486	405.92
403.864	403.89
404.242	428.75
404.62	432.59
404.999	405.7
405.377	439.14
405.755	433.49
406.133	432.36
406.511	428.75
406.889	455.64
407.267	449.99
407.645	443.66
408.023	452.25
408.401	456.09
408.779	475.75
409.156	454.96
409.534	489.99
409.912	470.78
410.29	491.12
410.667	499.25
411.045	483.43
411.422	513.49
411.8	505.35
412.178	525.24
412.555	515.75
412.933	507.61
413.31	537.44
413.687	543.32
414.065	542.87
414.442	526.14
414.819	537.44
415.197	562.75
415.574	579.93
415.951	584
416.328	585.13
416.705	575.63
417.082	598.91
417.46	602.53
417.837	602.98
418.214	602.07
418.591	624.67
418.967	631.23
419.344	645.01
419.721	627.61
420.098	631.68
420.475	634.39
420.852	650.89
421.228	674.84
421.605	678.91
421.982	661.73
422.358	691.56
422.735	698.34
423.111	716.42
423.488	744.9
423.864	754.84
424.241	759.36
424.617	743.31
424.994	768.62
425.37	758.91
425.746	803.43
426.123	784.44
426.499	776.99
426.875	801.84
427.251	831.45
427.627	822.18
428.003	851.79
428.379	857.44
428.756	858.11
429.132	858.11
429.507	880.71
429.883	884.33
430.259	888.62
430.635	885
431.011	915.74
431.387	918.9
431.763	950.99
432.138	960.48
432.514	959.13
432.89	961.16
433.265	1013.14
433.641	994.38
434.016	1012.91
434.392	1026.47
434.767	1045.45
435.143	1042.51
435.518	1077.54
435.894	1065.34
436.269	1096.3
436.644	1122.06
437.02	1141.04
437.395	1146.69
437.77	1174.49
438.145	1184.21
438.52	1200.25
438.895	1237.31
439.271	1239.57
439.646	1257.88
440.021	1278.67
440.395	1280.93
440.77	1289.06
441.145	1301.49
441.52	1332.68
441.895	1322.06
442.27	1356.18
442.645	1334.48
443.019	1359.57
443.394	1388.27
443.769	1398.89
444.143	1378.1
444.518	1426.91
444.892	1425.78
445.267	1419.91
445.641	1455.61
446.016	1452.22
446.39	1457.87
446.764	1481.83
447.139	1454.93
447.513	1506.68
447.887	1503.97
448.262	1508.49
448.636	1547.81
449.01	1547.59
449.384	1564.99
449.758	1552.78
450.132	1590.07
450.506	1564.31
450.88	1593.69
451.254	1617.64
451.628	1629.39
452.002	1618.77
452.376	1687.24
452.75	1668.94
453.123	1677.07
453.497	1722.72
453.871	1687.47
454.244	1751.2
454.618	1752.33
454.992	1773.12
455.365	1765.43
455.739	1811.99
456.112	1821.03
456.486	1829.39
456.859	1847.69
457.232	1868.26
457.606	1857.63
457.979	1923.17
458.352	1956.62
458.725	1947.35
459.099	1964.52
459.472	1981.02
459.845	2017.18
460.218	2055.37
460.591	2054.69
460.964	2058.99
461.337	2094.01
461.71	2082.94
462.083	2150.51
462.456	2138.76
462.829	2176.5
463.201	2200.9
463.574	2204.52
463.947	2195.7
464.32	2273.44
464.692	2316.61
465.065	2313.67
465.438	2317.06
465.81	2379.88
466.183	2404.51
466.555	2422.37
466.928	2441.8
467.3	2431.4
467.672	2452.87
468.045	2547.11
468.417	2513.44
468.789	2534.68
469.161	2586.88
469.534	2606.77
469.906	2663.26
470.278	2696.71
470.65	2723.6
471.022	2739.87
471.394	2788.91
471.766	2822.36
472.138	2840.43
472.51	2908.68
472.882	2931.5
473.253	2928.79
473.625	2968.79
473.997	3056.7
474.369	3078.39
474.74	3079.3
475.112	3162.91
475.484	3205.62
475.855	3254.89
476.227	3274.09
476.598	3330.36
476.97	3384.83
477.341	3437.25
477.713	3464.15
478.084	3471.83
478.455	3561.54
478.827	3592.05
479.198	3695.1
479.569	3641.09
479.94	3754.76
480.311	3799.05
480.682	3838.6
481.053	3898.03
481.424	3916.11
481.795	4029.78
482.166	4066.39
482.537	4115.2
482.908	4179.16
483.279	4208.31
483.65	4252.37
484.021	4383.44
484.391	4361.52
484.762	4408.08
485.133	4448.53
485.503	4477.23
485.874	4533.27
486.244	4604.46
486.615	4675.19
486.985	4709.99
487.356	4827.5
487.726	4848.74
488.097	4886.26
488.467	4910.21
488.837	5002.41
489.207	5064.78
489.578	5148.85
489.948	5167.83
490.318	5210.99
490.688	5245.79
491.058	5319.46
491.428	5335.51
491.798	5391.78
492.168	5439.91
492.538	5515.84
492.908	5491.21
493.278	5610.76
493.648	5605.78
494.017	5737.76
494.387	5715.61
494.757	5745.44
495.126	5809.62
495.496	5788.15
495.866	5819.11
496.235	5875.61
496.605	5904.53
496.974	5961.48
497.344	6001.71
497.713	5993.57
498.082	6032.89
498.452	6084.19
498.821	6132.55
499.19	6101.36
499.559	6086
499.928	6219.1
500.298	6250.97
500.667	6253
501.036	6251.19
501.405	6326.22
501.774	6312.66
502.143	6339.55
502.512	6333.45
502.88	6365.99
503.249	6383.62
503.618	6440.79
503.987	6384.97
504.356	6402.15
504.724	6472.88
505.093	6517.4
505.462	6495.25
505.83	6531.41
506.199	6591.97
506.567	6685.76
506.936	6655.47
507.304	6689.37
507.672	6725.76
508.041	6736.38
508.409	6684.63
508.777	6724.17
509.145	6801.23
509.514	6781.12
509.882	6802.14
510.25	6831.29
510.618	6862.7
510.986	6842.81
511.354	6866.99
511.722	6896.82
512.09	6968.91
512.458	6885.75
512.826	6935.92
513.193	6898.41
513.561	7003.71
513.929	7015.24
514.297	7043.49
514.664	7060.89
515.032	7085.29
515.4	7017.95
515.767	7144.5
516.135	7070.61
516.502	7052.75
516.869	7136.37
517.237	7118.29
517.604	7105.63
517.972	7139.53
518.339	7162.13
518.706	7170.26
519.073	7169.13
519.44	7162.35
519.808	7231.73
520.175	7155.57
520.542	7240.77
520.909	7254.33
521.276	7226.53
521.643	7204.39
522.009	7244.39
522.376	7340.43
522.743	7351.95
523.11	7367.55
523.477	7389.01
523.843	7398.73
524.21	7436.92
524.577	7459.3
524.943	7462.46
525.31	7440.09
525.676	7447.09
526.043	7499.52
526.409	7505.85
526.776	7504.94
527.142	7506.53
527.508	7477.15
527.874	7522.12
528.241	7503.59
528.607	7525.51
528.973	7654.54
529.339	7528.45
529.705	7623.58
530.071	7581.33
530.437	7550.59
530.803	7624.49
531.169	7652.51
531.535	7548.56
531.901	7572.51
532.267	7567.09
532.632	7582
532.998	7597.14
533.364	7570.48
533.73	7622
534.095	7634.66
534.461	7598.27
534.826	7638.27
535.192	7608.67
535.557	7592.85
535.923	7589.01
536.288	7567.09
536.653	7517.6
537.019	7534.77
537.384	7560.08
537.749	7494.1
538.114	7513.98
538.479	7491.38
538.845	7524.38
539.21	7481.22
539.575	7413.87
539.94	7480.09
540.305	7483.7
540.67	7434.89
541.034	7408.9
541.399	7434.21
541.764	7373.65
542.129	7418.62
542.494	7366.87
542.858	7384.27
543.223	7417.49
543.587	7382.01
543.952	7384.27
544.316	7312.86
544.681	7345.63
545.045	7283.93
545.41	7330.26
545.774	7323.71
546.138	7263.14
546.503	7269.92
546.867	7260.43
547.231	7264.27
547.595	7264.72
547.959	7262.69
548.324	7274.67
548.688	7194.22
549.052	7163.94
549.416	7202.8
549.779	7145.86
550.143	7222.24
550.507	7143.82
550.871	7176.59
551.235	7116.48
551.599	7163.03
551.962	7081.45
552.326	7108.8
552.689	7069.48
553.053	7073.32
553.417	7075.35
553.78	7159.87
554.143	7048.01
554.507	7055.92
554.87	7045.29
555.234	7111.51
555.597	7012.08
555.96	7065.18
556.323	7038.52
556.686	7093.2
557.05	7017.95
557.413	7096.82
557.776	7041.68
558.139	7075.58
558.502	7068.57
558.865	7043.49
559.228	7067.89
559.59	7067.67
559.953	7065.86
560.316	7115.8
560.679	7056.59
561.041	7148.34
561.404	7088.23
561.767	7141.56
562.129	7151.96
562.492	7151.51
562.854	7102.92
563.217	7151.73
563.579	7132.52
563.941	7212.52
564.304	7180.66
564.666	7171.17
565.028	7197.83
565.39	7273.09
565.753	7216.59
566.115	7245.74
566.477	7202.8
566.839	7281.67
567.201	7250.94
567.563	7297.04
567.925	7296.36
568.287	7320.54
568.648	7290.03
569.01	7356.47
569.372	7386.98
569.734	7330.03
570.095	7398.73
570.457	7391.95
570.819	7456.36
571.18	7450.93
571.542	7438.5
571.903	7463.14
572.265	7484.61
572.626	7477.15
572.987	7440.99
573.349	7494.77
573.71	7530.03
574.071	7519.41
574.432	7596.92
574.794	7609.8
575.155	7630.82
575.516	7596.92
575.877	7620.87
576.238	7617.48
576.599	7627.65
576.96	7671.72
577.32	7667.2
577.681	7748.33
578.042	7688.22
578.403	7690.25
578.763	7729.8
579.124	7786.29
579.485	7742.23
579.845	7781.55
580.206	7813.86
580.566	7765.5
580.927	7793.75
581.287	7801.66
581.648	7837.14
582.008	7838.72
582.368	7829.46
582.728	7849.12
583.089	7869
583.449	7920.75
583.809	7939.51
584.169	7862.22
584.529	7913.97
584.889	7964.37
585.249	7932.5
585.609	7900.41
585.969	7979.28
586.329	7913.07
586.688	7977.7
587.048	7983.58
587.408	7990.35
587.768	8016.79
588.127	7989.9
588.487	8011.37
588.846	8036
589.206	7986.29
589.565	8057.02
589.925	8091.37
590.284	7989.22
590.643	8064.7
591.003	8097.47
591.362	8144.48
591.721	8122.78
592.08	8144.93
592.44	8154.42
592.799	8118.26
593.158	8082.33
593.517	8156.23
593.876	8181.54
594.235	8112.39
594.593	8158.03
594.952	8196.68
595.311	8165.72
595.67	8208.88
596.029	8222.67
596.387	8234.64
596.746	8184.47
597.104	8239.84
597.463	8226.28
597.822	8251.82
598.18	8190.8
598.538	8158.49
598.897	8252.27
599.255	8183.12
599.613	8329.1
599.972	8218.15
600.33	8267.41
600.688	8248.88
601.046	8255.88
601.404	8308.54
601.762	8266.51
602.12	8296.11
602.478	8282.78
602.836	8266.28
603.194	8269.67
603.552	8245.49
603.91	8219.28
604.268	8317.35
604.625	8306.28
604.983	8332.49
605.341	8316.45
605.698	8331.14
606.056	8302.44
606.413	8264.25
606.771	8303.57
607.128	8359.61
607.485	8253.17
607.843	8290.23
608.2	8358.93
608.557	8392.83
608.914	8364.36
609.272	8393.06
609.629	8396.22
609.986	8407.97
610.343	8367.75
610.7	8481.42
611.057	8425.37
611.414	8418.59
611.771	8374.53
612.127	8411.81
612.484	8474.18
612.841	8475.99
613.198	8423.79
613.554	8470.79
613.911	8514.41
614.267	8533.84
614.624	8559.83
614.98	8546.05
615.337	8584.92
615.693	8471.47
616.05	8505.82
616.406	8559.83
616.762	8541.3
617.118	8529.32
617.475	8558.7
617.831	8584.46
618.187	8577.01
618.543	8620.17
618.899	8611.58
619.255	8579.49
619.611	8583.11
619.967	8647.96
620.323	8686.38
620.678	8627.4
621.034	8650
621.39	8559.61
621.746	8597.34
622.101	8720.96
622.457	8596.44
622.812	8646.16
623.168	8610.9
623.523	8615.2
623.879	8704.91
624.234	8537.46
624.589	8635.99
624.945	8623.56
625.3	8640.51
625.655	8622.88
626.01	8612.49
626.365	8685.03
626.72	8600.96
627.075	8615.65
627.43	8642.99
627.785	8570.9
628.14	8618.36
628.495	8577.46
628.85	8575.88
629.205	8669.89
629.559	8650.45
629.914	8574.75
630.269	8556.44
630.623	8576.55
630.978	8529.78
631.332	8584.46
631.687	8607.74
632.041	8505.82
632.396	8530.45
632.75	8515.99
633.104	8501.08
633.459	8496.1
633.813	8396.9
634.167	8519.38
634.521	8480.96
634.875	8481.64
635.229	8497.91
635.583	8443.45
635.937	8396.22
636.291	8403.45
636.645	8415.65
636.999	8385.82
637.352	8430.8
637.706	8359.38
638.06	8399.38
638.413	8366.16
638.767	8366.62
639.121	8340.63
639.474	8356.45
639.828	8343.34
640.181	8241.87
640.534	8295.88
640.888	8296.56
641.241	8227.18
641.594	8236
641.947	8341.31
642.301	8293.4
642.654	8271.7
643.007	8249.56
643.36	8294.08
643.713	8229.9
644.066	8304.02
644.419	8255.43
644.771	8225.83
645.124	8112.61
645.477	8093.63
645.83	8017.47
646.182	8007.98
646.535	7986.29
646.888	8031.94
647.24	7971.15
647.593	7967.53
647.945	7992.39
648.298	7924.82
648.65	7874.43
649.002	7934.09
649.355	7904.71
649.707	7916.68
650.059	7959.85
650.411	8057.7
650.763	8031.48
651.115	8199.84
651.467	8193.51
651.819	8165.49
652.171	8110.8
652.523	8154.87
652.875	8099.96
653.227	8047.3
653.578	8118.71
653.93	8089.56
654.282	8081.88
654.633	8040.98
654.985	8022.67
655.337	8069.22
655.688	8042.1
656.039	8094.08
656.391	8028.32
656.742	8036
657.094	8075.1
657.445	8073.29
657.796	8036.91
658.147	8057.47
658.498	8050.01
658.849	8076.68
659.2	8071.48
659.551	8126.62
659.902	8082.56
660.253	8104.93
660.604	8124.59
660.955	8107.19
661.306	8114.19
661.656	8128.66
662.007	8123.46
662.358	8107.41
662.708	8030.13
663.059	8099.28
663.409	7990.58
663.76	8078.49
664.11	8179.05
664.461	8067.41
664.811	8071.71
665.161	8160.52
665.511	8064.93
665.862	8092.05
666.212	8122.1
666.562	8142.67
666.912	8113.74
667.262	8096.79
667.612	8097.92
667.962	8132.27
668.312	8056.57
668.662	8158.26
669.011	8082.33
669.361	8134.98
669.711	8009.79
670.06	8097.47
670.41	8082.56
670.76	8064.7
671.109	8038.04
671.459	8094.31
671.808	8041.65
672.157	8102.44
672.507	7955.55
672.856	8040.52
673.205	8061.09
673.554	8075.78
673.904	8019.28
674.253	8123.68
674.602	7941.54
674.951	7901.77
675.3	7898.61
675.649	8004.82
675.998	8002.11
676.346	8024.93
676.695	7985.61
677.044	7970.69
677.393	7989.68
677.741	7952.16
678.09	7992.61
678.438	7928.21
678.787	7961.66
679.135	7968.66
679.484	7891.83
679.832	7920.98
680.181	7838.95
680.529	7854.09
680.877	7865.84
681.225	7866.06
681.573	7866.52
681.922	7804.37
682.27	7774.32
682.618	7779.74
682.966	7758.95
683.314	7788.78
683.661	7787.87
684.009	7687.76
684.357	7661.55
684.705	7658.39
685.053	7645.05
685.4	7679.4
685.748	7606.86
686.095	7631.95
686.443	7631.49
686.79	7584.49
687.138	7632.62
687.485	7603.02
687.832	7564.6
688.18	7543.59
688.527	7539.29
688.874	7459.3
689.221	7446.41
689.568	7429.92
689.915	7410.03
690.262	7415.45
690.609	7402.57
690.956	7381.56
691.303	7360.31
691.65	7309.02
691.997	7329.36
692.344	7297.72
692.69	7257.94
693.037	7220.88
693.383	7273.54
693.73	7222.92
694.077	7219.75
694.423	7161.68
694.769	7113.32
695.116	7142.47
695.462	7039.42
695.808	7116.71
696.155	7109.47
696.501	7021.34
696.847	6980.21
697.193	6949.93
697.539	6985.64
697.885	6893.66
698.231	6906.32
698.577	6902.02
698.923	6863.6
699.269	6819.31
699.614	6776.15
699.96	6801.91
700.306	6798.07
700.651	6754.68
700.997	6729.6
701.342	6742.7
701.688	6737.73
702.033	6737.28
702.379	6679.88
702.724	6609.15
703.069	6598.08
703.415	6592.65
703.76	6629.94
704.105	6564.86
704.45	6560.79
704.795	6543.61
705.14	6527.34
705.485	6469.72
705.83	6446.21
706.175	6445.54
706.52	6416.84
706.865	6418.64
707.209	6370.28
707.554	6345.88
707.899	6394.01
708.243	6378.42
708.588	6303.17
708.932	6280.8
709.277	6272.21
709.621	6281.93
709.966	6240.8
710.31	6200.8
710.654	6182.49
710.998	6212.32
711.342	6182.49
711.687	6176.39
712.031	6157.41
712.375	6094.81
712.719	6142.72
713.063	6090.07
713.407	6139.78
713.75	6090.29
714.094	6069.05
714.438	6111.08
714.782	6056.62
715.125	6068.6
715.469	6041.25
715.812	5981.37
716.156	5944.08
716.499	5995.61
716.843	6049.16
717.186	5950.18
717.53	5969.84
717.873	6004.42
718.216	5950.63
718.559	5941.6
718.902	5940.92
719.246	5929.62
719.589	5919.22
719.932	5883.74
720.275	5854.59
720.617	5910.86
720.96	5897.98
721.303	5893.23
721.646	5902.95
721.989	5810.75
722.331	5860.02
722.674	5820.47
723.016	5821.6
723.359	5866.79
723.701	5880.81
724.044	5864.76
724.386	5772.56
724.729	5838.77
725.071	5843.97
725.413	5813.69
725.755	5806.01
726.097	5753.35
726.439	5766.46
726.782	5791.32
727.124	5821.15
727.465	5788.15
727.807	5772.11
728.149	5770.07
728.491	5709.96
728.833	5783.18
729.175	5744.31
729.516	5752.67
729.858	5763.29
730.199	5728.95
730.541	5750.41
730.882	5730.08
731.224	5732.11
731.565	5713.13
731.906	5724.88
732.248	5702.96
732.589	5711.54
732.93	5697.08
733.271	5662.96
733.612	5714.48
733.953	5733.92
734.294	5720.81
734.635	5701.6
734.976	5764.88
735.317	5692.79
735.658	5719.68
735.999	5756.29
736.339	5705.44
736.68	5754.03
737.021	5747.02
737.361	5690.75
737.702	5747.25
738.042	5761.71
738.383	5762.39
738.723	5770.3
739.063	5728.04
739.404	5758.78
739.744	5761.49
740.084	5763.29
740.424	5734.37
740.764	5745.67
741.104	5795.84
741.444	5800.36
741.784	5819.56
742.124	5841.48
742.464	5798.55
742.804	5801.03
743.143	5862.05
743.483	5853.46
743.823	5872.9
744.162	5860.69
744.502	5899.79
744.841	5950.86
745.181	6001.25
745.52	5991.99
745.86	6007.36
746.199	5981.37
746.538	6005.55
746.877	6045.1
747.216	6134.36
747.556	6132.32
747.895	6132.32
748.234	6151.76
748.573	6210.97
748.911	6194.7
749.25	6290.74
749.589	6241.7
749.928	6361.92
750.267	6425.2
750.605	6446.67
750.944	6459.77
751.283	6563.5
751.621	6609.6
751.96	6658.19
752.298	6706.55
752.636	6789.03
752.975	6863.6
753.313	6835.13
753.651	6954
753.989	7009.59
754.327	7120.1
754.666	7186.08
755.004	7294.55
755.342	7371.61
755.679	7477.15
756.017	7533.87
756.355	7673.98
756.693	7673.3
757.031	7847.53
757.368	7922.56
757.706	7955.78
758.044	8170.92
758.381	8214.76
758.719	8320.29
759.056	8469.21
759.394	8509.21
759.731	8674.4
760.068	8709.43
760.405	8902.65
760.743	8918.47
761.08	9121.17
761.417	9233.26
761.754	9304.44
762.091	9493.37
762.428	9466.7
762.765	9675.06
763.102	9734.94
763.438	9835.5
763.775	9951.43
764.112	10127.7
764.449	10260.58
764.785	10371.31
765.122	10421.48
765.458	10456.96
765.795	10584.41
766.131	10714.13
766.467	10824.63
766.804	10849.26
767.14	10982.59
767.476	11127.67
767.812	11165.19
768.148	11230.04
768.485	11365.63
768.821	11426.87
769.157	11528.79
769.492	11613.54
769.828	11689.47
770.164	11692.4
770.5	11799.75
770.836	11927.88
771.171	11895.11
771.507	12079.29
771.842	12012.17
772.178	12109.12
772.513	12183.69
772.849	12179.4
773.184	12218.72
773.519	12256.68
773.855	12407.64
774.19	12392.05
774.525	12485.15
774.86	12506.62
775.195	12537.13
775.53	12561.31
775.865	12615.09
776.2	12545.26
776.535	12557.92
776.87	12589.78
777.205	12565.15
777.539	12607.18
777.874	12742.77
778.209	12787.29
778.543	12683.34
778.878	12697.35
779.212	12679.27
779.547	12653.96
779.881	12806.95
780.215	12710.68
780.55	12830.68
780.884	12799.04
781.218	12798.36
781.552	12864.58
781.886	12893.05
782.22	12847.18
782.554	12774.86
782.888	12804.47
783.222	12682.66
783.556	12719.27
783.889	12644.92
784.223	12641.98
784.557	12783.45
784.89	12740.96
785.224	12605.15
785.557	12672.04
785.891	12667.52
786.224	12635.88
786.558	12635.2
786.891	12533.06
787.224	12580.29
787.557	12526.51
787.891	12488.32
788.224	12506.62
788.557	12508.2
788.89	12528.09
789.223	12506.39
789.556	12443.57
789.888	12421.65
790.221	12387.08
790.554	12325.16
790.887	12365.83
791.219	12354.08
791.552	12215.33
791.884	12265.04
792.217	12216.01
792.549	12261.65
792.882	12181.66
793.214	12067.31
793.546	12195.44
793.879	12064.6
794.211	12008.55
794.543	12061.21
794.875	12040.19
795.207	12082.9
795.539	11967.65
795.871	12046.07
796.203	11950.48
796.535	11926.75
796.867	11950.48
797.198	11876.58
797.53	11874.09
797.862	11772.85
798.193	11838.62
798.525	11793.19
798.856	11777.37
799.188	11694.66
799.519	11553.43
799.85	11558.4
800.182	11590.49
800.513	11590.26
800.844	11552.52
801.175	11533.31
801.506	11571.28
801.837	11537.83
802.168	11474.56
802.499	11487.89
802.83	11384.16
803.161	11371.51
803.491	11404.95
803.822	11425.07
804.153	11373.09
804.483	11290.38
804.814	11201.8
805.145	11196.15
805.475	11278.86
805.805	11221
806.136	11195.24
806.466	11138.97
806.796	11152.98
807.126	11039.54
807.457	11039.54
807.787	11076.6
808.117	10988.69
808.447	10998.41
808.777	10991.86
809.107	10978.98
809.436	10872.54
809.766	10930.16
810.096	10861.69
810.426	10816.5
810.755	10882.26
811.085	10823.5
811.414	10729.94
811.744	10671.64
812.073	10736.95
812.403	10700.57
812.732	10603.39
813.061	10625.54
813.39	10638.42
813.719	10606.11
814.049	10622.38
814.378	10639.55
814.707	10506.9
815.036	10518.2
815.365	10469.61
815.693	10432.78
816.022	10470.52
816.351	10391.87
816.68	10371.08
817.008	10389.61
817.337	10343.06
817.665	10332.89
817.994	10356.39
818.322	10329.5
818.651	10329.5
818.979	10200.01
819.307	10296.06
819.636	10307.58
819.964	10153.91
820.292	10248.6
820.62	10227.81
820.948	10162.05
821.276	10195.95
821.604	10188.49
821.932	10171.31
822.259	10180.35
822.587	10206.79
822.915	10190.52
823.243	10198.88
823.57	10216.29
823.898	10174.93
824.225	10139.9
824.553	10141.26
824.88	10150.98
825.207	10212.9
825.535	10074.82
825.862	10284.76
826.189	10153.01
826.516	10258.77
826.843	10167.7
827.17	10176.96
827.497	10209.05
827.824	10175.83
828.151	10265.1
828.478	10137.87
828.805	10236.17
829.131	10170.86
829.458	10221.93
829.785	10081.83
830.111	10161.82
830.438	10193.69
830.764	10215.38
831.09	10209.28
831.417	10121.15
831.743	10144.87
832.069	10172.44
832.395	10103.97
832.722	10237.08
833.048	10083.86
833.374	10219.22
833.7	10082.96
834.026	10124.54
834.351	10132.67
834.677	10158.89
835.003	10115.5
835.329	10122.28
835.654	10054.71
835.98	10064.65
836.306	10056.52
836.631	10023.75
836.956	10021.71
837.282	10085.67
837.607	10018.55
837.932	9952.11
838.258	9994.37
838.583	9938.55
838.908	9906.69
839.233	9968.38
839.558	9897.2
839.883	9924.77
840.208	9899.01
840.533	9833.02
840.858	9868.72
841.182	9843.87
841.507	9901.04
841.832	9813.13
842.156	9770.2
842.481	9752.57
842.805	9741.5
843.13	9679.58
843.454	9778.1
843.778	9675.51
844.103	9668.5
844.427	9611.33
844.751	9572.01
845.075	9569.07
845.399	9612.01
845.723	9527.94
846.047	9585.12
846.371	9439.58
846.695	9485.23
847.019	9364.78
847.343	9293.6
847.666	9308.29
847.99	9259.47
848.313	9232.81
848.637	9228.51
848.96	9188.52
849.284	9207.5
849.607	9057.67
849.931	9094.73
850.254	9026.49
850.577	9015.64
850.9	8978.35
851.223	8955.98
851.546	8889.31
851.869	8822.88
852.192	8897.9
852.515	8787.4
852.838	8785.59
853.161	8799.6
853.483	8748.98
853.806	8766.61
854.129	8666.72
854.451	8644.8
854.774	8619.72
855.096	8574.75
855.419	8530.23
855.741	8497.69
856.063	8508.76
856.385	8471.25
856.708	8413.39
857.03	8362.55
857.352	8374.75
857.674	8414.75
857.996	8342.21
858.318	8368.2
858.64	8324.13
858.961	8256.56
859.283	8257.69
859.605	8187.64
859.926	8285.26
860.248	8228.31
860.57	8186.51
860.891	8186.51
861.212	8134.08
861.534	8130.69
861.855	8063.57
862.176	8136.57
862.498	8132.5
862.819	8094.76
863.14	8028.77
863.461	8051.6
863.782	8013.63
864.103	7977.47
864.424	7931.37
864.745	8011.15
865.065	7896.8
865.386	7899.28
865.707	7904.26
866.027	7930.92
866.348	7922.33
866.668	7911.71
866.989	7824.71
867.309	7866.06
867.63	7840.08
867.95	7826.07
868.27	7828.78
868.59	7800.3
868.91	7803.24
869.23	7812.96
869.55	7743.58
869.87	7799.17
870.19	7716.69
870.51	7799.63
870.83	7756.46
871.15	7709.46
871.469	7695.67
871.789	7749.68
872.109	7706.29
872.428	7632.4
872.748	7686.86
873.067	7704.03
873.386	7683.02
873.706	7633.08
874.025	7569.12
874.344	7598.73
874.663	7596.92
874.982	7522.12
875.301	7536.81
875.62	7501.33
875.939	7516.02
876.258	7515.79
876.577	7558.05
876.896	7449.35
877.214	7426.3
877.533	7438.05
877.852	7434.66
878.17	7426.75
878.489	7417.71
878.807	7424.95
879.125	7382.46
879.444	7415
879.762	7388.79
880.08	7368.45
880.398	7320.99
880.716	7381.56
881.034	7415.68
881.352	7353.31
881.67	7353.54
881.988	7292.97
882.306	7291.16
882.624	7219.08
882.941	7225.4
883.259	7203.26
883.577	7219.08
883.894	7168.46
884.212	7124.39
884.529	7136.82
884.846	7158.06
885.164	7121.68
885.481	7095.46
885.798	7144.5
886.115	7028.12
886.432	7065.63
886.75	6965.75
887.067	7022.7
887.383	7059.31
887.7	7074.22
888.017	6979.99
888.334	6921.23
888.651	6961.23
888.967	6931.63
889.284	6981.34
889.6	6857.05
889.917	6846.2
890.233	6804.17
890.55	6830.16
890.866	6838.75
891.182	6809.14
891.498	6820.67
891.815	6764.17
892.131	6741.57
892.447	6708.35
892.763	6713.1
893.079	6670.62
893.395	6666.55
893.71	6629.26
894.026	6638.98
894.342	6595.59
894.657	6554.91
894.973	6579.54
895.289	6524.4
895.604	6575.25
895.92	6543.16
896.235	6463.62
896.55	6498.19
896.865	6413.9
897.181	6372.77
897.496	6405.09
897.811	6367.57
898.126	6335.71
898.441	6362.83
898.756	6293.22
899.071	6311.08
899.386	6261.36
899.7	6224.53
900.015	6220.46
900.33	6187.69
900.644	6181.81
900.959	6209.16
901.273	6140.46
901.588	6101.36
901.902	6079.22
902.216	6060.24
902.531	6086.22
902.845	6025.43
903.159	5976.17
903.473	5923.74
903.787	5947.02
904.101	5940.24
904.415	5919
904.729	5901.6
905.042	5802.84
905.356	5833.35
905.67	5846.46
905.984	5783.63
906.297	5803.97
906.611	5741.37
906.924	5781.83
907.237	5748.61
907.551	5672.45
907.864	5679
908.177	5684.65
908.491	5614.82
908.804	5595.16
909.117	5591.55
909.43	5498.44
909.743	5554.26
910.056	5528.5
910.368	5502.96
910.681	5512
910.994	5441.04
911.307	5407.15
911.619	5421.16
911.932	5373.93
912.244	5373.25
912.557	5349.52
912.869	5302.29
913.181	5309.3
913.494	5271.1
913.806	5240.6
914.118	5203.31
914.43	5225
914.742	5207.38
915.054	5184.78
915.366	5140.94
915.678	5150.43
915.99	5100.04
916.302	5114.27
916.613	5088.96
916.925	5040.6
917.236	5059.36
917.548	5022.52
917.859	5041.51
918.171	4986.59
918.482	4993.37
918.794	4954.73
919.105	4961.28
919.416	4872.02
919.727	4893.71
920.038	4895.52
920.349	4872.92
920.66	4842.64
920.971	4837.22
921.282	4781.4
921.593	4835.86
921.903	4771.46
922.214	4772.36
922.525	4744.34
922.835	4710.22
923.146	4654.4
923.456	4695.53
923.767	4668.63
924.077	4651.46
924.387	4611.46
924.697	4570.33
925.008	4595.64
925.318	4520.39
925.628	4591.12
925.938	4468.19
926.248	4545.25
926.558	4468.64
926.867	4507.28
927.177	4474.52
927.487	4455.08
927.796	4380.51
928.106	4382.54
928.416	4340.73
928.725	4378.02
929.034	4340.28
929.344	4363.11
929.653	4295.31
929.962	4293.28
930.271	4290.57
930.581	4233.62
930.89	4224.35
931.199	4223.67
931.508	4246.95
931.817	4196.78
932.125	4197.69
932.434	4145.48
932.743	4115.2
933.051	4073.62
933.36	4117.91
933.669	4050.8
933.977	4082.89
934.286	4059.61
934.594	4043.57
934.902	4038.14
935.21	3985.49
935.519	4011.48
935.827	3967.64
936.135	3953.17
936.443	3936.22
936.751	3942.1
937.059	3894.87
937.367	3934.19
937.674	3892.16
937.982	3878.82
938.29	3825.27
938.597	3812.84
938.905	3815.78
939.213	3820.3
939.52	3810.35
939.827	3793.18
940.135	3779.84
940.442	3792.27
940.749	3731.26
941.056	3726.51
941.363	3650.58
941.67	3641.99
941.977	3633.86
942.284	3636.57
942.591	3618.94
942.898	3624.14
943.205	3617.36
943.511	3597.02
943.818	3580.53
944.125	3542.34
944.431	3516.12
944.738	3545.5
945.044	3516.35
945.35	3490.36
945.657	3468.67
945.963	3465.73
946.269	3413.53
946.575	3444.49
946.881	3446.07
947.187	3414.2
947.493	3453.53
947.799	3415.56
948.105	3391.38
948.41	3354.77
948.716	3367.65
949.022	3328.33
949.327	3355
949.633	3309.57
949.938	3293.3
950.244	3289.69
950.549	3275.22
950.854	3249.69
951.16	3228.9
951.465	3264.38
951.77	3244.49
952.075	3195.9
952.38	3154.78
952.685	3178.73
952.99	3171.95
953.294	3122.46
953.599	3136.47
953.904	3107.09
954.209	3096.92
954.513	3117.94
954.818	3084.5
955.122	3070.48
955.426	3063.03
955.731	3006.76
956.035	3023.48
956.339	3007.21
956.643	3000.43
956.948	3013.54
957.252	2998.4
957.556	2969.24
957.86	2938.96
958.163	2921.11
958.467	2932.63
958.771	2928.34
959.075	2922.69
959.378	2929.02
959.682	2879.98
959.985	2868
960.289	2844.5
960.592	2846.76
960.896	2858.51
961.199	2814.45
961.502	2823.03
961.805	2805.63
962.108	2790.72
962.411	2750.72
962.714	2783.71
963.017	2733.32
963.32	2746.2
963.623	2729.02
963.926	2736.03
964.228	2705.97
964.531	2691.06
964.833	2645.86
965.136	2670.72
965.438	2674.11
965.741	2669.14
966.043	2639.08
966.345	2627.33
966.648	2615.13
966.95	2632.3
967.252	2574.68
967.554	2598.86
967.856	2558.86
968.158	2585.53
968.46	2527.9
968.761	2540.33
969.063	2509.82
969.365	2527.22
969.666	2498.97
969.968	2498.07
970.269	2529.71
970.571	2479.99
970.872	2476.38
971.174	2463.72
971.475	2421.01
971.776	2436.6
972.077	2425.08
972.378	2418.3
972.679	2410.39
972.98	2392.54
973.281	2373.1
973.582	2366.1
973.883	2387.11
974.183	2354.8
974.484	2386.21
974.785	2326.77
975.085	2325.42
975.386	2337.62
975.686	2333.78
975.986	2305.76
976.287	2301.69
976.587	2268.47
976.887	2273.22
977.187	2231.41
977.487	2249.04
977.787	2244.52
978.087	2246.1
978.387	2225.99
978.687	2200.9
978.987	2218.3
979.286	2209.72
979.586	2166.33
979.885	2177.63
980.185	2150.96
980.484	2161.36
980.784	2196.38
981.083	2153.45
981.382	2147.12
981.682	2137.85
981.981	2110.51
982.28	2114.58
982.579	2065.76
982.878	2093.79
983.177	2105.54
983.475	2065.54
983.774	2030.96
984.073	2053.34
984.372	2041.81
984.67	2020.12
984.969	2040.23
985.267	2016.5
985.566	2019.21
985.864	1990.51
986.162	1978.08
986.461	1994.58
986.759	1962.49
987.057	1960.68
987.355	1942.38
987.653	1946.9
987.951	1930.18
988.249	1948.71
988.547	1904.19
988.844	1916.84
989.142	1930.63
989.44	1889.72
989.737	1899.22
990.035	1911.19
990.332	1882.04
990.63	1865.09
990.927	1888.59
991.224	1870.74
991.521	1820.57
991.819	1825.55
992.116	1817.41
992.413	1819.22
992.71	1816.96
993.006	1796.85
993.303	1797.98
993.6	1796.39
993.897	1762.04
994.193	1771.54
994.49	1766.56
994.787	1744.19
995.083	1769.28
995.379	1755.72
995.676	1772.21
995.972	1739.67
996.268	1699.45
996.565	1713.46
996.861	1699.45
997.157	1704.19
997.453	1688.6
997.749	1671.88
998.044	1681.59
998.34	1680.69
998.636	1653.8
998.932	1658.32
999.227	1647.47
999.523	1626.45
999.818	1634.36
1000.114	1584.87
1000.409	1576.96
1000.704	1582.61
1001	1587.81
1001.295	1586.23
1001.59	1568.83
1001.885	1581.03
1002.18	1562.95
1002.475	1539.23
1002.77	1546
1003.065	1529.51
1003.359	1532.22
1003.654	1523.41
1003.949	1484.31
1004.243	1489.73
1004.538	1503.29
1004.832	1514.82
1005.127	1490.19
1005.421	1466.01
1005.715	1463.29
1006.009	1464.2
1006.304	1452.22
1006.598	1456.97
1006.892	1420.36
1007.186	1425.33
1007.48	1412.22
1007.773	1439.34
1008.067	1413.13
1008.361	1410.64
1008.655	1428.04
1008.948	1411.32
1009.242	1387.36
1009.535	1371.32
1009.829	1354.82
1010.122	1354.15
1010.415	1364.54
1010.708	1342.85
1011.001	1343.52
1011.295	1340.81
1011.588	1327.03
1011.881	1318.21
1012.173	1302.17
1012.466	1314.6
1012.759	1288.84
1013.052	1287.71
1013.344	1307.14
1013.637	1298.33
1013.93	1275.5
1014.222	1261.49
1014.514	1265.56
1014.807	1229.18
1015.099	1227.14
1015.391	1217.65
1015.683	1231.89
1015.976	1234.15
1016.268	1224.43
1016.56	1204.77
1016.851	1206.8
1017.143	1185.79
1017.435	1170.42
1017.727	1183.53
1018.018	1176.52
1018.31	1156.18
1018.602	1159.57
1018.893	1132.91
1019.185	1168.84
1019.476	1139.46
1019.767	1135.17
1020.058	1114.6
1020.35	1114.6
1020.641	1103.3
1020.932	1103.53
1021.223	1090.88
1021.514	1086.13
1021.804	1095.62
1022.095	1092.01
1022.386	1075.51
1022.677	1052.23
1022.967	1067.15
1023.258	1056.98
1023.548	1018.56
1023.839	1045.9
1024.129	1034.38
1024.419	1035.74
1024.709	1016.3
1025	1038.67
1025.29	1002.29
1025.58	994.38
1025.87	1009.07
1026.16	983.53
1026.449	957.32
1026.739	953.7
1027.029	982.4
1027.319	970.2
1027.608	975.17
1027.898	959.13
1028.187	956.19
1028.477	945.34
1028.766	934.95
1029.055	971.78
1029.344	933.82
1029.634	910.77
1029.923	933.14
1030.212	922.52
1030.501	916.19
1030.79	904.44
1031.078	905.57
1031.367	896.08
1031.656	890.43
1031.945	913.25
1032.233	884.33
1032.522	873.93
1032.81	891.33
1033.099	869.41
1033.387	866.25
1033.675	847.72
1033.963	848.62
1034.251	864.89
1034.54	833.93
1034.828	823.09
1035.116	833.71
1035.403	817.89
1035.691	838.68
1035.979	810.66
1036.267	835.06
1036.554	809.07
1036.842	785.57
1037.129	805.69
1037.417	760.49
1037.704	785.8
1037.992	777.44
1038.279	783.31
1038.566	762.07
1038.853	762.07
1039.14	762.07
