Data from hue_280_FLMS001491_00070.txt Node
Date: Tue Feb 07 15:55:37 GMT 2017
User: dcchb
Spectrometer: FLMS00149
Trigger mode: 0
Integration Time (sec): 2.000000E-2
Scans to average: 10
Electric dark correction enabled: true
Nonlinearity correction enabled: false
Boxcar width: 0
XAxis mode: Wavelengths
Number of Pixels in Spectrum: 2048
>>>>>Begin Spectral Data<<<<<
341.393	-6.43
341.776	-6.43
342.16	-6.43
342.543	-57.05
342.927	-66.54
343.31	-72.64
343.693	-77.38
344.077	-66.09
344.46	-67.89
344.843	-50.72
345.226	-41.91
345.61	-33.32
345.993	-13.21
346.376	7.36
346.759	-13.21
347.142	27.25
347.525	61.14
347.908	50.07
348.291	71.99
348.674	104.76
349.057	113.8
349.44	110.63
349.823	134.81
350.206	145.21
350.588	191.99
350.971	215.49
351.354	226.11
351.737	228.14
352.119	226.79
352.502	258.88
352.884	252.32
353.267	271.53
353.65	285.32
354.032	291.19
354.414	297.75
354.797	304.98
355.179	311.98
355.562	302.49
355.944	322.15
356.326	330.29
356.709	328.48
357.091	320.12
357.473	339.33
357.855	320.57
358.238	318.76
358.62	334.58
359.002	332.55
359.384	338.65
359.766	324.86
360.148	317.63
360.53	332.55
360.912	330.97
361.294	335.94
361.676	304.53
362.057	321.02
362.439	313.11
362.821	310.4
363.203	323.28
363.584	330.29
363.966	308.82
364.348	307.69
364.729	306.56
365.111	310.63
365.493	310.63
365.874	337.52
366.256	311.53
366.637	298.2
367.019	306.56
367.4	309.27
367.781	324.86
368.163	314.7
368.544	309.05
368.925	288.48
369.306	308.82
369.688	283.96
370.069	300.91
370.45	304.98
370.831	305.66
371.212	307.69
371.593	297.75
371.974	294.13
372.355	293.9
372.736	293
373.117	295.26
373.498	307.24
373.879	315.6
374.26	301.14
374.641	320.8
375.021	311.53
375.402	314.7
375.783	317.63
376.163	318.08
376.544	317.18
376.925	339.55
377.305	302.49
377.686	312.66
378.066	330.97
378.447	311.08
378.827	308.82
379.208	309.05
379.588	309.95
379.968	310.85
380.349	318.76
380.729	322.83
381.109	330.51
381.489	332.77
381.87	314.7
382.25	304.98
382.63	323.51
383.01	343.39
383.39	323.51
383.77	323.06
384.15	341.59
384.53	309.72
384.91	320.12
385.29	336.84
385.67	341.36
386.049	334.36
386.429	341.14
386.809	333
387.189	346.33
387.568	352.66
387.948	345.43
388.328	347.69
388.707	341.36
389.087	339.1
389.466	354.47
389.846	341.59
390.225	347.46
390.605	359.89
390.984	359.89
391.363	362.15
391.743	362.83
392.122	360.12
392.501	341.59
392.881	362.15
393.26	368.93
393.639	364.41
394.018	369.61
394.397	363.51
394.776	367.12
395.155	363.51
395.534	369.38
395.913	362.6
396.292	381.13
396.671	370.51
397.05	391.76
397.429	396.73
397.808	365.54
398.186	372.09
398.565	388.37
398.944	385.88
399.323	393.34
399.701	398.76
400.08	387.46
400.458	398.31
400.837	421.81
401.215	398.76
401.594	420.46
401.972	375.71
402.351	425.43
402.729	411.64
403.107	417.07
403.486	395.6
403.864	421.58
404.242	435.14
404.62	426.56
404.999	434.01
405.377	409.61
405.755	442.15
406.133	434.69
406.511	456.61
406.889	451.64
407.267	460.91
407.645	445.09
408.023	450.51
408.401	458.87
408.779	460.91
409.156	461.36
409.534	478.08
409.912	479.44
410.29	491.19
410.667	503.39
411.045	509.04
411.422	530.28
411.8	516.5
412.178	502.94
412.555	513.79
412.933	532.99
413.31	538.42
413.687	557.4
414.065	554.69
414.442	550.62
414.819	562.6
415.197	564.86
415.574	571.19
415.951	572.77
416.328	579.09
416.705	587.23
417.082	569.83
417.46	622.71
417.837	632.43
418.214	624.07
418.591	616.83
418.967	641.69
419.344	636.04
419.721	631.97
420.098	636.72
420.475	673.56
420.852	656.38
421.228	677.62
421.605	683.05
421.982	676.27
422.358	679.66
422.735	699.54
423.111	700.67
423.488	730.5
423.864	714.23
424.241	753.1
424.617	757.62
424.994	743.61
425.37	740.9
425.746	772.99
426.123	764.63
426.499	801.69
426.875	781.8
427.251	801.01
427.627	813.67
428.003	834
428.379	846.43
428.756	822.48
429.132	869.03
429.507	870.61
429.883	844.62
430.259	894.34
430.635	885.98
431.011	888.69
431.387	913.78
431.763	947.45
432.138	939.76
432.514	944.06
432.89	954.9
433.265	985.19
433.641	977.5
434.016	1004.62
434.392	1004.39
434.767	1028.8
435.143	1035.13
435.518	1019.31
435.894	1057.27
436.269	1056.37
436.644	1068.57
437.02	1101.12
437.395	1082.13
437.77	1116.93
438.145	1128.01
438.52	1141.11
438.895	1139.31
439.271	1172.98
439.646	1185.86
440.021	1186.76
440.395	1208.91
440.77	1213.88
441.145	1212.3
441.52	1231.28
441.895	1244.61
442.27	1257.27
442.645	1238.96
443.019	1286.42
443.394	1245.29
443.769	1299.75
444.143	1279.42
444.518	1320.54
444.892	1264.95
445.267	1321.45
445.641	1290.26
446.016	1320.54
446.39	1291.39
446.764	1316.7
447.139	1329.36
447.513	1366.42
447.887	1350.83
448.262	1356.25
448.636	1374.55
449.01	1376.59
449.384	1375.01
449.758	1414.33
450.132	1383.82
450.506	1425.17
450.88	1408.23
451.254	1407.1
451.628	1430.15
452.002	1433.76
452.376	1423.82
452.75	1447.32
453.123	1476.02
453.497	1499.52
453.871	1497.71
454.244	1530.71
454.618	1540.88
454.992	1528.67
455.365	1525.06
455.739	1571.39
456.112	1592.85
456.486	1572.52
456.859	1570.48
457.232	1626.53
457.606	1599.63
457.979	1635.56
458.352	1675.79
458.725	1675.34
459.099	1679.63
459.472	1700.87
459.845	1712.4
460.218	1715.79
460.591	1761.21
460.964	1739.97
461.337	1780.42
461.71	1782.23
462.083	1824.26
462.456	1807.76
462.829	1790.81
463.201	1846.41
463.574	1822.45
463.947	1840.08
464.32	1889.57
464.692	1899.51
465.065	1875.56
465.438	1920.98
465.81	1937.03
466.183	1934.77
466.555	1991.71
466.928	1973.41
467.3	1992.39
467.672	2035.33
468.045	2039.17
468.417	2052.73
468.789	2063.35
469.161	2126.85
469.534	2111.48
469.906	2156
470.278	2192.16
470.65	2162.78
471.022	2222.22
471.394	2269.22
471.766	2260.86
472.138	2292.72
472.51	2293.85
472.882	2348.99
473.253	2353.96
473.625	2384.7
473.997	2423.79
474.369	2441.87
474.74	2384.7
475.112	2446.16
475.484	2504.92
475.855	2556.44
476.227	2549.21
476.598	2641.87
476.97	2614.52
477.341	2677.8
477.713	2681.41
478.084	2699.49
478.455	2740.39
478.827	2780.62
479.198	2838.47
479.569	2795.99
479.94	2868.98
480.311	2875.31
480.682	2959.15
481.053	2996.88
481.424	3059.93
481.795	3012.7
482.166	3075.75
482.537	3085.24
482.908	3178.57
483.279	3174.73
483.65	3203.21
484.021	3243.21
484.391	3300.61
484.762	3293.37
485.133	3321.62
485.503	3335.63
485.874	3422.86
486.244	3451.56
486.615	3485.69
486.985	3548.06
487.356	3547.6
487.726	3544.21
488.097	3642.52
488.467	3638
488.837	3676.19
489.207	3710.54
489.578	3751.44
489.948	3820.59
490.318	3828.73
490.688	3855.17
491.058	3891.78
491.428	3902.62
491.798	3936.97
492.168	4018.33
492.538	4013.13
492.908	4043.86
493.278	4093.58
493.648	4076.86
494.017	4135.16
494.387	4107.59
494.757	4200.47
495.126	4200.92
495.496	4202.5
495.866	4257.19
496.235	4273.69
496.605	4311.65
496.974	4324.76
497.344	4322.27
497.713	4329.28
498.082	4331.31
498.452	4404.08
498.821	4416.28
499.19	4438.43
499.559	4449.28
499.928	4477.98
500.298	4512.78
500.667	4543.74
501.036	4501.25
501.405	4553.23
501.774	4537.63
502.143	4550.29
502.512	4603.17
502.88	4621.02
503.249	4615.6
503.618	4614.02
503.987	4637.75
504.356	4617.18
504.724	4690.17
505.093	4711.87
505.462	4730.85
505.83	4691.76
506.199	4748.48
506.567	4766.33
506.936	4834.35
507.304	4858.98
507.672	4818.76
508.041	4871.41
508.409	4861.47
508.777	4880.22
509.145	4881.81
509.514	4863.28
509.882	4903.5
510.25	4947.34
510.618	4935.59
510.986	4936.95
511.354	4959.09
511.722	5007.68
512.09	5056.94
512.458	4999.77
512.826	5101.91
513.193	5053.33
513.561	5087
513.929	5094.23
514.297	5140.1
514.664	5107.79
515.032	5120.44
515.4	5157.51
515.767	5118.41
516.135	5163.61
516.502	5100.56
516.869	5283.38
517.237	5192.08
517.604	5169.93
517.972	5251.97
518.339	5226.43
518.706	5198.86
519.073	5245.86
519.44	5250.84
519.808	5331.51
520.175	5333.32
520.542	5337.61
520.909	5326.99
521.276	5379.19
521.643	5390.04
522.009	5429.36
522.376	5410.83
522.743	5456.48
523.11	5446.54
523.477	5508.68
523.843	5504.16
524.21	5510.94
524.577	5538.74
524.943	5568.12
525.31	5584.39
525.676	5600.43
526.043	5637.94
526.409	5649.92
526.776	5677.04
527.142	5661.9
527.508	5687.89
527.874	5709.81
528.241	5783.03
528.607	5781.44
528.973	5766.53
529.339	5776.25
529.705	5841.56
530.071	5864.83
530.437	5889.46
530.803	5842.91
531.169	5927.88
531.535	5889.24
531.901	5877.94
532.267	5946.19
532.632	5976.47
532.998	5980.08
533.364	5982.34
533.73	5979.18
534.095	5981.89
534.461	6027.77
534.826	6023.92
535.192	6017.82
535.557	6101.44
535.923	6081.78
536.288	6156.58
536.653	6129.91
537.019	6042.45
537.384	6105.96
537.749	6098.72
538.114	6122.9
538.479	6173.52
538.845	6240.64
539.21	6171.26
539.575	6209.68
539.94	6181.66
540.305	6249.91
540.67	6249.68
541.034	6281.32
541.399	6290.36
541.764	6245.16
542.129	6308.44
542.494	6310.47
542.858	6276.35
543.223	6351.6
543.587	6345.5
543.952	6348.66
544.316	6339.17
544.681	6383.91
545.045	6414.65
545.41	6399.28
545.774	6421.88
546.138	6411.94
546.503	6452.39
546.867	6456.23
547.231	6456.23
547.595	6508.66
547.959	6529.22
548.324	6520.41
548.688	6512.05
549.052	6513.85
549.416	6530.12
549.779	6536.68
550.143	6508.66
550.507	6569.45
550.871	6615.32
551.235	6587.98
551.599	6582.55
551.962	6583.68
552.326	6571.71
552.689	6623
553.053	6648.77
553.417	6678.6
553.78	6674.53
554.143	6629.33
554.507	6667.97
554.87	6675.88
555.234	6761.31
555.597	6676.56
555.96	6713.17
556.323	6723.79
556.686	6759.27
557.05	6832.26
557.413	6833.85
557.776	6792.72
558.139	6866.84
558.502	6876.1
558.865	6842.21
559.228	6837.01
559.59	6888.31
559.953	6860.74
560.316	6940.74
560.679	6953.16
561.041	6979.6
561.404	6950.9
561.767	6985.03
562.129	7029.77
562.492	7019.6
562.854	7065.48
563.217	7044.69
563.579	7084.91
563.941	7197.23
564.304	7122.88
564.666	7174.85
565.028	7186.83
565.39	7208.53
565.753	7244.46
566.115	7319.71
566.477	7306.15
566.839	7299.82
567.201	7318.58
567.563	7320.84
567.925	7376.88
568.287	7422.3
568.648	7405.13
569.01	7479.03
569.372	7505.47
569.734	7471.12
570.095	7561.74
570.457	7550.89
570.819	7551.79
571.18	7652.13
571.542	7636.99
571.903	7651.45
572.265	7699.13
572.626	7733.94
572.987	7758.34
573.349	7753.6
573.71	7842.41
574.071	7810.32
574.432	7862.75
574.794	7932.12
575.155	7895.06
575.516	7909.98
575.877	7975.51
576.238	8030.2
576.599	8041.05
576.96	8003.76
577.32	8100.48
577.681	8099.58
578.042	8187.26
578.403	8169.86
578.763	8189.29
579.124	8343.18
579.485	8274.71
579.845	8389.96
580.206	8422.28
580.566	8441.04
580.927	8456.4
581.287	8515.16
581.648	8629.28
582.008	8680.35
582.368	8615.95
582.728	8699.56
583.089	8683.29
583.449	8770.52
583.809	8794.7
584.169	8818.65
584.529	8927.58
584.889	9015.03
585.249	9004.64
585.609	9112.66
585.969	9156.72
586.329	9221.58
586.688	9277.62
587.048	9380.45
587.408	9350.16
587.768	9372.76
588.127	9529.14
588.487	9528.69
588.846	9629.48
589.206	9610.27
589.565	9696.6
589.925	9879.64
590.284	9810.72
590.643	9891.84
591.003	10004.84
591.362	10017.72
591.721	10115.12
592.08	10091.16
592.44	10310.36
592.799	10325.28
593.158	10315.34
593.517	10384.94
593.876	10422.45
594.235	10471.94
594.593	10591.26
594.952	10621.09
595.311	10652.05
595.67	10804.81
596.029	10866.96
596.387	10909.9
596.746	10967.3
597.104	10966.17
597.463	11043.45
597.822	11123
598.18	11147.86
598.538	11132.72
598.897	11328.87
599.255	11186.5
599.613	11457.23
599.972	11454.97
600.33	11558.24
600.688	11507.4
601.046	11562.08
601.404	11684.11
601.762	11643.89
602.12	11757.11
602.478	11843.43
602.836	11815.86
603.194	11753.94
603.552	11904.9
603.91	11909.19
604.268	11911.23
604.625	11942.41
604.983	12115.06
605.341	11970.43
605.698	12146.7
606.056	12250.88
606.413	12234.38
606.771	12312.57
607.128	12310.76
607.485	12357.99
607.843	12381.95
608.2	12389.41
608.557	12461.95
608.914	12402.74
609.272	12537.65
609.629	12547.37
609.986	12625.78
610.343	12617.2
610.7	12661.04
611.057	12726.35
611.414	12634.6
611.771	12710.3
612.127	12876.85
612.484	12894.03
612.841	12872.11
613.198	12841.6
613.554	12897.19
613.911	12917.3
614.267	12946.91
614.624	13027.36
614.98	12977.41
615.337	13103.51
615.693	13024.42
616.05	13032.78
616.406	13136.73
616.762	13066.22
617.118	13143.96
617.475	13091.99
617.831	13178.54
618.187	13162.49
618.543	13214.24
618.899	13265.77
619.255	13246.78
619.611	13197.29
619.967	13284.98
620.323	13416.5
620.678	13335.6
621.034	13331.53
621.39	13318.42
621.746	13313.45
622.101	13425.99
622.457	13435.48
622.812	13442.71
623.168	13418.98
623.523	13470.06
623.879	13512.54
624.234	13467.34
624.589	13544.18
624.945	13516.83
625.3	13538.98
625.655	13512.09
626.01	13581.01
626.365	13580.79
626.72	13559.77
627.075	13586.66
627.43	13534.23
627.785	13522.94
628.14	13608.81
628.495	13629.37
628.85	13538.98
629.205	13505.99
629.559	13579.21
629.914	13529.04
630.269	13596.38
630.623	13491.07
630.978	13442.03
631.332	13488.59
631.687	13575.36
632.041	13449.94
632.396	13487.46
632.75	13407.23
633.104	13481.35
633.459	13387.57
633.813	13377.18
634.167	13390.06
634.521	13385.54
634.875	13388.25
635.229	13438.19
635.583	13410.4
635.937	13356.39
636.291	13389.61
636.645	13324.97
636.999	13290.17
637.352	13347.8
637.706	13209.5
638.06	13368.14
638.413	13280
638.767	13300.57
639.121	13353.9
639.474	13256.73
639.828	13239.55
640.181	13190.29
640.534	13248.37
640.888	13201.59
641.241	13139.44
641.594	13224.19
641.947	13257.86
642.301	13220.12
642.654	13202.49
643.007	13283.39
643.36	13269.61
643.713	13146.45
644.066	13241.36
644.419	13158.88
644.771	13048.37
645.124	12969.28
645.477	12946.68
645.83	12825.55
646.182	12763.86
646.535	12770.41
646.888	12822.84
647.24	12792.56
647.593	12793.24
647.945	12754.37
648.298	12799.79
648.65	12732.67
649.002	12649.29
649.355	12737.87
649.707	12739.68
650.059	12787.59
650.411	12954.14
650.763	12995.94
651.115	13162.27
651.467	13096.96
651.819	13105.09
652.171	12997.07
652.523	13007.92
652.875	13030.97
653.227	12971.09
653.578	13148.48
653.93	13074.59
654.282	12923.86
654.633	12960.01
654.985	13057.86
655.337	13064.64
655.688	13055.6
656.039	13067.13
656.391	12951.88
656.742	13046.11
657.094	13084.75
657.445	12999.56
657.796	13033.23
658.147	12997.75
658.498	13100.57
658.849	13161.14
659.2	13131.76
659.551	13106.22
659.902	13185.32
660.253	13155.71
660.604	13099.67
660.955	13110.29
661.306	13156.62
661.656	13094.47
662.007	13170.4
662.358	13162.04
662.708	13129.95
663.059	13055.15
663.409	13047.92
663.76	13144.64
664.11	13179.44
664.461	13225.77
664.811	13171.98
665.161	13217.41
665.511	13148.71
665.862	13107.13
666.212	13137.86
666.562	13123.62
666.912	13202.94
667.262	13196.16
667.612	13124.3
667.962	13293.56
668.312	13203.85
668.662	13200.46
669.011	13237.97
669.361	13108.93
669.711	13174.7
670.06	13143.06
670.41	13094.02
670.76	13056.73
671.109	13155.04
671.459	13179.44
671.808	13148.03
672.157	13120.69
672.507	13080.91
672.856	13145.32
673.205	13205.2
673.554	13074.13
673.904	13062.16
674.253	13124.75
674.602	13052.67
674.951	12931.54
675.3	12856.29
675.649	13041.59
675.998	12929.73
676.346	12982.84
676.695	13033.68
677.044	12924.31
677.393	13039.11
677.741	12925.21
678.09	12916.17
678.438	12890.86
678.787	12968.37
679.135	12949.17
679.484	12813.12
679.832	12857.42
680.181	12826.68
680.529	12739.45
680.877	12765.67
681.225	12797.3
681.573	12880.92
681.922	12692.45
682.27	12678.21
682.618	12687.48
682.966	12694.71
683.314	12710.3
683.661	12686.57
684.009	12522.51
684.357	12570.64
684.705	12567.25
685.053	12562.06
685.4	12556.86
685.748	12511.66
686.095	12477.31
686.443	12505.11
686.79	12416.3
687.138	12378.78
687.485	12390.76
687.832	12373.81
688.18	12339.01
688.527	12221.5
688.874	12287.49
689.221	12173.59
689.568	12186.25
689.915	12151.67
690.262	12141.95
690.609	12096.31
690.956	11965.24
691.303	12067.83
691.65	11974.73
691.997	11918.23
692.344	11865.35
692.69	11895.41
693.037	11841.17
693.383	11713.49
693.73	11797.33
694.077	11635.08
694.423	11709.42
694.769	11643.89
695.116	11559.82
695.462	11636.21
695.808	11518.24
696.155	11543.78
696.501	11522.31
696.847	11442.31
697.193	11280.96
697.539	11387.4
697.885	11330.68
698.231	11296.33
698.577	11264.01
698.923	11219.95
699.269	11175.2
699.614	10988.99
699.96	11076.22
700.306	11007.75
700.651	10981.99
700.997	10886.39
701.342	10947.41
701.688	10834.87
702.033	10898.6
702.379	10832.38
702.724	10731.6
703.069	10824.48
703.415	10655.89
703.76	10641.2
704.105	10669.9
704.45	10570.92
704.795	10520.53
705.14	10476.69
705.485	10461.55
705.83	10462
706.175	10499.06
706.52	10441.66
706.865	10345.84
707.209	10347.88
707.554	10342.23
707.899	10279.63
708.243	10263.36
708.588	10182.23
708.932	10168.9
709.277	10141.33
709.621	10113.99
709.966	10129.13
710.31	10088.9
710.654	10026.3
710.998	10017.94
711.342	9986.08
711.687	9945.85
712.031	9998.28
712.375	9932.3
712.719	9923.93
713.063	9883.03
713.407	9911.28
713.75	9823.6
714.094	9786.76
714.438	9855.46
714.782	9838.51
715.125	9781.34
715.469	9689.36
715.812	9709.02
716.156	9652.53
716.499	9688.69
716.843	9726.65
717.186	9592.87
717.53	9737.95
717.873	9699.53
718.216	9671.06
718.559	9605.98
718.902	9524.4
719.246	9577.95
719.589	9586.77
719.932	9583.38
720.275	9551.97
720.617	9572.53
720.96	9482.82
721.303	9600.1
721.646	9535.92
721.989	9531.18
722.331	9516.94
722.674	9505.64
723.016	9476.49
723.359	9442.14
723.701	9445.98
724.044	9372.54
724.386	9384.51
724.729	9368.69
725.071	9350.16
725.413	9346.1
725.755	9355.14
726.097	9302.26
726.439	9303.39
726.782	9296.38
727.124	9318.3
727.465	9302.03
727.807	9285.31
728.149	9327.79
728.491	9220.22
728.833	9361.69
729.175	9275.59
729.516	9315.81
729.858	9276.04
730.199	9251.18
730.541	9317.62
730.882	9294.35
731.224	9360.11
731.565	9193.78
731.906	9184.97
732.248	9251.64
732.589	9255.03
732.93	9224.07
733.271	9229.94
733.612	9248.02
733.953	9223.39
734.294	9201.47
734.635	9218.87
734.976	9209.6
735.317	9231.52
735.658	9200.11
735.999	9295.93
736.339	9277.4
736.68	9271.3
737.021	9235.14
737.361	9271.3
737.702	9365.53
738.042	9280.56
738.383	9260
738.723	9295.48
739.063	9298.19
739.404	9298.19
739.744	9329.83
740.084	9261.35
740.424	9396.04
740.764	9347.45
741.104	9330.5
741.444	9397.39
741.784	9317.62
742.124	9446.21
742.464	9378.86
742.804	9350.84
743.143	9473.78
743.483	9516.94
743.823	9448.01
744.162	9437.62
744.502	9577.73
744.841	9523.94
745.181	9563.72
745.52	9563.72
745.86	9693.21
746.199	9643.94
746.538	9690.95
746.877	9763.94
747.216	9790.38
747.556	9806.42
747.895	9887.78
748.234	9919.19
748.573	9970.26
748.911	10016.36
749.25	10123.48
749.589	10084.61
749.928	10157.83
750.267	10286.41
750.605	10332.74
750.944	10362.34
751.283	10460.64
751.621	10549.23
751.96	10620.86
752.298	10751.71
752.636	10770.69
752.975	10809.56
753.313	11014.53
753.651	11157.35
753.989	11139.27
754.327	11239.61
754.666	11352.82
755.004	11534.74
755.342	11637.56
755.679	11774.51
756.017	11748.97
756.355	11999.81
756.693	12042.07
757.031	12263.08
757.368	12305.57
757.706	12454.04
758.044	12545.11
758.381	12676.86
758.719	12823.74
759.056	12968.15
759.394	13101.03
759.731	13145.77
760.068	13322.49
760.405	13495.82
760.743	13480.9
761.08	13785.08
761.417	13797.28
761.754	14018.06
762.091	14092.86
762.428	14179.87
762.765	14314.33
763.102	14486.3
763.438	14699.63
763.775	14638.84
764.112	14855.56
764.449	14972.39
764.785	15063.69
765.122	15141.42
765.458	15181.42
765.795	15435.2
766.131	15559.72
766.467	15560.17
766.804	15799.03
767.14	15762.88
767.476	15914.96
767.812	16026.82
768.148	16181.4
768.485	16114.51
768.821	16201.96
769.157	16322.41
769.492	16459.58
769.828	16508.62
770.164	16438.11
770.5	16481.05
770.836	16636.75
771.171	16659.8
771.507	16784.09
771.842	16682.17
772.178	16879.46
772.513	16922.17
772.849	17016.18
773.184	16993.8
773.519	17100.24
773.855	17048.49
774.19	17095.5
774.525	17143.18
774.86	17241.93
775.195	17213.46
775.53	17235.61
775.865	17232.67
776.2	17241.71
776.535	17149.73
776.87	17172.56
777.205	17295.04
777.539	17263.63
777.874	17347.02
778.209	17293.23
778.543	17302.27
778.878	17219.56
779.212	17368.26
779.547	17204.42
779.881	17378.65
780.215	17275.83
780.55	17354.93
780.884	17241.93
781.218	17308.15
781.552	17218.43
781.886	17260.92
782.22	17245.1
782.554	17279.45
782.888	17139.56
783.222	17081.71
783.556	17065.89
783.889	17009.62
784.223	16885.78
784.557	16963.07
784.89	16951.77
785.224	16938.21
785.557	16897.54
785.891	16961.94
786.224	16853.24
786.558	16914.26
786.891	16745
787.224	16761.04
787.557	16760.36
787.891	16695.06
788.224	16778.44
788.557	16660.03
788.89	16637.66
789.223	16649.86
789.556	16557.43
789.888	16495.74
790.221	16516.75
790.554	16343.2
790.887	16445.8
791.219	16364.44
791.552	16271.34
791.884	16256.87
792.217	16277.89
792.549	16209.19
792.882	16193.37
793.214	16061.63
793.546	16149.53
793.879	15980.95
794.211	15991.8
794.543	15984.11
794.875	15981.18
795.207	16017.33
795.539	15868.18
795.871	15944.79
796.203	15742.31
796.535	15738.02
796.867	15660.05
797.198	15699.83
797.53	15670.22
797.862	15567.4
798.193	15587.51
798.525	15546.61
798.856	15587.29
799.188	15366.73
799.519	15329.89
799.85	15262.1
800.182	15345.26
800.513	15355.66
800.844	15167.86
801.175	15217.58
801.506	15187.52
801.837	15176
802.168	15065.95
802.499	14963.8
802.83	15034.76
803.161	14954.31
803.491	14964.25
803.822	14945.5
804.153	14847.42
804.483	14880.87
804.814	14827.08
805.145	14733.07
805.475	14793.86
805.805	14651.49
806.136	14698.27
806.466	14662.34
806.796	14527.65
807.126	14536.24
807.457	14486.98
807.787	14527.43
808.117	14423.7
808.447	14394.32
808.777	14500.76
809.107	14413.08
809.436	14334.67
809.766	14329.47
810.096	14338.73
810.426	14182.58
810.755	14233.65
811.085	14192.75
811.414	14173.31
811.744	14033.66
812.073	13954.34
812.403	14045.63
812.732	13976.71
813.061	14013.77
813.39	13927.22
813.719	13833.66
814.049	13953.88
814.378	13938.29
814.707	13813.32
815.036	13789.6
815.365	13762.7
815.693	13617.62
816.022	13643.84
816.351	13619.66
816.68	13611.75
817.008	13694.46
817.337	13482.71
817.665	13537.4
817.994	13575.14
818.322	13478.42
818.651	13470.51
818.979	13334.92
819.307	13490.39
819.636	13379.66
819.964	13316.61
820.292	13384.63
820.62	13407.91
820.948	13348.93
821.276	13331.75
821.604	13313.22
821.932	13324.3
822.259	13362.94
822.587	13277.07
822.915	13295.82
823.243	13326.78
823.57	13182.15
823.898	13339.21
824.225	13264.64
824.553	13192.77
824.88	13211.53
825.207	13266.9
825.535	13307.8
825.862	13276.39
826.189	13282.04
826.516	13283.39
826.843	13261.02
827.17	13354.8
827.497	13299.44
827.824	13314.58
828.151	13343.05
828.478	13241.13
828.805	13342.6
829.131	13244.07
829.458	13217.63
829.785	13154.36
830.111	13186.45
830.438	13291.3
830.764	13198.65
831.09	13287.69
831.417	13169.05
831.743	13328.14
832.069	13206.56
832.395	13201.81
832.722	13222.38
833.048	13250.85
833.374	13165.43
833.7	13135.83
834.026	13110.97
834.351	13175.6
834.677	13089.95
835.003	13187.13
835.329	13154.36
835.654	13138.99
835.98	13070.74
836.306	13120.01
836.631	13022.38
836.956	13080.46
837.282	13090.4
837.607	13091.08
837.932	13009.73
838.258	12935.15
838.583	13009.5
838.908	12907.36
839.233	12945.78
839.558	12975.61
839.883	12841.15
840.208	12847.02
840.533	12702.17
840.858	12860.35
841.182	12829.17
841.507	12848.15
841.832	12753.24
842.156	12723.41
842.481	12726.8
842.805	12684.54
843.13	12589.63
843.454	12608.38
843.778	12537.42
844.103	12540.81
844.427	12501.04
844.751	12506.69
845.075	12415.17
845.399	12440.03
845.723	12363.19
846.047	12324.32
846.371	12150.77
846.695	12226.92
847.019	12128.17
847.343	12091.11
847.666	12059.7
847.99	12067.15
848.313	11955.52
848.637	11939.47
848.96	11987.38
849.284	11864.45
849.607	11777.44
849.931	11750.55
850.254	11663.78
850.577	11590.56
850.9	11542.42
851.223	11543.55
851.546	11495.87
851.869	11343.33
852.192	11452.26
852.515	11347.4
852.838	11289.32
853.161	11305.82
853.483	11253.39
853.806	11143.34
854.129	11193.28
854.451	11146.73
854.774	11139.04
855.096	11008.88
855.419	11038.25
855.741	11025.15
856.063	10953.06
856.385	10884.81
856.708	10874.87
857.03	10912.16
857.352	10861.54
857.674	10762.33
857.996	10805.27
858.318	10687.08
858.64	10731.14
858.961	10700.86
859.283	10644.59
859.605	10631.26
859.926	10661.09
860.248	10595.33
860.57	10503.13
860.891	10617.02
861.212	10466.97
861.534	10412.28
861.855	10450.93
862.176	10396.92
862.498	10441.21
862.819	10404.6
863.14	10417.03
863.461	10339.74
863.782	10331.15
864.103	10320.76
864.424	10248.45
864.745	10274.43
865.065	10210.93
865.386	10175
865.707	10259.07
866.027	10194.89
866.348	10165.51
866.668	10200.76
866.989	10146.98
867.309	10054.78
867.63	10118.28
867.95	10093.87
868.27	10010.49
868.59	10105.4
868.91	10018.39
869.23	10020.43
869.55	9971.16
869.87	10010.71
870.19	10004.38
870.51	9985.85
870.83	9968.68
871.15	9919.19
871.469	9913.31
871.789	9863.82
872.109	9913.76
872.428	9837.61
872.748	9842.35
873.067	9849.36
873.386	9822.02
873.706	9766.88
874.025	9765.07
874.344	9779.08
874.663	9767.1
874.982	9763.49
875.301	9725.3
875.62	9654.56
875.939	9735.24
876.258	9687.78
876.577	9666.99
876.896	9666.09
877.214	9615.24
877.533	9632.87
877.852	9605.98
878.17	9635.13
878.489	9530.72
878.807	9612.3
879.125	9537.73
879.444	9520.33
879.762	9511.29
880.08	9442.14
880.398	9424.51
880.716	9398.07
881.034	9372.99
881.352	9400.33
881.67	9380.22
881.988	9385.19
882.306	9374.57
882.624	9265.65
882.941	9293.89
883.259	9276.95
883.577	9300.67
883.894	9230.39
884.212	9193.11
884.529	9228.36
884.846	9156.27
885.164	9165.31
885.481	9132.77
885.798	9153.11
886.115	9038.53
886.432	9015.71
886.75	9046.67
887.067	9106.78
887.383	8974.13
887.7	9015.03
888.017	8947.01
888.334	8928.25
888.651	8952.66
888.967	8887.8
889.284	8822.27
889.6	8815.26
889.917	8777.07
890.233	8843.06
890.55	8735.72
890.866	8752.89
891.182	8668.83
891.498	8650.07
891.815	8675.83
892.131	8662.05
892.447	8556.74
892.763	8508.15
893.079	8537.76
893.395	8516.74
893.71	8481.26
894.026	8434.03
894.342	8460.7
894.657	8434.48
894.973	8421.6
895.289	8341.15
895.604	8379.34
895.92	8261.38
896.235	8295.05
896.55	8227.93
896.865	8251.44
897.181	8216.18
897.496	8232
897.811	8196.52
898.126	8164.88
898.441	8101.61
898.756	8020.26
899.071	8026.81
899.386	8042.85
899.7	7977.09
900.015	7916.53
900.33	7873.37
900.644	7896.87
900.959	7897.77
901.273	7873.59
901.588	7820.49
901.902	7721.96
902.216	7719.7
902.531	7733.94
902.845	7716.99
903.159	7710.43
903.473	7657.55
903.787	7592.02
904.101	7633.37
904.415	7548.63
904.729	7530.78
905.042	7472.92
905.356	7436.77
905.67	7432.47
905.984	7437.67
906.297	7408.52
906.611	7372.14
906.924	7335.3
907.237	7317.67
907.551	7288.07
907.864	7241.97
908.177	7187.73
908.491	7203.33
908.804	7188.86
909.117	7121.3
909.43	7123.1
909.743	7082.2
910.056	7047.63
910.368	7047.4
910.681	6951.81
910.994	6906.16
911.307	6888.76
911.619	6878.14
911.932	6865.26
912.244	6828.87
912.557	6777.35
912.869	6778.03
913.181	6719.5
913.494	6765.15
913.806	6681.08
914.118	6641.99
914.43	6621.65
914.742	6600.18
915.054	6564.02
915.366	6554.53
915.678	6562.67
915.99	6533.97
916.302	6490.8
916.613	6451.71
916.925	6394.76
917.236	6376.46
917.548	6362.9
917.859	6356.8
918.171	6321.99
918.482	6280.87
918.794	6248.55
919.105	6271.15
919.416	6228.44
919.727	6199.51
920.038	6176.91
920.349	6127.65
920.66	6107.99
920.971	6063.7
921.282	6057.37
921.593	6039.97
921.903	6023.92
922.214	6042.45
922.525	5996.58
922.835	5963.81
923.146	5899.86
923.456	5941.21
923.767	5870.93
924.077	5885.85
924.387	5853.98
924.697	5802.23
925.008	5824.61
925.318	5736.47
925.628	5757.26
925.938	5687.21
926.248	5689.24
926.558	5659.64
926.867	5626.65
927.177	5656.7
927.487	5573.31
927.796	5498.29
928.106	5543.48
928.416	5507.78
928.725	5461
929.034	5446.09
929.344	5485.41
929.653	5383.26
929.962	5397.05
930.271	5389.82
930.581	5348.24
930.89	5328.12
931.199	5336.71
931.508	5286.09
931.817	5265.98
932.125	5267.11
932.434	5222.14
932.743	5170.39
933.051	5194.57
933.36	5184.85
933.669	5117.96
933.977	5108.47
934.286	5101.69
934.594	5063.72
934.902	5013.33
935.21	5047
935.519	5009.26
935.827	4980.79
936.135	4962.26
936.443	4913.67
936.751	4922.03
937.059	4881.81
937.367	4862.37
937.674	4912.99
937.982	4864.63
938.29	4843.39
938.597	4826.67
938.905	4784.41
939.213	4764.75
939.52	4766.1
939.827	4763.84
940.135	4691.08
940.442	4709.83
940.749	4681.59
941.056	4689.5
941.363	4651.08
941.67	4644.07
941.977	4576.5
942.284	4535.15
942.591	4585.54
942.898	4541.02
943.205	4583.06
943.511	4488.82
943.818	4505.09
944.125	4454.7
944.431	4431.87
944.738	4407.47
945.044	4390.75
945.35	4381.71
945.657	4346.23
945.963	4330.18
946.269	4311.65
946.575	4302.84
946.881	4313.46
947.187	4288.83
947.493	4279.56
947.799	4204.31
948.105	4214.03
948.41	4186.01
948.716	4192.79
949.022	4135.16
949.327	4153.24
949.633	4127.48
949.938	4136.29
950.244	4114.14
950.549	4082.73
950.854	4027.37
951.16	4040.47
951.465	4048.16
951.77	4000.02
952.075	3988.95
952.38	3958.44
952.685	3949.63
952.99	3913.02
953.294	3919.35
953.599	3903.53
953.904	3897.88
954.209	3885.22
954.513	3871.21
954.818	3873.02
955.122	3809.97
955.426	3818.78
955.731	3767.71
956.035	3788.05
956.339	3769.52
956.643	3749.63
956.948	3690.88
957.252	3727.26
957.556	3710.99
957.86	3680.26
958.163	3662.4
958.467	3617.21
958.771	3611.11
959.075	3635.29
959.378	3565.23
959.682	3603.42
959.985	3576.08
960.289	3546.47
960.592	3545.34
960.896	3576.53
961.199	3495.18
961.502	3466.02
961.805	3474.84
962.108	3437.1
962.411	3455.18
962.714	3442.3
963.017	3409.08
963.32	3398.23
963.623	3430.32
963.926	3342.86
964.228	3362.3
964.531	3331.11
964.833	3309.42
965.136	3306.71
965.438	3283.88
965.741	3295.63
966.043	3301.96
966.345	3235.52
966.648	3244.11
966.95	3216.77
967.252	3193.72
967.554	3188.52
967.856	3184.68
968.158	3182.87
968.46	3144.68
968.761	3142.19
969.063	3171.34
969.365	3109.88
969.666	3106.26
969.968	3078.24
970.269	3071.68
970.571	3092.48
970.872	3030.1
971.174	3046.83
971.475	2978.81
971.776	3009.09
972.077	3019.71
972.378	3030.56
972.679	3003.89
972.98	3003.21
973.281	2932.25
973.582	2974.51
973.883	2934.74
974.183	2937.68
974.484	2892.93
974.785	2875.76
975.085	2882.54
975.386	2888.86
975.686	2871.01
975.986	2855.87
976.287	2823.1
976.587	2826.49
976.887	2779.26
977.187	2823.1
977.487	2811.35
977.787	2785.36
978.087	2727.29
978.387	2726.38
978.687	2729.32
978.987	2736.33
979.286	2697.01
979.586	2698.81
979.885	2672.6
980.185	2650.23
980.484	2669.89
980.784	2642.09
981.083	2617.91
981.382	2612.94
981.682	2603.22
981.981	2593.28
982.28	2574.97
982.579	2562.55
982.878	2536.56
983.177	2537.01
983.475	2535.65
983.774	2488.88
984.073	2504.02
984.372	2481.87
984.67	2485.26
984.969	2470.8
985.267	2464.92
985.566	2439.16
985.864	2430.12
986.162	2460.63
986.461	2419.72
986.759	2424.47
987.057	2384.92
987.355	2375.66
987.653	2349.9
987.951	2337.47
988.249	2341.08
988.547	2377.01
988.844	2367.75
989.142	2309.44
989.44	2313.74
989.737	2301.31
990.035	2279.84
990.332	2275.32
990.63	2255.66
990.927	2277.36
991.224	2267.41
991.521	2265.83
991.819	2229.67
992.116	2202.78
992.413	2245.27
992.71	2210.69
993.006	2202.33
993.303	2184.02
993.6	2171.37
993.897	2180.41
994.193	2156.23
994.49	2135.89
994.787	2137.47
995.083	2115.1
995.379	2075.78
995.676	2104.7
995.972	2136.79
996.268	2061.77
996.565	2074.2
996.861	2065.38
997.157	2026.97
997.453	2027.19
997.749	2029.45
998.044	2019.96
998.34	2018.61
998.636	2011.6
998.932	1992.84
999.227	1971.83
999.523	1962.34
999.818	1951.71
1000.114	1955.1
1000.409	1911.04
1000.704	1926.86
1001	1947.19
1001.295	1885.95
1001.59	1879.17
1001.885	1932.51
1002.18	1872.62
1002.475	1855.22
1002.77	1870.13
1003.065	1830.59
1003.359	1847.99
1003.654	1823.13
1003.949	1835.79
1004.243	1821.1
1004.538	1797.59
1004.832	1810.02
1005.127	1798.95
1005.421	1772.96
1005.715	1747.88
1006.009	1737.71
1006.304	1751.27
1006.598	1753.08
1006.892	1740.19
1007.186	1706.07
1007.48	1690.48
1007.773	1698.61
1008.067	1705.39
1008.361	1672.85
1008.655	1673.76
1008.948	1659.52
1009.242	1647.32
1009.535	1630.14
1009.829	1637.37
1010.122	1624.72
1010.415	1608.22
1010.708	1608.67
1011.001	1585.62
1011.295	1578.16
1011.588	1589.92
1011.881	1562.12
1012.173	1539.97
1012.466	1552.18
1012.759	1525.74
1013.052	1533.65
1013.344	1511.5
1013.637	1506.75
1013.93	1497.04
1014.222	1465.17
1014.514	1503.36
1014.807	1473.76
1015.099	1454.78
1015.391	1486.19
1015.683	1451.39
1015.976	1439.64
1016.268	1436.25
1016.56	1438.06
1016.851	1396.7
1017.143	1392.18
1017.435	1403.48
1017.727	1415.23
1018.018	1399.41
1018.31	1370.26
1018.602	1388.11
1018.893	1348.34
1019.185	1323.03
1019.476	1348.57
1019.767	1354.89
1020.058	1315.57
1020.35	1293.43
1020.641	1305.4
1020.932	1298.62
1021.223	1301.79
1021.514	1280.32
1021.804	1268.12
1022.095	1269.25
1022.386	1243.48
1022.677	1255.69
1022.967	1244.84
1023.258	1222.92
1023.548	1231.28
1023.839	1215.91
1024.129	1229.25
1024.419	1185.86
1024.709	1199.64
1025	1189.02
1025.29	1176.82
1025.58	1177.95
1025.87	1168.46
1026.16	1173.88
1026.449	1132.75
1026.739	1134.79
1027.029	1143.15
1027.319	1128.69
1027.608	1130.49
1027.898	1118.74
1028.187	1112.87
1028.477	1106.31
1028.766	1094.34
1029.055	1059.99
1029.344	1060.66
1029.634	1073.09
1029.923	1052.08
1030.212	1055.69
1030.501	1057.95
1030.79	1068.57
1031.078	1028.12
1031.367	1031.74
1031.656	1023.6
1031.945	1030.83
1032.233	988.58
1032.522	1007.11
1032.81	1015.92
1033.099	994.45
1033.387	988.8
1033.675	982.93
1033.963	951.97
1034.251	966.2
1034.54	945.41
1034.828	940.67
1035.116	961.68
1035.403	941.8
1035.691	947.67
1035.979	931.4
1036.267	919.88
1036.554	916.49
1036.842	913.1
1037.129	932.08
1037.417	938.63
1037.704	904.74
1037.992	891.86
1038.279	906.09
1038.566	890.5
1038.853	890.5
1039.14	890.5
