Data from hue_40_FLMS001491_90.txt Node
Date: Mon Feb 06 15:08:41 GMT 2017
User: dcchb
Spectrometer: FLMS00149
Trigger mode: 0
Integration Time (sec): 2.000000E-2
Scans to average: 10
Electric dark correction enabled: true
Nonlinearity correction enabled: false
Boxcar width: 0
XAxis mode: Wavelengths
Number of Pixels in Spectrum: 2048
>>>>>Begin Spectral Data<<<<<
341.393	0.25
341.776	0.25
342.16	0.25
342.543	-86.07
342.927	-64.38
343.31	-79.07
343.693	-79.07
344.077	-76.81
344.46	-56.47
344.843	-62.12
345.226	-42.91
345.61	-17.6
345.993	-4.04
346.376	-17.15
346.759	-5.4
347.142	25.11
347.525	61.95
347.908	66.02
348.291	74.15
348.674	93.36
349.057	120.03
349.44	122.28
349.823	163.19
350.206	153.92
350.588	203.64
350.971	243.86
351.354	230.53
351.737	237.99
352.119	255.39
352.502	261.72
352.884	273.69
353.267	294.26
353.65	276.41
354.032	284.09
354.414	286.12
354.797	329.74
355.179	299.91
355.562	325.44
355.944	304.43
356.326	332.9
356.709	330.87
357.091	341.71
357.473	341.26
357.855	330.42
358.238	334.93
358.62	352.79
359.002	336.97
359.384	336.74
359.766	353.47
360.148	339.68
360.53	351.21
360.912	336.52
361.294	346.01
361.676	328.38
362.057	318.21
362.439	307.14
362.821	348.72
363.203	328.38
363.584	336.97
363.966	338.32
364.348	322.51
364.729	334.71
365.111	338.32
365.493	306.46
365.874	317.76
366.256	333.8
366.637	322.05
367.019	302.85
367.4	323.64
367.781	303.98
368.163	320.02
368.544	322.05
368.925	307.14
369.306	318.66
369.688	313.01
370.069	300.59
370.45	330.42
370.831	322.51
371.212	306.23
371.593	324.09
371.974	308.49
372.355	329.74
372.736	321.6
373.117	337.87
373.498	320.25
373.879	335.84
374.26	325.9
374.641	296.29
375.021	300.59
375.402	331.54
375.783	346.69
376.163	349.62
376.544	343.3
376.925	308.72
377.305	319.34
377.686	349.17
378.066	348.72
378.447	314.14
378.827	346.91
379.208	332.9
379.588	342.62
379.968	315.27
380.349	333.35
380.729	342.84
381.109	320.92
381.489	337.42
381.87	341.94
382.25	342.17
382.63	364.31
383.01	346.46
383.39	356.86
383.77	355.73
384.15	327.7
384.53	334.03
384.91	354.6
385.29	346.01
385.67	345.56
386.049	356.86
386.429	367.48
386.809	355.27
387.189	363.18
387.568	368.61
387.948	376.29
388.328	350.08
388.707	351.43
389.087	361.6
389.466	363.41
389.846	369.06
390.225	361.83
390.605	381.71
390.984	366.57
391.363	370.87
391.743	384.65
392.122	361.37
392.501	371.54
392.881	399.57
393.26	373.35
393.639	387.36
394.018	360.7
394.397	385.33
394.776	371.09
395.155	388.27
395.534	401.15
395.913	377.42
396.292	386.91
396.671	385.33
397.05	400.7
397.429	386.46
397.808	369.28
398.186	395.72
398.565	384.2
398.944	380.13
399.323	402.73
399.701	372.22
400.08	409.96
400.458	414.03
400.837	397.76
401.215	398.89
401.594	420.36
401.972	414.25
402.351	414.25
402.729	423.52
403.107	416.97
403.486	411.09
403.864	415.61
404.242	420.13
404.62	447.25
404.999	407.02
405.377	404.09
405.755	427.81
406.133	422.16
406.511	424.65
406.889	424.2
407.267	440.47
407.645	445.21
408.023	436.17
408.401	444.08
408.779	449.51
409.156	462.39
409.534	434.82
409.912	436.85
410.29	447.02
410.667	477.53
411.045	452.22
411.422	478.43
411.8	482.05
412.178	457.87
412.555	454.93
412.933	478.43
413.31	465.33
413.687	493.57
414.065	490.18
414.442	501.26
414.819	494.03
415.197	506.46
415.574	513.01
415.951	510.3
416.328	497.19
416.705	497.42
417.082	511.2
417.46	527.7
417.837	501.71
418.214	520.47
418.591	495.61
418.967	527.47
419.344	543.52
419.721	533.8
420.098	515.04
420.475	561.37
420.852	518.66
421.228	526.34
421.605	545.1
421.982	546
422.358	548.49
422.735	549.62
423.111	553.01
423.488	581.03
423.864	562.5
424.241	567.47
424.617	575.38
424.994	571.76
425.37	562.95
425.746	570.86
426.123	584.42
426.499	584.87
426.875	590.97
427.251	607.24
427.627	602.72
428.003	619.22
428.379	627.81
428.756	626.9
429.132	614.7
429.507	636.17
429.883	632.1
430.259	636.85
430.635	640.69
431.011	661.48
431.387	658.99
431.763	646.11
432.138	665.77
432.514	650.63
432.89	669.39
433.265	672.55
433.641	689.5
434.016	695.83
434.392	691.76
434.767	702.83
435.143	725.43
435.518	718.2
435.894	699.67
436.269	730.86
436.644	726.34
437.02	709.61
437.395	742.83
437.77	715.04
438.145	767.01
438.52	736.51
438.895	757.75
439.271	769.95
439.646	770.4
440.021	787.13
440.395	785.54
440.77	767.92
441.145	783.74
441.52	793
441.895	811.08
442.27	806.33
442.645	800.91
443.019	831.64
443.394	821.7
443.769	830.74
444.143	798.88
444.518	805.2
444.892	807.46
445.267	827.8
445.641	821.7
446.016	842.27
446.39	863.51
446.764	843.62
447.139	882.26
447.513	852.89
447.887	877.07
448.262	882.49
448.636	877.29
449.01	882.72
449.384	884.52
449.758	900.8
450.132	918.42
450.506	881.59
450.88	908.93
451.254	940.12
451.628	912.77
452.002	950.74
452.376	930.63
452.75	939.66
453.123	937.86
453.497	977.86
453.871	985.31
454.244	975.14
454.618	985.09
454.992	1011.08
455.365	999.78
455.739	1012.88
456.112	1044.75
456.486	1041.36
456.859	1065.08
457.232	1077.51
457.606	1051.3
457.979	1073.22
458.352	1100.34
458.725	1115.03
459.099	1107.12
459.472	1118.87
459.845	1143.28
460.218	1151.64
460.591	1178.53
460.964	1167.91
461.337	1187.79
461.71	1179.21
462.083	1208.36
462.456	1215.82
462.829	1231.41
463.201	1249.03
463.574	1257.4
463.947	1275.93
464.32	1325.19
464.692	1305.98
465.065	1350.05
465.438	1369.48
465.81	1342.59
466.183	1374.68
466.555	1422.36
466.928	1422.59
467.3	1420.78
467.672	1434.79
468.045	1470.72
468.417	1501.91
468.789	1516.15
469.161	1510.5
469.534	1533.32
469.906	1544.85
470.278	1585.52
470.65	1619.65
471.022	1656.93
471.394	1712.3
471.766	1700.55
472.138	1712.53
472.51	1784.39
472.882	1802.01
473.253	1828
473.625	1812.64
473.997	1878.62
474.369	1901.9
474.74	1943.25
475.112	1988
475.484	2023.7
475.855	2089.01
476.227	2154.55
476.598	2169.46
476.97	2211.27
477.341	2284.49
477.713	2309.12
478.084	2337.14
478.455	2439.51
478.827	2481.09
479.198	2531.26
479.569	2550.02
479.94	2695.32
480.311	2708.88
480.682	2827.07
481.053	2861.87
481.424	3001.98
481.795	2947.75
482.166	3071.13
482.537	3148.87
482.908	3213.28
483.279	3299.6
483.65	3361.3
484.021	3486.94
484.391	3517.68
484.762	3583.66
485.133	3676.77
485.503	3769.42
485.874	3854.16
486.244	3920.38
486.615	4047.61
486.985	4140.03
487.356	4258.9
487.726	4344.32
488.097	4490.08
488.467	4534.82
488.837	4624.31
489.207	4746.12
489.578	4777.76
489.948	4923.97
490.318	5060.01
490.688	5091.19
491.058	5257.74
491.428	5348.59
491.798	5375.03
492.168	5613.89
492.538	5584.06
492.908	5775.92
493.278	5872.19
493.648	5927.33
494.017	6100.21
494.387	6154.67
494.757	6290.94
495.126	6351.95
495.496	6463.81
495.866	6511.5
496.235	6654.32
496.605	6757.36
496.974	6829.23
497.344	6934.99
497.713	7066.51
498.082	7058.6
498.452	7220.18
498.821	7310.12
499.19	7386.05
499.559	7527.97
499.928	7560.73
500.298	7729.77
500.667	7735.64
501.036	7839.6
501.405	7936.54
501.774	7987.61
502.143	8082.53
502.512	8197.1
502.88	8288.17
503.249	8301.05
503.618	8477.77
503.987	8433.03
504.356	8589.41
504.724	8695.39
505.093	8713.25
505.462	8777.88
505.83	8884.09
506.199	8961.15
506.567	9028.27
506.936	9151.65
507.304	9244.08
507.672	9323.4
508.041	9367.01
508.409	9512.55
508.777	9562.71
509.145	9684.07
509.514	9704.63
509.882	9771.52
510.25	9786.89
510.618	9938.3
510.986	9891.07
511.354	10042.7
511.722	10229.14
512.09	10224.39
512.458	10217.39
512.826	10370.83
513.193	10436.14
513.561	10514.33
513.929	10525.4
514.297	10639.75
514.664	10793.64
515.032	10801.78
515.4	10913.41
515.767	10940.98
516.135	11035.67
516.502	10997.93
516.869	11201.09
517.237	11225.04
517.604	11194.08
517.972	11364.48
518.339	11370.12
518.706	11406.06
519.073	11548.2
519.44	11545.26
519.808	11712.71
520.175	11756.56
520.542	11899.83
520.909	11935.53
521.276	11965.82
521.643	12084.91
522.009	12186.6
522.376	12294.85
522.743	12354.73
523.11	12425.01
523.477	12552.01
523.843	12567.16
524.21	12716.08
524.577	12803.53
524.943	12806.47
525.31	12939.58
525.676	13050.76
526.043	13045.56
526.409	13192.68
526.776	13328.72
527.142	13295.95
527.508	13415.72
527.874	13513.8
528.241	13604.87
528.607	13574.36
528.973	13754.02
529.339	13779.78
529.705	13924.18
530.071	14027.68
530.437	14005.31
530.803	14118.3
531.169	14236.04
531.535	14280.56
531.901	14357.84
532.267	14368.24
532.632	14403.27
532.998	14612.98
533.364	14617.5
533.73	14666.08
534.095	14766.42
534.461	14831.05
534.826	14870.37
535.192	14988.79
535.557	15051.84
535.923	15063.59
536.288	15188.78
536.653	15076.02
537.019	15175.22
537.384	15309.23
537.749	15354.43
538.114	15389.45
538.479	15417.25
538.845	15561.2
539.21	15485.95
539.575	15646.85
539.94	15685.27
540.305	15769.56
540.67	15720.74
541.034	15824.24
541.399	16024.92
541.764	15960.74
542.129	16034.86
542.494	16047.52
542.858	16193.73
543.223	16293.61
543.587	16233.27
543.952	16273.5
544.316	16365.25
544.681	16378.81
545.045	16405.7
545.41	16567.28
545.774	16613.15
546.138	16712.13
546.503	16755.97
546.867	16715.52
547.231	16903.09
547.595	16929.98
547.959	17002.07
548.324	16996.64
548.688	17037.77
549.052	17123.19
549.416	17189.41
549.779	17228.28
550.143	17259.91
550.507	17431.21
550.871	17459.46
551.235	17531.32
551.599	17524.77
551.962	17644.31
552.326	17647.93
552.689	17659.45
553.053	17664.65
553.417	17798.66
553.78	18026.67
554.143	17930.63
554.507	18012.66
554.87	18034.81
555.234	18255.37
555.597	18207.23
555.96	18187.35
556.323	18417.4
556.686	18334.91
557.05	18440.9
557.413	18591.18
557.776	18623.72
558.139	18710.04
558.502	18694.45
558.865	18830.27
559.228	18867.78
559.59	19023.93
559.953	18850.38
560.316	19172.18
560.679	19204.27
561.041	19225.96
561.404	19303.48
561.767	19425.05
562.129	19415.11
562.492	19641.09
562.854	19703.24
563.217	19557.93
563.579	19747.76
563.941	19860.3
564.304	19875.66
564.666	20006.28
565.028	20016.45
565.39	20141.42
565.753	20195.88
566.115	20296.44
566.477	20335.76
566.839	20494.63
567.201	20604.01
567.563	20614.4
567.925	20790.44
568.287	20772.82
568.648	20785.7
569.01	20872.02
569.372	20983.88
569.734	20919.25
570.095	21133.48
570.457	21172.58
570.819	21213.93
571.18	21349.75
571.542	21495.28
571.903	21488.73
572.265	21599.23
572.626	21643.98
572.987	21753.58
573.349	21813.01
573.71	21965.55
574.071	21990.86
574.432	21996.06
574.794	22390.63
575.155	22307.24
575.516	22387.24
575.877	22502.94
576.238	22567.57
576.599	22702.93
576.96	22834.23
577.32	22858.86
577.681	22992.87
578.042	23184.96
578.403	23355.35
578.763	23331.62
579.124	23405.06
579.485	23604.61
579.845	23754.21
580.206	23864.94
580.566	23970.7
580.927	24135.66
581.287	24343.12
581.648	24405.71
582.008	24586.27
582.368	24653.62
582.728	24955.3
583.089	24961.41
583.449	25145.13
583.809	25300.61
584.169	25378.57
584.529	25487.72
584.889	25854.94
585.249	25952.34
585.609	26103.3
585.969	26372.44
586.329	26475.26
586.688	26739.66
587.048	26840.23
587.408	26787.57
587.768	27128.13
588.127	27297.39
588.487	27374.45
588.846	27799.3
589.206	27602.69
589.565	27850.14
589.925	28332.16
590.284	28290.58
590.643	28669.33
591.003	28755.2
591.362	29067.29
591.721	29070.22
592.08	29208.98
592.44	29544.34
592.799	29643.09
593.158	29847.38
593.517	29959.69
593.876	30210.53
594.235	30278.78
594.593	30445.56
594.952	30854.58
595.311	30806.68
595.67	30984.07
596.029	31336.61
596.387	31487.56
596.746	31676.26
597.104	31818.85
597.463	31951.73
597.822	32132.74
598.18	32202.35
598.538	32320.08
598.897	32634.88
599.255	32591.26
599.613	33099.95
599.972	33024.02
600.33	33172.49
600.688	33166.16
601.046	33436.44
601.404	33677.11
601.762	33803.43
602.12	34078.68
602.478	34079.36
602.836	34305.79
603.194	34161.16
603.552	34418.11
603.91	34362.51
604.268	34709.62
604.625	34755.27
604.983	34885.21
605.341	35020.8
605.698	35058.32
606.056	35425.09
606.413	35530.62
606.771	35642.71
607.128	35802.48
607.485	35732.87
607.843	35816.71
608.2	36116.82
608.557	36239.98
608.914	36187.55
609.272	36581.67
609.629	36656.47
609.986	36874.76
610.343	36752.28
610.7	37071.14
611.057	37114.98
611.414	37177.36
611.771	37271.36
612.127	37401.53
612.484	37488.08
612.841	37626.16
613.198	37652.82
613.554	37679.49
613.911	37887.39
614.267	37968.97
614.624	37951.35
614.98	37973.95
615.337	38377.32
615.693	38298.46
616.05	38378.68
616.406	38518.11
616.762	38385.01
617.118	38574.38
617.475	38529.64
617.831	38759.24
618.187	38858.67
618.543	39013.24
618.899	39200.81
619.255	39158.32
619.611	39054.59
619.967	39342.95
620.323	39412.33
620.678	39352.44
621.034	39275.15
621.39	39287.13
621.746	39331.2
622.101	39829.94
622.457	39401.93
622.812	39694.8
623.168	39796.5
623.523	39806.67
623.879	39989.03
624.234	39774.8
624.589	39956.94
624.945	39996.49
625.3	40003.04
625.655	40053.44
626.01	39994.68
626.365	40020.44
626.72	40055.7
627.075	40032.65
627.43	40126.88
627.785	40034.68
628.14	40159.2
628.495	40189.03
628.85	40177.28
629.205	40113.55
629.559	40307.44
629.914	39981.35
630.269	40244.62
630.623	40092.99
630.978	40059.31
631.332	40367.78
631.687	40383.83
632.041	40195.36
632.396	40205.52
632.75	40145.87
633.104	40229.7
633.459	40027
633.813	40097.28
634.167	40106.09
634.521	40044.4
634.875	40192.19
635.229	39972.31
635.583	39761.24
635.937	39853.22
636.291	39889.15
636.645	39948.81
636.999	39862.71
637.352	39962.14
637.706	39788.36
638.06	39936.38
638.413	39835.82
638.767	39672.66
639.121	39867
639.474	39653.67
639.828	39798.98
640.181	39794.91
640.534	39675.82
640.888	39595.15
641.241	39423.4
641.594	39480.12
641.947	39742.71
642.301	39661.36
642.654	39554.47
643.007	39582.04
643.36	39551.08
643.713	39441.03
644.066	39599.21
644.419	39389.05
644.771	39297.3
645.124	38828.84
645.477	38565.12
645.83	38603.53
646.182	38433.82
646.535	38114.51
646.888	38365.57
647.24	38138.01
647.593	38369.64
647.945	38207.84
648.298	38027.28
648.65	38035.86
649.002	37947.28
649.355	37946.38
649.707	38088.52
650.059	38110.21
650.411	38615.06
650.763	38638.11
651.115	38958.78
651.467	38955.16
651.819	38832.23
652.171	38733.93
652.523	38746.35
652.875	38821.61
653.227	38688.05
653.578	38827.71
653.93	38806.01
654.282	38628.84
654.633	38437.89
654.985	38592.01
655.337	38620.03
655.688	38513.59
656.039	38716.07
656.391	38294.61
656.742	38407.15
657.094	38546.59
657.445	38532.8
657.796	38482.18
658.147	38518.34
658.498	38448.06
658.849	38608.28
659.2	38467.27
659.551	38319.92
659.902	38504.33
660.253	38391.56
660.604	38481.28
660.955	38294.16
661.306	38396.53
661.656	38341.17
662.007	38367.16
662.358	38266.14
662.708	38322.18
663.059	38258.01
663.409	38014.85
663.76	38443.31
664.11	38270.43
664.461	38328.96
664.811	38403.31
665.161	38242.41
665.511	38167.39
665.862	38351.56
666.212	38320.38
666.562	38303.88
666.912	38194.05
667.262	38106.14
667.612	38153.83
667.962	38192.47
668.312	38183.66
668.662	38320.15
669.011	38171
669.361	38059.82
669.711	38039.25
670.06	37982.31
670.41	37892.59
670.76	37928.97
671.109	38094.62
671.459	38121.74
671.808	37925.36
672.157	37998.8
672.507	37718.36
672.856	37876.77
673.205	37891.91
673.554	37978.24
673.904	37782.99
674.253	38108.63
674.602	38051.91
674.951	37330.8
675.3	37232.27
675.649	37705.7
675.998	37566.95
676.346	37737.57
676.695	37774.4
677.044	37623.67
677.393	37612.6
677.741	37707.96
678.09	37673.39
678.438	37570.34
678.787	37484.69
679.135	37475.43
679.484	37337.13
679.832	37457.8
680.181	37342.78
680.529	37304.81
680.877	37358.14
681.225	37152.27
681.573	37346.39
681.922	37148.88
682.27	36998.15
682.618	37028.66
682.966	36901.43
683.314	36953.41
683.661	36880.87
684.009	36781.21
684.357	36676.8
684.705	36671.61
685.053	36606.07
685.4	36587.77
685.748	36387.55
686.095	36373.31
686.443	36185.97
686.79	36292.18
687.138	36297.15
687.485	36359.3
687.832	36164.95
688.18	36207.89
688.527	36005.41
688.874	35995.01
689.221	35975.35
689.568	35846.09
689.915	35676.6
690.262	35909.37
690.609	35684.51
690.956	35634.12
691.303	35417.18
691.65	35353
691.997	35306.9
692.344	35179.89
692.69	35192.78
693.037	35214.7
693.383	34850.64
693.73	34929.05
694.077	34840.02
694.423	34770.41
694.769	34804.08
695.116	34616.07
695.462	34483.19
695.808	34367.49
696.155	34532.68
696.501	34175.63
696.847	34274.83
697.193	33967.5
697.539	34132.92
697.885	33907.16
698.231	33776.32
698.577	33748.52
698.923	33574.96
699.269	33529.09
699.614	33276.67
699.96	33315.54
700.306	33276.44
700.651	33200.29
700.997	32900.86
701.342	33092.94
701.688	33041.19
702.033	32916.22
702.379	32927.52
702.724	32759.84
703.069	32758.04
703.415	32379.97
703.76	32512.62
704.105	32500.87
704.45	32505.16
704.795	32184.04
705.14	32154.66
705.485	32170.03
705.83	32083.48
706.175	32104.49
706.52	31923.93
706.865	31813.2
707.209	31810.49
707.554	31682.59
707.899	31743.15
708.243	31486.43
708.588	31520.1
708.932	31240.11
709.277	31344.06
709.621	31442.59
709.966	31068.36
710.31	31338.87
710.654	30902.04
710.998	30995.82
711.342	31030.85
711.687	30777.3
712.031	30670.63
712.375	30630.41
712.719	30751.08
713.063	30576.85
713.407	30705.66
713.75	30466.8
714.094	30475.61
714.438	30322.62
714.782	30362.62
715.125	30193.36
715.469	30149.97
715.812	30094.38
716.156	29951.33
716.499	29943.42
716.843	29913.59
717.186	29788.62
717.53	30051.44
717.873	29810.32
718.216	29909.52
718.559	29596.09
718.902	29533.26
719.246	29521.29
719.589	29451.46
719.932	29319.26
720.275	29323.33
720.617	29230.9
720.96	29235.42
721.303	29185.02
721.646	29278.58
721.989	28965.59
722.331	29107.06
722.674	29040.62
723.016	28968.53
723.359	28971.92
723.701	29036.55
724.044	28757.92
724.386	28669.33
724.729	28744.36
725.071	28618.71
725.413	28656.45
725.755	28634.76
726.097	28529.9
726.439	28439.28
726.782	28366.97
727.124	28554.08
727.465	28361.32
727.807	28288.32
728.149	28220.98
728.491	28199.06
728.833	28314.99
729.175	28202.22
729.516	28151.83
729.858	28107.76
730.199	28033.19
730.541	28039.07
730.882	27998.61
731.224	28032.06
731.565	27891.95
731.906	27884.94
732.248	27847.43
732.589	27863.48
732.93	27780.09
733.271	27696.48
733.612	27780.09
733.953	27789.58
734.294	27425.3
734.635	27485.41
734.976	27464.62
735.317	27481.11
735.658	27304.4
735.999	27468.91
736.339	27273.21
736.68	27373.32
737.021	27258.97
737.361	27087.68
737.702	27359.08
738.042	27163.61
738.383	27214.23
738.723	27104.85
739.063	26976.95
739.404	26948.47
739.744	26928.59
740.084	26860.56
740.424	26806.33
740.764	26808.14
741.104	26840.9
741.444	26571.76
741.784	26589.84
742.124	26702.38
742.464	26684.3
742.804	26643.4
743.143	26484.76
743.483	26506.9
743.823	26416.28
744.162	26427.81
744.502	26449.05
744.841	26209.06
745.181	26518.65
745.52	26272.11
745.86	26368.83
746.199	26175.61
746.538	26178.55
746.877	26268.94
747.216	26250.41
747.556	26071.66
747.895	26119.57
748.234	25935.62
748.573	26050.87
748.911	25860.82
749.25	25966.58
749.589	25839.8
749.928	25749.18
750.267	25881.83
750.605	25694.72
750.944	25586.25
751.283	25565.01
751.621	25632.12
751.96	25383.09
752.298	25482.3
752.636	25439.59
752.975	25332.24
753.313	25288.4
753.651	25334.28
753.989	25191.46
754.327	25167.05
754.666	25116.66
755.004	25028.97
755.342	24925.02
755.679	25014.06
756.017	24895.42
756.355	24917.79
756.693	24801.64
757.031	24822.2
757.368	24627.86
757.706	24555.77
758.044	24603.9
758.381	24550.34
758.719	24505.82
759.056	24500.63
759.394	24432.38
759.731	24341.31
760.068	24303.34
760.405	24087.98
760.743	24106.74
761.08	24097.7
761.417	23853.86
761.754	23836.69
762.091	23768.89
762.428	23789.23
762.765	23695.68
763.102	23693.64
763.438	23508.11
763.775	23334.78
764.112	23441.9
764.449	23471.28
764.785	23350.83
765.122	23220.89
765.458	23116.03
765.795	23152.41
766.131	23081
766.467	23008.24
766.804	22888.24
767.14	22771.18
767.476	22736.15
767.812	22630.62
768.148	22777.96
768.485	22517.63
768.821	22465.65
769.157	22357.41
769.492	22276.96
769.828	22301.59
770.164	22087.36
770.5	22089.84
770.836	22058.88
771.171	21847.59
771.507	21801.71
771.842	21631.1
772.178	21666.35
772.513	21543.19
772.849	21526.47
773.184	21554.49
773.519	21477.88
773.855	21262.75
774.19	21202.63
774.525	21138.46
774.86	21189.75
775.195	21068.63
775.53	21032.02
775.865	20880.38
776.2	20873.83
776.535	20681.52
776.87	20603.33
777.205	20624.34
777.539	20482.65
777.874	20475.2
778.209	20303.45
778.543	20313.62
778.878	20123.79
779.212	20251.7
779.547	19950.01
779.881	20090.57
780.215	19967.86
780.55	19981.42
780.884	19784.37
781.218	19764.48
781.552	19731.49
781.886	19587.54
782.22	19481.55
782.554	19482
782.888	19244.72
783.222	19377.6
783.556	19163.14
783.889	19065.29
784.223	18951.62
784.557	18950.26
784.89	18931.28
785.224	18767.44
785.557	18830.49
785.891	18717.5
786.224	18671.63
786.558	18693.77
786.891	18451.52
787.224	18366.55
787.557	18304.86
787.891	18333.11
788.224	18274.35
788.557	18274.58
788.89	18138.08
789.223	18113.9
789.556	18143.05
789.888	17973.57
790.221	17852.21
790.554	17728.15
790.887	17779.45
791.219	17775.15
791.552	17572.45
791.884	17539.68
792.217	17541.26
792.549	17456.29
792.882	17231.89
793.214	17271.21
793.546	17288.39
793.879	17200.48
794.211	17086.13
794.543	17135.62
794.875	16999.36
795.207	17141.5
795.539	17034.83
795.871	16994.61
796.203	16820.38
796.535	16774.95
796.867	16669.19
797.198	16727.95
797.53	16647.05
797.862	16558.01
798.193	16562.76
798.525	16504.45
798.856	16493.15
799.188	16337.23
799.519	16226.04
799.85	16110.11
800.182	16156.67
800.513	16095.42
800.844	16009.55
801.175	16078.7
801.506	16022.21
801.837	15992.6
802.168	15868.31
802.499	15854.53
802.83	15811.36
803.161	15818.82
803.491	15764.59
803.822	15758.94
804.153	15571.37
804.483	15485.72
804.814	15454.31
805.145	15436.68
805.475	15442.79
805.805	15305.84
806.136	15447.76
806.466	15307.42
806.796	15217.48
807.126	15131.83
807.457	15172.51
807.787	15132.06
808.117	15076.24
808.447	15008.45
808.777	15020.88
809.107	15039.63
809.436	14951.05
809.766	14982.91
810.096	14840.09
810.426	14780.2
810.755	14824.72
811.085	14713.09
811.414	14708.34
811.744	14557.16
812.073	14528.69
812.403	14594.22
812.732	14441.91
813.061	14511.74
813.39	14359.88
813.719	14366.66
814.049	14397.84
814.378	14372.31
814.707	14212.54
815.036	14283.27
815.365	14156.72
815.693	14036.04
816.022	14069.49
816.351	13989.04
816.68	13940.23
817.008	13986.78
817.337	13907.91
817.665	13890.96
817.994	13867.91
818.322	13786.11
818.651	13747.69
818.979	13750.4
819.307	13789.72
819.636	13698.65
819.964	13636.96
820.292	13742.94
820.62	13616.39
820.948	13630.86
821.276	13705.2
821.604	13583.85
821.932	13604.87
822.259	13641.25
822.587	13665.43
822.915	13615.49
823.243	13653.23
823.57	13580.46
823.898	13552.89
824.225	13500.46
824.553	13515.61
824.88	13561.03
825.207	13614.81
825.535	13533.68
825.862	13529.84
826.189	13452.56
826.516	13557.41
826.843	13579.78
827.17	13598.09
827.497	13670.18
827.824	13561.48
828.151	13596.96
828.478	13459.11
828.805	13622.04
829.131	13428.38
829.458	13453.69
829.785	13456.4
830.111	13458.21
830.438	13574.36
830.764	13546.56
831.09	13501.14
831.417	13462.05
831.743	13466.34
832.069	13568.71
832.395	13429.05
832.722	13410.52
833.048	13478.77
833.374	13455.27
833.7	13351.54
834.026	13355.61
834.351	13408.72
834.677	13367.81
835.003	13409.85
835.329	13378.21
835.654	13315.16
835.98	13329.62
836.306	13351.77
836.631	13250.98
836.956	13283.29
837.282	13225.22
837.607	13189.06
837.932	13127.37
838.258	13197.65
838.583	13121.94
838.908	13057.31
839.233	13033.81
839.558	13018.22
839.883	12924.43
840.208	13022.28
840.533	12943.64
840.858	13011.66
841.182	12952.46
841.507	12934.6
841.832	12883.08
842.156	12894.38
842.481	12895.96
842.805	12854.38
843.13	12834.49
843.454	12770.31
843.778	12706.81
844.103	12727.38
844.427	12700.49
844.751	12630.88
845.075	12611
845.399	12562.18
845.723	12591.79
846.047	12460.04
846.371	12390.66
846.695	12409.65
847.019	12330.33
847.343	12325.58
847.666	12233.6
847.99	12196.54
848.313	12160.16
848.637	12042.88
848.96	12100.5
849.284	12018.7
849.607	11944.12
849.931	11860.51
850.254	11798.14
850.577	11787.06
850.9	11701.87
851.223	11624.36
851.546	11573.06
851.869	11539.84
852.192	11578.48
852.515	11498.71
852.838	11427.07
853.161	11491.03
853.483	11334.42
853.806	11329.67
854.129	11320.63
854.451	11253.29
854.774	11210.13
855.096	11213.07
855.419	11072.96
855.741	11157.93
856.063	11037.48
856.385	11069.34
856.708	11005.39
857.03	10976.69
857.352	10923.81
857.674	10896.92
857.996	10923.81
858.318	10825.96
858.64	10807.43
858.961	10792.51
859.283	10747.77
859.605	10751.38
859.926	10766.3
860.248	10619.41
860.57	10680.88
860.891	10680.43
861.212	10569.02
861.534	10548
861.855	10453.99
862.176	10592.07
862.498	10555.46
862.819	10426.42
863.14	10499.64
863.461	10390.04
863.782	10353.65
864.103	10377.61
864.424	10366.08
864.745	10363.37
865.065	10347.1
865.386	10279.08
865.707	10269.81
866.027	10291.74
866.348	10256.71
866.668	10212.42
866.989	10206.99
867.309	10168.57
867.63	10130.16
867.95	10131.51
868.27	10066.2
868.59	10121.12
868.91	10098.07
869.23	10100.33
869.55	10079.31
869.87	10091.74
870.19	10071.63
870.51	10016.71
870.83	10044.28
871.15	9984.17
871.469	9973.78
871.789	9994.79
872.109	9989.37
872.428	9925.19
872.748	9960.67
873.067	9871.41
873.386	9907.56
873.706	9887.45
874.025	9813.56
874.344	9816.49
874.663	9817.4
874.982	9750.96
875.301	9779.21
875.62	9749.15
875.939	9775.36
876.258	9661.7
876.577	9720.9
876.896	9651.98
877.214	9657.63
877.533	9675.71
877.852	9644.29
878.17	9662.6
878.489	9657.85
878.807	9593.9
879.125	9622.83
879.444	9583.05
879.762	9539.21
880.08	9527.24
880.398	9561.13
880.716	9520.46
881.034	9444.07
881.352	9487.69
881.67	9483.85
881.988	9473.68
882.306	9454.24
882.624	9367.69
882.941	9364.98
883.259	9318.43
883.577	9348.03
883.894	9316.62
884.212	9364.08
884.529	9244.76
884.846	9241.59
885.164	9224.42
885.481	9180.35
885.798	9202.5
886.115	9145.32
886.432	9137.42
886.75	9128.15
887.067	9084.08
887.383	9075.5
887.7	9061.94
888.017	8996.18
888.334	9039.79
888.651	8924.31
888.967	8930.41
889.284	8915.27
889.6	8911.21
889.917	8827.82
890.233	8847.71
890.55	8816.52
890.866	8805.9
891.182	8810.42
891.498	8731.1
891.815	8729.06
892.131	8643.19
892.447	8713.02
892.763	8698.1
893.079	8630.54
893.395	8593.02
893.71	8576.98
894.026	8568.39
894.342	8488.17
894.657	8508.73
894.973	8431.44
895.289	8449.75
895.604	8428.28
895.92	8403.42
896.235	8376.31
896.55	8396.42
896.865	8314.61
897.181	8286.36
897.496	8296.31
897.811	8217.67
898.126	8269.19
898.441	8146.93
898.756	8127.05
899.071	8164.56
899.386	8107.16
899.7	8049.53
900.015	8029.42
900.33	7946.03
900.644	8000.5
900.959	7998.91
901.273	7908.29
901.588	7920.95
901.902	7864
902.216	7786.26
902.531	7838.24
902.845	7772.71
903.159	7698.36
903.473	7761.63
903.787	7640.96
904.101	7607.74
904.415	7601.18
904.729	7621.52
905.042	7565.25
905.356	7565.93
905.67	7579.94
905.984	7480.96
906.297	7424.69
906.611	7436.67
906.924	7376.33
907.237	7424.01
907.551	7353.51
907.864	7299.27
908.177	7302.44
908.491	7270.12
908.804	7195.77
909.117	7220.4
909.43	7180.18
909.743	7166.62
910.056	7167.3
910.368	7088.66
910.681	7048.43
910.994	7041.2
911.307	7012.05
911.619	6979.05
911.932	6979.96
912.244	6927.08
912.557	6884.14
912.869	6849.57
913.181	6840.53
913.494	6802.79
913.806	6739.74
914.118	6800.3
914.43	6710.13
914.742	6680.08
915.054	6636.92
915.366	6626.75
915.678	6594.88
915.99	6586.97
916.302	6541.1
916.613	6538.16
916.925	6527.31
917.236	6504.72
917.548	6459.07
917.859	6444.38
918.171	6352.4
918.482	6305.85
918.794	6337.04
919.105	6333.65
919.416	6288.9
919.727	6209.58
920.038	6225.85
920.349	6251.84
920.66	6163.26
920.971	6173.2
921.282	6120.32
921.593	6092.3
921.903	6043.26
922.214	6086.65
922.525	6043.71
922.835	5979.08
923.146	5969.59
923.456	5944.28
923.767	5891.62
924.077	5899.99
924.387	5917.39
924.697	5865.64
925.008	5813.89
925.318	5850.5
925.628	5812.76
925.938	5758.52
926.248	5704.74
926.558	5653.89
926.867	5730.95
927.177	5681.46
927.487	5669.03
927.796	5649.15
928.106	5537.74
928.416	5579.32
928.725	5551.07
929.034	5520.34
929.344	5505.42
929.653	5552.2
929.962	5460.45
930.271	5410.28
930.581	5404.63
930.89	5400.34
931.199	5409.15
931.508	5364.86
931.817	5321.47
932.125	5244.86
932.434	5268.82
932.743	5229.27
933.051	5197.63
933.36	5207.57
933.669	5180.68
933.977	5170.06
934.286	5150.18
934.594	5101.59
934.902	5094.81
935.21	5073.79
935.519	5044.64
935.827	5044.87
936.135	4974.81
936.443	4965.32
936.751	4925.1
937.059	4943.63
937.367	4951.76
937.674	4923.06
937.982	4881.71
938.29	4871.99
938.597	4888.49
938.905	4801.26
939.213	4759.23
939.52	4779.34
939.827	4752.45
940.135	4732.11
940.442	4689.62
940.749	4717.42
941.056	4700.7
941.363	4641.94
941.67	4651.21
941.977	4638.78
942.284	4562.85
942.591	4584.31
942.898	4589.06
943.205	4581.15
943.511	4536.18
943.818	4502.28
944.125	4485.56
944.431	4481.27
944.738	4427.26
945.044	4428.84
945.35	4408.05
945.657	4405.11
945.963	4346.58
946.269	4332.12
946.575	4270.42
946.881	4282.18
947.187	4290.99
947.493	4294.6
947.799	4254.83
948.105	4214.15
948.41	4225.91
948.716	4194.95
949.022	4157.43
949.327	4160.14
949.633	4156.98
949.938	4139.13
950.244	4119.24
950.549	4069.75
950.854	4067.72
951.16	4088.96
951.465	4032.69
951.77	4042.86
952.075	3964.9
952.38	3965.35
952.685	4037.21
952.99	3973.03
953.294	3898.46
953.599	3938
953.904	3886.71
954.209	3889.64
954.513	3928.51
954.818	3860.94
955.122	3832.02
955.426	3811.45
955.731	3807.39
956.035	3841.28
956.339	3760.16
956.643	3802.41
956.948	3717.9
957.252	3739.82
957.556	3715.41
957.86	3669.31
958.163	3701.4
958.467	3683.32
958.771	3695.3
959.075	3632.7
959.378	3628.86
959.682	3644.9
959.985	3590.22
960.289	3585.92
960.592	3578.01
960.896	3565.13
961.199	3537.79
961.502	3528.75
961.805	3495.53
962.108	3477.68
962.411	3463.44
962.714	3467.51
963.017	3431.35
963.32	3433.38
963.623	3389.09
963.926	3412.14
964.228	3409.66
964.531	3386.15
964.833	3328.08
965.136	3310.45
965.438	3334.63
965.741	3301.86
966.043	3287.17
966.345	3274.52
966.648	3221.41
966.95	3194.29
967.252	3224.58
967.554	3220.73
967.856	3217.12
968.158	3154.07
968.46	3214.63
968.761	3113.84
969.063	3143.9
969.365	3128.76
969.666	3107.74
969.968	3079.72
970.269	3076.56
970.571	3091.02
970.872	3058.93
971.174	3056.22
971.475	3000.4
971.776	3017.35
972.077	2982.77
972.378	3005.37
972.679	2986.16
972.98	2965.6
973.281	2965.15
973.582	2931.02
973.883	2936
974.183	2931.02
974.484	2910.23
974.785	2897.81
975.085	2881.31
975.386	2855.55
975.686	2869.11
975.986	2833.17
976.287	2861.87
976.587	2822.78
976.887	2850.57
977.187	2818.26
977.487	2759.5
977.787	2758.6
978.087	2754.76
978.387	2755.44
978.687	2726.74
978.987	2733.74
979.286	2750.92
979.586	2750.01
979.885	2702.56
980.185	2617.59
980.484	2655.78
980.784	2655.33
981.083	2672.73
981.382	2619.62
981.682	2618.94
981.981	2600.86
982.28	2592.95
982.579	2565.84
982.878	2550.24
983.177	2561.32
983.475	2541.43
983.774	2532.39
984.073	2502.34
984.372	2502.56
984.67	2489
984.969	2486.52
985.267	2492.17
985.566	2475.9
985.864	2476.12
986.162	2451.04
986.461	2413.75
986.759	2430.92
987.057	2390.47
987.355	2418.95
987.653	2400.64
987.951	2389.8
988.249	2388.67
988.547	2365.39
988.844	2373.98
989.142	2343.02
989.44	2313.41
989.737	2342.34
990.035	2288.56
990.332	2313.64
990.63	2301.44
990.927	2270.93
991.224	2259.18
991.521	2261.89
991.819	2243.36
992.116	2257.82
992.413	2242.46
992.71	2240.65
993.006	2242.23
993.303	2213.08
993.6	2225.73
993.897	2193.42
994.193	2183.7
994.49	2152.29
994.787	2131.27
995.083	2157.94
995.379	2136.24
995.676	2137.6
995.972	2114.55
996.268	2096.92
996.565	2118.84
996.861	2112.06
997.157	2077.71
997.453	2082.91
997.749	2079.07
998.044	2029.81
998.34	2025.51
998.636	2012.4
998.932	2003.37
999.227	2002.46
999.523	1983.7
999.818	1979.86
1000.114	1969.02
1000.409	1994.78
1000.704	1969.02
1001	1963.37
1001.295	1913.65
1001.59	1941.45
1001.885	1924.95
1002.18	1895.35
1002.475	1907.1
1002.77	1890.83
1003.065	1859.87
1003.359	1886.08
1003.654	1861.22
1003.949	1830.04
1004.243	1849.25
1004.538	1827.55
1004.832	1815.35
1005.127	1799.75
1005.421	1804.73
1005.715	1793.65
1006.009	1765.86
1006.304	1752.52
1006.598	1757.95
1006.892	1742.36
1007.186	1719.08
1007.48	1698.97
1007.773	1726.08
1008.067	1703.71
1008.361	1711.85
1008.655	1684.5
1008.948	1669.81
1009.242	1680.89
1009.535	1671.4
1009.829	1644.73
1010.122	1657.39
1010.415	1621
1010.708	1631.17
1011.001	1618.97
1011.295	1608.57
1011.588	1621.23
1011.881	1587.78
1012.173	1580.33
1012.466	1564.05
1012.759	1548.91
1013.052	1575.35
1013.344	1563.15
1013.637	1531.97
1013.93	1515.92
1014.222	1519.31
1014.514	1517.05
1014.807	1516.37
1015.099	1462.36
1015.391	1489.93
1015.683	1469.37
1015.976	1447.9
1016.268	1458.07
1016.56	1442.02
1016.851	1415.58
1017.143	1459.2
1017.435	1434.79
1017.727	1407.9
1018.018	1418.52
1018.31	1425.3
1018.602	1393.89
1018.893	1385.75
1019.185	1395.02
1019.476	1377.85
1019.767	1378.75
1020.058	1378.07
1020.35	1333.78
1020.641	1337.17
1020.932	1324.97
1021.223	1353.44
1021.514	1311.41
1021.804	1276.15
1022.095	1272.54
1022.386	1261.69
1022.677	1285.42
1022.967	1265.08
1023.258	1265.98
1023.548	1252.88
1023.839	1252.65
1024.129	1262.59
1024.419	1225.53
1024.709	1220.56
1025	1176.72
1025.29	1195.48
1025.58	1178.53
1025.87	1161.13
1026.16	1175.59
1026.449	1183.73
1026.739	1195.03
1027.029	1168.59
1027.319	1153.9
1027.608	1162.94
1027.898	1149.15
1028.187	1131.52
1028.477	1091.75
1028.766	1119.32
1029.055	1112.77
1029.344	1101.02
1029.634	1087.46
1029.923	1096.72
1030.212	1090.17
1030.501	1077.97
1030.79	1055.82
1031.078	1078.64
1031.367	1052.88
1031.656	1044.07
1031.945	1059.21
1032.233	1038.19
1032.522	1036.61
1032.81	1026.44
1033.099	1042.03
1033.387	1012.88
1033.675	997.29
1033.963	978.76
1034.251	985.54
1034.54	984.41
1034.828	967.69
1035.116	969.72
1035.403	974.92
1035.691	950.96
1035.979	937.4
1036.267	955.48
1036.554	949.83
1036.842	947.12
1037.129	930.17
1037.417	910.29
1037.704	900.34
1037.992	902.83
1038.279	906.45
1038.566	904.41
1038.853	904.41
1039.14	904.41
