Data from hue_40_FLMS001491_67.txt Node
Date: Mon Feb 06 15:08:16 GMT 2017
User: dcchb
Spectrometer: FLMS00149
Trigger mode: 0
Integration Time (sec): 2.000000E-2
Scans to average: 10
Electric dark correction enabled: true
Nonlinearity correction enabled: false
Boxcar width: 0
XAxis mode: Wavelengths
Number of Pixels in Spectrum: 2048
>>>>>Begin Spectral Data<<<<<
341.393	-21.2
341.776	-21.2
342.16	-21.2
342.543	-47.64
342.927	-89.45
343.31	-62.78
343.693	-63.91
344.077	-77.47
344.46	-58.94
344.843	-67.07
345.226	-43.57
345.61	-24.59
345.993	-31.82
346.376	-17.13
346.759	9.31
347.142	28.74
347.525	59.25
347.908	61.74
348.291	88.85
348.674	104.45
349.057	94.96
349.44	99.7
349.823	142.64
350.206	168.85
350.588	193.71
350.971	210.66
351.354	228.51
351.737	238
352.119	263.76
352.502	292.92
352.884	278.91
353.267	286.81
353.65	298.11
354.032	296.31
354.414	298.11
354.797	311.45
355.179	314.84
355.562	336.08
355.944	340.15
356.326	336.08
356.709	351.45
357.091	361.84
357.473	354.38
357.855	345.57
358.238	339.47
358.62	310.54
359.002	346.02
359.384	356.64
359.766	321.16
360.148	347.38
360.53	335.4
360.912	344.89
361.294	329.07
361.676	347.38
362.057	348.06
362.439	338.11
362.821	328.4
363.203	337.66
363.584	327.94
363.966	322.52
364.348	312.8
364.729	332.91
365.111	328.4
365.493	331.56
365.874	313.25
366.256	319.81
366.637	325.91
367.019	345.12
367.4	313.03
367.781	324.78
368.163	334.5
368.544	309.41
368.925	309.86
369.306	318.23
369.688	301.5
370.069	328.62
370.45	320.26
370.831	318.9
371.212	328.85
371.593	315.29
371.974	327.72
372.355	315.29
372.736	333.37
373.117	330.2
373.498	301.28
373.879	323.2
374.26	306.47
374.641	302.63
375.021	315.97
375.402	316.87
375.783	326.59
376.163	342.18
376.544	335.4
376.925	345.57
377.305	350.54
377.686	315.29
378.066	339.47
378.447	348.51
378.827	325.46
379.208	338.11
379.588	344.44
379.968	338.79
380.349	329.07
380.729	330.2
381.109	345.57
381.489	348.51
381.87	334.72
382.25	340.82
382.63	355.29
383.01	342.86
383.39	362.29
383.77	359.13
384.15	365
384.53	357.77
384.91	370.88
385.29	362.74
385.67	369.3
386.049	365.68
386.429	342.63
386.809	354.84
387.189	365.68
387.568	351.9
387.948	365.46
388.328	337.66
388.707	387.6
389.087	357.55
389.466	365.91
389.846	375.4
390.225	375.85
390.605	380.6
390.984	370.43
391.363	382.63
391.743	405
392.122	386.47
392.501	363.65
392.881	381.73
393.26	380.37
393.639	385.34
394.018	382.41
394.397	359.81
394.776	382.86
395.155	383.54
395.534	393.03
395.913	379.69
396.292	375.63
396.671	393.93
397.05	399.81
397.429	399.58
397.808	370.2
398.186	413.36
398.565	403.65
398.944	429.41
399.323	416.53
399.701	407.49
400.08	407.49
400.458	393.7
400.837	430.99
401.215	404.1
401.594	424.44
401.972	430.99
402.351	430.31
402.729	416.3
403.107	425.34
403.486	446.13
403.864	437.54
404.242	424.66
404.62	432.57
404.999	443.65
405.377	471.44
405.755	443.65
406.133	453.36
406.511	456.75
406.889	445.45
407.267	445.91
407.645	456.75
408.023	436.64
408.401	466.02
408.779	457.88
409.156	431.9
409.534	480.03
409.912	463.98
410.29	474.83
410.667	465.79
411.045	461.27
411.422	480.03
411.8	478
412.178	480.71
412.555	486.36
412.933	490.65
413.31	511.22
413.687	531.1
414.065	506.24
414.442	488.62
414.819	527.94
415.197	512.8
415.574	535.17
415.951	533.14
416.328	539.24
416.705	535.62
417.082	520.71
417.46	516.19
417.837	522.74
418.214	529.75
418.591	533.59
418.967	509.41
419.344	530.88
419.721	564.1
420.098	560.71
420.475	567.49
420.852	561.61
421.228	571.1
421.605	565.45
421.982	602.29
422.358	580.37
422.735	574.26
423.111	575.62
423.488	600.25
423.864	579.69
424.241	600.7
424.617	594.83
424.994	605.9
425.37	621.95
425.746	605.45
426.123	599.35
426.499	616.75
426.875	614.26
427.251	649.52
427.627	619.24
428.003	624.66
428.379	622.4
428.756	634.38
429.132	655.84
429.507	666.01
429.883	662.17
430.259	639.8
430.635	683.87
431.011	667.14
431.387	694.49
431.763	687.71
432.138	686.8
432.514	693.36
432.89	696.75
433.265	711.21
433.641	731.1
434.016	720.93
434.392	732.23
434.767	731.77
435.143	729.51
435.518	748.27
435.894	745.79
436.269	759.12
436.644	773.58
437.02	750.31
437.395	789.4
437.77	789.17
438.145	796.41
438.52	779.68
438.895	811.77
439.271	785.78
439.646	804.32
440.021	826.24
440.395	837.53
440.77	809.06
441.145	833.24
441.52	856.74
441.895	862.39
442.27	851.09
442.645	855.61
443.019	865.1
443.394	851.77
443.769	877.76
444.143	856.29
444.518	856.07
444.892	860.81
445.267	887.48
445.641	905.1
446.016	896.29
446.39	906.46
446.764	874.6
447.139	923.63
447.513	914.37
447.887	905.78
448.262	920.47
448.636	941.49
449.01	943.75
449.384	935.16
449.758	955.95
450.132	958.89
450.506	955.5
450.88	974.93
451.254	967.47
451.628	984.42
452.002	1004.08
452.376	995.27
452.75	1010.19
453.123	1018.77
453.497	1028.94
453.871	1055.38
454.244	1048.15
454.618	1055.61
454.992	1032.78
455.365	1059
455.739	1095.15
456.112	1101.71
456.486	1111.65
456.859	1130.18
457.232	1130.18
457.606	1133.57
457.979	1110.3
458.352	1155.27
458.725	1175.38
459.099	1177.19
459.472	1196.17
459.845	1220.12
460.218	1222.61
460.591	1223.96
460.964	1288.82
461.337	1286.34
461.71	1304.87
462.083	1303.28
462.456	1321.36
462.829	1307.35
463.201	1355.26
463.574	1351.65
463.947	1361.81
464.32	1396.62
464.692	1420.57
465.065	1410.17
465.438	1484.98
465.81	1488.82
466.183	1509.38
466.555	1527.69
466.928	1518.65
467.3	1512.09
467.672	1552.09
468.045	1547.35
468.417	1591.86
468.789	1596.38
469.161	1619.21
469.534	1659.43
469.906	1692.88
470.278	1705.08
470.65	1744.63
471.022	1803.38
471.394	1800.45
471.766	1835.25
472.138	1891.97
472.51	1921.8
472.882	1964.28
473.253	1973.55
473.625	2009.03
473.997	2076.6
474.369	2073.66
474.74	2129.25
475.112	2148.01
475.484	2221.23
475.855	2257.38
476.227	2317.27
476.598	2386.42
476.97	2421.45
477.341	2456.7
477.713	2563.14
478.084	2554.1
478.455	2620.76
478.827	2690.14
479.198	2781.89
479.569	2775.79
479.94	2883.13
480.311	2969.68
480.682	3057.14
481.053	3164.7
481.424	3191.37
481.795	3257.58
482.166	3356.79
482.537	3434.53
482.908	3496.22
483.279	3583.45
483.65	3665.93
484.021	3773.05
484.391	3867.51
484.762	3940.73
485.133	4020.95
485.503	4102.53
485.874	4245.13
486.244	4275.64
486.615	4412.81
486.985	4519.47
487.356	4606.25
487.726	4697.09
488.097	4845.34
488.467	4957.2
488.837	5057.99
489.207	5201.49
489.578	5307.93
489.948	5332.33
490.318	5540.46
490.688	5609.61
491.058	5717.63
491.428	5801.02
491.798	5952.2
492.168	6135.47
492.538	6188.81
492.908	6358.52
493.278	6404.85
493.648	6511.74
494.017	6668.79
494.387	6754.22
494.757	6840.54
495.126	6962.8
495.496	7092.74
495.866	7160.76
496.235	7304.94
496.605	7376.12
496.974	7489.56
497.344	7602.78
497.713	7721.65
498.082	7844.13
498.452	8000.06
498.821	8057.23
499.19	8084.35
499.559	8258.81
499.928	8291.12
500.298	8425.58
500.667	8520.72
501.036	8544.68
501.405	8664.9
501.774	8753.71
502.143	8859.47
502.512	8891.79
502.88	9042.06
503.249	9150.08
503.618	9200.03
503.987	9289.74
504.356	9364.54
504.724	9435.5
505.093	9542.84
505.462	9620.35
505.83	9702.39
506.199	9809.05
506.567	9935.83
506.936	9946.45
507.304	10076.16
507.672	10129.49
508.041	10216.27
508.409	10316.38
508.777	10439.54
509.145	10540.56
509.514	10554.79
509.882	10668.24
510.25	10764.05
510.618	10821.23
510.986	10869.59
511.354	10969.47
511.722	11058.96
512.09	11256.02
512.458	11126.53
512.826	11281.33
513.193	11356.81
513.561	11428.22
513.929	11548.67
514.297	11610.36
514.664	11741.88
515.032	11779.85
515.4	11900.97
515.767	12001.99
516.135	12081.31
516.502	11993.4
516.869	12175.77
517.237	12229.78
517.604	12202.21
517.972	12394.07
518.339	12508.19
518.706	12466.61
519.073	12602.2
519.44	12678.13
519.808	12774.17
520.175	12871.79
520.542	13008.97
520.909	13087.83
521.276	13004.67
521.643	13216.42
522.009	13284.21
522.376	13329.18
522.743	13410.09
523.11	13556.75
523.477	13673.58
523.843	13763.3
524.21	13921.71
524.577	14065.21
524.943	14069.28
525.31	14095.94
525.676	14275.15
526.043	14330.74
526.409	14444.63
526.776	14502.94
527.142	14573.22
527.508	14697.74
527.874	14760.33
528.241	14818.18
528.607	14907.45
528.973	15054.79
529.339	15029.48
529.705	15296.14
530.071	15325.29
530.437	15388.34
530.803	15486.19
531.169	15552.85
531.535	15568.67
531.901	15647.09
532.267	15682.79
532.632	15854.09
532.998	15880.98
533.364	15979.74
533.73	16071.94
534.095	16114.87
534.461	16168.66
534.826	16203.68
535.192	16320.52
535.557	16511.02
535.923	16515.77
536.288	16548.53
536.653	16708.08
537.019	16710.11
537.384	16762.54
537.749	16833.72
538.114	16865.14
538.479	16848.64
538.845	17082.53
539.21	17116.88
539.575	17158.24
539.94	17219.25
540.305	17252.47
540.67	17263.32
541.034	17379.47
541.399	17518
541.764	17535.17
542.129	17602.74
542.494	17598
542.858	17671.44
543.223	17790.08
543.587	17878.89
543.952	17849.97
544.316	17892
544.681	17888.61
545.045	18088.38
545.41	18081.37
545.774	18265.55
546.138	18165.21
546.503	18398.2
546.867	18369.28
547.231	18495.6
547.595	18591.42
547.959	18602.94
548.324	18656.95
548.688	18702.83
549.052	18776.05
549.416	18790.51
549.779	18900.34
550.143	18915.03
550.507	19063.72
550.871	19173.32
551.235	19111.86
551.599	19162.93
551.962	19333.09
552.326	19397.95
552.689	19393.88
553.053	19407.89
553.417	19426.2
553.78	19762.46
554.143	19605.63
554.507	19697.83
554.87	19818.73
555.234	19999.74
555.597	19881.55
555.96	19989.35
556.323	20063.02
556.686	20152.73
557.05	20241.09
557.413	20385.04
557.776	20240.19
558.139	20517.02
558.502	20517.02
558.865	20529.9
559.228	20669.78
559.59	20706.39
559.953	20893.5
560.316	20912.71
560.679	21048.3
561.041	21119.49
561.404	21139.83
561.767	21306.15
562.129	21300.73
562.492	21573.94
562.854	21495.07
563.217	21593.37
563.579	21596.76
563.941	21784.33
564.304	21866.81
564.666	21929.18
565.028	21921.95
565.39	21972.35
565.753	22093.47
566.115	22215.5
566.477	22234.71
566.839	22320.59
567.201	22510.86
567.563	22475.16
567.925	22726.68
568.287	22713.57
568.648	22776.84
569.01	22944.75
569.372	23116.27
569.734	23001.47
570.095	23218.64
570.457	23264.97
570.819	23344.29
571.18	23340.45
571.542	23484.17
571.903	23628.57
572.265	23649.82
572.626	23808.23
572.987	23727.33
573.349	24012.97
573.71	24185.17
574.071	24118.28
574.432	24329.35
574.794	24647.98
575.155	24464.03
575.516	24398.72
575.877	24628.1
576.238	24714.42
576.599	24898.82
576.96	25012.27
577.32	25044.58
577.681	25163
578.042	25420.16
578.403	25604.57
578.763	25530.22
579.124	25734.96
579.485	25905.58
579.845	26067.83
580.206	26166.59
580.566	26292.46
580.927	26372.68
581.287	26623.07
581.648	26650.42
582.008	26890.86
582.368	26915.27
582.728	27119.1
583.089	27240.68
583.449	27402.71
583.809	27579.2
584.169	27776.26
584.529	27908.01
584.889	28203.82
585.249	28100.55
585.609	28195.46
585.969	28579.18
586.329	28684.71
586.688	28901.88
587.048	29093.06
587.408	29203.12
587.768	29384.58
588.127	29542.54
588.487	29698.02
588.846	30040.83
589.206	30003.55
589.565	30212.36
589.925	30573.7
590.284	30664.09
590.643	30747.03
591.003	31074.71
591.362	31302.72
591.721	31464.75
592.08	31479.67
592.44	31929.37
592.799	32013.44
593.158	32077.39
593.517	32240.78
593.876	32600.77
594.235	32583.59
594.593	32746.07
594.952	33039.85
595.311	33080.08
595.67	33232.84
596.029	33684.58
596.387	33806.84
596.746	33968.19
597.104	34005.25
597.463	34213.15
597.822	34459.93
598.18	34364.79
598.538	34632.58
598.897	35028.27
599.255	34721.16
599.613	35484.53
599.972	35347.14
600.33	35621.25
600.688	35592.55
601.046	36009.04
601.404	36180.56
601.762	36141.01
602.12	36473.89
602.478	36514.11
602.836	36671.17
603.194	36680.66
603.552	36844.95
603.91	36901.67
604.268	37213.75
604.625	37065.51
604.983	37374.88
605.341	37369.23
605.698	37516.12
606.056	37838.6
606.413	37757.92
606.771	37999.5
607.128	38196.55
607.485	37981.19
607.843	38241.3
608.2	38608.74
608.557	38806.48
608.914	38763.77
609.272	38966.25
609.629	39021.39
609.986	39356.75
610.343	39130.09
610.7	39666.57
611.057	39437.2
611.414	39525.56
611.771	39676.97
612.127	39941.59
612.484	39814.81
612.841	40188.59
613.198	40161.02
613.554	40115.82
613.911	40526.21
614.267	40328.7
614.624	40499.77
614.98	40688.46
615.337	40915.35
615.693	40906.76
616.05	40904.5
616.406	41215
616.762	40966.87
617.118	41135.01
617.475	41108.57
617.831	41400.31
618.187	41455.68
618.543	41480.53
618.899	41721.21
619.255	41791.26
619.611	41731.15
619.967	41978.83
620.323	41863.12
620.678	41860.41
621.034	42064.47
621.39	41985.61
621.746	42095.88
622.101	42425.82
622.457	42206.84
622.812	42342.21
623.168	42417.68
623.523	42515.08
623.879	42580.84
624.234	42384.24
624.589	42459.72
624.945	42541.97
625.3	42645.25
625.655	42613.84
626.01	42673.27
626.365	42735.42
626.72	42723.21
627.075	42751.46
627.43	42742.87
627.785	42687.51
628.14	42863.77
628.495	42921.63
628.85	42840.5
629.205	42739.94
629.559	43012.47
629.914	42849.54
630.269	42807.96
630.623	42738.58
630.978	42688.41
631.332	42931.57
631.687	42993.94
632.041	42780.16
632.396	42968.4
632.75	42697
633.104	42907.39
633.459	42719.6
633.813	42696.32
634.167	42716.21
634.521	42810.89
634.875	42878.24
635.229	42749.2
635.583	42758.01
635.937	42717.56
636.291	42624.91
636.645	42831.01
636.999	42667.17
637.352	42685.7
637.706	42545.14
638.06	42616.32
638.413	42619.26
638.767	42530.45
639.121	42525.48
639.474	42490.45
639.828	42353.05
640.181	42356.89
640.534	42449.32
640.888	42323.9
641.241	42286.84
641.594	42303.11
641.947	42407.74
642.301	42212.94
642.654	42277.8
643.007	42332.26
643.36	42421.75
643.713	42262.43
644.066	42476.44
644.419	41995.32
644.771	41814.08
645.124	41425.39
645.477	41534.32
645.83	41246.42
646.182	41191.95
646.535	40891.62
646.888	41039.64
647.24	40862.92
647.593	41113.54
647.945	40998.96
648.298	40746.77
648.65	40651.18
649.002	40658.18
649.355	40825.64
649.707	40750.61
650.059	40939.98
650.411	41256.58
650.763	41358.73
651.115	41857.25
651.467	41751.49
651.819	41614.54
652.171	41616.12
652.523	41663.35
652.875	41579.51
653.227	41312.63
653.578	41667.87
653.93	41565.05
654.282	41389.91
654.633	41414.55
654.985	41367.77
655.337	41264.72
655.688	41399.86
656.039	41446.41
656.391	41231.27
656.742	41284.61
657.094	41242.35
657.445	41364.6
657.796	41324.15
658.147	41228.34
658.498	41132.07
658.849	41194.89
659.2	41262.46
659.551	41110.6
659.902	41277.15
660.253	41136.36
660.604	41138.85
660.955	40965.74
661.306	41118.74
661.656	41041.9
662.007	41137.72
662.358	40926.88
662.708	41129.36
663.059	41109.24
663.409	40690.05
663.76	40961.9
664.11	40989.02
664.461	41236.25
664.811	40954.45
665.161	41097.04
665.511	40918.29
665.862	41018.4
666.212	41073.31
666.562	41047.32
666.912	41103.59
667.262	41015.91
667.612	40931.62
667.962	40922.13
668.312	40898.85
668.662	41018.4
669.011	40979.98
669.361	40836.93
669.711	40886.65
670.06	40721.23
670.41	40728.46
670.76	40750.38
671.109	40991.28
671.459	40761.91
671.808	40704.73
672.157	40798.97
672.507	40547.22
672.856	40519.43
673.205	40728.01
673.554	40763.26
673.904	40606.88
674.253	40803.04
674.602	40609.6
674.951	40115.82
675.3	39861.37
675.649	40519.2
675.998	40537.06
676.346	40500.45
676.695	40670.39
677.044	40231.07
677.393	40345.2
677.741	40431.07
678.09	40324.18
678.438	40225.43
678.787	40341.13
679.135	40330.06
679.484	40000.57
679.832	40261.58
680.181	40041.25
680.529	40034.02
680.877	39943.17
681.225	39812.1
681.573	40247.12
681.922	39916.51
682.27	39848.26
682.618	39814.59
682.966	39653.24
683.314	39827.02
683.661	39663.41
684.009	39519.23
684.357	39489.63
684.705	39446.91
685.053	39316.97
685.4	39372.11
685.748	39125.57
686.095	39173.48
686.443	39037.89
686.79	39061.39
687.138	39113.14
687.485	39079.47
687.832	38813.71
688.18	39014.38
688.527	38729.42
688.874	38760.83
689.221	38683.77
689.568	38590.89
689.915	38611.23
690.262	38449.88
690.609	38464.57
690.956	38222.09
691.303	38267.06
691.65	38093.5
691.997	37965.15
692.344	37843.79
692.69	37725.6
693.037	37794.08
693.383	37362.45
693.73	37754.08
694.077	37422.79
694.423	37403.58
694.769	37177.37
695.116	37221.89
695.462	37178.95
695.808	36977.6
696.155	37096.02
696.501	36831.39
696.847	36851.5
697.193	36545.52
697.539	36741.9
697.885	36390.5
698.231	36315.92
698.577	36422.36
698.923	36287.45
699.269	36131.75
699.614	35967.01
699.96	35983.73
700.306	36042.71
700.651	35794.81
700.997	35667.13
701.342	35607.47
701.688	35440.47
702.033	35439.79
702.379	35437.08
702.724	35236.18
703.069	35417.19
703.415	34943.08
703.76	35067.14
704.105	34936.75
704.45	34930.42
704.795	34656.98
705.14	34674.61
705.485	34588.74
705.83	34469.42
706.175	34639.81
706.52	34381.29
706.865	34251.8
707.209	34187.62
707.554	34073.95
707.899	34215.41
708.243	33979.94
708.588	34027.17
708.932	33730.91
709.277	33781.98
709.621	33711.47
709.966	33604.81
710.31	33655.43
710.654	33325.04
710.998	33482.78
711.342	33457.02
711.687	33276.68
712.031	33112.62
712.375	32963.24
712.719	33200.3
713.063	33122.11
713.407	33183.12
713.75	32961.66
714.094	32788.11
714.438	32798.73
714.782	32860.2
715.125	32600.99
715.469	32748.56
715.812	32516.7
716.156	32320.1
716.499	32273.77
716.843	32464.95
717.186	32264.05
717.53	32469.47
717.873	32367.78
718.216	32249.82
718.559	32047.79
718.902	31837.62
719.246	32090.72
719.589	31849.37
719.932	31776.38
720.275	31778.87
720.617	31650.51
720.96	31637.63
721.303	31639.21
721.646	31561.02
721.989	31388.6
722.331	31565.31
722.674	31361.25
723.016	31484.19
723.359	31357.18
723.701	31446.9
724.044	31230.41
724.386	31060.47
724.729	31160.58
725.071	31016.85
725.413	31063.41
725.755	30981.37
726.097	30848.27
726.439	30643.08
726.782	30610.99
727.124	30875.84
727.465	30600.82
727.807	30623.64
728.149	30619.12
728.491	30339.81
728.833	30563.53
729.175	30376.87
729.516	30338.45
729.858	30373.03
730.199	30360.6
730.541	30181.85
730.882	30242.41
731.224	30315.18
731.565	30098.23
731.906	30095.97
732.248	30104.56
732.589	29921.97
732.93	29905.24
733.271	29832.48
733.612	29913.15
733.953	29885.58
734.294	29795.87
734.635	29796.1
734.976	29757
735.317	29571.47
735.658	29619.83
735.999	29586.61
736.339	29514.97
736.68	29631.58
737.021	29399.27
737.361	29417.12
737.702	29518.14
738.042	29364.24
738.383	29364.02
738.723	29273.85
739.063	29270.91
739.404	29290.8
739.744	29278.14
740.084	28987.08
740.424	29117.69
740.764	29004.7
741.104	29083.12
741.444	28892.84
741.784	28868.21
742.124	28879.96
742.464	28853.52
742.804	28731.49
743.143	28759.29
743.483	28720.87
743.823	28577.6
744.162	28582.12
744.502	28510.93
744.841	28469.35
745.181	28460.99
745.52	28402.46
745.86	28511.84
746.199	28299.86
746.538	28263.71
746.877	28502.12
747.216	28296.25
747.556	28182.13
747.895	28105.74
748.234	28051.51
748.573	27994.33
748.911	27879.54
749.25	27847.67
749.589	27815.36
749.928	27877.5
750.267	27811.29
750.605	27760.44
750.944	27596.6
751.283	27574.91
751.621	27734.68
751.96	27573.1
752.298	27533.78
752.636	27474.8
752.975	27481.58
753.313	27182.83
753.651	27408.14
753.989	27271.42
754.327	27169.95
754.666	27019.22
755.004	27021.7
755.342	27055.83
755.679	26985.55
756.017	26813.8
756.355	26949.39
756.693	26837.08
757.031	26905.78
757.368	26664.2
757.706	26542.17
758.044	26469.85
758.381	26573.35
758.719	26365.68
759.056	26472.34
759.394	26351.67
759.731	26137.89
760.068	26165.91
760.405	25949.19
760.743	25930.66
761.08	26084.33
761.417	25806.14
761.754	25791.91
762.091	25804.11
762.428	25655.86
762.765	25445.7
763.102	25594.4
763.438	25402.99
763.775	25286.16
764.112	25308.3
764.449	25233.28
764.785	25119.61
765.122	25039.38
765.458	24924.58
765.795	24839.39
766.131	24725.27
766.467	24720.3
766.804	24601.43
767.14	24429.91
767.476	24502.22
767.812	24258.39
768.148	24488.89
768.485	24254.32
768.821	24173.42
769.157	24082.35
769.492	24080.99
769.828	24027.89
770.164	23884.84
770.5	23750.15
770.836	23805.07
771.171	23593.32
771.507	23621.34
771.842	23404.62
772.178	23391.97
772.513	23335.7
772.849	23230.84
773.184	23129.6
773.519	23133.22
773.855	22982.26
774.19	22925.99
774.525	22766.45
774.86	22775.94
775.195	22788.82
775.53	22681.03
775.865	22564.42
776.2	22396.52
776.535	22281.94
776.87	22334.82
777.205	22231.55
777.539	22128.5
777.874	22101.38
778.209	21879.92
778.543	21863.65
778.878	21826.14
779.212	21827.94
779.547	21606.25
779.881	21606.03
780.215	21420.95
780.55	21495.52
780.884	21303.21
781.218	21304.11
781.552	21318.35
781.886	21130.79
782.22	21051.24
782.554	20944.58
782.888	20748.65
783.222	20783.45
783.556	20620.74
783.889	20617.58
784.223	20444.93
784.557	20378.94
784.89	20446.51
785.224	20294.2
785.557	20290.81
785.891	20176.46
786.224	20031.38
786.558	20077.48
786.891	20029.35
787.224	19834.32
787.557	19751.39
787.891	19764.72
788.224	19719.07
788.557	19662.8
788.89	19619.64
789.223	19583.71
789.556	19397.95
789.888	19380.55
790.221	19316.6
790.554	19176.04
790.887	19191.4
791.219	19077.28
791.552	19088.13
791.884	19018.07
792.217	18836.61
792.549	18844.74
792.882	18633
793.214	18617.86
793.546	18683.39
793.879	18602.27
794.211	18477.3
794.543	18497.86
794.875	18532.44
795.207	18569.5
795.539	18474.81
795.871	18248.38
796.203	18105.1
796.535	18040.25
796.867	18032.79
797.198	17890.42
797.53	17847.03
797.862	17856.97
798.193	17865.79
798.525	17683.65
798.856	17727.03
799.188	17579.69
799.519	17502.86
799.85	17429.64
800.182	17486.36
800.513	17395.52
800.844	17220.15
801.175	17353.94
801.506	17339.93
801.837	17191
802.168	17165.69
802.499	17151
802.83	17016.77
803.161	17001.18
803.491	17015.64
803.822	16819.94
804.153	16755.53
804.483	16684.58
804.814	16600.74
805.145	16640.73
805.475	16649.55
805.805	16630.57
806.136	16483.68
806.466	16430.57
806.796	16456.78
807.126	16359.16
807.457	16285.26
807.787	16372.49
808.117	16299.27
808.447	16208.66
808.777	16293.17
809.107	16088.21
809.436	16141.54
809.766	16131.37
810.096	16056.12
810.426	15938.38
810.755	15880.75
811.085	15840.98
811.414	15876.24
811.744	15735.22
812.073	15730.48
812.403	15760.31
812.732	15593.76
813.061	15652.74
813.39	15567.09
813.719	15435.12
814.049	15572.97
814.378	15481.67
814.707	15411.16
815.036	15425.63
815.365	15287.32
815.693	15183.82
816.022	15208.68
816.351	15198.51
816.68	15085.75
817.008	15036.26
817.337	15020.44
817.665	14937.5
817.994	14948.8
818.322	14922.81
818.651	14949.71
818.979	14845.08
819.307	14838.97
819.636	14817.28
819.964	14723.95
820.292	14890.72
820.62	14758.98
820.948	14727.56
821.276	14776.15
821.604	14661.13
821.932	14769.6
822.259	14718.53
822.587	14682.37
822.915	14647.11
823.243	14702.71
823.57	14671.75
823.898	14644.4
824.225	14567.34
824.553	14625.87
824.88	14628.13
825.207	14682.59
825.535	14628.13
825.862	14649.37
826.189	14619.77
826.516	14614.8
826.843	14610.05
827.17	14604.18
827.497	14609.38
827.824	14620
828.151	14642.6
828.478	14614.35
828.805	14614.8
829.131	14570.73
829.458	14517.63
829.785	14475.37
830.111	14511.98
830.438	14549.94
830.764	14687.11
831.09	14576.61
831.417	14514.01
831.743	14590.39
832.069	14483.05
832.395	14478.98
832.722	14524.18
833.048	14517.4
833.374	14459.55
833.7	14445.31
834.026	14436.05
834.351	14502.71
834.677	14469.49
835.003	14469.04
835.329	14385.43
835.654	14337.52
835.98	14270.85
836.306	14270.18
836.631	14265.66
836.956	14370.29
837.282	14225.43
837.607	14229.27
837.932	14220.69
838.258	14236.28
838.583	14205.77
838.908	14162.61
839.233	14129.61
839.558	14156.05
839.883	14054.36
840.208	13952.9
840.533	14066.79
840.858	13937.75
841.182	13951.09
841.507	13978.88
841.832	13885.78
842.156	13867.93
842.481	13808.04
842.805	13819.57
843.13	13792.67
843.454	13770.75
843.778	13736.86
844.103	13614.37
844.427	13711.55
844.751	13661.15
845.075	13619.8
845.399	13530.76
845.723	13441.27
846.047	13569.86
846.371	13371.22
846.695	13425
847.019	13300.48
847.343	13207.15
847.666	13133.71
847.99	13157.89
848.313	13145.69
848.637	13021.62
848.96	13047.16
849.284	12951.79
849.607	12898.91
849.931	12826.37
850.254	12752.7
850.577	12751.8
850.9	12549.09
851.223	12578.69
851.546	12551.35
851.869	12419.15
852.192	12474.97
852.515	12403.56
852.838	12336.89
853.161	12380.28
853.483	12278.36
853.806	12236.78
854.129	12256.67
854.451	12150.91
854.774	12118.59
855.096	12100.52
855.419	11972.83
855.741	12033.85
856.063	11910.92
856.385	11947.52
856.708	11821.2
857.03	11933.29
857.352	11867.3
857.674	11778.26
857.996	11718.6
858.318	11669.11
858.64	11655.33
858.961	11660.75
859.283	11560.42
859.605	11573.75
859.926	11533.52
860.248	11436.58
860.57	11432.28
860.891	11489.01
861.212	11405.39
861.534	11406.97
861.855	11382.79
862.176	11465.5
862.498	11388.44
862.819	11266.64
863.14	11262.57
863.461	11228.9
863.782	11229.13
864.103	11224.15
864.424	11203.36
864.745	11233.87
865.065	11162.46
865.386	11119.75
865.707	11128.56
866.027	11124.04
866.348	11025.29
866.668	11089.02
866.989	11064.61
867.309	10963.14
867.63	10962.24
867.95	10944.39
868.27	10844.28
868.59	11000.66
868.91	10912.98
869.23	10924.27
869.55	10814.45
869.87	10895.35
870.19	10861
870.51	10825.75
870.83	10849.7
871.15	10737.16
871.469	10773.54
871.789	10771.74
872.109	10733.32
872.428	10675.69
872.748	10757.05
873.067	10679.76
873.386	10721.34
873.706	10657.39
874.025	10576.49
874.344	10515.92
874.663	10575.13
874.982	10565.87
875.301	10550.95
875.62	10485.87
875.939	10561.12
876.258	10510.73
876.577	10468.24
876.896	10450.62
877.214	10442.93
877.533	10419.43
877.852	10449.26
878.17	10414.91
878.489	10340.11
878.807	10397.96
879.125	10424.18
879.444	10408.81
879.762	10333.33
880.08	10245.65
880.398	10274.8
880.716	10317.06
881.034	10232.54
881.352	10313.9
881.67	10174.92
881.988	10270.96
882.306	10202.71
882.624	10167.91
882.941	10106.44
883.259	10028.03
883.577	10095.82
883.894	10017.86
884.212	10052.43
884.529	10021.7
884.846	9947.58
885.164	9972.89
885.481	9905.32
885.798	9905.32
886.115	9823.96
886.432	9863.06
886.75	9738.32
887.067	9826
887.383	9734.02
887.7	9756.85
888.017	9686.79
888.334	9734.93
888.651	9706.91
888.967	9664.2
889.284	9643.86
889.6	9612.9
889.917	9488.38
890.233	9555.95
890.55	9510.75
890.866	9518.21
891.182	9453.58
891.498	9406.12
891.815	9361.15
892.131	9351.89
892.447	9345.79
892.763	9301.49
893.079	9274.83
893.395	9228.27
893.71	9238.67
894.026	9240.03
894.342	9204.32
894.657	9080.71
894.973	9092.46
895.289	9166.58
895.604	9089.07
895.92	9018.79
896.235	8945.8
896.55	8982.18
896.865	9045.91
897.181	8934.04
897.496	8897.66
897.811	8862.86
898.126	8835.97
898.441	8740.6
898.756	8727.04
899.071	8750.32
899.386	8751.9
899.7	8711.9
900.015	8736.54
900.33	8600.72
900.644	8602.08
900.959	8572.7
901.273	8543.32
901.588	8434.17
901.902	8435.98
902.216	8424.23
902.531	8409.76
902.845	8433.94
903.159	8365.47
903.473	8292.25
903.787	8344.46
904.101	8225.14
904.415	8226.94
904.729	8162.31
905.042	8142.43
905.356	8117.34
905.67	8106.04
905.984	8022.88
906.297	8070.11
906.611	7994.41
906.924	7988.98
907.237	7972.26
907.551	7908.31
907.864	7914.41
908.177	7867.63
908.491	7816.33
908.804	7791.48
909.117	7791.48
909.43	7696.79
909.743	7667.64
910.056	7653.4
910.368	7674.64
910.681	7598.26
910.994	7561.88
911.307	7480.52
911.619	7486.17
911.932	7453.63
912.244	7395.55
912.557	7384.25
912.869	7335.44
913.181	7356.69
913.494	7364.14
913.806	7320.75
914.118	7232.85
914.43	7240.08
914.742	7254.77
915.054	7176.35
915.366	7174.09
915.678	7040.54
915.99	7156.92
916.302	7051.61
916.613	7062.68
916.925	7015
917.236	7001.67
917.548	6998.28
917.859	6950.82
918.171	6894.78
918.482	6892.29
918.794	6856.36
919.105	6819.07
919.416	6769.58
919.727	6795.34
920.038	6777.49
920.349	6698.17
920.66	6613.65
920.971	6619.3
921.282	6609.13
921.593	6562.81
921.903	6570.49
922.214	6527.55
922.525	6522.58
922.835	6476.48
923.146	6454.79
923.456	6391.51
923.767	6388.8
924.077	6366.88
924.387	6328.01
924.697	6303.83
925.008	6271.97
925.318	6247.56
925.628	6273.1
925.938	6229.48
926.248	6176.6
926.558	6112.65
926.867	6132.08
927.177	6060.22
927.487	6122.59
927.796	6022.26
928.106	6006.44
928.416	6011.64
928.725	6000.56
929.034	5959.21
929.344	5926.89
929.653	5925.54
929.962	5852.77
930.271	5792.21
930.581	5842.37
930.89	5800.57
931.199	5794.69
931.508	5728.93
931.817	5712.66
932.125	5698.2
932.434	5680.57
932.743	5621.36
933.051	5567.13
933.36	5568.48
933.669	5598.09
933.977	5548.37
934.286	5526.45
934.594	5497.07
934.902	5482.61
935.21	5465.21
935.519	5523.74
935.827	5479.67
936.135	5383.86
936.443	5285.55
936.751	5327.36
937.059	5305.44
937.367	5285.55
937.674	5270.41
937.982	5229.74
938.29	5180.25
938.597	5266.8
938.905	5181.38
939.213	5150.42
939.52	5113.35
939.827	5121.04
940.135	5096.63
940.442	5080.13
940.749	5071.1
941.056	5043.3
941.363	4989.29
941.67	5001.04
941.977	4917.43
942.284	4904.09
942.591	4924.21
942.898	4891.44
943.205	4890.08
943.511	4867.94
943.818	4852.8
944.125	4785.68
944.431	4816.41
944.738	4751.56
945.044	4761.27
945.35	4702.52
945.657	4696.19
945.963	4650.99
946.269	4648.96
946.575	4690.99
946.881	4665
947.187	4607.83
947.493	4575.29
947.799	4601.73
948.105	4584.1
948.41	4537.1
948.716	4541.84
949.022	4513.37
949.327	4481.51
949.633	4449.19
949.938	4461.62
950.244	4410.32
950.549	4389.98
950.854	4364.45
951.16	4365.35
951.465	4288.07
951.77	4281.74
952.075	4284
952.38	4317.67
952.685	4276.77
952.99	4276.09
953.294	4221.85
953.599	4191.34
953.904	4167.84
954.209	4170.1
954.513	4150.22
954.818	4072.7
955.122	4102.08
955.426	4076.77
955.731	4078.58
956.035	4019.6
956.339	4058.47
956.643	3983.67
956.948	3989.54
957.252	3996.55
957.556	3988.41
957.86	3964.23
958.163	3971.46
958.467	3895.76
958.771	3866.83
959.075	3952.03
959.378	3826.16
959.682	3858.47
959.985	3825.25
960.289	3811.69
960.592	3830.45
960.896	3754.52
961.199	3761.98
961.502	3745.93
961.805	3752.71
962.108	3694.41
962.411	3719.49
962.714	3722.43
963.017	3661.87
963.32	3664.35
963.623	3631.13
963.926	3602.43
964.228	3637.91
964.531	3593.85
964.833	3590
965.136	3530.57
965.438	3555.2
965.741	3526.05
966.043	3552.72
966.345	3512.27
966.648	3530.8
966.95	3512.94
967.252	3464.13
967.554	3418.71
967.856	3428.88
968.158	3433.85
968.46	3369.67
968.761	3381.65
969.063	3379.84
969.365	3371.93
969.666	3329.45
969.968	3339.84
970.269	3346.17
970.571	3289.9
970.872	3296.68
971.174	3276.34
971.475	3274.98
971.776	3243.8
972.077	3262.33
972.378	3161.09
972.679	3216
972.98	3205.16
973.281	3166.96
973.582	3183.01
973.883	3183.69
974.183	3143.24
974.484	3108.89
974.785	3109.79
975.085	3086.51
975.386	3108.66
975.686	3073.41
975.986	3069.11
976.287	3024.14
976.587	3008.78
976.887	3021.21
977.187	3012.84
977.487	2987.08
977.787	2971.72
978.087	2977.82
978.387	2951.15
978.687	2940.3
978.987	2928.1
979.286	2863.7
979.586	2867.76
979.885	2867.54
980.185	2888.78
980.484	2841.1
980.784	2863.7
981.083	2859.85
981.382	2832.51
981.682	2786.41
981.981	2812.17
982.28	2763.36
982.579	2778.27
982.878	2735.11
983.177	2744.15
983.475	2718.84
983.774	2719.29
984.073	2691.72
984.372	2700.99
984.67	2663.48
984.969	2679.75
985.267	2705.96
985.566	2653.76
985.864	2645.4
986.162	2628.67
986.461	2587.77
986.759	2611.05
987.057	2566.53
987.355	2585.29
987.653	2572.86
987.951	2543.93
988.249	2566.08
988.547	2503.03
988.844	2483.37
989.142	2552.07
989.44	2484.5
989.737	2489.47
990.035	2474.1
990.332	2436.36
990.63	2472.97
990.927	2425.29
991.224	2426.65
991.521	2413.99
991.819	2415.57
992.116	2400.88
992.413	2392.52
992.71	2342.35
993.006	2352.3
993.303	2338.74
993.6	2367.44
993.897	2362.47
994.193	2327.66
994.49	2297.61
994.787	2321.34
995.083	2305.07
995.379	2287.67
995.676	2279.08
995.972	2270.04
996.268	2245.41
996.565	2254.9
996.861	2194.79
997.157	2243.15
997.453	2191.85
997.749	2192.08
998.044	2218.74
998.34	2199.76
998.636	2148.91
998.932	2158.63
999.227	2148.91
999.523	2115.24
999.818	2137.61
1000.114	2060.1
1000.409	2093.09
1000.704	2063.26
1001	2067.78
1001.295	2057.62
1001.59	2044.06
1001.885	2031.4
1002.18	2048.8
1002.475	2033.44
1002.77	1988.69
1003.065	1998.63
1003.359	2007.22
1003.654	1965.41
1003.949	1947.11
1004.243	1966.77
1004.538	1940.56
1004.832	1917.28
1005.127	1915.92
1005.421	1927.45
1005.715	1891.52
1006.009	1887
1006.304	1889.26
1006.598	1852.2
1006.892	1841.12
1007.186	1849.49
1007.48	1841.58
1007.773	1840.9
1008.067	1826.89
1008.361	1803.84
1008.655	1777.17
1008.948	1773.1
1009.242	1788.02
1009.535	1767.45
1009.829	1745.31
1010.122	1740.11
1010.415	1729.49
1010.708	1753.22
1011.001	1707.34
1011.295	1735.82
1011.588	1706.66
1011.881	1678.87
1012.173	1663.95
1012.466	1689.26
1012.759	1649.72
1013.052	1658.98
1013.344	1626.21
1013.637	1643.16
1013.93	1628.47
1014.222	1611.3
1014.514	1592.99
1014.807	1611.3
1015.099	1590.74
1015.391	1571.3
1015.683	1566.78
1015.976	1574.69
1016.268	1587.35
1016.56	1555.48
1016.851	1509.83
1017.143	1523.62
1017.435	1507.35
1017.727	1495.82
1018.018	1494.47
1018.31	1485.43
1018.602	1492.66
1018.893	1489.72
1019.185	1450.4
1019.476	1425.32
1019.767	1455.37
1020.058	1426.9
1020.35	1420.57
1020.641	1410.4
1020.932	1415.37
1021.223	1408.14
1021.514	1400.68
1021.804	1359.33
1022.095	1343.28
1022.386	1355.03
1022.677	1367.24
1022.967	1344.87
1023.258	1324.75
1023.548	1343.06
1023.839	1313.91
1024.129	1335.83
1024.419	1297.64
1024.709	1285.88
1025	1294.25
1025.29	1261.93
1025.58	1223.96
1025.87	1237.75
1026.16	1233.23
1026.449	1268.48
1026.739	1237.98
1027.029	1232.1
1027.319	1211.76
1027.608	1190.52
1027.898	1205.89
1028.187	1197.53
1028.477	1209.5
1028.766	1199.78
1029.055	1175.15
1029.344	1139
1029.634	1153.23
1029.923	1155.27
1030.212	1138.09
1030.501	1143.97
1030.79	1140.8
1031.078	1104.42
1031.367	1106.68
1031.656	1094.93
1031.945	1114.36
1032.233	1077.75
1032.522	1069.84
1032.81	1070.3
1033.099	1063.07
1033.387	1054.48
1033.675	1044.99
1033.963	1037.98
1034.251	1028.49
1034.54	1020.58
1034.828	1021.26
1035.116	1014.7
1035.403	1002.5
1035.691	998.21
1035.979	1004.99
1036.267	991.88
1036.554	1004.08
1036.842	988.04
1037.129	964.31
1037.417	974.48
1037.704	1016.96
1037.992	977.19
1038.279	952.56
1038.566	929.51
1038.853	929.51
1039.14	929.51
