Data from hue_32_FLMS001491_00050.txt Node
Date: Tue Feb 07 17:23:27 GMT 2017
User: dcchb
Spectrometer: FLMS00149
Trigger mode: 0
Integration Time (sec): 2.000000E-2
Scans to average: 10
Electric dark correction enabled: true
Nonlinearity correction enabled: false
Boxcar width: 0
XAxis mode: Wavelengths
Number of Pixels in Spectrum: 2048
>>>>>Begin Spectral Data<<<<<
341.393	-4.79
341.776	-4.79
342.16	-4.79
342.543	-67.84
342.927	-38.23
343.31	-67.39
343.693	-87.05
344.077	-69.42
344.46	-35.07
344.843	-66.03
345.226	-35.97
345.61	-36.2
345.993	-47.95
346.376	-5.69
346.759	14.65
347.142	20.07
347.525	57.36
347.908	81.76
348.291	79.28
348.674	74.76
349.057	122.89
349.44	143
349.823	119.95
350.206	168.31
350.588	205.6
350.971	208.31
351.354	235.88
351.737	242.89
352.119	248.99
352.502	285.37
352.884	260.74
353.267	286.5
353.65	298.03
354.032	327.18
354.414	316.11
354.797	310.68
355.179	309.1
355.562	320.4
355.944	337.58
356.326	357.01
356.709	341.42
357.091	332.15
357.473	370.34
357.855	326.5
358.238	339.61
358.62	351.13
359.002	354.3
359.384	355.65
359.766	342.1
360.148	306.39
360.53	351.81
360.912	327.18
361.294	340.29
361.676	327.41
362.057	359.04
362.439	333.73
362.821	336.22
363.203	329.21
363.584	319.27
363.966	345.71
364.348	325.82
364.729	326.05
365.111	330.34
365.493	322.44
365.874	325.37
366.256	326.05
366.637	323.56
367.019	333.51
367.4	309.55
367.781	329.44
368.163	321.98
368.544	321.08
368.925	308.65
369.306	324.24
369.688	307.07
370.069	304.81
370.45	302.77
370.831	331.7
371.212	322.66
371.593	316.11
371.974	303.9
372.355	324.24
372.736	322.21
373.117	312.04
373.498	309.78
373.879	323.11
374.26	322.66
374.641	332.15
375.021	305.03
375.402	329.67
375.783	307.29
376.163	332.38
376.544	330.8
376.925	332.6
377.305	332.38
377.686	317.46
378.066	335.09
378.447	337.12
378.827	330.34
379.208	337.58
379.588	343.45
379.968	347.07
380.349	324.92
380.729	340.74
381.109	338.93
381.489	342.77
381.87	317.92
382.25	329.67
382.63	348.88
383.01	358.82
383.39	357.69
383.77	337.12
384.15	344.13
384.53	336.22
384.91	343.45
385.29	378.03
385.67	335.99
386.049	366.05
386.429	333.96
386.809	346.62
387.189	365.6
387.568	363.79
387.948	379.83
388.328	346.39
388.707	351.81
389.087	365.37
389.466	354.07
389.846	354.75
390.225	368.76
390.605	363.34
390.984	406.27
391.363	380.06
391.743	374.86
392.122	393.85
392.501	363.79
392.881	383.22
393.26	386.61
393.639	370.8
394.018	379.16
394.397	390.23
394.776	372.38
395.155	380.96
395.534	391.13
395.913	397.01
396.292	379.16
396.671	380.06
397.05	406.27
397.429	392.04
397.808	400.17
398.186	404.47
398.565	384.13
398.944	401.3
399.323	389.78
399.701	409.66
400.08	434.75
400.458	421.19
400.837	424.58
401.215	409.44
401.594	415.09
401.972	405.82
402.351	420.06
402.729	422.77
403.107	408.08
403.486	409.21
403.864	411.02
404.242	399.95
404.62	430
404.999	424.81
405.377	435.2
405.755	428.42
406.133	423.9
406.511	452.6
406.889	450.12
407.267	437.91
407.645	410.79
408.023	454.63
408.401	448.99
408.779	433.39
409.156	456.22
409.534	458.02
409.912	465.03
410.29	466.84
410.667	469.55
411.045	481.07
411.422	457.57
411.8	453.96
412.178	466.16
412.555	469.78
412.933	463
413.31	530.11
413.687	495.09
414.065	488.08
414.442	500.51
414.819	499.38
415.197	520.85
415.574	522.2
415.951	507.51
416.328	503.67
416.705	507.97
417.082	489.21
417.46	503.9
417.837	531.7
418.214	522.66
418.591	551.81
418.967	550.9
419.344	518.81
419.721	520.62
420.098	553.62
420.475	542.99
420.852	538.02
421.228	537.57
421.605	550.45
421.982	538.47
422.358	535.08
422.735	566.72
423.111	579.83
423.488	562.65
423.864	577.34
424.241	564.69
424.617	581.86
424.994	580.73
425.37	572.15
425.746	572.6
426.123	587.51
426.499	605.37
426.875	595.87
427.251	608.3
427.627	610.56
428.003	625.25
428.379	590
428.756	598.36
429.132	617.79
429.507	634.97
429.883	616.44
430.259	645.59
430.635	639.49
431.011	646.49
431.387	661.64
431.763	643.78
432.138	654.4
432.514	656.21
432.89	655.31
433.265	682.88
433.641	691.46
434.016	697.79
434.392	704.35
434.767	703.22
435.143	719.03
435.518	720.62
435.894	719.03
436.269	739.15
436.644	721.75
437.02	741.86
437.395	745.7
437.77	721.75
438.145	728.75
438.52	736.21
438.895	768.98
439.271	770.56
439.646	776.89
440.021	773.27
440.395	779.6
440.77	775.76
441.145	769.65
441.52	794.74
441.895	768.98
442.27	795.19
442.645	798.58
443.019	822.76
443.394	797.45
443.769	820.05
444.143	844
444.518	836.09
444.892	829.77
445.267	833.38
445.641	825.25
446.016	829.54
446.39	873.38
446.764	867.51
447.139	859.14
447.513	855.08
447.887	855.75
448.262	863.66
448.636	867.05
449.01	888.52
449.384	912.25
449.758	904.34
450.132	918.58
450.506	897.11
450.88	899.82
451.254	905.92
451.628	932.14
452.002	936.43
452.376	945.24
452.75	968.07
453.123	948.63
453.497	961.29
453.871	970.1
454.244	987.95
454.618	991.12
454.992	995.64
455.365	988.86
455.739	990.21
456.112	1048.74
456.486	1056.43
456.859	1061.17
457.232	1030.89
457.606	1061.62
457.979	1073.83
458.352	1094.62
458.725	1104.56
459.099	1111.11
459.472	1117.89
459.845	1113.15
460.218	1134.62
460.591	1173.03
460.964	1148.85
461.337	1163.09
461.71	1203.54
462.083	1200.38
462.456	1222.3
462.829	1229.08
463.201	1257.33
463.574	1249.87
463.947	1269.75
464.32	1255.97
464.692	1305.23
465.065	1313.14
465.438	1310.21
465.81	1334.16
466.183	1396.31
466.555	1398.11
466.928	1407.15
467.3	1413.25
467.672	1425.46
468.045	1458.22
468.417	1488.51
468.789	1491.22
469.161	1521.5
469.534	1547.26
469.906	1579.58
470.278	1554.94
470.65	1608.28
471.022	1636.98
471.394	1650.31
471.766	1683.76
472.138	1700.48
472.51	1720.36
472.882	1785.22
473.253	1812.11
473.625	1824.32
473.997	1864.09
474.369	1899.34
474.74	1891.43
475.112	1941.6
475.484	2005.33
475.855	2055.95
476.227	2068.83
476.598	2128.26
476.97	2181.14
477.341	2204.87
477.713	2273.57
478.084	2301.37
478.455	2337.3
478.827	2416.39
479.198	2454.81
479.569	2528.03
479.94	2608.48
480.311	2637.18
480.682	2711.98
481.053	2767.79
481.424	2823.16
481.795	2891.41
482.166	2975.25
482.537	3042.82
482.908	3077.84
483.279	3140.67
483.65	3251.4
484.021	3333.43
484.391	3362.58
484.762	3433.77
485.133	3495.23
485.503	3528.68
485.874	3666.75
486.244	3757.82
486.615	3844.6
486.985	3864.49
487.356	4020.64
487.726	4074.65
488.097	4209.79
488.467	4258.83
488.837	4366.62
489.207	4406.17
489.578	4573.4
489.948	4571.36
490.318	4699.72
490.688	4710.57
491.058	4888.87
491.428	4965.02
491.798	5064.23
492.168	5140.61
492.538	5153.04
492.908	5291.57
493.278	5421.51
493.648	5468.29
494.017	5529.76
494.387	5622.63
494.757	5746.47
495.126	5797.32
495.496	5908.5
495.866	5979.24
496.235	6036.64
496.605	6115.28
496.974	6195.73
497.344	6253.35
497.713	6373.35
498.082	6442.05
498.452	6542.61
498.821	6597.75
499.19	6586.45
499.559	6726.33
499.928	6783.51
500.298	6836.16
500.667	6944.63
501.036	6920.23
501.405	7057.4
501.774	7117.06
502.143	7197.28
502.512	7243.83
502.88	7227.79
503.249	7378.07
503.618	7450.61
503.987	7476.6
504.356	7532.41
504.724	7596.14
505.093	7613.54
505.462	7715.91
505.83	7777.61
506.199	7858.96
506.567	7965.62
506.936	7959.07
507.304	8126.75
507.672	8147.99
508.041	8243.13
508.409	8274.54
508.777	8341.66
509.145	8387.08
509.514	8374.43
509.882	8453.52
510.25	8465.5
510.618	8584.14
510.986	8593.4
511.354	8656.68
511.722	8873.4
512.09	8828.2
512.458	8819.61
512.826	8984.35
513.193	8991.59
513.561	8990.68
513.929	9109.32
514.297	9154.29
514.664	9155.42
515.032	9266.61
515.4	9286.95
515.767	9361.97
516.135	9415.3
516.502	9358.13
516.869	9507.96
517.237	9594.73
517.604	9569.2
517.972	9596.09
518.339	9700.49
518.706	9682.19
519.073	9774.16
519.44	9808.74
519.808	9892.35
520.175	9860.49
520.542	10016.87
520.909	10098.22
521.276	10063.42
521.643	10203.98
522.009	10333.25
522.376	10283.3
522.743	10265.9
523.11	10403.07
523.477	10490.98
523.843	10545.44
524.21	10659.34
524.577	10712.9
524.943	10766.91
525.31	10789.5
525.676	10866.79
526.043	10940.91
526.409	10995.15
526.776	11068.37
527.142	11149.72
527.508	11189.27
527.874	11306.1
528.241	11368.02
528.607	11348.36
528.973	11530.05
529.339	11464.29
529.705	11622.48
530.071	11697.05
530.437	11712.19
530.803	11747.22
531.169	11902.47
531.535	11823.83
531.901	11861.79
532.267	12009.81
532.632	12054.1
532.998	12008.91
533.364	12175.68
533.73	12238.28
534.095	12323.48
534.461	12281.44
534.826	12375
535.192	12447.31
535.557	12490.93
535.923	12458.16
536.288	12596.46
536.653	12629.46
537.019	12620.19
537.384	12735.67
537.749	12785.61
538.114	12802.78
538.479	12877.81
538.845	12908.32
539.21	12937.02
539.575	12929.56
539.94	13003.91
540.305	13166.62
540.67	13122.78
541.034	13198.71
541.399	13247.74
541.764	13273.28
542.129	13347.18
542.494	13434.41
542.858	13429.66
543.223	13480.96
543.587	13555.76
543.952	13608.41
544.316	13663.55
544.681	13759.6
545.045	13752.82
545.41	13805.92
545.774	13887.95
546.138	13922.98
546.503	13901.51
546.867	13909.2
547.231	14101.96
547.595	14105.35
547.959	14190.32
548.324	14213.6
548.688	14273.93
549.052	14316.64
549.416	14346.25
549.779	14369.07
550.143	14404.1
550.507	14532.23
550.871	14510.08
551.235	14449.52
551.599	14643.64
551.962	14635.05
552.326	14724.77
552.689	14771.32
553.053	14788.27
553.417	14786.24
553.78	14971.09
554.143	14982.16
554.507	15009.28
554.87	15011.77
555.234	15217.86
555.597	15080.47
555.96	15243.17
556.323	15240.01
556.686	15271.19
557.05	15411.08
557.413	15451.3
557.776	15435.48
558.139	15485.2
558.502	15589.15
558.865	15566.33
559.228	15677.29
559.59	15698.98
559.953	15755.02
560.316	15928.8
560.679	15869.82
561.041	16046.32
561.404	16041.8
561.767	16175.58
562.129	16136.71
562.492	16255.35
562.854	16222.58
563.217	16193.88
563.579	16330.83
563.941	16441.79
564.304	16475.68
564.666	16523.59
565.028	16627.77
565.39	16574.89
565.753	16749.35
566.115	16709.8
566.477	16874.32
566.839	16836.13
567.201	16992.28
567.563	17074.08
567.925	17124.48
568.287	17134.42
568.648	17164.48
569.01	17331.48
569.372	17418.03
569.734	17355.43
570.095	17491.25
570.457	17601.3
570.819	17596.56
571.18	17628.87
571.542	17822.09
571.903	17913.84
572.265	17952.48
572.626	17963.33
572.987	18091.69
573.349	18176.65
573.71	18314.05
574.071	18330.32
574.432	18427.5
574.794	18541.62
575.155	18537.1
575.516	18722.4
575.877	18792.01
576.238	18897.09
576.599	19027.03
576.96	19107.93
577.32	19079.23
577.681	19337.3
578.042	19392.44
578.403	19520.35
578.763	19667.69
579.124	19795.14
579.485	19957.85
579.845	20095.47
580.206	20171.86
580.566	20369.14
580.927	20540.89
581.287	20810.03
581.648	20942.46
582.008	21176.58
582.368	21271.49
582.728	21541.54
583.089	21657.24
583.449	21816.79
583.809	22101.75
584.169	22258.36
584.529	22442.98
584.889	22767.95
585.249	22853.82
585.609	23016.75
585.969	23369.74
586.329	23590.07
586.688	23843.62
587.048	23998.65
587.408	24196.61
587.768	24429.6
588.127	24722.47
588.487	24850.6
588.846	25328.56
589.206	25309.35
589.565	25604.71
589.925	25932.84
590.284	26194.75
590.643	26339.6
591.003	26699.82
591.362	27087.16
591.721	27286.92
592.08	27371.22
592.44	27790.41
592.799	27988.6
593.158	28235.6
593.517	28526.67
593.876	28862.93
594.235	29057.05
594.593	29295.46
594.952	29654.32
595.311	29719.63
595.67	30105.83
596.029	30443.9
596.387	30802.54
596.746	31094.06
597.104	31243.43
597.463	31511.9
597.822	31827.14
598.18	32038.21
598.538	32123.63
598.897	32595.03
599.255	32552.77
599.613	33235.92
599.972	33040.44
600.33	33522.47
600.688	33621.67
601.046	34058.72
601.404	34252.84
601.762	34340.75
602.12	34819.83
602.478	34996.33
602.836	35207.85
603.194	35202.87
603.552	35391.8
603.91	35457.78
604.268	35897.09
604.625	35976.86
604.983	36399.68
605.341	36398.55
605.698	36756.73
606.056	36958.08
606.413	36987.91
606.771	37250.73
607.128	37471.06
607.485	37690.49
607.843	37715.58
608.2	38132.74
608.557	38214.55
608.914	38361.66
609.272	38580.41
609.629	38830.8
609.986	38980.85
610.343	38934.3
610.7	39419.49
611.057	39385.59
611.414	39536.32
611.771	39695.41
612.127	39906.48
612.484	40077.1
612.841	40269.41
613.198	40232.12
613.554	40333.36
613.911	40638.89
614.267	40753.46
614.624	40886.34
614.98	40943.74
615.337	41361.58
615.693	41271.64
616.05	41297.18
616.406	41788.24
616.762	41612.42
617.118	41712.31
617.475	41853.77
617.831	41999.98
618.187	42094.44
618.543	42129.92
618.899	42509.12
619.255	42546.86
619.611	42583.7
619.967	42722.9
620.323	42940.3
620.678	42755.67
621.034	42890.13
621.39	42862.79
621.746	42960.18
622.101	43395.88
622.457	43126.96
622.812	43281.08
623.168	43523.78
623.523	43484.92
623.879	43768.07
624.234	43443.56
624.589	43669.54
624.945	43787.28
625.3	43812.36
625.655	43901.18
626.01	43856.88
626.365	43916.77
626.72	44011.46
627.075	44029.76
627.43	43885.13
627.785	43987.73
628.14	44185.01
628.495	44107.72
628.85	44117.44
629.205	44138.91
629.559	44371.22
629.914	44220.49
630.269	44145.69
630.623	44183.88
630.978	44179.36
631.332	44174.39
631.687	44443.99
632.041	44306.59
632.396	44371.67
632.75	44193.6
633.104	44307.27
633.459	44145.24
633.813	44271.56
634.167	44314.5
634.521	44097.1
634.875	44315.18
635.229	44211.45
635.583	44142.53
635.937	44260.04
636.291	44176.42
636.645	44279.7
636.999	44074.5
637.352	44328.51
637.706	44004.45
638.06	44293.71
638.413	44179.59
638.767	44039.25
639.121	44060.27
639.474	43947.73
639.828	43905.24
640.181	44059.36
640.534	43960.61
640.888	43911.57
641.241	43743.67
641.594	43857.34
641.947	44024.79
642.301	43840.61
642.654	43909.76
643.007	43949.76
643.36	43927.84
643.713	43849.88
644.066	43949.08
644.419	43695.98
644.771	43446.95
645.124	43137.35
645.477	43029.11
645.83	42723.13
646.182	42698.95
646.535	42644.94
646.888	42654.66
647.24	42384.61
647.593	42641.1
647.945	42594.32
648.298	42477.94
648.65	42362.91
649.002	42223.93
649.355	42431.84
649.707	42374.44
650.059	42708.44
650.411	43067.07
650.763	43001.09
651.115	43398.36
651.467	43373.28
651.819	43379.16
652.171	43326.05
652.523	43094.42
652.875	43241.53
653.227	43068.66
653.578	43319.04
653.93	43205.38
654.282	43028.2
654.633	42975.55
654.985	43120.63
655.337	43027.98
655.688	43076.79
656.039	43241.31
656.391	42836.8
656.742	43076.34
657.094	43079.73
657.445	43156.34
657.796	42998.38
658.147	42986.85
658.498	42935.33
658.849	43007.64
659.2	42808.32
659.551	42793.41
659.902	42991.6
660.253	42733.07
660.604	42970.58
660.955	42698.5
661.306	42700.98
661.656	42799.06
662.007	42799.74
662.358	42784.14
662.708	42801.09
663.059	42943.91
663.409	42457.82
663.76	42847.42
664.11	42787.76
664.461	42939.17
664.811	42824.59
665.161	42822.11
665.511	42861.66
665.862	42720.19
666.212	42822.11
666.562	42780.3
666.912	42718.16
667.262	42640.87
667.612	42769.91
667.962	42853.07
668.312	42729.91
668.662	42835.89
669.011	42705.5
669.361	42662.79
669.711	42591.61
670.06	42634.09
670.41	42487.43
670.76	42473.64
671.109	42532.4
671.459	42551.61
671.808	42515.45
672.157	42598.39
672.507	42199.53
672.856	42285.17
673.205	42326.08
673.554	42535.11
673.904	42272.07
674.253	42465.96
674.602	42434.55
674.951	41877.05
675.3	41714.79
675.649	42267.77
675.998	42265.29
676.346	42327.21
676.695	42451.72
677.044	42143.03
677.393	42211.73
677.741	42248.56
678.09	42143.71
678.438	42075.46
678.787	42116.14
679.135	42193.42
679.484	41912.53
679.832	42064.16
680.181	41694.45
680.529	41916.14
680.877	41854.68
681.225	41751.63
681.573	41820.55
681.922	41606.55
682.27	41481.35
682.618	41699.88
682.966	41470.28
683.314	41559.77
683.661	41629.37
684.009	41247.01
684.357	41241.13
684.705	41108.03
685.053	41207.46
685.4	41094.92
685.748	40978.77
686.095	40899.22
686.443	40854.25
686.79	40680.7
687.138	40845.89
687.485	40898.09
687.832	40769.28
688.18	40722.73
688.527	40487.03
688.874	40548.95
689.221	40321.61
689.568	40260.82
689.915	40203.87
690.262	40311.44
690.609	40195.96
690.956	40035.06
691.303	39975.63
691.65	39807.5
691.997	39810.21
692.344	39416.77
692.69	39518.47
693.037	39494.51
693.383	39239.83
693.73	39425.14
694.077	39094.07
694.423	39030.8
694.769	39009.33
695.116	38851.59
695.462	38845.72
695.808	38788.99
696.155	38846.85
696.501	38565.72
696.847	38520.07
697.193	38258.39
697.539	38409.8
697.885	38246.64
698.231	38152.17
698.577	38082.57
698.923	38025.85
699.269	37890.49
699.614	37738.63
699.96	37620.21
700.306	37663.6
700.651	37415.47
700.997	37317.85
701.342	37266.77
701.688	37232.65
702.033	37048.02
702.379	37122.37
702.724	36996.95
703.069	37085.08
703.415	36571.2
703.76	36629.05
704.105	36597.41
704.45	36496.4
704.795	36300.25
705.14	36365.78
705.485	36221.6
705.83	36097.31
706.175	36075.17
706.52	35906.36
706.865	35865
707.209	35846.02
707.554	35708.85
707.899	35761.5
708.243	35634.5
708.588	35396.32
708.932	35332.59
709.277	35318.35
709.621	35370.55
709.966	35070.67
710.31	35108.19
710.654	34973.73
710.998	34898.48
711.342	34919.49
711.687	34891.92
712.031	34743
712.375	34634.08
712.719	34678.37
713.063	34597.24
713.407	34718.37
713.75	34475.66
714.094	34479.95
714.438	34299.85
714.782	34339.17
715.125	34227.08
715.469	34265.05
715.812	34102.34
716.156	34004.49
716.499	33893.98
716.843	34007.2
717.186	33827.54
717.53	33978.73
717.873	33864.15
718.216	33764.27
718.559	33607.89
718.902	33402.02
719.246	33362.02
719.589	33398.18
719.932	33177.39
720.275	33233.43
720.617	33225.3
720.96	33211.74
721.303	33095.58
721.646	33106.88
721.989	32927.68
722.331	33044.74
722.674	32874.12
723.016	32945.76
723.359	32920
723.701	32918.41
724.044	32561.14
724.386	32559.1
724.729	32653.56
725.071	32567.69
725.413	32457.41
725.755	32568.82
726.097	32354.81
726.439	32301.48
726.782	32263.74
727.124	32358.65
727.465	32105.55
727.807	32216.06
728.149	32080.47
728.491	32111.88
728.833	32092
729.175	32018.78
729.516	31970.19
729.858	31820.59
730.199	31782.4
730.541	31713.25
730.882	31709.18
731.224	31901.27
731.565	31569.97
731.906	31567.49
732.248	31672.12
732.589	31525
732.93	31363.43
733.271	31348.29
733.612	31377.89
733.953	31383.31
734.294	31370.66
734.635	31223.09
734.976	31257.89
735.317	31117.33
735.658	31086.15
735.999	31108.07
736.339	31126.37
736.68	31006.15
737.021	30925.25
737.361	30842.99
737.702	30900.16
738.042	30882.76
738.383	30823.55
738.723	30836.89
739.063	30644.8
739.404	30776.55
739.744	30642.99
740.084	30456.11
740.424	30543.34
740.764	30433.51
741.104	30575.88
741.444	30349.67
741.784	30441.64
742.124	30354.41
742.464	30352.61
742.804	30300.63
743.143	30185.15
743.483	30259.5
743.823	30108.77
744.162	30016.12
744.502	30087.75
744.841	29942
745.181	29913.3
745.52	29956.46
745.86	29950.58
746.199	29805.95
746.538	29825.61
746.877	29820.42
747.216	29835.78
747.556	29760.53
747.895	29658.61
748.234	29678.27
748.573	29517.15
748.911	29458.17
749.25	29515.34
749.589	29449.35
749.928	29359.64
750.267	29392.41
750.605	29219.53
750.944	29229.25
751.283	29080.32
751.621	29114.9
751.96	28906.54
752.298	29074.22
752.636	29024.73
752.975	28986.31
753.313	28900.21
753.651	28876.49
753.989	28758.98
754.327	28686.43
754.666	28602.37
755.004	28644.85
755.342	28566.21
755.679	28557.4
756.017	28457.06
756.355	28389.72
756.693	28307.01
757.031	28439.66
757.368	28163.06
757.706	28163.51
758.044	28136.62
758.381	28095.04
758.719	28037.19
759.056	28031.31
759.394	27833.58
759.731	27764.2
760.068	27708.61
760.405	27639
760.743	27661.38
761.08	27669.96
761.417	27431.78
761.754	27398.33
762.091	27245.79
762.428	27158.11
762.765	27166.02
763.102	27061.39
763.438	27003.09
763.775	26953.37
764.112	26842.42
764.449	26924.45
764.785	26725.58
765.122	26637
765.458	26509.54
765.795	26489.66
766.131	26441.75
766.467	26337.12
766.804	26180.96
767.14	26116.56
767.476	26073.62
767.812	25946.85
768.148	25975.77
768.485	25838.37
768.821	25762.44
769.157	25642.45
769.492	25568.55
769.828	25610.13
770.164	25420.98
770.5	25355.9
770.836	25123.59
771.171	25098.05
771.507	25021.22
771.842	24882.24
772.178	24920.21
772.513	24821.45
772.849	24734.9
773.184	24638.63
773.519	24632.76
773.855	24580.55
774.19	24416.26
774.525	24377.17
774.86	24322.71
775.195	24328.58
775.53	24090.62
775.865	24024.64
776.2	23836.84
776.535	23712.78
776.87	23718.43
777.205	23590.07
777.539	23469.85
777.874	23463.3
778.209	23461.04
778.543	23306.46
778.878	23157.77
779.212	23121.38
779.547	23045.68
779.881	23136.75
780.215	22779.25
780.55	22944.67
780.884	22746.48
781.218	22677.33
781.552	22659.02
781.886	22507.84
782.22	22336.09
782.554	22435.75
782.888	22223.78
783.222	22057.23
783.556	22041.64
783.889	22014.52
784.223	21813.62
784.557	21766.84
784.89	21846.61
785.224	21689.78
785.557	21582.22
785.891	21569.11
786.224	21510.58
786.558	21401.88
786.891	21248.89
787.224	21170.02
787.557	21118.27
787.891	20987.88
788.224	21016.35
788.557	21051.16
788.89	20875.57
789.223	20915.79
789.556	20716.48
789.888	20711.96
790.221	20585.63
790.554	20445.75
790.887	20475.58
791.219	20412.3
791.552	20313.77
791.884	20107.23
792.217	20170.73
792.549	20090.05
792.882	19944.74
793.214	19871.3
793.546	19916.72
793.879	19782.71
794.211	19645.99
794.543	19637.86
794.875	19669.5
795.207	19650.97
795.539	19608.26
795.871	19504.08
796.203	19306.12
796.535	19229.73
796.867	19194.48
797.198	19124.65
797.53	19102.28
797.862	18990.42
798.193	19057.31
798.525	18894.83
798.856	18850.31
799.188	18769.86
799.519	18645.34
799.85	18554.27
800.182	18698.22
800.513	18624.1
800.844	18411.22
801.175	18519.7
801.506	18454.16
801.837	18253.26
802.168	18285.13
802.499	18277.67
802.83	18155.86
803.161	18202.64
803.491	18154.28
803.822	18146.37
804.153	18009.2
804.483	17932.59
804.814	17792.71
805.145	17834.06
805.475	17723.56
805.805	17787.29
806.136	17653.05
806.466	17694.63
806.796	17545.48
807.126	17444.7
807.457	17391.59
807.787	17443.79
808.117	17365.83
808.447	17241.31
808.777	17297.36
809.107	17248.32
809.436	17214.65
809.766	17240.18
810.096	17079.28
810.426	17034.09
810.755	17019.4
811.085	16987.76
811.414	16927.2
811.744	16804.49
812.073	16786.86
812.403	16795.45
812.732	16650.37
813.061	16692.17
813.39	16645.85
813.719	16464.84
814.049	16634.32
814.378	16573.31
814.707	16426.19
815.036	16414.22
815.365	16360.66
815.693	16161.79
816.022	16289.02
816.351	16269.59
816.68	16082.92
817.008	16035.69
817.337	15968.13
817.665	15946.21
817.994	16037.5
818.322	15991.85
818.651	15871.63
818.979	15785.31
819.307	15871.18
819.636	15870.73
819.964	15762.03
820.292	15834.12
820.62	15727.23
820.948	15700.34
821.276	15831.63
821.604	15716.15
821.932	15680.9
822.259	15747.11
822.587	15675.93
822.915	15636.83
823.243	15667.12
823.57	15669.6
823.898	15667.79
824.225	15593.67
824.553	15573.56
824.88	15643.84
825.207	15602.03
825.535	15553
825.862	15653.56
826.189	15533.33
826.516	15648.13
826.843	15687
827.17	15694.91
827.497	15629.6
827.824	15562.94
828.151	15622.15
828.478	15615.37
828.805	15642.94
829.131	15529.27
829.458	15511.64
829.785	15523.84
830.111	15571.53
830.438	15584.86
830.764	15584.86
831.09	15601.81
831.417	15524.52
831.743	15517.74
832.069	15555.48
832.395	15440.46
832.722	15607.23
833.048	15494.24
833.374	15504.41
833.7	15464.41
834.026	15459.66
834.351	15491.08
834.677	15408.14
835.003	15419.21
835.329	15372.43
835.654	15386.22
835.98	15294.24
836.306	15327.46
836.631	15364.98
836.956	15360.01
837.282	15313.45
837.607	15100.35
837.932	15224.19
838.258	15188.03
838.583	15173.8
838.908	15083.4
839.233	15117.3
839.558	14969.73
839.883	15066.91
840.208	15021.94
840.533	14983.07
840.858	14937.64
841.182	14945.1
841.507	14956.4
841.832	14924.31
842.156	14869.17
842.481	14788.72
842.805	14785.11
843.13	14745.78
843.454	14689.74
843.778	14666.46
844.103	14606.13
844.427	14638.89
844.751	14556.86
845.075	14506.69
845.399	14495.85
845.723	14386.92
846.047	14466.02
846.371	14316.87
846.695	14271.67
847.019	14193.03
847.343	14139.92
847.666	14117.1
847.99	13964.11
848.313	14016.54
848.637	13963.21
848.96	13878.46
849.284	13899.93
849.607	13751.69
849.931	13666.26
850.254	13692.93
850.577	13560.05
850.9	13428.76
851.223	13462.88
851.546	13367.74
851.869	13277.35
852.192	13380.62
852.515	13218.59
852.838	13221.98
853.161	13173.17
853.483	13134.3
853.806	13033.51
854.129	13043
854.451	13027.41
854.774	12966.62
855.096	12905.83
855.419	12838.26
855.741	12867.42
856.063	12730.92
856.385	12789.9
856.708	12736.57
857.03	12571.38
857.352	12633.07
857.674	12665.16
857.996	12570.47
858.318	12487.99
858.64	12443.92
858.961	12511.95
859.283	12385.85
859.605	12309.92
859.926	12413.64
860.248	12296.81
860.57	12275.34
860.891	12307.66
861.212	12200.99
861.534	12152.86
861.855	12052.75
862.176	12104.95
862.498	12113.99
862.819	12168.23
863.14	12008
863.461	11979.98
863.782	12047.55
864.103	12002.58
864.424	11965.07
864.745	11981.34
865.065	11919.42
865.386	11847.1
865.707	11945.86
866.027	11893.43
866.348	11829.03
866.668	11820.66
866.989	11810.72
867.309	11680.33
867.63	11738.41
867.95	11724.4
868.27	11589.48
868.59	11662.7
868.91	11646.43
869.23	11539.09
869.55	11580.9
869.87	11589.71
870.19	11551.74
870.51	11561.24
870.83	11637.39
871.15	11507.23
871.469	11481.01
871.789	11479.88
872.109	11431.3
872.428	11426.78
872.748	11356.5
873.067	11350.62
873.386	11392.43
873.706	11389.71
874.025	11323.28
874.344	11308.36
874.663	11322.82
874.982	11223.39
875.301	11288.47
875.62	11256.16
875.939	11184.75
876.258	11209.15
876.577	11269.94
876.896	11126.9
877.214	11100.46
877.533	11160.79
877.852	11126.9
878.17	11140
878.489	11064.98
878.807	11121.93
879.125	11062.04
879.444	11047.12
879.762	11006
880.08	10996.28
880.398	10943.62
880.716	10991.76
881.034	10884.19
881.352	10902.5
881.67	10871.76
881.988	10855.04
882.306	10818.88
882.624	10747.7
882.941	10783.85
883.259	10748.15
883.577	10750.41
883.894	10666.12
884.212	10702.5
884.529	10632.45
884.846	10636.74
885.164	10563.75
885.481	10539.12
885.798	10609.17
886.115	10448.5
886.432	10485.11
886.75	10499.12
887.067	10451.21
887.383	10347.93
887.7	10402.85
888.017	10419.34
888.334	10356.97
888.651	10304.77
888.967	10355.84
889.284	10304.55
889.6	10208.5
889.917	10209.86
890.233	10200.37
890.55	10176.64
890.866	10057.09
891.182	10065.46
891.498	10083.08
891.815	10045.57
892.131	10002.63
892.447	9983.88
892.763	9992.69
893.079	9962.86
893.395	9914.27
893.71	9862.75
894.026	9840.38
894.342	9850.55
894.657	9715.63
894.973	9730.78
895.289	9737.78
895.604	9730.55
895.92	9690.1
896.235	9580.5
896.55	9599.03
896.865	9549.31
897.181	9514.74
897.496	9569.42
897.811	9448.07
898.126	9451.01
898.441	9380.28
898.756	9342.08
899.071	9299.37
899.386	9294.63
899.7	9233.39
900.015	9280.39
900.33	9152.94
900.644	9131.92
900.959	9122.66
901.273	9077.46
901.588	9051.02
901.902	8969.67
902.216	8980.51
902.531	8980.29
902.845	8904.81
903.159	8908.42
903.473	8830.69
903.787	8897.35
904.101	8785.72
904.415	8727.41
904.729	8719.5
905.042	8716.79
905.356	8607.19
905.67	8635.21
905.984	8636.57
906.297	8561.09
906.611	8547.98
906.924	8493.97
907.237	8514.99
907.551	8457.59
907.864	8481.32
908.177	8439.74
908.491	8352.96
908.804	8370.81
909.117	8225.28
909.43	8280.42
909.743	8219.4
910.056	8151.61
910.368	8198.84
910.681	8139.86
910.994	8127.2
911.307	8084.72
911.619	7974.89
911.932	8064.38
912.244	7981.89
912.557	7974.89
912.869	7919.75
913.181	7901.9
913.494	7872.97
913.806	7799.98
914.118	7788.91
914.43	7689.47
914.742	7742.8
915.054	7661.68
915.366	7635.46
915.678	7564.05
915.99	7578.06
916.302	7504.85
916.613	7462.13
916.925	7434.11
917.236	7440.67
917.548	7391.18
917.859	7334.23
918.171	7361.57
918.482	7302.59
918.794	7287.22
919.105	7282.48
919.416	7270.05
919.727	7183.72
920.038	7170.62
920.349	7138.75
920.66	7091.07
920.971	7085.65
921.282	7018.76
921.593	6981.02
921.903	6945.31
922.214	6963.39
922.525	6930.85
922.835	6903.5
923.146	6835.26
923.456	6834.58
923.767	6828.7
924.077	6774.24
924.387	6802.72
924.697	6719.55
925.008	6719.1
925.318	6637.3
925.628	6624.19
925.938	6625.09
926.248	6586.68
926.558	6508.49
926.867	6478.88
927.177	6433.69
927.487	6489.96
927.796	6434.82
928.106	6411.09
928.416	6366.34
928.725	6397.98
929.034	6383.07
929.344	6332.22
929.653	6323.86
929.962	6218.1
930.271	6241.38
930.581	6153.92
930.89	6140.14
931.199	6177.87
931.508	6110.98
931.817	6088.61
932.125	6023.98
932.434	6079.12
932.743	5949.41
933.051	5945.79
933.36	5969.29
933.669	5885.9
933.977	5924.32
934.286	5908.28
934.594	5917.09
934.902	5844.55
935.21	5825.34
935.519	5786.92
935.827	5783.08
936.135	5748.06
936.443	5670.54
936.751	5694.95
937.059	5672.8
937.367	5626.25
937.674	5614.27
937.982	5633.71
938.29	5581.96
938.597	5536.31
938.905	5523.43
939.213	5463.32
939.52	5472.58
939.827	5452.7
940.135	5379.93
940.442	5351.68
940.749	5379.25
941.056	5423.77
941.363	5285.47
941.67	5317.78
941.977	5266.71
942.284	5220.84
942.591	5203.21
942.898	5246.15
943.205	5222.87
943.511	5174.74
943.818	5149.2
944.125	5111.01
944.431	5144.68
944.738	5076.89
945.044	5067.62
945.35	4993.27
945.657	4971.35
945.963	4980.62
946.269	4963.67
946.575	4948.98
946.881	4904.24
947.187	4882.99
947.493	4826.5
947.799	4902.2
948.105	4863.11
948.41	4821.3
948.716	4803
949.022	4751.7
949.327	4738.36
949.633	4747.4
949.938	4728.87
950.244	4758.93
950.549	4704.01
950.854	4656.11
951.16	4629.89
951.465	4617.01
951.77	4567.75
952.075	4586.28
952.38	4568.88
952.685	4539.95
952.99	4484.36
953.294	4501.08
953.599	4461.54
953.904	4445.94
954.209	4448.43
954.513	4433.74
954.818	4355.78
955.122	4377.7
955.426	4341.99
955.731	4339.73
956.035	4359.17
956.339	4318.26
956.643	4279.62
956.948	4247.53
957.252	4263.12
957.556	4269.9
957.86	4211.82
958.163	4186.06
958.467	4153.52
958.771	4182.9
959.075	4195.1
959.378	4101.54
959.682	4119.17
959.985	4081.43
960.289	4086.18
960.592	4032.17
960.896	4017.48
961.199	4046.4
961.502	4015.67
961.805	3996.24
962.108	3959.4
962.411	3949.68
962.714	3913.75
963.017	3909.46
963.32	3888.44
963.623	3876.24
963.926	3862.68
964.228	3835.79
964.531	3844.15
964.833	3803.7
965.136	3786.07
965.438	3798.5
965.741	3756.02
966.043	3725.28
966.345	3756.02
966.648	3737.26
966.95	3706.75
967.252	3673.53
967.554	3645.51
967.856	3651.16
968.158	3598.06
968.46	3624.04
968.761	3611.16
969.063	3586.53
969.365	3560.09
969.666	3546.08
969.968	3514.44
970.269	3488.45
970.571	3504.95
970.872	3533.42
971.174	3465.86
971.475	3460.21
971.776	3445.52
972.077	3455.91
972.378	3429.47
972.679	3426.76
972.98	3359.64
973.281	3404.61
973.582	3393.54
973.883	3371.62
974.183	3345.18
974.484	3313.54
974.785	3299.53
975.085	3268.12
975.386	3288.01
975.686	3222.92
975.986	3227.44
976.287	3229.93
976.587	3171.85
976.887	3210.72
977.187	3169.82
977.487	3153.55
977.787	3138.63
978.087	3110.61
978.387	3118.52
978.687	3128.24
978.987	3073.1
979.286	3029.48
979.586	3103.83
979.885	3061.35
980.185	3049.82
980.484	3053.44
980.784	2981.57
981.083	3016.6
981.382	3010.95
981.682	2988.81
981.981	2981.57
982.28	2907
982.579	2896.38
982.878	2978.86
983.177	2894.57
983.475	2896.83
983.774	2910.39
984.073	2827.45
984.372	2851.86
984.67	2853.89
984.969	2853.22
985.267	2832.65
985.566	2808.25
985.864	2768.47
986.162	2771.18
986.461	2763.95
986.759	2771.64
987.057	2728.02
987.355	2748.81
987.653	2709.04
987.951	2699.77
988.249	2699.77
988.547	2687.8
988.844	2666.78
989.142	2674.24
989.44	2631.98
989.737	2638.98
990.035	2631.53
990.332	2636.27
990.63	2604.18
990.927	2609.15
991.224	2566.44
991.521	2560.57
991.819	2549.04
992.116	2533.45
992.413	2496.16
992.71	2520.8
993.006	2521.7
993.303	2501.36
993.6	2477.18
993.897	2471.76
994.193	2493.45
994.49	2448.25
994.787	2446.9
995.083	2420.91
995.379	2399.67
995.676	2390.4
995.972	2413
996.268	2346.11
996.565	2347.47
996.861	2323.06
997.157	2338.65
997.453	2328.03
997.749	2298.2
998.044	2334.81
998.34	2284.87
998.636	2266.79
998.932	2245.77
999.227	2226.79
999.523	2201.26
999.818	2222.72
1000.114	2211.88
1000.409	2199.67
1000.704	2167.13
1001	2195.38
1001.295	2199.9
1001.59	2159
1001.885	2158.09
1002.18	2147.92
1002.475	2142.73
1002.77	2123.74
1003.065	2105.44
1003.359	2109.51
1003.654	2097.08
1003.949	2078.77
1004.243	2057.53
1004.538	2043.29
1004.832	2065.44
1005.127	2024.76
1005.421	2004.65
1005.715	2012.11
1006.009	1996.52
1006.304	1983.86
1006.598	1954.93
1006.892	1971.43
1007.186	1946.35
1007.48	1968.27
1007.773	1946.12
1008.067	1925.56
1008.361	1891.89
1008.655	1904.77
1008.948	1871.32
1009.242	1902.51
1009.535	1841.94
1009.829	1824.99
1010.122	1871.77
1010.415	1845.11
1010.708	1835.16
1011.001	1846.46
1011.295	1814.15
1011.588	1807.37
1011.881	1761.72
1012.173	1773.7
1012.466	1743.64
1012.759	1737.09
1013.052	1744.09
1013.344	1726.01
1013.637	1707.26
1013.93	1708.84
1014.222	1705
1014.514	1688.73
1014.807	1686.92
1015.099	1658.22
1015.391	1691.89
1015.683	1634.72
1015.976	1659.8
1016.268	1653.7
1016.56	1597.43
1016.851	1622.74
1017.143	1612.57
1017.435	1578.9
1017.727	1570.54
1018.018	1585
1018.31	1575.06
1018.602	1560.59
1018.893	1546.81
1019.185	1527.6
1019.476	1532.57
1019.767	1513.36
1020.058	1523.31
1020.35	1471.33
1020.641	1471.56
1020.932	1495.29
1021.223	1470.2
1021.514	1438.11
1021.804	1459.13
1022.095	1410.54
1022.386	1452.57
1022.677	1415.51
1022.967	1423.2
1023.258	1391.33
1023.548	1368.28
1023.839	1374.16
1024.129	1353.59
1024.419	1333.48
1024.709	1339.13
1025	1340.71
1025.29	1330.09
1025.58	1326.7
1025.87	1307.27
1026.16	1267.49
1026.449	1296.19
1026.739	1284.44
1027.029	1292.58
1027.319	1292.35
1027.608	1267.72
1027.898	1267.49
1028.187	1257.55
1028.477	1267.95
1028.766	1230.89
1029.055	1215.74
1029.344	1231.34
1029.634	1211.23
1029.923	1208.97
1030.212	1185.46
1030.501	1186.37
1030.79	1169.87
1031.078	1173.26
1031.367	1132.13
1031.656	1173.26
1031.945	1128.97
1032.233	1143.66
1032.522	1124
1032.81	1120.83
1033.099	1119.48
1033.387	1129.42
1033.675	1120.38
1033.963	1092.13
1034.251	1092.36
1034.54	1070.44
1034.828	1089.19
1035.116	1057.33
1035.403	1048.52
1035.691	1026.15
1035.979	1069.31
1036.267	1062.3
1036.554	1011.91
1036.842	1039.25
1037.129	1048.07
1037.417	1005.35
1037.704	1005.81
1037.992	1002.42
1038.279	985.47
1038.566	982.08
1038.853	982.08
1039.14	982.08
