Data from hue_320_FLMS001491_43.txt Node
Date: Mon Feb 06 15:47:15 GMT 2017
User: dcchb
Spectrometer: FLMS00149
Trigger mode: 0
Integration Time (sec): 2.000000E-2
Scans to average: 10
Electric dark correction enabled: true
Nonlinearity correction enabled: false
Boxcar width: 0
XAxis mode: Wavelengths
Number of Pixels in Spectrum: 2048
>>>>>Begin Spectral Data<<<<<
341.393	2.88
341.776	2.88
342.16	2.88
342.543	-69.66
342.927	-70.56
343.31	-71.92
343.693	-61.07
344.077	-56.1
344.46	-67.63
344.843	-52.26
345.226	-45.71
345.61	-46.16
345.993	-24.24
346.376	-3.22
346.759	19.6
347.142	34.74
347.525	22.32
347.908	84.91
348.291	88.3
348.674	67.96
349.057	110.45
349.44	126.27
349.823	136.66
350.206	160.39
350.588	179.15
350.971	211.69
351.354	212.82
351.737	224.8
352.119	255.3
352.502	248.98
352.884	266.38
353.267	262.31
353.65	276.09
354.032	290.33
354.414	292.37
354.797	285.59
355.179	312.93
355.562	313.83
355.944	328.75
356.326	340.05
356.709	328.3
357.091	351.57
357.473	340.5
357.855	333.49
358.238	328.52
358.62	335.53
359.002	351.12
359.384	329.88
359.766	348.41
360.148	338.01
360.53	323.78
360.912	333.04
361.294	325.36
361.676	329.65
362.057	338.01
362.439	330.78
362.821	314.74
363.203	315.42
363.584	324.45
363.966	302.99
364.348	305.25
364.729	317.68
365.111	305.47
365.493	313.83
365.874	312.25
366.256	307.05
366.637	286.49
367.019	300.05
367.4	308.64
367.781	308.64
368.163	293.04
368.544	302.76
368.925	321.52
369.306	316.77
369.688	313.16
370.069	282.87
370.45	287.85
370.831	329.43
371.212	277
371.593	309.54
371.974	301.86
372.355	321.74
372.736	307.05
373.117	313.61
373.498	297.56
373.879	295.53
374.26	308.18
374.641	304.34
375.021	321.07
375.402	342.53
375.783	305.25
376.163	299.14
376.544	314.74
376.925	295.53
377.305	307.96
377.686	315.19
378.066	321.74
378.447	315.19
378.827	316.77
379.208	332.14
379.588	298.24
379.968	335.75
380.349	317.68
380.729	324.91
381.109	309.31
381.489	344.34
381.87	326.49
382.25	320.16
382.63	325.36
383.01	322.19
383.39	329.65
383.77	320.39
384.15	333.04
384.53	335.53
384.91	334.62
385.29	345.02
385.67	337.79
386.049	343.44
386.429	334.85
386.809	337.56
387.189	331.91
387.568	342.08
387.948	326.49
388.328	334.85
388.707	339.37
389.087	336.66
389.466	352.25
389.846	354.28
390.225	350.89
390.605	337.11
390.984	340.73
391.363	350.89
391.743	347.5
392.122	356.54
392.501	361.97
392.881	334.85
393.26	365.36
393.639	364
394.018	349.31
394.397	370.33
394.776	371.69
395.155	352.25
395.534	349.54
395.913	375.07
396.292	373.49
396.671	341.4
397.05	357.9
397.429	369.88
397.808	387.05
398.186	367.84
398.565	373.04
398.944	378.46
399.323	380.5
399.701	384.57
400.08	384.57
400.458	389.09
400.837	379.82
401.215	405.36
401.594	388.41
401.972	383.89
402.351	397.67
402.729	406.71
403.107	385.47
403.486	382.53
403.864	385.47
404.242	414.62
404.62	425.24
404.999	414.4
405.377	417.56
405.755	411.23
406.133	400.38
406.511	421.63
406.889	410.78
407.267	426.6
407.645	414.4
408.023	452.59
408.401	458.91
408.779	437.9
409.156	451.23
409.534	450.1
409.912	459.37
410.29	449.65
410.667	457.78
411.045	459.82
411.422	455.3
411.8	479.7
412.178	464.56
412.555	481.06
412.933	526.71
413.31	504.79
413.687	505.92
414.065	486.26
414.442	518.8
414.819	527.39
415.197	523.32
415.574	508.4
415.951	540.04
416.328	514.51
416.705	544.34
417.082	552.7
417.46	558.57
417.837	553.38
418.214	546.6
418.591	561.06
418.967	584.79
419.344	576.2
419.721	617.55
420.098	600.83
420.475	602.19
420.852	610.1
421.228	621.4
421.605	623.2
421.982	638.57
422.358	635.63
422.735	639.02
423.111	651.9
423.488	659.36
423.864	673.82
424.241	675.63
424.617	712.92
424.994	671.79
425.37	695.07
425.746	702.52
426.123	703.65
426.499	717.89
426.875	705.24
427.251	730.55
427.627	736.42
428.003	728.96
428.379	712.47
428.756	754.5
429.132	752.69
429.507	751.34
429.883	782.97
430.259	773.71
430.635	793.37
431.011	810.77
431.387	821.39
431.763	812.8
432.138	805.8
432.514	815.06
432.89	803.76
433.265	852.58
433.641	876.3
434.016	878.11
434.392	873.37
434.767	876.08
435.143	879.92
435.518	925.34
435.894	910.2
436.269	915.4
436.644	939.58
437.02	936.87
437.395	930.77
437.77	949.07
438.145	942.74
438.52	964.66
438.895	983.87
439.271	996.75
439.646	990.88
440.021	981.16
440.395	975.74
440.77	993.36
441.145	991.56
441.52	1005.34
441.895	1034.27
442.27	1048.73
442.645	1022.29
443.019	1002.63
443.394	1015.06
443.769	1029.52
444.143	1051.44
444.518	1026.13
444.892	1054.15
445.267	1060.71
445.641	1056.64
446.016	1050.76
446.39	1056.19
446.764	1075.62
447.139	1083.76
447.513	1074.49
447.887	1066.13
448.262	1065.68
448.636	1093.47
449.01	1086.24
449.384	1110.42
449.758	1128.73
450.132	1113.81
450.506	1123.3
450.88	1118.78
451.254	1116.75
451.628	1126.02
452.002	1160.59
452.376	1138.44
452.75	1149.97
453.123	1148.61
453.497	1152.23
453.871	1161.27
454.244	1163.53
454.618	1160.14
454.992	1199.91
455.365	1204.43
455.739	1213.7
456.112	1216.18
456.486	1257.31
456.859	1229.74
457.232	1245.33
457.606	1264.54
457.979	1259.57
458.352	1285.33
458.725	1264.77
459.099	1261.83
459.472	1299.57
459.845	1321.04
460.218	1301.38
460.591	1322.85
460.964	1314.26
461.337	1353.81
461.71	1364.65
462.083	1352.68
462.456	1385.22
462.829	1362.39
463.201	1383.18
463.574	1399.45
463.947	1386.8
464.32	1424.09
464.692	1424.09
465.065	1443.75
465.438	1449.62
465.81	1477.87
466.183	1476.06
466.555	1488.04
466.928	1496.63
467.3	1487.81
467.672	1482.62
468.045	1528.26
468.417	1531.88
468.789	1519.68
469.161	1530.75
469.534	1581.37
469.906	1584.31
470.278	1605.33
470.65	1605.55
471.022	1635.15
471.394	1648.94
471.766	1684.19
472.138	1674.93
472.51	1684.19
472.882	1735.27
473.253	1723.29
473.625	1739.33
473.997	1774.81
474.369	1773.23
474.74	1801.03
475.112	1818.88
475.484	1827.24
475.855	1884.64
476.227	1865.66
476.598	1917.86
476.97	1914.02
477.341	1940.91
477.713	1968.48
478.084	1947.91
478.455	2012.55
478.827	2011.87
479.198	2063.84
479.569	2081.47
479.94	2111.98
480.311	2118.31
480.682	2158.08
481.053	2208.25
481.424	2229.94
481.795	2205.08
482.166	2203.05
482.537	2265.42
482.908	2315.14
483.279	2330.5
483.65	2326.44
484.021	2367.79
484.391	2381.12
484.762	2373.89
485.133	2401.69
485.503	2447.11
485.874	2458.18
486.244	2526.88
486.615	2518.97
486.985	2568.92
487.356	2594.45
487.726	2601.23
488.097	2645.98
488.467	2652.3
488.837	2687.1
489.207	2702.25
489.578	2776.37
489.948	2741.11
490.318	2756.71
490.688	2783.83
491.058	2827.21
491.428	2836.93
491.798	2896.59
492.168	2913.09
492.538	2922.35
492.908	2938.62
493.278	2970.26
493.648	2962.58
494.017	3007.1
494.387	3039.86
494.757	2988.79
495.126	3050.71
495.496	3044.16
495.866	3063.37
496.235	3135
496.605	3137.04
496.974	3125.29
497.344	3126.87
497.713	3168
498.082	3211.38
498.452	3212.74
498.821	3206.86
499.19	3239.86
499.559	3282.34
499.928	3224.49
500.298	3277.15
500.667	3275.34
501.036	3309.24
501.405	3309.91
501.774	3294.32
502.143	3357.82
502.512	3362.57
502.88	3383.81
503.249	3356.47
503.618	3390.81
503.987	3424.94
504.356	3430.59
504.724	3455.9
505.093	3431.27
505.462	3460.64
505.83	3445.05
506.199	3446.86
506.567	3501.32
506.936	3507.2
507.304	3556.01
507.672	3569.12
508.041	3559.17
508.409	3554.43
508.777	3592.84
509.145	3579.28
509.514	3559.85
509.882	3607.53
510.25	3602.79
510.618	3622.22
510.986	3602.56
511.354	3613.86
511.722	3645.72
512.09	3676.68
512.458	3640.98
512.826	3657.25
513.193	3726.85
513.561	3710.81
513.929	3711.48
514.297	3720.75
514.664	3740.41
515.032	3715.33
515.4	3799.84
515.767	3787.87
516.135	3766.62
516.502	3740.64
516.869	3819.28
517.237	3797.13
517.604	3828.09
517.972	3818.83
518.339	3863.8
518.706	3841.2
519.073	3826.28
519.44	3813.4
519.808	3844.36
520.175	3868.32
520.542	3899.95
520.909	3914.19
521.276	3897.24
521.643	3892.95
522.009	3922.55
522.376	3936.34
522.743	3919.61
523.11	3980.63
523.477	4004.36
523.843	3980.4
524.21	4047.07
524.577	4031.93
524.943	4034.87
525.31	4102.21
525.676	4100.4
526.043	4129.1
526.409	4137.46
526.776	4197.35
527.142	4162.32
527.508	4201.64
527.874	4218.14
528.241	4225.37
528.607	4228.76
528.973	4258.59
529.339	4255.2
529.705	4279.38
530.071	4311.02
530.437	4344.01
530.803	4358.7
531.169	4375.2
531.535	4372.03
531.901	4436.21
532.267	4435.53
532.632	4425.59
532.998	4463.78
533.364	4455.87
533.73	4491.8
534.095	4509.88
534.461	4562.54
534.826	4580.39
535.192	4540.16
535.557	4577
535.923	4590.56
536.288	4617.45
536.653	4616.77
537.019	4642.76
537.384	4632.59
537.749	4704
538.114	4702.19
538.479	4687.96
538.845	4698.35
539.21	4751.46
539.575	4726.6
539.94	4779.7
540.305	4767.95
540.67	4871
541.034	4839.59
541.399	4876.65
541.764	4858.8
542.129	4905.58
542.494	4930.89
542.858	4967.95
543.223	4919.59
543.587	5026.7
543.952	4994.84
544.316	5028.51
544.681	5021.28
545.045	5081.62
545.41	5088.85
545.774	5088.62
546.138	5115.97
546.503	5165.23
546.867	5162.07
547.231	5183.08
547.595	5170.2
547.959	5203.87
548.324	5220.82
548.688	5221.73
549.052	5264.21
549.416	5266.47
549.779	5258.56
550.143	5248.17
550.507	5329.52
550.871	5339.69
551.235	5312.8
551.599	5372.91
551.962	5370.88
552.326	5400.03
552.689	5429.86
553.053	5422.17
553.417	5379.46
553.78	5493.58
554.143	5462.4
554.507	5507.6
554.87	5518.67
555.234	5525.45
555.597	5560.02
555.96	5564.77
556.323	5594.15
556.686	5666.24
557.05	5626.24
557.413	5596.63
557.776	5653.35
558.139	5661.04
558.502	5700.36
558.865	5628.04
559.228	5719.57
559.59	5666.69
559.953	5738.55
560.316	5783.29
560.679	5810.41
561.041	5828.26
561.404	5813.8
561.767	5854.7
562.129	5894.03
562.492	5886.12
562.854	5912.78
563.217	5908.71
563.579	5904.42
563.941	5936.96
564.304	5980.8
564.666	5937.41
565.028	5997.98
565.39	6012.67
565.753	6089.05
566.115	6043.63
566.477	6098.99
566.839	6079.33
567.201	6138.77
567.563	6098.09
567.925	6171.76
568.287	6124.08
568.648	6155.71
569.01	6236.39
569.372	6250.4
569.734	6265.09
570.095	6287.46
570.457	6329.27
570.819	6378.31
571.18	6352.09
571.542	6360.68
571.903	6418.08
572.265	6495.37
572.626	6479.77
572.987	6574.69
573.349	6541.47
573.71	6633.67
574.071	6620.79
574.432	6722.03
574.794	6817.17
575.155	6839.31
575.516	6807
575.877	6931.96
576.238	6988.01
576.599	6979.42
576.96	7101.68
577.32	7110.49
577.681	7212.41
578.042	7279.3
578.403	7397.94
578.763	7378.51
579.124	7531.04
579.485	7557.03
579.845	7711.38
580.206	7765.62
580.566	7902.79
580.927	7998.15
581.287	8156.11
581.648	8256.22
582.008	8344.58
582.368	8514.3
582.728	8664.57
583.089	8829.32
583.449	8919.93
583.809	9115.64
584.169	9260.26
584.529	9392.01
584.889	9623.42
585.249	9723.08
585.609	9874.26
585.969	10158.32
586.329	10387.92
586.688	10503.85
587.048	10728.7
587.408	10921.24
587.768	11161.01
588.127	11361.9
588.487	11504.27
588.846	11862
589.206	12044.37
589.565	12280.75
589.925	12608.2
590.284	12781.3
590.643	13009.54
591.003	13380.61
591.362	13653.14
591.721	13941.72
592.08	14150.76
592.44	14440.47
592.799	14780.35
593.158	15014.69
593.517	15270.5
593.876	15605.18
594.235	15761.34
594.593	16130.59
594.952	16407.2
595.311	16612.84
595.67	17038.14
596.029	17356.32
596.387	17729.19
596.746	17953.37
597.104	18107.94
597.463	18409.85
597.822	18848.71
598.18	19038.31
598.538	19297.29
598.897	19733.21
599.255	19810.5
599.613	20487.31
599.972	20573.87
600.33	20884.82
600.688	21005.27
601.046	21442.32
601.404	21810.22
601.762	21936.09
602.12	22368.62
602.478	22653.36
602.836	22911.21
603.194	23052.44
603.552	23421.7
603.91	23504.41
604.268	23972.19
604.625	24018.3
604.983	24388
605.341	24552.97
605.698	24924.49
606.056	25226.62
606.413	25427.75
606.771	25718.14
607.128	26011.69
607.485	26132.14
607.843	26308.86
608.2	26585.91
608.557	26954.26
608.914	27063.86
609.272	27371.65
609.629	27519.9
609.986	27841.25
610.343	27941.58
610.7	28334.79
611.057	28466.54
611.414	28622.92
611.771	28817.94
612.127	29165.73
612.484	29288.66
612.841	29574.76
613.198	29581.54
613.554	29746.96
613.911	30130
614.267	30210.9
614.624	30310.11
614.98	30510.33
615.337	30828.74
615.693	30948.28
616.05	30923.65
616.406	31312.57
616.762	31298.33
617.118	31482.73
617.475	31625.55
617.831	31921.36
618.187	32107.12
618.543	32230.51
618.899	32425.08
619.255	32495.13
619.611	32464.17
619.967	32771.51
620.323	32885.86
620.678	32818.74
621.034	32935.12
621.39	33058.51
621.746	33035.23
622.101	33701.43
622.457	33487.88
622.812	33611.49
623.168	33744.14
623.523	33812.84
623.879	34011.03
624.234	33791.37
624.589	34019.16
624.945	34145.94
625.3	34299.38
625.655	34287.63
626.01	34408.76
626.365	34475.65
626.72	34518.13
627.075	34507.74
627.43	34604.23
627.785	34557.45
628.14	34685.81
628.495	34887.39
628.85	34960.38
629.205	34836.54
629.559	35048.97
629.914	34900.95
630.269	35022.3
630.623	34997.44
630.978	34979.14
631.332	35122.18
631.687	35266.81
632.041	35187.94
632.396	35305.46
632.75	35196.53
633.104	35265.91
633.459	35138.91
633.813	35290.99
634.167	35363.08
634.521	35403.31
634.875	35363.53
635.229	35354.27
635.583	35263.65
635.937	35241.5
636.291	35340.71
636.645	35374.61
636.999	35292.35
637.352	35451.89
637.706	35295.06
638.06	35438.11
638.413	35222.07
638.767	35236.53
639.121	35363.08
639.474	35065.69
639.828	35335.06
640.181	35429.29
640.534	35331.67
640.888	35205.12
641.241	35242.63
641.594	35206.7
641.947	35355.4
642.301	35399.69
642.654	35382.29
643.007	35347.04
643.36	35295.29
643.713	35253.25
644.066	35321.5
644.419	35221.84
644.771	35043.77
645.124	34569.88
645.477	34591.58
645.83	34439.04
646.182	34339.61
646.535	34147.07
646.888	34349.32
647.24	34109.33
647.593	34373.28
647.945	34192.26
648.298	34107.3
648.65	34124.02
649.002	34112.94
649.355	34155.2
649.707	34113.62
650.059	34327.85
650.411	34690.78
650.763	34754.51
651.115	35084.67
651.467	34910.44
651.819	34867.05
652.171	34870.67
652.523	34787.96
652.875	34915.18
653.227	34660.05
653.578	34933.71
653.93	34785.7
654.282	34687.62
654.633	34665.47
654.985	34756.77
655.337	34650.11
655.688	34641.07
656.039	34771.68
656.391	34585.47
656.742	34594.97
657.094	34643.55
657.445	34657.56
657.796	34611.24
658.147	34637.68
658.498	34588.86
658.849	34648.3
659.2	34529.66
659.551	34490.34
659.902	34666.83
660.253	34665.25
660.604	34649.65
660.955	34557.68
661.306	34613.5
661.656	34494.63
662.007	34588.86
662.358	34541.18
662.708	34584.8
663.059	34460.05
663.409	34366.05
663.76	34546.83
664.11	34605.59
664.461	34620.95
664.811	34492.37
665.161	34615.76
665.511	34455.53
665.862	34450.56
666.212	34631.8
666.562	34679.71
666.912	34535.53
667.262	34516.55
667.612	34543.67
667.962	34641.74
668.312	34302.09
668.662	34576.44
669.011	34472.03
669.361	34496.66
669.711	34436.1
670.06	34295.99
670.41	34336.44
670.76	34366.5
671.109	34487.4
671.459	34377.8
671.808	34253.05
672.157	34389.1
672.507	34130.8
672.856	34251.47
673.205	34178.48
673.554	34225.26
673.904	34176.9
674.253	34333.05
674.602	34281.53
674.951	33695.78
675.3	33632.05
675.649	34133.74
675.998	34105.49
676.346	34116.79
676.695	34199.04
677.044	33904.81
677.393	34072.95
677.741	34035.43
678.09	34006.06
678.438	34004.47
678.787	33956.79
679.135	33992.04
679.484	33730.13
679.832	33865.04
680.181	33675.22
680.529	33705.95
680.877	33788.89
681.225	33691.26
681.573	33892.39
681.922	33569.23
682.27	33654.88
682.618	33641.32
682.966	33516.35
683.314	33521.32
683.661	33464.15
684.009	33346.64
684.357	33253.08
684.705	33242.91
685.053	33336.02
685.4	33073.42
685.748	33025.52
686.095	33042.01
686.443	32887.21
686.79	32799.99
687.138	32990.26
687.485	32968.12
687.832	32896.71
688.18	32891.06
688.527	32643.83
688.874	32665.53
689.221	32598.63
689.568	32506.66
689.915	32396.61
690.262	32494.68
690.609	32374.69
690.956	32217.63
691.303	32157.74
691.65	32050.85
691.997	32141.25
692.344	31879.56
692.69	31900.8
693.037	31806.34
693.383	31608.6
693.73	31618.32
694.077	31708.94
694.423	31582.39
694.769	31560.92
695.116	31352.34
695.462	31397.54
695.808	31147.37
696.155	31293.81
696.501	31155.51
696.847	31080.26
697.193	30800.26
697.539	30958.23
697.885	30773.37
698.231	30589.42
698.577	30709.19
698.923	30553.49
699.269	30511.01
699.614	30347.62
699.96	30333.38
700.306	30335.87
700.651	30046.61
700.997	30073.05
701.342	29998.7
701.688	30127.29
702.033	29751.03
702.379	29835.09
702.724	29769.1
703.069	29797.13
703.415	29479.39
703.76	29508.55
704.105	29589.45
704.45	29474.65
704.795	29285.5
705.14	29321.88
705.485	29144.04
705.83	28992.4
706.175	29137.71
706.52	29049.35
706.865	28955.79
707.209	28849.81
707.554	28802.8
707.899	28834.67
708.243	28699.75
708.588	28673.54
708.932	28370.72
709.277	28429.7
709.621	28411.63
709.966	28317.39
710.31	28209.6
710.654	28099.54
710.998	28205.76
711.342	28187.45
711.687	28052.31
712.031	27897.29
712.375	27875.59
712.719	27960.79
713.063	27872.88
713.407	27864.75
713.75	27711.08
714.094	27754.92
714.438	27553.12
714.782	27632.21
715.125	27487.81
715.469	27493.01
715.812	27380.47
716.156	27265.67
716.499	27187.25
716.843	27316.06
717.186	27053.47
717.53	27254.37
717.873	27228.61
718.216	27061.6
718.559	26982.74
718.902	26865.68
719.246	26900.71
719.589	26784.1
719.932	26705.23
720.275	26678.34
720.617	26712.01
720.96	26649.19
721.303	26595.63
721.646	26724.21
721.989	26521.05
722.331	26550.88
722.674	26492.81
723.016	26455.75
723.359	26394.28
723.701	26454.16
724.044	26227.73
724.386	26117.9
724.729	26182.98
725.071	26172.14
725.413	26064.57
725.755	26119.03
726.097	26001.07
726.439	25807.63
726.782	25892.6
727.124	25971.92
727.465	25816.67
727.807	25765.14
728.149	25709.78
728.491	25572.15
728.833	25738.93
729.175	25568.54
729.516	25695.31
729.858	25528.31
730.199	25551.81
730.541	25503.68
730.882	25502.78
731.224	25616.22
731.565	25384.81
731.906	25446.28
732.248	25394.08
732.589	25295.55
732.93	25243.12
733.271	25154.76
733.612	25244.7
733.953	25338.71
734.294	25122.45
734.635	24918.38
734.976	25143.69
735.317	24890.59
735.658	24956.12
735.999	24970.59
736.339	24907.76
736.68	24971.72
737.021	24772.85
737.361	24804.72
737.702	24937.14
738.042	24755.45
738.383	24771.04
738.723	24799.07
739.063	24586.42
739.404	24646.53
739.744	24552.74
740.084	24522.46
740.424	24555
740.764	24443.37
741.104	24440.2
741.444	24389.13
741.784	24304.62
742.124	24421.45
742.464	24246.76
742.804	24193.66
743.143	24274.33
743.483	24214.45
743.823	24079.31
744.162	24151.85
744.502	24159.53
744.841	23934.23
745.181	24089.48
745.52	23954.34
745.86	24054.23
746.199	23864.4
746.538	23894
746.877	23995.92
747.216	23888.13
747.556	23783.05
747.895	23827.34
748.234	23697.4
748.573	23591.64
748.911	23743.95
749.25	23631.41
749.589	23511.42
749.928	23519.78
750.267	23474.81
750.605	23468.93
750.944	23455.82
751.283	23347.58
751.621	23402.27
751.96	23197.75
752.298	23300.57
752.636	23327.24
752.975	23103.06
753.313	23029.62
753.651	23145.55
753.989	23012.9
754.327	22889.29
754.666	22814.94
755.004	22852
755.342	22784.88
755.679	22810.19
756.017	22715.5
756.355	22674.38
756.693	22685.9
757.031	22557.77
757.368	22469.86
757.706	22433.93
758.044	22414.72
758.381	22432.12
758.719	22309.64
759.056	22321.39
759.394	22235.29
759.731	22161.62
760.068	22077.1
760.405	22018.57
760.743	21903.32
761.08	21943.32
761.417	21947.16
761.754	21805.25
762.091	21795.75
762.428	21730.45
762.765	21585.82
763.102	21699.49
763.438	21436.22
763.775	21391.7
764.112	21406.39
764.449	21367.07
764.785	21275.09
765.122	21134.08
765.458	21068.09
765.795	20997.13
766.131	21029.45
766.467	20805.05
766.804	20725.5
767.14	20745.84
767.476	20761.21
767.812	20661.77
768.148	20703.35
768.485	20563.02
768.821	20424.27
769.157	20353.76
769.492	20291.16
769.828	20301.56
770.164	20155.57
770.5	20090.71
770.836	20124.61
771.171	19857.73
771.507	19892.53
771.842	19812.3
772.178	19744.51
772.513	19675.13
772.849	19589.26
773.184	19602.59
773.519	19423.39
773.855	19476.04
774.19	19366.21
774.525	19269.72
774.86	19223.39
775.195	19284.86
775.53	19094.13
775.865	19004.87
776.2	18926.23
776.535	18853.46
776.87	18780.69
777.205	18792.44
777.539	18614.37
777.874	18626.12
778.209	18547.03
778.543	18480.36
778.878	18312
779.212	18429.29
779.547	18302.51
779.881	18315.85
780.215	18215.74
780.55	18167.6
780.884	18054.16
781.218	18051.22
781.552	18090.77
781.886	17934.39
782.22	17914.05
782.554	17638.35
782.888	17622.76
783.222	17497.56
783.556	17548.18
783.889	17484.91
784.223	17262.77
784.557	17328.3
784.89	17274.97
785.224	17217.12
785.557	17176.89
785.891	17117.91
786.224	17002.89
786.558	17017.58
786.891	16821.42
787.224	16717.47
787.557	16748.2
787.891	16723.35
788.224	16700.97
788.557	16727.64
788.89	16591.15
789.223	16473.18
789.556	16395.67
789.888	16469.11
790.221	16222.12
790.554	16256.47
790.887	16172.4
791.219	16123.36
791.552	16063.02
791.884	15961.33
792.217	15979.86
792.549	15897.38
792.882	15777.61
793.214	15702.36
793.546	15737.83
793.879	15665.75
794.211	15575.58
794.543	15601.12
794.875	15562.92
795.207	15568.35
795.539	15558.18
795.871	15496.71
796.203	15265.76
796.535	15277.73
796.867	15267.11
797.198	15170.17
797.53	15161.8
797.862	14992.09
798.193	15097.17
798.525	15038.42
798.856	15026.89
799.188	14910.29
799.519	14815.6
799.85	14800.23
800.182	14718.43
800.513	14734.47
800.844	14656.28
801.175	14727.92
801.506	14655.15
801.837	14526.79
802.168	14544.42
802.499	14479.56
802.83	14339.91
803.161	14361.83
803.491	14332.45
803.822	14348.72
804.153	14271.21
804.483	14193.24
804.814	14104.66
805.145	14058.56
805.475	14123.64
805.805	14023.98
806.136	13947.15
806.466	14015.62
806.796	13941.72
807.126	13790.99
807.457	13773.37
807.787	13777.89
808.117	13728.62
808.447	13704.89
808.777	13734.05
809.107	13664.89
809.436	13650.66
809.766	13617.44
810.096	13584.9
810.426	13457.67
810.755	13448.86
811.085	13470.1
811.414	13501.28
811.744	13354.17
812.073	13266.94
812.403	13254.06
812.732	13241.63
813.061	13175.87
813.39	13061.97
813.719	13064.46
814.049	13182.42
814.378	13048.41
814.707	13046.83
815.036	13019.49
815.365	12982.2
815.693	12866.72
816.022	12878.25
816.351	12867.4
816.68	12713.28
817.008	12769.78
817.337	12638.26
817.665	12727.74
817.994	12728.65
818.322	12687.52
818.651	12572.49
818.979	12619.05
819.307	12570.23
819.636	12602.1
819.964	12473.29
820.292	12571.59
820.62	12499.5
820.948	12477.81
821.276	12477.13
821.604	12446.62
821.932	12480.97
822.259	12382.22
822.587	12422.89
822.915	12374.08
823.243	12467.64
823.57	12435.77
823.898	12333.86
824.225	12402.33
824.553	12403.23
824.88	12408.2
825.207	12403.23
825.535	12331.82
825.862	12356
826.189	12357.81
826.516	12353.29
826.843	12395.78
827.17	12347.87
827.497	12422.67
827.824	12463.34
828.151	12384.7
828.478	12352.16
828.805	12353.07
829.131	12388.77
829.458	12401.43
829.785	12288.66
830.111	12313.07
830.438	12398.26
830.764	12332.95
831.09	12297.47
831.417	12298.6
831.743	12345.38
832.069	12307.19
832.395	12233.75
832.722	12229.23
833.048	12250.69
833.374	12205.5
833.7	12232.16
834.026	12249.11
834.351	12210.7
834.677	12193.3
835.003	12240.75
835.329	12111.94
835.654	12198.04
835.98	12093.18
836.306	12140.64
836.631	12060.64
836.956	12111.04
837.282	12110.13
837.607	12020.42
837.932	12017.71
838.258	11995.33
838.583	12022.45
838.908	11900.42
839.233	12009.8
839.558	11929.35
839.883	11891.61
840.208	11797.6
840.533	11856.13
840.858	11839.41
841.182	11850.71
841.507	11906.3
841.832	11768.22
842.156	11754.89
842.481	11719.64
842.805	11693.42
843.13	11696.59
843.454	11618.4
843.778	11616.36
844.103	11584.5
844.427	11592.18
844.751	11583.37
845.075	11527.55
845.399	11455.91
845.723	11506.31
846.047	11495.46
846.371	11369.59
846.695	11301.34
847.019	11270.83
847.343	11169.59
847.666	11111.06
847.99	11192.64
848.313	11052.53
848.637	11004.85
848.96	10928.24
849.284	10972.31
849.607	10953.33
849.931	10863.61
850.254	10768.93
850.577	10755.37
850.9	10662.04
851.223	10704.29
851.546	10609.83
851.869	10490.52
852.192	10596.73
852.515	10527.35
852.838	10459.56
853.161	10434.47
853.483	10407.35
853.806	10347.02
854.129	10371.65
854.451	10260.24
854.774	10324.64
855.096	10225.66
855.419	10182.73
855.741	10187.25
856.063	10142.95
856.385	10085.33
856.708	10065.22
857.03	10001.94
857.352	10013.24
857.674	9992.45
857.996	9941.38
858.318	9858.67
858.64	9883.53
858.961	9876.97
859.283	9892.11
859.605	9760.36
859.926	9829.52
860.248	9711.78
860.57	9740.03
860.891	9770.53
861.212	9675.17
861.534	9665.9
861.855	9675.4
862.176	9647.6
862.498	9619.8
862.819	9666.58
863.14	9563.99
863.461	9572.8
863.782	9495.74
864.103	9517.89
864.424	9485.12
864.745	9495.74
865.065	9410.32
865.386	9434.27
865.707	9377.78
866.027	9473.82
866.348	9432.01
866.668	9359.92
866.989	9292.81
867.309	9301.85
867.63	9294.61
867.95	9269.08
868.27	9291
868.59	9285.12
868.91	9267.27
869.23	9269.76
869.55	9178.46
869.87	9265.46
870.19	9215.97
870.51	9182.98
870.83	9159.93
871.15	9095.3
871.469	9135.07
871.789	9147.73
872.109	9131
872.428	9115.41
872.748	9078.12
873.067	9081.96
873.386	9048.29
873.706	9014.62
874.025	9045.36
874.344	8908.18
874.663	9036.77
874.982	8931.91
875.301	8929.88
875.62	8944.79
875.939	8869.77
876.258	8950.22
876.577	8872.03
876.896	8874.29
877.214	8854.4
877.533	8877
877.852	8832.03
878.17	8865.7
878.489	8806.49
878.807	8780.28
879.125	8763.1
879.444	8758.36
879.762	8684.01
880.08	8709.55
880.398	8715.87
880.716	8746.61
881.034	8717.91
881.352	8660.51
881.67	8627.97
881.988	8631.13
882.306	8650.56
882.624	8565.37
882.941	8495.77
883.259	8529.89
883.577	8514.52
883.894	8465.26
884.212	8480.17
884.529	8466.16
884.846	8461.87
885.164	8408.31
885.481	8417.8
885.798	8437.91
886.115	8377.58
886.432	8418.03
886.75	8355.88
887.067	8343
887.383	8345.03
887.7	8350.23
888.017	8316.34
888.334	8193.85
888.651	8257.58
888.967	8101.88
889.284	8172.38
889.6	8134.64
889.917	8047.42
890.233	8134.87
890.55	8059.62
890.866	8110.69
891.182	8056.23
891.498	7996.57
891.815	7974.65
892.131	7963.58
892.447	7964.93
892.763	7936.01
893.079	7893.07
893.395	7832.28
893.71	7824.6
894.026	7898.27
894.342	7841.32
894.657	7781.66
894.973	7775.56
895.289	7796.57
895.604	7724.03
895.92	7705.28
896.235	7593.64
896.55	7663.92
896.865	7602.23
897.181	7569.91
897.496	7607.88
897.811	7571.27
898.126	7487.2
898.441	7497.37
898.756	7473.65
899.071	7400.88
899.386	7451.95
899.7	7389.81
900.015	7360.65
900.33	7289.92
900.644	7208.12
900.959	7305.29
901.273	7221.9
901.588	7217.83
901.902	7158.85
902.216	7183.48
902.531	7127.21
902.845	7116.82
903.159	7120.66
903.473	7021.68
903.787	7015.35
904.101	6942.36
904.415	6952.98
904.729	6986.65
905.042	6912.76
905.356	6859.65
905.67	6961.12
905.984	6851.74
906.297	6861.01
906.611	6832.98
906.924	6780.78
907.237	6743.95
907.551	6678.64
907.864	6723.16
908.177	6677.06
908.491	6678.86
908.804	6633.44
909.117	6575.59
909.43	6523.39
909.743	6515.03
910.056	6506.89
910.368	6447.46
910.681	6412.66
910.994	6460.56
911.307	6339.66
911.619	6370.62
911.932	6311.42
912.244	6325.88
912.557	6279.78
912.869	6298.53
913.181	6268.71
913.494	6242.72
913.806	6218.09
914.118	6191.87
914.43	6126.56
914.742	6124.75
915.054	6090.18
915.366	6067.35
915.678	6036.62
915.99	6029.39
916.302	5988.94
916.613	5957.75
916.925	5954.14
917.236	5975.38
917.548	5918.66
917.859	5900.13
918.171	5867.59
918.482	5866
918.794	5821.26
919.105	5808.83
919.416	5739.45
919.727	5764.99
920.038	5709.85
920.349	5650.42
920.66	5659.91
920.971	5671.66
921.282	5614.26
921.593	5606.8
921.903	5558.67
922.214	5508.05
922.525	5515.73
922.835	5519.57
923.146	5504.21
923.456	5446.81
923.767	5412.91
924.077	5408.16
924.387	5446.81
924.697	5365
925.008	5375.4
925.318	5323.42
925.628	5340.14
925.938	5264.44
926.248	5280.71
926.558	5212.69
926.867	5219.69
927.177	5141.5
927.487	5166.14
927.796	5151.22
928.106	5128.4
928.416	5102.41
928.725	5133.82
929.034	5065.57
929.344	5038.68
929.653	5048.17
929.962	5023.31
930.271	4965.01
930.581	4956.65
930.89	4961.39
931.199	4936.31
931.508	4945.8
931.817	4902.64
932.125	4871.68
932.434	4873.94
932.743	4803.66
933.051	4803.21
933.36	4786.71
933.669	4731.57
933.977	4711.23
934.286	4714.4
934.594	4655.41
934.902	4647.96
935.21	4670.1
935.519	4621.52
935.827	4675.98
936.135	4598.69
936.443	4563.67
936.751	4546.49
937.059	4570.22
937.367	4510.79
937.674	4547.17
937.982	4458.36
938.29	4462.65
938.597	4447.28
938.905	4429.66
939.213	4398.92
939.52	4376.33
939.827	4433.05
940.135	4383.11
940.442	4317.8
940.749	4308.3
941.056	4279.15
941.363	4275.31
941.67	4227.63
941.977	4233.05
942.284	4195.99
942.591	4198.7
942.898	4175.65
943.205	4176.56
943.511	4139.27
943.818	4148.99
944.125	4111.93
944.431	4073.28
944.738	4051.59
945.044	4074.19
945.35	4022.44
945.657	4067.41
945.963	4007.52
946.269	4012.49
946.575	4002.78
946.881	3982.66
947.187	3921.87
947.493	3900.86
947.799	3921.2
948.105	3904.93
948.41	3842.78
948.716	3851.59
949.022	3834.19
949.327	3849.79
949.633	3797.36
949.938	3781.09
950.244	3810.24
950.549	3768.43
950.854	3740.41
951.16	3746.29
951.465	3747.42
951.77	3729.34
952.075	3719.39
952.38	3716.46
952.685	3688.66
952.99	3654.99
953.294	3617.48
953.599	3578.15
953.904	3640.75
954.209	3548.55
954.513	3565.5
954.818	3549.91
955.122	3497.93
955.426	3517.14
955.731	3485.28
956.035	3475.78
956.339	3461.55
956.643	3456.35
956.948	3433.3
957.252	3409.57
957.556	3449.8
957.86	3390.81
958.163	3406.18
958.467	3407.09
958.771	3358.27
959.075	3342.45
959.378	3313.3
959.682	3305.39
959.985	3285.28
960.289	3275.56
960.592	3284.15
960.896	3260.65
961.199	3255
961.502	3241.44
961.805	3240.99
962.108	3178.62
962.411	3209.8
962.714	3132.06
963.017	3167.32
963.32	3154.21
963.623	3139.3
963.926	3113.53
964.228	3057.26
964.531	3123.03
964.833	3075.79
965.136	3056.36
965.438	3074.66
965.741	3028.56
966.043	3022.91
966.345	3025.85
966.648	2980.88
966.95	2979.98
967.252	2968.9
967.554	2956.02
967.856	2948.79
968.158	2939.3
968.46	2897.72
968.761	2928.23
969.063	2926.87
969.365	2869.92
969.666	2871.73
969.968	2841.9
970.269	2845.07
970.571	2837.83
970.872	2853.43
971.174	2787.21
971.475	2771.62
971.776	2791.28
972.077	2775.92
972.378	2771.17
972.679	2756.93
972.98	2782.7
973.281	2742.7
973.582	2721.68
973.883	2730.27
974.183	2739.31
974.484	2689.59
974.785	2666.77
975.085	2653.43
975.386	2657.27
975.686	2648.24
975.986	2627.9
976.287	2619.54
976.587	2596.94
976.887	2596.49
977.187	2546.77
977.487	2597.16
977.787	2548.13
978.087	2554.68
978.387	2517.62
978.687	2535.47
978.987	2524.62
979.286	2492.53
979.586	2497.05
979.885	2446.43
980.185	2435.59
980.484	2466.32
980.784	2438.98
981.083	2462.25
981.382	2471.52
981.682	2427.45
981.981	2416.38
982.28	2392.65
982.579	2416.38
982.878	2411.41
983.177	2359.88
983.475	2359.43
983.774	2338.87
984.073	2360.33
984.372	2313.1
984.67	2292.99
984.969	2315.36
985.267	2263.39
985.566	2290.28
985.864	2276.72
986.162	2309.94
986.461	2256.16
986.759	2239.43
987.057	2227.68
987.355	2222.94
987.653	2208.7
987.951	2208.92
988.249	2198.53
988.547	2178.64
988.844	2150.62
989.142	2142.94
989.44	2174.35
989.737	2147.91
990.035	2123.28
990.332	2129.38
990.63	2120.11
990.927	2096.84
991.224	2090.06
991.521	2114.92
991.819	2082.6
992.116	2074.47
992.413	2075.6
992.71	2051.41
993.006	2055.26
993.303	2072.43
993.6	1994.92
993.897	2011.42
994.193	2026.56
994.49	2019.55
994.787	2000.79
995.083	1977.07
995.379	1985.88
995.676	1972.32
995.972	1966.22
996.268	1951.08
996.565	1945.88
996.861	1945.88
997.157	1925.54
997.453	1911.08
997.749	1927.12
998.044	1876.73
998.34	1901.14
998.636	1857.3
998.932	1881.93
999.227	1848.48
999.523	1854.58
999.818	1819.1
1000.114	1837.64
1000.409	1810.07
1000.704	1790.86
1001	1770.07
1001.295	1761.48
1001.59	1800.35
1001.885	1770.07
1002.18	1748.15
1002.475	1755.38
1002.77	1733.23
1003.065	1714.02
1003.359	1689.39
1003.654	1722.61
1003.949	1711.08
1004.243	1712.21
1004.538	1705.21
1004.832	1681.71
1005.127	1675.61
1005.421	1676.96
1005.715	1654.36
1006.009	1657.3
1006.304	1610.75
1006.598	1647.36
1006.892	1612.33
1007.186	1594.25
1007.48	1595.16
1007.773	1597.87
1008.067	1609.84
1008.361	1605.33
1008.655	1581.6
1008.948	1502.5
1009.242	1547.25
1009.535	1522.39
1009.829	1528.49
1010.122	1493.92
1010.415	1533.69
1010.708	1511.99
1011.001	1508.38
1011.295	1503.18
1011.588	1502.28
1011.881	1476.29
1012.173	1452.33
1012.466	1449.62
1012.759	1438.78
1013.052	1427.93
1013.344	1439.68
1013.637	1430.64
1013.93	1417.99
1014.222	1394.71
1014.514	1414.82
1014.807	1401.71
1015.099	1371.66
1015.391	1370.53
1015.683	1329.4
1015.976	1365.78
1016.268	1357.42
1016.56	1341.38
1016.851	1346.8
1017.143	1345.67
1017.435	1294.37
1017.727	1333.02
1018.018	1307.25
1018.31	1315.62
1018.602	1305.9
1018.893	1291.89
1019.185	1282.62
1019.476	1243.75
1019.767	1280.81
1020.058	1277.65
1020.35	1251.89
1020.641	1236.75
1020.932	1235.17
1021.223	1184.09
1021.514	1229.74
1021.804	1219.35
1022.095	1213.47
1022.386	1165.56
1022.677	1186.35
1022.967	1184.77
1023.258	1173.25
1023.548	1156.98
1023.839	1152.46
1024.129	1170.31
1024.419	1136.64
1024.709	1129.86
1025	1131.21
1025.29	1104.55
1025.58	1127.15
1025.87	1113.36
1026.16	1085.34
1026.449	1090.54
1026.739	1103.19
1027.029	1054.15
1027.319	1060.71
1027.608	1070.65
1027.898	1082.17
1028.187	1077.43
1028.477	1047.15
1028.766	1034.94
1029.055	1016.87
1029.344	1013.02
1029.634	1024.55
1029.923	1012.35
1030.212	1031.1
1030.501	1007.15
1030.79	997.88
1031.078	992.91
1031.367	975.51
1031.656	973.03
1031.945	968.51
1032.233	947.04
1032.522	967.38
1032.81	976.64
1033.099	953.36
1033.387	950.88
1033.675	932.8
1033.963	927.83
1034.251	938.22
1034.54	919.69
1034.828	942.74
1035.116	892.35
1035.403	937.77
1035.691	896.87
1035.979	897.1
1036.267	890.32
1036.554	892.12
1036.842	870.66
1037.129	866.81
1037.417	864.78
1037.704	868.62
1037.992	851.45
1038.279	846.02
1038.566	833.82
1038.853	833.82
1039.14	833.82
