Data from hue_110_FLMS001491_00039.txt Node
Date: Tue Feb 07 17:01:15 GMT 2017
User: dcchb
Spectrometer: FLMS00149
Trigger mode: 0
Integration Time (sec): 2.000000E-2
Scans to average: 10
Electric dark correction enabled: true
Nonlinearity correction enabled: false
Boxcar width: 0
XAxis mode: Wavelengths
Number of Pixels in Spectrum: 2048
>>>>>Begin Spectral Data<<<<<
341.393	-7.47
341.776	-7.47
342.16	-7.47
342.543	-54.7
342.927	-50.63
343.31	-59.9
343.693	-59.22
344.077	-83.63
344.46	-59
344.843	-54.48
345.226	-33.01
345.61	-48.15
345.993	-31.88
346.376	14.22
346.759	13.32
347.142	46.99
347.525	33.88
347.908	50.61
348.291	68.68
348.674	102.36
349.057	99.19
349.44	112.98
349.823	141.9
350.206	166.54
350.588	188.46
350.971	206.99
351.354	237.49
351.737	244.27
352.119	256.02
352.502	249.24
352.884	275.46
353.267	293.31
353.65	308.9
354.032	286.31
354.414	307.1
354.797	323.14
355.179	316.14
355.562	331.73
355.944	314.55
356.326	316.36
356.709	328.79
357.091	343.03
357.473	327.21
357.855	344.61
358.238	320.88
358.62	336.02
359.002	337.83
359.384	330.6
359.766	346.42
360.148	348
360.53	330.82
360.912	349.58
361.294	349.13
361.676	339.86
362.057	330.15
362.439	340.54
362.821	324.5
363.203	315.01
363.584	334.67
363.966	333.54
364.348	331.5
364.729	320.43
365.111	311.84
365.493	327.89
365.874	298.96
366.256	319.75
366.637	318.4
367.019	317.72
367.4	308
367.781	313.65
368.163	309.81
368.544	318.62
368.925	322.69
369.306	315.23
369.688	296.93
370.069	328.34
370.45	315.68
370.831	328.34
371.212	312.07
371.593	343.48
371.974	336.47
372.355	323.82
372.736	306.87
373.117	302.8
373.498	320.2
373.879	316.14
374.26	305.97
374.641	323.14
375.021	325.18
375.402	338.06
375.783	329.69
376.163	334.44
376.544	338.96
376.925	325.85
377.305	317.49
377.686	335.12
378.066	341.45
378.447	319.53
378.827	336.93
379.208	324.95
379.588	333.31
379.968	343.93
380.349	333.31
380.729	352.29
381.109	344.16
381.489	341.67
381.87	340.99
382.25	332.63
382.63	349.58
383.01	337.6
383.39	379.86
383.77	354.1
384.15	348.45
384.53	350.71
384.91	345.97
385.29	355.23
385.67	358.39
386.049	339.86
386.429	362.01
386.809	366.98
387.189	366.76
387.568	365.17
387.948	384.16
388.328	380.09
388.707	380.54
389.087	340.99
389.466	357.04
389.846	362.46
390.225	381.22
390.605	364.27
390.984	384.61
391.363	375.12
391.743	380.99
392.122	368.11
392.501	389.81
392.881	392.74
393.26	384.83
393.639	366.3
394.018	398.39
394.397	386.87
394.776	390.26
395.155	392.07
395.534	367.89
395.913	405.62
396.292	395.68
396.671	398.62
397.05	371.28
397.429	403.59
397.808	403.82
398.186	402.91
398.565	404.72
398.944	416.02
399.323	408.34
399.701	392.29
400.08	393.87
400.458	412.63
400.837	433.87
401.215	421.44
401.594	419.64
401.972	403.82
402.351	419.86
402.729	412.63
403.107	409.69
403.486	417.83
403.864	416.47
404.242	424.16
404.62	429.13
404.999	449.92
405.377	439.52
405.755	448.79
406.133	432.97
406.511	436.36
406.889	425.29
407.267	443.14
407.645	450.37
408.023	450.6
408.401	449.47
408.779	450.14
409.156	442.69
409.534	459.41
409.912	471.39
410.29	469.13
410.667	469.58
411.045	468.67
411.422	474.32
411.8	483.59
412.178	484.49
412.555	501.89
412.933	509.58
413.31	498.73
413.687	497.83
414.065	520.2
414.442	518.84
414.819	513.64
415.197	517.71
415.574	517.49
415.951	504.61
416.328	497.83
416.705	532.18
417.082	553.64
417.46	529.69
417.837	531.27
418.214	533.08
418.591	531.05
418.967	525.62
419.344	529.46
419.721	552.74
420.098	558.84
420.475	559.29
420.852	567.43
421.228	569.46
421.605	573.08
421.982	562.91
422.358	563.59
422.735	591.61
423.111	573.76
423.488	574.43
423.864	590.48
424.241	587.77
424.617	588.67
424.994	584.38
425.37	590.7
425.746	612.4
426.123	619.4
426.499	616.47
426.875	619.4
427.251	619.18
427.627	646.07
428.003	635.68
428.379	655.34
428.756	651.95
429.132	658.05
429.507	666.18
429.883	638.16
430.259	663.7
430.635	670.02
431.011	684.49
431.387	691.27
431.763	694.88
432.138	695.11
432.514	687.2
432.89	690.59
433.265	732.62
433.641	710.02
434.016	714.09
434.392	738.5
434.767	747.76
435.143	732.17
435.518	751.15
435.894	757.03
436.269	770.81
436.644	754.99
437.02	755.9
437.395	784.15
437.77	814.2
438.145	787.31
438.52	811.72
438.895	812.17
439.271	837.48
439.646	814.65
440.021	820.98
440.395	832.51
440.77	820.98
441.145	844.26
441.52	857.14
441.895	876.8
442.27	868.89
442.645	871.15
443.019	881.32
443.394	881.54
443.769	905.95
444.143	889.45
444.518	895.78
444.892	915.22
445.267	880.41
445.641	915.67
446.016	906.4
446.39	922.45
446.764	900.53
447.139	922
447.513	951.6
447.887	942.33
448.262	913.41
448.636	943.01
449.01	976.91
449.384	932.84
449.758	961.32
450.132	988.89
450.506	958.15
450.88	988.66
451.254	988.66
451.628	998.15
452.002	1016.23
452.376	1018.49
452.75	1027.3
453.123	1020.07
453.497	1076.79
453.871	1077.25
454.244	1084.25
454.618	1070.47
454.992	1105.95
455.365	1099.17
455.739	1113.63
456.112	1139.84
456.486	1151.82
456.859	1154.98
457.232	1182.33
457.606	1176.23
457.979	1187.75
458.352	1210.35
458.725	1236.79
459.099	1232.95
459.472	1275.88
459.845	1284.47
460.218	1294.19
460.591	1290.12
460.964	1301.65
461.337	1336
461.71	1344.81
462.083	1378.03
462.456	1380.97
462.829	1392.72
463.201	1395.2
463.574	1384.13
463.947	1437.69
464.32	1502.09
464.692	1474.3
465.065	1491.47
465.438	1512.04
465.81	1535.09
466.183	1548.87
466.555	1619.15
466.928	1616.44
467.3	1624.12
467.672	1649.89
468.045	1671.81
468.417	1711.13
468.789	1709.32
469.161	1757
469.534	1785.25
469.906	1855.53
470.278	1832.93
470.65	1870.22
471.022	1921.97
471.394	1985.7
471.766	2015.07
472.138	2026.15
472.51	2082.64
472.882	2128.74
473.253	2166.03
473.625	2185.47
473.997	2248.97
474.369	2315.63
474.74	2346.82
475.112	2414.16
475.484	2460.94
475.855	2527.15
476.227	2523.76
476.598	2652.57
476.97	2645.79
477.341	2791.32
477.713	2823.19
478.084	2843.75
478.455	3006.23
478.827	3044.65
479.198	3126.91
479.569	3205.55
479.94	3319.67
480.311	3387.47
480.682	3488.26
481.053	3589.5
481.424	3679.44
481.795	3758.08
482.166	3888.02
482.537	3967.11
482.908	4076.94
483.279	4137.73
483.65	4304.05
484.021	4416.82
484.391	4559.41
484.762	4613.88
485.133	4700.43
485.503	4822.68
485.874	4986.07
486.244	5077.14
486.615	5254.99
486.985	5346.96
487.356	5484.59
487.726	5603.68
488.097	5831.24
488.467	5908.98
488.837	6039.15
489.207	6254.06
489.578	6375.19
489.948	6458.8
490.318	6666.93
490.688	6761.84
491.058	6904.21
491.428	7076.41
491.798	7262.17
492.168	7405.21
492.538	7486.12
492.908	7691.54
493.278	7909.38
493.648	7956.84
494.017	8085.65
494.387	8267.79
494.757	8387.11
495.126	8567.9
495.496	8585.52
495.866	8786.65
496.235	8932.18
496.605	9061.67
496.974	9174.43
497.344	9314.09
497.713	9437.93
498.082	9513.41
498.452	9724.02
498.821	9860.07
499.19	9959.5
499.559	10035.65
499.928	10188.42
500.298	10250.11
500.667	10422.76
501.036	10437
501.405	10597.67
501.774	10799.7
502.143	10808.97
502.512	10954.05
502.88	11076.08
503.249	11025.01
503.618	11255.51
503.987	11327.82
504.356	11405.11
504.724	11471.77
505.093	11552
505.462	11668.61
505.83	11763.74
506.199	11886.9
506.567	12046.45
506.936	11986.34
507.304	12174.81
507.672	12180.91
508.041	12267.23
508.409	12357.85
508.777	12514.46
509.145	12572.08
509.514	12654.79
509.882	12741.12
510.25	12748.35
510.618	12819.99
510.986	12894.56
511.354	12987.89
511.722	13031.73
512.09	13206.19
512.458	13159.64
512.826	13232.18
513.193	13335.45
513.561	13347.21
513.929	13438.95
514.297	13533.42
514.664	13612.51
515.032	13660.64
515.4	13714.2
515.767	13691.38
516.135	13864.93
516.502	13742.22
516.869	14007.98
517.237	13878.49
517.604	13885.04
517.972	14107.19
518.339	14110.58
518.706	14069.22
519.073	14150.57
519.44	14167.07
519.808	14276.22
520.175	14236
520.542	14442.32
520.909	14458.36
521.276	14402.55
521.643	14494.29
522.009	14603.44
522.376	14519.15
522.743	14617.23
523.11	14685.7
523.477	14818.81
523.843	14874.17
524.21	14935.86
524.577	14960.27
524.943	15053.15
525.31	14983.32
525.676	15154.16
526.043	15179.25
526.409	15239.81
526.776	15313.93
527.142	15242.3
527.508	15301.96
527.874	15329.53
528.241	15347.6
528.607	15283.88
528.973	15423.54
529.339	15322.97
529.705	15447.04
530.071	15478.67
530.437	15520.71
530.803	15565
531.169	15529.75
531.535	15479.13
531.901	15390.32
532.267	15465.34
532.632	15491.33
532.998	15461.95
533.364	15513.93
533.73	15526.58
534.095	15601.16
534.461	15637.54
534.826	15577.43
535.192	15566.58
535.557	15543.98
535.923	15487.94
536.288	15514.83
536.653	15527.94
537.019	15409.07
537.384	15459.92
537.749	15509.86
538.114	15339.92
538.479	15376.3
538.845	15414.04
539.21	15301.05
539.575	15295.63
539.94	15299.92
540.305	15348.28
540.67	15240.49
541.034	15270.09
541.399	15215.41
541.764	15193.03
542.129	15176.76
542.494	15271.45
542.858	15157.1
543.223	15027.84
543.587	15138.8
543.952	15095.41
544.316	15009.31
544.681	14997.56
545.045	15008.4
545.41	15002.98
545.774	14892.48
546.138	14897.9
546.503	14906.94
546.867	14837.34
547.231	14828.3
547.595	14810.44
547.959	14809.54
548.324	14745.81
548.688	14757.34
549.052	14639.83
549.416	14613.61
549.779	14629.43
550.143	14637.34
550.507	14615.42
550.871	14606.61
551.235	14457.01
551.599	14534.29
551.962	14560.96
552.326	14539.94
552.689	14544.24
553.053	14456.55
553.417	14412.49
553.78	14510.34
554.143	14410.91
554.507	14396.44
554.87	14361.87
555.234	14446.39
555.597	14402.77
555.96	14397.35
556.323	14389.66
556.686	14315.09
557.05	14344.02
557.413	14381.98
557.776	14327.97
558.139	14314.19
558.502	14271.02
558.865	14360.29
559.228	14344.24
559.59	14315.99
559.953	14285.94
560.316	14386.95
560.679	14270.57
561.041	14419.27
561.404	14349.67
561.767	14450
562.129	14291.36
562.492	14498.14
562.854	14417.23
563.217	14386.05
563.579	14421.98
563.941	14459.27
564.304	14578.59
564.666	14574.74
565.028	14543.11
565.39	14537.23
565.753	14573.16
566.115	14584.24
566.477	14621.07
566.839	14613.84
567.201	14594.86
567.563	14600.28
567.925	14731.8
568.287	14679.83
568.648	14631.01
569.01	14740.16
569.372	14760.73
569.734	14640.73
570.095	14765.02
570.457	14781.52
570.819	14861.52
571.18	14809.54
571.542	14802.31
571.903	14830.1
572.265	14794.85
572.626	14875.3
572.987	14892.25
573.349	14864.68
573.71	14913.94
574.071	14960.27
574.432	14906.26
574.794	14992.36
575.155	14894.06
575.516	14963.89
575.877	14996.43
576.238	14938.12
576.599	15058.35
576.96	14984.45
577.32	14997.33
577.681	14993.04
578.042	15029.87
578.403	15094.5
578.763	15058.12
579.124	15035.07
579.485	15016.77
579.845	15037.33
580.206	15124.11
580.566	15065.8
580.927	15004.34
581.287	15064.9
581.648	14945.13
582.008	15128.18
582.368	14986.03
582.728	15017.44
583.089	15029.2
583.449	14999.82
583.809	15108.97
584.169	15091.57
584.529	14962.98
584.889	15092.02
585.249	14946.26
585.609	14968.18
585.969	14976.32
586.329	14930.44
586.688	14957.11
587.048	14958.24
587.408	14894.74
587.768	14849.09
588.127	14887.5
588.487	14961.85
588.846	15000.04
589.206	14896.09
589.565	14820.16
589.925	14830.56
590.284	14857.9
590.643	14898.8
591.003	14895.64
591.362	14914.85
591.721	14887.28
592.08	14903.32
592.44	14847.96
592.799	14877.33
593.158	14781.52
593.517	14861.97
593.876	14852.25
594.235	14727.51
594.593	14877.33
594.952	14798.01
595.311	14712.59
595.67	14770.9
596.029	14811.35
596.387	14777
596.746	14720.73
597.104	14722.08
597.463	14784.23
597.822	14703.1
598.18	14650.9
598.538	14637.57
598.897	14845.47
599.255	14605.93
599.613	14871.46
599.972	14729.77
600.33	14688.64
600.688	14769.99
601.046	14734.06
601.404	14760.95
601.762	14750.78
602.12	14800.05
602.478	14790.78
602.836	14816.55
603.194	14776.77
603.552	14742.65
603.91	14688.87
604.268	14813.16
604.625	14794.4
604.983	14812.7
605.341	14725.7
605.698	14851.8
606.056	14833.04
606.413	14800.95
606.771	14732.93
607.128	14794.63
607.485	14680.28
607.843	14747.39
608.2	14781.29
608.557	14843.44
608.914	14765.7
609.272	14790.33
609.629	14810.9
609.986	14950.78
610.343	14900.61
610.7	14913.49
611.057	14881.85
611.414	14957.33
611.771	14899.03
612.127	14990.78
612.484	15023.77
612.841	14962.53
613.198	14906.71
613.554	14919.59
613.911	14979.7
614.267	15085.69
614.624	14965.24
614.98	15030.78
615.337	15162.3
615.693	15033.49
616.05	15025.13
616.406	15205.69
616.762	15031.46
617.118	15117.55
617.475	15186.25
617.831	15088.4
618.187	15183.09
618.543	15167.27
618.899	15219.92
619.255	15180.6
619.611	15112.13
619.967	15321.39
620.323	15317.32
620.678	15251.56
621.034	15198.91
621.39	15165.69
621.746	15215.18
622.101	15259.92
622.457	15228.29
622.812	15196.65
623.168	15206.37
623.523	15155.52
623.879	15328.4
624.234	15114.84
624.589	15240.26
624.945	15163.88
625.3	15185.8
625.655	15230.55
626.01	15303.31
626.365	15210.21
626.72	15223.77
627.075	15309.41
627.43	15256.31
627.785	15210.43
628.14	15195.52
628.495	15242.52
628.85	15224.67
629.205	15320.71
629.559	15179.25
629.914	15099.93
630.269	15151.68
630.623	15066.93
630.978	15048.63
631.332	15146.93
631.687	15196.42
632.041	15082.98
632.396	15078.01
632.75	14999.14
633.104	15049.76
633.459	14966.37
633.813	15045.92
634.167	14928.63
634.521	14986.03
634.875	15082.98
635.229	14990.1
635.583	14876.88
635.937	14916.88
636.291	14881.4
636.645	14927.05
636.999	14839.6
637.352	14832.36
637.706	14783.55
638.06	14871.69
638.413	14813.61
638.767	14716.44
639.121	14777
639.474	14705.59
639.828	14667.85
640.181	14729.99
640.534	14740.84
640.888	14594.4
641.241	14688.64
641.594	14667.17
641.947	14690.9
642.301	14667.17
642.654	14642.54
643.007	14714.4
643.36	14688.87
643.713	14594.4
644.066	14722.31
644.419	14545.37
644.771	14521.86
645.124	14344.47
645.477	14410.91
645.83	14222.66
646.182	14268.54
646.535	14137.92
646.888	14188.99
647.24	14128.65
647.593	14166.85
647.945	14165.72
648.298	14106.51
648.65	14095.89
649.002	14030.8
649.355	14061.31
649.707	14086.4
650.059	14162.78
650.411	14401.87
650.763	14362.77
651.115	14520.06
651.467	14452.04
651.819	14450.68
652.171	14464.69
652.523	14466.95
652.875	14439.15
653.227	14341.3
653.578	14468.08
653.93	14381.75
654.282	14307.18
654.633	14369.78
654.985	14375.2
655.337	14417.46
655.688	14424.47
656.039	14438.25
656.391	14387.63
656.742	14388.76
657.094	14384.92
657.445	14442.32
657.796	14426.95
658.147	14391.02
658.498	14400.96
658.849	14444.35
659.2	14384.01
659.551	14356.67
659.902	14498.14
660.253	14425.14
660.604	14419.95
660.955	14403.9
661.306	14397.35
661.656	14366.84
662.007	14457.46
662.358	14355.31
662.708	14393.73
663.059	14435.99
663.409	14344.24
663.76	14464.69
664.11	14487.51
664.461	14457.68
664.811	14459.04
665.161	14450
665.511	14484.12
665.862	14447.97
666.212	14479.15
666.562	14474.63
666.912	14472.37
667.262	14427.4
667.612	14462.2
667.962	14461.75
668.312	14450
668.662	14424.47
669.011	14487.74
669.361	14450.23
669.711	14335.88
670.06	14487.97
670.41	14372.49
670.76	14437.12
671.109	14380.17
671.459	14436.44
671.808	14365.48
672.157	14446.84
672.507	14306.95
672.856	14251.14
673.205	14341.3
673.554	14332.26
673.904	14262.21
674.253	14337.01
674.602	14311.7
674.951	14047.07
675.3	14081.42
675.649	14260.85
675.998	14278.71
676.346	14245.04
676.695	14315.54
677.044	14145.15
677.393	14223.11
677.741	14254.53
678.09	14196
678.438	14114.64
678.787	14168.65
679.135	14190.8
679.484	14048.43
679.832	14107.19
680.181	13948.09
680.529	14027.87
680.877	14034.87
681.225	13971.82
681.573	14043.01
681.922	13926.4
682.27	13911.94
682.618	13895.44
682.966	13824.71
683.314	13879.85
683.661	13790.36
684.009	13758.49
684.357	13767.53
684.705	13668.33
685.053	13859.06
685.4	13699.74
685.748	13624.03
686.095	13627.88
686.443	13569.12
686.79	13541.78
687.138	13602.34
687.485	13619.29
687.832	13553.3
688.18	13492.06
688.527	13440.76
688.874	13398.05
689.221	13320.31
689.568	13279.41
689.915	13252.97
690.262	13242.58
690.609	13259.07
690.956	13240.99
691.303	13166.19
691.65	13121.9
691.997	12991.28
692.344	12985.63
692.69	12912.19
693.037	12946.76
693.383	12838.74
693.73	12873.32
694.077	12784.06
694.423	12770.05
694.769	12772.53
695.116	12721.23
695.462	12657.73
695.808	12547.23
696.155	12630.39
696.501	12515.36
696.847	12558.07
697.193	12375.48
697.539	12444.18
697.885	12385.87
698.231	12327.57
698.577	12289.83
698.923	12260.23
699.269	12189.04
699.614	12137.97
699.96	12056.62
700.306	12064.53
700.651	12044.87
700.997	11975.94
701.342	11976.39
701.688	11881.48
702.033	11837.19
702.379	11794.7
702.724	11828.15
703.069	11859.56
703.415	11674.71
703.76	11582.73
704.105	11655.5
704.45	11632
704.795	11569.63
705.14	11526.91
705.485	11512.68
705.83	11422.28
706.175	11474.03
706.52	11346.35
706.865	11389.06
707.209	11324.21
707.554	11254.38
707.899	11298.67
708.243	11208.05
708.588	11182.06
708.932	11105
709.277	11116.08
709.621	11132.12
709.966	11022.29
710.31	11100.03
710.654	10943.88
710.998	10983.65
711.342	10910.21
711.687	10896.42
712.031	10927.61
712.375	10834.28
712.719	10918.57
713.063	10909.3
713.407	10845.58
713.75	10744.79
714.094	10847.38
714.438	10729.2
714.782	10726.03
715.125	10712.02
715.469	10772.36
715.812	10618.69
716.156	10465.47
716.499	10581.85
716.843	10603.55
717.186	10520.84
717.53	10625.92
717.873	10615.3
718.216	10543.89
718.559	10542.99
718.902	10455.53
719.246	10460.95
719.589	10398.58
719.932	10407.17
720.275	10446.49
720.617	10378.47
720.96	10338.92
721.303	10371.24
721.646	10376.89
721.989	10304.35
722.331	10318.36
722.674	10333.27
723.016	10321.97
723.359	10318.81
723.701	10317.45
724.044	10285.82
724.386	10260.51
724.729	10237.46
725.071	10262.77
725.413	10223.22
725.755	10226.84
726.097	10175.09
726.439	10133.05
726.782	10115.88
727.124	10157.91
727.465	10144.13
727.807	10126.5
728.149	10142.09
728.491	10098.48
728.833	10139.38
729.175	10112.26
729.516	10080.62
729.858	10091.25
730.199	10049.44
730.541	10100.29
730.882	10041.98
731.224	10082.21
731.565	10039.72
731.906	10064.13
732.248	10077.69
732.589	10043.34
732.93	9951.81
733.271	10050.34
733.612	10056.44
733.953	10088.76
734.294	10072.49
734.635	10059.16
734.976	10090.57
735.317	10074.3
735.658	10003.56
735.999	10052.83
736.339	10012.83
736.68	10041.08
737.021	10080.17
737.361	9970.35
737.702	10091.25
738.042	10134.41
738.383	10093.96
738.723	10111.36
739.063	10124.24
739.404	10148.65
739.744	10081.75
740.084	10145.03
740.424	10171.02
740.764	10090.12
741.104	10206.05
741.444	10161.3
741.784	10140.96
742.124	10215.08
742.464	10243.56
742.804	10238.59
743.143	10229.1
743.483	10325.14
743.823	10258.93
744.162	10249.43
744.502	10357.23
744.841	10344.35
745.181	10387.74
745.52	10419.82
745.86	10428.64
746.199	10505.92
746.538	10564.68
746.877	10641.74
747.216	10670.44
747.556	10756.09
747.895	10729.2
748.234	10731.91
748.573	10833.83
748.911	10904.11
749.25	10854.39
749.589	10950.88
749.928	11064.33
750.267	11195.85
750.605	11156.53
750.944	11275.62
751.283	11304.32
751.621	11446.24
751.96	11497.76
752.298	11603.52
752.636	11723.75
752.975	11780.92
753.313	11850.07
753.651	12059.78
753.989	12079.22
754.327	12227.46
754.666	12291.87
755.004	12553.78
755.342	12603.5
755.679	12737.5
756.017	12795.81
756.355	13039.87
756.693	13133.88
757.031	13288
757.368	13388.11
757.706	13469.91
758.044	13645.95
758.381	13877.59
758.719	13944.25
759.056	14183.79
759.394	14377.46
759.731	14474.86
760.068	14579.72
760.405	14707.4
760.743	14822.65
761.08	15060.38
761.417	15153.26
761.754	15362.07
762.091	15517.32
762.428	15671.66
762.765	15824.43
763.102	16041.82
763.438	16139.22
763.775	16261.25
764.112	16449.04
764.449	16700.79
764.785	16736.72
765.122	16883.16
765.458	16969.26
765.795	17143.26
766.131	17400.66
766.467	17470.49
766.804	17606.98
767.14	17720.88
767.476	17730.37
767.812	17896.24
768.148	18034.77
768.485	18087.65
768.821	18198.38
769.157	18376
769.492	18426.85
769.828	18594.53
770.164	18520.85
770.5	18689.21
770.836	18914.29
771.171	18873.16
771.507	18958.36
771.842	18945.02
772.178	19100.73
772.513	19135.75
772.849	19186.6
773.184	19331.45
773.519	19479.47
773.855	19339.36
774.19	19488.51
774.525	19505.01
774.86	19603.76
775.195	19728.51
775.53	19748.17
775.865	19701.16
776.2	19828.62
776.535	19612.8
776.87	19630.66
777.205	19710.65
777.539	19616.65
777.874	19773.93
778.209	19736.42
778.543	19884.21
778.878	19717.89
779.212	19820.26
779.547	19696.64
779.881	19814.61
780.215	19748.62
780.55	19862.06
780.884	19766.25
781.218	19911.55
781.552	19841.72
781.886	19735.06
782.22	19714.04
782.554	19822.97
782.888	19615.97
783.222	19650.54
783.556	19570.09
783.889	19590.43
784.223	19526.93
784.557	19524.67
784.89	19638.34
785.224	19509.3
785.557	19402.64
785.891	19558.12
786.224	19488.06
786.558	19468.4
786.891	19281.51
787.224	19331.68
787.557	19309.76
787.891	19377.78
788.224	19371
788.557	19331.91
788.89	19211.46
789.223	19395.86
789.556	19187.05
789.888	19246.03
790.221	19082.42
790.554	18958.58
790.887	19036.32
791.219	18980.28
791.552	18940.96
791.884	18910.22
792.217	18848.53
792.549	18844.01
792.882	18707.52
793.214	18702.77
793.546	18734.63
793.879	18583.9
794.211	18495.54
794.543	18674.52
794.875	18561.53
795.207	18617.12
795.539	18450.35
795.871	18488.31
796.203	18263.23
796.535	18256
796.867	18210.13
797.198	18142.33
797.53	18184.82
797.862	18104.82
798.193	18127.64
798.525	17983.92
798.856	18015.56
799.188	17885.84
799.519	17862.12
799.85	17784.38
800.182	17722.91
800.513	17841.78
800.844	17687.88
801.175	17677.71
801.506	17632.06
801.837	17631.39
802.168	17585.51
802.499	17534.67
802.83	17439.75
803.161	17455.57
803.491	17504.38
803.822	17404.95
804.153	17343.71
804.483	17134.45
804.814	17219.42
805.145	17103.49
805.475	17178.74
805.805	17040.89
806.136	16982.14
806.466	17084.96
806.796	17001.12
807.126	16934.23
807.457	16897.17
807.787	16924.96
808.117	16898.98
808.447	16695.82
808.777	16773.56
809.107	16672.77
809.436	16497.41
809.766	16625.09
810.096	16647.91
810.426	16503.05
810.755	16581.47
811.085	16439.1
811.414	16505.77
811.744	16384.64
812.073	16385.54
812.403	16425.32
812.732	16350.52
813.061	16265.55
813.39	16110.75
813.719	16195.27
814.049	16237.53
814.378	16138.09
814.707	16047.47
815.036	16040.24
815.365	16012.9
815.693	15837.31
816.022	15864.2
816.351	15819.23
816.68	15772.45
817.008	15798.89
817.337	15666.69
817.665	15682.74
817.994	15781.27
818.322	15658.11
818.651	15594.38
818.979	15531.33
819.307	15682.74
819.636	15532.91
819.964	15547.6
820.292	15550.76
820.62	15572.68
820.948	15572.01
821.276	15539.69
821.604	15500.6
821.932	15513.48
822.259	15547.6
822.587	15554.61
822.915	15503.08
823.243	15520.48
823.57	15451.33
823.898	15456.75
824.225	15453.14
824.553	15406.13
824.88	15454.04
825.207	15592.12
825.535	15457.43
825.862	15570.65
826.189	15518.45
826.516	15466.25
826.843	15496.3
827.17	15532.46
827.497	15546.02
827.824	15494.95
828.151	15626.47
828.478	15558.9
828.805	15594.15
829.131	15478.45
829.458	15501.5
829.785	15481.61
830.111	15547.37
830.438	15553.7
830.764	15416.98
831.09	15535.85
831.417	15425.79
831.743	15482.29
832.069	15451.11
832.395	15380.82
832.722	15402.97
833.048	15357.55
833.374	15341.73
833.7	15350.54
834.026	15334.72
834.351	15384.67
834.677	15333.82
835.003	15384.21
835.329	15335.85
835.654	15302.18
835.98	15190.55
836.306	15287.72
836.631	15227.38
836.956	15244.56
837.282	15229.87
837.607	15193.26
837.932	15085.92
838.258	15219.47
838.583	15189.42
838.908	15053.6
839.233	15074.39
839.558	14981.29
839.883	14960.04
840.208	14929.54
840.533	14888.18
840.858	14971.57
841.182	14947.84
841.507	14865.81
841.832	14882.53
842.156	14820.84
842.481	14853.61
842.805	14793.95
843.13	14761.18
843.454	14642.76
843.778	14674.85
844.103	14639.15
844.427	14547.63
844.751	14475.99
845.075	14608.19
845.399	14543.11
845.723	14411.36
846.047	14467.85
846.371	14272.83
846.695	14314.19
847.019	14205.04
847.343	14124.36
847.666	14061.31
847.99	14064.7
848.313	14046.62
848.637	13896.12
848.96	13857.02
849.284	13793.75
849.607	13782
849.931	13717.82
850.254	13637.82
850.577	13553.98
850.9	13510.14
851.223	13523.92
851.546	13495.22
851.869	13331.39
852.192	13387.66
852.515	13286.19
852.838	13208.45
853.161	13224.5
853.483	13193.99
853.806	13121.67
854.129	13080.32
854.451	13026.08
854.774	12994.45
855.096	12926.2
855.419	12958.97
855.741	12928.46
856.063	12804.62
856.385	12839.42
856.708	12790.16
857.03	12715.81
857.352	12779.08
857.674	12665.42
857.996	12625.19
858.318	12549.03
858.64	12549.49
858.961	12463.84
859.283	12421.81
859.605	12310.17
859.926	12419.32
860.248	12309.04
860.57	12315.82
860.891	12343.84
861.212	12174.36
861.534	12160.57
861.855	12169.16
862.176	12175.71
862.498	12077.86
862.819	12215.03
863.14	12034.25
863.461	11991.08
863.782	11995.38
864.103	12042.16
864.424	11963.51
864.745	11989.5
865.065	11897.98
865.386	11871.99
865.707	11884.42
866.027	11875.61
866.348	11845.1
866.668	11879
866.989	11809.39
867.309	11730.75
867.63	11790.86
867.95	11719.68
868.27	11670.41
868.59	11684.2
868.91	11773.24
869.23	11676.74
869.55	11632
869.87	11733.91
870.19	11651.43
870.51	11605.33
870.83	11652.79
871.15	11548.61
871.469	11576.4
871.789	11522.17
872.109	11552
872.428	11536.86
872.748	11533.24
873.067	11488.05
873.386	11488.95
873.706	11427.71
874.025	11453.7
874.344	11341.38
874.663	11384.77
874.982	11377.31
875.301	11308.62
875.62	11248.28
875.939	11265.68
876.258	11294.83
876.577	11216.41
876.896	11199.47
877.214	11161.5
877.533	11153.36
877.852	11195.62
878.17	11122.86
878.489	11124.44
878.807	11106.36
879.125	11039.24
879.444	11065.91
879.762	11007.15
880.08	11098.45
880.398	11001.5
880.716	11006.25
881.034	10950.43
881.352	11009.87
881.67	10908.85
881.988	10949.53
882.306	10854.84
882.624	10793.15
882.941	10819.81
883.259	10771.23
883.577	10719.7
883.894	10742.75
884.212	10720.83
884.529	10686.26
884.846	10722.42
885.164	10667.28
885.481	10592.93
885.798	10673.6
886.115	10558.13
886.432	10589.99
886.75	10507.28
887.067	10539.6
887.383	10595.41
887.7	10470.45
888.017	10459.37
888.334	10422.31
888.651	10382.99
888.967	10393.61
889.284	10283.33
889.6	10284.69
889.917	10258.02
890.233	10186.16
890.55	10195.88
890.866	10206.72
891.182	10188.19
891.498	10135.54
891.815	10096.22
892.131	10006.05
892.447	10088.76
892.763	9948.88
893.079	9931.48
893.395	9903.91
893.71	9892.83
894.026	9898.26
894.342	9840.86
894.657	9792.72
894.973	9800.41
895.289	9796.11
895.604	9750.24
895.92	9644.93
896.235	9598.83
896.55	9637.25
896.865	9643.35
897.181	9570.58
897.496	9539.17
897.811	9508.89
898.126	9431.6
898.441	9431.6
898.756	9385.05
899.071	9330.14
899.386	9327.65
899.7	9236.58
900.015	9206.75
900.33	9210.82
900.644	9124.04
900.959	9218.27
901.273	9130.59
901.588	9100.76
901.902	9036.58
902.216	8998.39
902.531	9003.82
902.845	8955
903.159	8877.04
903.473	8870.49
903.787	8828.68
904.101	8780.77
904.415	8791.85
904.729	8769.92
905.042	8684.05
905.356	8697.38
905.67	8682.02
905.984	8663.26
906.297	8600.21
906.611	8567.9
906.924	8594.34
907.237	8540.33
907.551	8443.83
907.864	8436.83
908.177	8422.82
908.491	8428.24
908.804	8351.18
909.117	8302.59
909.43	8169.71
909.743	8192.76
910.056	8200.45
910.368	8125.65
910.681	8093.78
910.994	8096.27
911.307	8124.29
911.619	7985.54
911.932	7996.39
912.244	7938.99
912.557	7916.16
912.869	7887.01
913.181	7816.5
913.494	7809.5
913.806	7760.69
914.118	7769.73
914.43	7712.78
914.742	7737.64
915.054	7639.33
915.366	7636.85
915.678	7584.42
915.99	7508.71
916.302	7471.2
916.613	7456.06
916.925	7430.98
917.236	7424.88
917.548	7370.41
917.859	7458.32
918.171	7359.57
918.482	7323.18
918.794	7264.65
919.105	7254.26
919.416	7219.23
919.727	7205.45
920.038	7175.62
920.349	7122.74
920.66	7094.49
920.971	7100.36
921.282	7095.62
921.593	6983.53
921.903	6971.1
922.214	6927.94
922.525	6943.31
922.835	6855.62
923.146	6842.74
923.456	6826.25
923.767	6782.86
924.077	6786.25
924.387	6764.1
924.697	6699.02
925.008	6686.82
925.318	6675.06
925.628	6723.42
925.938	6602.98
926.248	6588.06
926.558	6547.38
926.867	6571.79
927.177	6561.62
927.487	6537.22
927.796	6393.94
928.106	6448.4
928.416	6401.17
928.725	6461.96
929.034	6375.19
929.344	6359.37
929.653	6287.73
929.962	6208.18
930.271	6235.53
930.581	6200.73
930.89	6199.37
931.199	6222.65
931.508	6176.09
931.817	6122.99
932.125	6093.61
932.434	6138.81
932.743	6016.55
933.051	6010.22
933.36	6008.87
933.669	5974.74
933.977	5928.87
934.286	5979.49
934.594	5949.21
934.902	5850.68
935.21	5874.41
935.519	5825.37
935.827	5808.87
936.135	5735.43
936.443	5688.88
936.751	5763.9
937.059	5679.16
937.367	5692.49
937.674	5665.83
937.982	5665.37
938.29	5633.28
938.597	5637.13
938.905	5539.73
939.213	5502.21
939.52	5479.62
939.827	5501.31
940.135	5498.15
940.442	5417.7
940.749	5401.65
941.056	5434.65
941.363	5320.52
941.67	5333.86
941.977	5329.11
942.284	5265.61
942.591	5288.43
942.898	5261.32
943.205	5259.28
943.511	5230.58
943.818	5186.74
944.125	5156.23
944.431	5161.21
944.738	5142
945.044	5119.63
945.35	5080.98
945.657	5066.75
945.963	4999.4
946.269	5030.81
946.575	5034.66
946.881	5007.99
947.187	4983.13
947.493	4959.86
947.799	4939.52
948.105	4873.3
948.41	4859.29
948.716	4843.25
949.022	4811.16
949.327	4820.65
949.633	4806.87
949.938	4779.3
950.244	4744.95
950.549	4749.92
950.854	4681.22
951.16	4677.83
951.465	4703.82
951.77	4591.28
952.075	4628.11
952.38	4601.45
952.685	4603.03
952.99	4546.98
953.294	4558.28
953.599	4520.77
953.904	4551.73
954.209	4477.16
954.513	4491.62
954.818	4431.28
955.122	4451.39
955.426	4369.81
955.731	4412.98
956.035	4338.85
956.339	4331.62
956.643	4322.58
956.948	4304.51
957.252	4274.9
957.556	4295.24
957.86	4235.35
958.163	4281.68
958.467	4231.51
958.771	4191.74
959.075	4241.23
959.378	4165.98
959.682	4160.78
959.985	4102.93
960.289	4110.39
960.592	4106.54
960.896	4063.16
961.199	4076.71
961.502	4068.58
961.805	4035.81
962.108	3985.87
962.411	4033.78
962.714	3980.22
963.017	3967.34
963.32	3996.04
963.623	3906.1
963.926	3890.51
964.228	3879.66
964.531	3888.47
964.833	3864.07
965.136	3868.58
965.438	3822.26
965.741	3815.03
966.043	3813.44
966.345	3771.64
966.648	3709.94
966.95	3738.87
967.252	3731.19
967.554	3683.28
967.856	3707.91
968.158	3662.49
968.46	3622.04
968.761	3662.94
969.063	3645.31
969.365	3595.6
969.666	3638.08
969.968	3534.36
970.269	3559.44
970.571	3553.11
970.872	3524.86
971.174	3477.63
971.475	3495.49
971.776	3502.27
972.077	3453
972.378	3436.73
972.679	3421.59
972.98	3441.93
973.281	3410.97
973.582	3417.52
973.883	3357.19
974.183	3384.53
974.484	3336.85
974.785	3310.86
975.085	3348.6
975.386	3344.53
975.686	3304.08
975.986	3286.23
976.287	3280.13
976.587	3254.14
976.887	3229.51
977.187	3234.48
977.487	3236.74
977.787	3180.69
978.087	3203.52
978.387	3173.46
978.687	3131.2
978.987	3096.63
979.286	3143.86
979.586	3067.02
979.885	3078.55
980.185	3071.32
980.484	3053.46
980.784	3074.26
981.083	3062.05
981.382	3048.04
981.682	2993.81
981.981	2995.84
982.28	2956.97
982.579	2985.9
982.878	2987.48
983.177	2944.99
983.475	2929.63
983.774	2927.59
984.073	2883.98
984.372	2901.83
984.67	2876.75
984.969	2864.77
985.267	2855.5
985.566	2863.64
985.864	2813.47
986.162	2832.23
986.461	2769.4
986.759	2786.35
987.057	2776.18
987.355	2770.99
987.653	2749.74
987.951	2716.52
988.249	2719.69
988.547	2733.47
988.844	2703.19
989.142	2686.02
989.44	2705
989.737	2712.23
990.035	2647.15
990.332	2629.07
990.63	2591.33
990.927	2613.7
991.224	2596.98
991.521	2598.79
991.819	2551.33
992.116	2559.24
992.413	2548.62
992.71	2544.1
993.006	2538.22
993.303	2514.95
993.6	2509.07
993.897	2513.37
994.193	2476.08
994.49	2472.92
994.787	2461.84
995.083	2459.81
995.379	2422.97
995.676	2416.19
995.972	2438.11
996.268	2415.06
996.565	2374.84
996.861	2366.7
997.157	2366.03
997.453	2338.68
997.749	2347.27
998.044	2326.25
998.34	2313.37
998.636	2272.47
998.932	2255.97
999.227	2274.95
999.523	2279.25
999.818	2269.76
1000.114	2224.11
1000.409	2225.24
1000.704	2234.73
1001	2213.49
1001.295	2212.58
1001.59	2174.62
1001.885	2178.46
1002.18	2129.42
1002.475	2159.25
1002.77	2129.2
1003.065	2139.59
1003.359	2117.67
1003.654	2098.46
1003.949	2087.84
1004.243	2037.67
1004.538	2071.57
1004.832	2076.09
1005.127	2037.9
1005.421	2019.37
1005.715	2039.03
1006.009	2010.55
1006.304	1974.17
1006.598	1983.66
1006.892	1988.63
1007.186	1966.49
1007.48	1938.01
1007.773	1959.93
1008.067	1915.64
1008.361	1938.92
1008.655	1928.3
1008.948	1884.46
1009.242	1893.04
1009.535	1866.6
1009.829	1906.15
1010.122	1869.54
1010.415	1833.16
1010.708	1797.68
1011.001	1835.42
1011.295	1790.9
1011.588	1781.63
1011.881	1791.13
1012.173	1812.14
1012.466	1752.71
1012.759	1761.97
1013.052	1759.94
1013.344	1719.26
1013.637	1737.57
1013.93	1701.41
1014.222	1722.43
1014.514	1700.73
1014.807	1700.51
1015.099	1680.17
1015.391	1689.66
1015.683	1655.08
1015.976	1628.87
1016.268	1647.17
1016.56	1608.76
1016.851	1613.28
1017.143	1608.31
1017.435	1593.62
1017.727	1600.4
1018.018	1574.63
1018.31	1573.96
1018.602	1574.86
1018.893	1531.92
1019.185	1514.07
1019.476	1552.04
1019.767	1531.92
1020.058	1526.95
1020.35	1497.35
1020.641	1490.79
1020.932	1500.51
1021.223	1464.58
1021.514	1443.11
1021.804	1460.74
1022.095	1433.17
1022.386	1455.77
1022.677	1427.52
1022.967	1384.36
1023.258	1377.12
1023.548	1400.85
1023.839	1387.07
1024.129	1377.12
1024.419	1356.33
1024.709	1383
1025	1340.06
1025.29	1331.02
1025.58	1338.26
1025.87	1303
1026.16	1334.41
1026.449	1323.79
1026.739	1291.48
1027.029	1298.26
1027.319	1295.77
1027.608	1276.79
1027.898	1269.56
1028.187	1257.58
1028.477	1249.67
1028.766	1234.53
1029.055	1208.09
1029.344	1228.65
1029.634	1238.15
1029.923	1204.7
1030.212	1198.82
1030.501	1194.76
1030.79	1199.05
1031.078	1192.5
1031.367	1188.43
1031.656	1163.12
1031.945	1162.67
1032.233	1158.6
1032.522	1170.12
1032.81	1116.11
1033.099	1112.72
1033.387	1132.84
1033.675	1116.11
1033.963	1086.06
1034.251	1080.64
1034.54	1086.51
1034.828	1102.56
1035.116	1067.53
1035.403	1081.09
1035.691	1063.46
1035.979	1053.74
1036.267	1053.07
1036.554	1026.63
1036.842	1041.09
1037.129	1025.04
1037.417	1023.01
1037.704	989.56
1037.992	995.21
1038.279	992.28
1038.566	991.82
1038.853	991.82
1039.14	991.82
