Data from hue_130_FLMS001491_00097.txt Node
Date: Tue Feb 07 16:58:21 GMT 2017
User: dcchb
Spectrometer: FLMS00149
Trigger mode: 0
Integration Time (sec): 2.000000E-2
Scans to average: 10
Electric dark correction enabled: true
Nonlinearity correction enabled: false
Boxcar width: 0
XAxis mode: Wavelengths
Number of Pixels in Spectrum: 2048
>>>>>Begin Spectral Data<<<<<
341.393	-3.02
341.776	-3.02
342.16	-3.02
342.543	-67.88
342.927	-42.57
343.31	-79.86
343.693	-71.5
344.077	-52.74
344.46	-39.86
344.843	-53.87
345.226	-58.39
345.61	-30.14
345.993	-18.39
346.376	-7.09
346.759	-3.7
347.142	25
347.525	56.64
347.908	60.48
348.291	75.62
348.674	77.43
349.057	120.36
349.44	140.25
349.823	140.93
350.206	162.62
350.588	178.22
350.971	228.61
351.354	230.87
351.737	226.12
352.119	238.78
352.502	253.92
352.884	289.63
353.267	267.7
353.65	292.79
354.032	292.79
354.414	304.99
354.797	315.84
355.179	326.23
355.562	332.79
355.944	323.3
356.326	327.36
356.709	317.87
357.091	338.21
357.473	350.64
357.855	339.12
358.238	341.15
358.62	361.94
359.002	346.8
359.384	336.86
359.766	341.38
360.148	326.91
360.53	333.47
360.912	341.83
361.294	353.35
361.676	335.05
362.057	325.1
362.439	344.09
362.821	303.64
363.203	335.95
363.584	315.61
363.966	326.69
364.348	330.3
364.729	330.75
365.111	309.29
365.493	307.03
365.874	320.36
366.256	320.58
366.637	314.03
367.019	307.03
367.4	326.01
367.781	324.43
368.163	314.48
368.544	305.67
368.925	298.66
369.306	316.07
369.688	338.44
370.069	310.87
370.45	312
370.831	314.94
371.212	316.74
371.593	292.11
371.974	311.55
372.355	310.19
372.736	307.7
373.117	319.91
373.498	315.84
373.879	335.73
374.26	289.4
374.641	322.84
375.021	333.47
375.402	320.36
375.783	320.58
376.163	327.36
376.544	328.04
376.925	334.14
377.305	307.03
377.686	327.14
378.066	328.95
378.447	318.78
378.827	338.21
379.208	348.61
379.588	316.07
379.968	325.1
380.349	319.91
380.729	321.26
381.109	333.01
381.489	342.51
381.87	366.91
382.25	358.1
382.63	334.37
383.01	341.15
383.39	324.2
383.77	353.35
384.15	342.73
384.53	344.31
384.91	344.09
385.29	353.13
385.67	336.4
386.049	343.64
386.429	366.46
386.809	360.36
387.189	354.71
387.568	365.1
387.948	359.91
388.328	316.52
388.707	350.19
389.087	377.31
389.466	344.31
389.846	358.55
390.225	366.23
390.605	354.26
390.984	364.88
391.363	366.69
391.743	361.71
392.122	382.96
392.501	369.62
392.881	391.77
393.26	370.53
393.639	390.64
394.018	363.3
394.397	369.85
394.776	392.22
395.155	384.76
395.534	375.5
395.913	368.95
396.292	401.49
396.671	398.1
397.05	381.15
397.429	390.87
397.808	370.53
398.186	380.47
398.565	401.71
398.944	389.28
399.323	389.74
399.701	389.28
400.08	412.11
400.458	386.12
400.837	383.63
401.215	404.42
401.594	395.84
401.972	414.37
402.351	409.17
402.729	408.04
403.107	399
403.486	408.94
403.864	394.48
404.242	399.45
404.62	409.62
404.999	399.68
405.377	410.53
405.755	409.4
406.133	433.58
406.511	434.25
406.889	429.51
407.267	436.51
407.645	430.64
408.023	439.23
408.401	415.72
408.779	442.62
409.156	434.71
409.534	445.33
409.912	450.07
410.29	421.83
410.667	435.16
411.045	446.68
411.422	451.65
411.8	452.78
412.178	448.04
412.555	437.19
412.933	470.41
413.31	469.51
413.687	447.36
414.065	466.34
414.442	471.54
414.819	463.18
415.197	479.45
415.574	491.65
415.951	479.22
416.328	504.76
416.705	466.12
417.082	488.04
417.46	497.76
417.837	502.05
418.214	489.39
418.591	505.21
418.967	494.82
419.344	493.46
419.721	504.99
420.098	517.19
420.475	492.33
420.852	515.38
421.228	483.29
421.605	529.62
421.982	528.71
422.358	523.07
422.735	533.69
423.111	527.58
423.488	528.04
423.864	553.57
424.241	546.79
424.617	540.24
424.994	535.04
425.37	548.6
425.746	556.74
426.123	551.77
426.499	537.08
426.875	562.61
427.251	563.74
427.627	577.75
428.003	560.35
428.379	593.8
428.756	606.9
429.132	587.7
429.507	577.3
429.883	589.28
430.259	614.14
430.635	609.84
431.011	617.07
431.387	619.56
431.763	643.74
432.138	628.83
432.514	622.27
432.89	620.69
433.265	640.12
433.641	628.83
434.016	650.75
434.392	657.3
434.767	678.32
435.143	665.89
435.518	678.32
435.894	669.5
436.269	692.55
436.644	674.25
437.02	681.48
437.395	690.07
437.77	711.31
438.145	702.04
438.52	735.72
438.895	703.4
439.271	722.16
439.646	732.33
440.021	724.64
440.395	737.3
440.77	746.79
441.145	745.88
441.52	748.14
441.895	769.16
442.27	761.93
442.645	785.21
443.019	778.2
443.394	785.43
443.769	778.65
444.143	741.14
444.518	783.85
444.892	765.77
445.267	793.11
445.641	778.2
446.016	811.87
446.39	770.06
446.764	816.39
447.139	796.28
447.513	818.88
447.887	821.59
448.262	808.71
448.636	819.33
449.01	848.93
449.384	859.33
449.758	854.36
450.132	842.83
450.506	856.84
450.88	864.75
451.254	871.98
451.628	898.65
452.002	883.96
452.376	910.4
452.75	898.42
453.123	908.37
453.497	913.56
453.871	924.64
454.244	936.16
454.618	945.2
454.992	945.43
455.365	957.18
455.739	964.18
456.112	970.74
456.486	1012.32
456.859	993.11
457.232	1013.67
457.606	1020.23
457.979	1029.94
458.352	1030.4
458.725	1062.03
459.099	1068.14
459.472	1075.14
459.845	1101.36
460.218	1099.55
460.591	1119.66
460.964	1121.69
461.337	1139.55
461.71	1134.12
462.083	1144.52
462.456	1168.7
462.829	1185.19
463.201	1183.84
463.574	1239.66
463.947	1235.81
464.32	1259.32
464.692	1243.95
465.065	1247.11
465.438	1283.27
465.81	1329.6
466.183	1340.9
466.555	1379.54
466.928	1368.92
467.3	1359.88
467.672	1403.49
468.045	1432.42
468.417	1413.21
468.789	1485.98
469.161	1501.57
469.534	1519.88
469.906	1534.56
470.278	1569.14
470.65	1575.92
471.022	1625.86
471.394	1673.32
471.766	1675.13
472.138	1717.16
472.51	1768.23
472.882	1773.43
473.253	1790.83
473.625	1869.47
473.997	1891.39
474.369	1932.52
474.74	1949.92
475.112	2037.15
475.484	2018.17
475.855	2079.18
476.227	2135
476.598	2201.67
476.97	2254.32
477.341	2343.13
477.713	2400.98
478.084	2442.79
478.455	2538.15
478.827	2564.59
479.198	2634.2
479.569	2643.46
479.94	2803.91
480.311	2838.94
480.682	2919.39
481.053	2991.48
481.424	3081.64
481.795	3140.85
482.166	3246.61
482.537	3325.48
482.908	3431.01
483.279	3534.74
483.65	3580.84
484.021	3748.74
484.391	3778.8
484.762	3875.75
485.133	3963.2
485.503	4066.25
485.874	4213.36
486.244	4320.93
486.615	4455.84
486.985	4493.58
487.356	4744.65
487.726	4762.95
488.097	4892.44
488.467	4987.58
488.837	5188.48
489.207	5278.65
489.578	5440.9
489.948	5527.23
490.318	5687
490.688	5765.19
491.058	5921.34
491.428	6001.11
491.798	6150.94
492.168	6337.6
492.538	6386.41
492.908	6571.04
493.278	6712.06
493.648	6768.32
494.017	6935.55
494.387	7095.32
494.757	7180.07
495.126	7311.14
495.496	7414.41
495.866	7601.52
496.235	7649.88
496.605	7761.97
496.974	7934.62
497.344	8028.18
497.713	8127.84
498.082	8275.4
498.452	8426.36
498.821	8438.11
499.19	8540.03
499.559	8676.52
499.928	8794.71
500.298	8954.93
500.667	8981.83
501.036	9124.65
501.405	9200.58
501.774	9283.51
502.143	9441.02
502.512	9458.42
502.88	9509.04
503.249	9610.28
503.618	9791.07
503.987	9771.41
504.356	9928.24
504.724	9928.47
505.093	9996.71
505.462	10043.27
505.83	10175.47
506.199	10212.3
506.567	10421.11
506.936	10401.45
507.304	10539.75
507.672	10519.41
508.041	10667.88
508.409	10793.98
508.777	10763.02
509.145	10878.5
509.514	10900.87
509.882	10974.09
510.25	10988.78
510.618	11092.05
510.986	11128.89
511.354	11210.02
511.722	11281.65
512.09	11373.18
512.458	11337.92
512.826	11459.27
513.193	11514.19
513.561	11513.74
513.929	11565.26
514.297	11673.05
514.664	11695.2
515.032	11703.79
515.4	11875.76
515.767	11905.59
516.135	11831.92
516.502	11849.1
516.869	11998.02
517.237	11972.71
517.604	11944.46
517.972	11995.31
518.339	12068.98
518.706	12021.07
519.073	12092.25
519.44	12079.6
519.808	12278.46
520.175	12241.85
520.542	12337.44
520.909	12321.63
521.276	12336.54
521.643	12402.08
522.009	12445.24
522.376	12434.39
522.743	12494.5
523.11	12574.5
523.477	12632.8
523.843	12639.58
524.21	12725.46
524.577	12740.15
524.943	12717.32
525.31	12737.21
525.676	12818.79
526.043	12799.8
526.409	12909.63
526.776	12912.57
527.142	12933.36
527.508	12925.68
527.874	12991.66
528.241	13029.4
528.607	12925.23
528.973	13028.73
529.339	12981.27
529.705	13005.9
530.071	13056.75
530.437	13056.3
530.803	13081.61
531.169	13106.24
531.535	12994.6
531.901	12960.7
532.267	12953.92
532.632	13016.97
532.998	12993.25
533.364	13024.43
533.73	12960.25
534.095	12954.15
534.461	13003.42
534.826	12955.51
535.192	12947.82
535.557	12982.17
535.923	12974.26
536.288	12945.11
536.653	12885.23
537.019	12915.51
537.384	12885
537.749	12862.4
538.114	12846.81
538.479	12787.15
538.845	12761.61
539.21	12686.14
539.575	12696.98
539.94	12734.95
540.305	12669.19
540.67	12625.12
541.034	12608.17
541.399	12554.84
541.764	12594.39
542.129	12534.73
542.494	12517.1
542.858	12453.37
543.223	12496.54
543.587	12458.12
543.952	12402.75
544.316	12356.43
544.681	12256.32
545.045	12269.2
545.41	12261.06
545.774	12262.64
546.138	12196.43
546.503	12250.89
546.867	12114.17
547.231	12181.29
547.595	12120.27
547.959	12121.86
548.324	12042.08
548.688	12043.67
549.052	12048.86
549.416	11932.03
549.779	11903.11
550.143	11996.44
550.507	11916.89
550.871	11867.85
551.235	11769.1
551.599	11854.97
551.962	11768.87
552.326	11834.86
552.689	11849.55
553.053	11736.56
553.417	11658.14
553.78	11778.81
554.143	11702.88
554.507	11733.39
554.87	11651.59
555.234	11753.28
555.597	11541.98
555.96	11563.68
556.323	11604.81
556.686	11566.16
557.05	11578.82
557.413	11579.72
557.776	11481.42
558.139	11577.24
558.502	11552.61
558.865	11531.14
559.228	11549.67
559.59	11539.72
559.953	11525.71
560.316	11567.52
560.679	11470.57
561.041	11547.63
561.404	11513.96
561.767	11572.49
562.129	11484.36
562.492	11636.67
562.854	11624.92
563.217	11553.06
563.579	11502.44
563.941	11575.66
564.304	11517.35
564.666	11705.37
565.028	11627.63
565.39	11570.68
565.753	11582.44
566.115	11589.22
566.477	11697.91
566.839	11620.17
567.201	11692.94
567.563	11697.69
567.925	11696.56
568.287	11612.27
568.648	11622.43
569.01	11734.75
569.372	11755.54
569.734	11709.89
570.095	11748.08
570.457	11728.42
570.819	11765.26
571.18	11740.4
571.542	11766.16
571.903	11790.11
572.265	11800.96
572.626	11802.77
572.987	11758.93
573.349	11910.34
573.71	11849.32
574.071	11809.1
574.432	11773.17
574.794	11938.13
575.155	11811.13
575.516	11812.94
575.877	11892.26
576.238	11906.95
576.599	11884.8
576.96	11898.36
577.32	11949.21
577.681	11881.18
578.042	11864.01
578.403	11842.09
578.763	11925.48
579.124	11931.13
579.485	11991.92
579.845	11948.3
580.206	11915.31
580.566	11908.08
580.927	11914.4
581.287	11977.23
581.648	11901.75
582.008	11949.66
582.368	11953.05
582.728	11918.7
583.089	11991.46
583.449	11927.51
583.809	11887.96
584.169	11824.92
584.529	11878.7
584.889	12041.63
585.249	11842.32
585.609	11767.52
585.969	11907.62
586.329	11723.22
586.688	11802.32
587.048	11840.51
587.408	11841.86
587.768	11786.27
588.127	11710.12
588.487	11749.21
588.846	11813.16
589.206	11720.51
589.565	11738.59
589.925	11787.4
590.284	11751.92
590.643	11671.92
591.003	11759.15
591.362	11827.4
591.721	11704.24
592.08	11749.21
592.44	11735.88
592.799	11652.26
593.158	11714.86
593.517	11730.45
593.876	11750.57
594.235	11720.29
594.593	11644.13
594.952	11675.09
595.311	11685.03
595.67	11660.63
596.029	11722.54
596.387	11687.97
596.746	11686.39
597.104	11640.06
597.463	11635.32
597.822	11687.97
598.18	11584.7
598.538	11619.5
598.897	11686.39
599.255	11556.9
599.613	11759.61
599.972	11709.21
600.33	11697.69
600.688	11624.69
601.046	11654.52
601.404	11621.53
601.762	11657.46
602.12	11704.24
602.478	11749.44
602.836	11725.48
603.194	11578.59
603.552	11593.28
603.91	11577.24
604.268	11599.16
604.625	11577.24
604.983	11617.69
605.341	11584.7
605.698	11655.65
606.056	11600.06
606.413	11687.97
606.771	11605.94
607.128	11691.36
607.485	11586.73
607.843	11633.06
608.2	11723
608.557	11713.05
608.914	11707.4
609.272	11739.27
609.629	11723
609.986	11750.79
610.343	11778.81
610.7	11786.72
611.057	11752.6
611.414	11714.41
611.771	11772.49
612.127	11840.51
612.484	11746.5
612.841	11804.8
613.198	11806.38
613.554	11798.02
613.911	11845.25
614.267	11807.51
614.624	11754.86
614.98	11787.4
615.337	11968.64
615.693	11897.23
616.05	11808.64
616.406	11966.61
616.762	11917.79
617.118	11865.14
617.475	11802.32
617.831	11932.03
618.187	11918.7
618.543	11975.87
618.899	11924.8
619.255	11889.32
619.611	11922.77
619.967	12001.41
620.323	11976.78
620.678	11905.14
621.034	11913.73
621.39	11888.19
621.746	11944.46
622.101	12031.24
622.457	11956.21
622.812	11970
623.168	11995.98
623.523	12074.4
623.879	12044.57
624.234	11945.36
624.589	11935.42
624.945	12030.11
625.3	11989.66
625.655	11978.36
626.01	12039.82
626.365	11942.43
626.72	11938.81
627.075	11949.21
627.43	11933.61
627.785	11928.64
628.14	11917.34
628.495	11933.39
628.85	11930.22
629.205	11871.47
629.559	11910.34
629.914	11899.04
630.269	11900.17
630.623	11870.79
630.978	11816.78
631.332	11890.22
631.687	11905.82
632.041	11830.34
632.396	11809.32
632.75	11789.66
633.104	11801.41
633.459	11789.66
633.813	11763.22
634.167	11782.66
634.521	11816.55
634.875	11763.67
635.229	11708.99
635.583	11722.54
635.937	11703.56
636.291	11708.08
636.645	11780.85
636.999	11652.04
637.352	11670.34
637.706	11589.44
638.06	11659.27
638.413	11620.85
638.767	11535.66
639.121	11596.67
639.474	11531.82
639.828	11540.63
640.181	11500.4
640.534	11571.81
640.888	11434.87
641.241	11463.57
641.594	11543.11
641.947	11548.54
642.301	11527.75
642.654	11543.34
643.007	11543.79
643.36	11561.42
643.713	11471.93
644.066	11458.37
644.419	11389.67
644.771	11373.85
645.124	11288.21
645.477	11234.87
645.83	11183.58
646.182	11177.02
646.535	11124.37
646.888	11149
647.24	11071.04
647.593	11250.92
647.945	11159.17
648.298	11034.65
648.65	11056.12
649.002	11019.74
649.355	11036.46
649.707	11062.68
650.059	11147.87
650.411	11256.57
650.763	11217.25
651.115	11311.71
651.467	11277.58
651.819	11305.15
652.171	11391.03
652.523	11326.85
652.875	11258.83
653.227	11183.35
653.578	11382.89
653.93	11310.13
654.282	11262.9
654.633	11226.29
654.985	11331.59
655.337	11263.57
655.688	11283.23
656.039	11358.26
656.391	11301.54
656.742	11273.74
657.094	11329.56
657.445	11290.01
657.796	11350.13
658.147	11282.56
658.498	11299.28
658.849	11338.83
659.2	11353.74
659.551	11334.31
659.902	11353.74
660.253	11295.66
660.604	11333.85
660.955	11327.53
661.306	11386.51
661.656	11373.18
662.007	11395.1
662.358	11352.39
662.708	11346.51
663.059	11363.68
663.409	11299.73
663.76	11330.46
664.11	11376.11
664.461	11347.19
664.811	11406.17
665.161	11365.49
665.511	11391.93
665.862	11361.2
666.212	11468.99
666.562	11396.45
666.912	11421.08
667.262	11388.99
667.612	11391.48
667.962	11372.72
668.312	11348.09
668.662	11405.49
669.011	11400.97
669.361	11366.17
669.711	11428.77
670.06	11365.94
670.41	11276.68
670.76	11332.5
671.109	11341.54
671.459	11289.56
671.808	11306.28
672.157	11322.78
672.507	11259.73
672.856	11272.84
673.205	11377.47
673.554	11341.99
673.904	11292.95
674.253	11355.32
674.602	11298.15
674.951	11123.46
675.3	11051.6
675.649	11266.29
675.998	11214.54
676.346	11239.62
676.695	11247.98
677.044	11225.61
677.393	11197.36
677.741	11183.8
678.09	11112.62
678.438	11164.14
678.787	11190.81
679.135	11151.26
679.484	11056.57
679.832	11119.62
680.181	11038.04
680.529	11046.18
680.877	11040.75
681.225	11016.8
681.573	11151.26
681.922	10983.36
682.27	10933.19
682.618	10955.33
682.966	10928.67
683.314	10867.88
683.661	10843.47
684.009	10870.36
684.357	10824.49
684.705	10868.78
685.053	10838.95
685.4	10829.24
685.748	10728.45
686.095	10745.4
686.443	10687.09
686.79	10710.59
687.138	10706.3
687.485	10758.05
687.832	10619.75
688.18	10669.69
688.527	10606.64
688.874	10565.29
689.221	10556.93
689.568	10501.56
689.915	10509.7
690.262	10420.88
690.609	10459.08
690.956	10422.24
691.303	10406.87
691.65	10329.36
691.997	10285.52
692.344	10195.13
692.69	10277.61
693.037	10208.01
693.383	10137.05
693.73	10177.05
694.077	10076.94
694.423	10069.71
694.769	10020.89
695.116	10028.8
695.462	9948.81
695.808	9954.68
696.155	9934.8
696.501	9867.68
696.847	9877.62
697.193	9781.35
697.539	9824.97
697.885	9769.83
698.231	9693.9
698.577	9664.29
698.923	9663.16
699.269	9615.26
699.614	9509.27
699.96	9574.8
700.306	9583.39
700.651	9471.76
700.997	9431.53
701.342	9392.21
701.688	9390.18
702.033	9322.83
702.379	9404.41
702.724	9325.32
703.069	9290.52
703.415	9188.83
703.76	9223.85
704.105	9220.92
704.45	9164.42
704.795	9128.26
705.14	9054.14
705.485	9033.8
705.83	9035.61
706.175	9108.83
706.52	8999.68
706.865	8951.77
707.209	8953.58
707.554	8970.07
707.899	8914.94
708.243	8863.64
708.588	8822.51
708.932	8737.54
709.277	8749.52
709.621	8768.95
709.966	8732.12
710.31	8707.93
710.654	8691.66
710.998	8621.84
711.342	8642.4
711.687	8639.01
712.031	8600.59
712.375	8562.4
712.719	8563.98
713.063	8567.15
713.407	8584.32
713.75	8510.65
714.094	8497.77
714.438	8432.24
714.782	8513.14
715.125	8425.46
715.469	8482.4
715.812	8415.74
716.156	8363.09
716.499	8387.49
716.843	8406.93
717.186	8340.03
717.53	8295.06
717.873	8376.87
718.216	8293.71
718.559	8289.64
718.902	8220.49
719.246	8328.74
719.589	8301.39
719.932	8229.98
720.275	8214.16
720.617	8234.95
720.96	8208.51
721.303	8247.16
721.646	8244.22
721.989	8204.45
722.331	8205.8
722.674	8131
723.016	8183.88
723.359	8139.81
723.701	8155.86
724.044	8076.77
724.386	8132.58
724.729	8136.88
725.071	8130.77
725.413	8138.01
725.755	8070.66
726.097	8030.21
726.439	8052.36
726.782	8060.72
727.124	8102.08
727.465	8096.65
727.807	8044.9
728.149	8000.83
728.491	7995.19
728.833	8021.17
729.175	8027.27
729.516	8065.92
729.858	8008.74
730.199	7991.12
730.541	7992.02
730.882	7981.4
731.224	7996.77
731.565	7972.36
731.906	7976.88
732.248	8024.79
732.589	7981.63
732.93	7969.65
733.271	8001.06
733.612	8012.36
733.953	8008.74
734.294	8036.09
734.635	7953.83
734.976	7976.88
735.317	7958.8
735.658	7985.02
735.999	7961.29
736.339	7969.88
736.68	8030.44
737.021	8013.72
737.361	8022.76
737.702	8013.04
738.042	8003.77
738.383	7969.88
738.723	8066.14
739.063	8013.72
739.404	8093.49
739.744	8058.69
740.084	8043.09
740.424	8033.83
740.764	8044
741.104	8098.91
741.444	8144.33
741.784	8063.43
742.124	8144.79
742.464	8137.1
742.804	8197.89
743.143	8158.12
743.483	8261.84
743.823	8174.62
744.162	8217.1
744.502	8208.74
744.841	8255.74
745.181	8320.6
745.52	8363.31
745.86	8408.96
746.199	8322.41
746.538	8427.94
746.877	8458.45
747.216	8542.06
747.556	8544.1
747.895	8645.34
748.234	8601.72
748.573	8679.01
748.911	8667.26
749.25	8799.46
749.589	8852.11
749.928	8916.52
750.267	9039.68
750.605	9027.47
750.944	9100.92
751.283	9134.59
751.621	9278.77
751.96	9307.24
752.298	9395.83
752.636	9546.1
752.975	9498.65
753.313	9598.08
753.651	9779.32
753.989	9873.33
754.327	10017.28
754.666	10055.92
755.004	10202.81
755.342	10344.5
755.679	10413.88
756.017	10544.27
756.355	10706.98
756.693	10833.53
757.031	10970.25
757.368	11007.99
757.706	11146.29
758.044	11230.13
758.381	11538.37
758.719	11687.07
759.056	11767.97
759.394	11923.22
759.731	12058.13
760.068	12126.15
760.405	12287.05
760.743	12429.42
761.08	12670.99
761.417	12787.6
761.754	12950.08
762.091	13076.41
762.428	13278.89
762.765	13265.33
763.102	13604.3
763.438	13726.11
763.775	13826.22
764.112	13941.24
764.449	14166.32
764.785	14328.35
765.122	14362.25
765.458	14495.13
765.795	14691.51
766.131	14879.52
766.467	14990.03
766.804	15163.36
767.14	15203.36
767.476	15448.55
767.812	15552.73
768.148	15661.42
768.485	15703.46
768.821	15820.52
769.157	15997.01
769.492	15990.23
769.828	16167.85
770.164	16173.5
770.5	16292.14
770.836	16508.41
771.171	16515.87
771.507	16616.43
771.842	16672.25
772.178	16783.43
772.513	16803.54
772.849	16975.74
773.184	16906.14
773.519	17123.53
773.855	17096.64
774.19	17167.6
774.525	17240.59
774.86	17385.67
775.195	17340.02
775.53	17337.31
775.865	17409.85
776.2	17452.56
776.535	17369.85
776.87	17543.86
777.205	17415.5
777.539	17557.87
777.874	17606.46
778.209	17602.16
778.543	17664.54
778.878	17687.59
779.212	17599
779.547	17801.71
779.881	17815.72
780.215	17650.98
780.55	17760.35
780.884	17756.51
781.218	17777.07
781.552	17913.12
781.886	17767.36
782.22	17640.58
782.554	17760.35
782.888	17624.08
783.222	17727.36
783.556	17585.67
783.889	17525.1
784.223	17645.55
784.557	17628.6
784.89	17668.83
785.224	17468.83
785.557	17569.85
785.891	17566.23
786.224	17509.96
786.558	17530.08
786.891	17467.03
787.224	17424.54
787.557	17400.81
787.891	17509.51
788.224	17434.71
788.557	17479.91
788.89	17376.41
789.223	17445.56
789.556	17354.26
789.888	17300.48
790.221	17251.67
790.554	17211.44
790.887	17133.93
791.219	17093.03
791.552	17124.21
791.884	17058.22
792.217	17013.03
792.549	16961.5
792.882	16942.97
793.214	16943.42
793.546	17051.9
793.879	16734.62
794.211	16805.35
794.543	16894.61
794.875	16794.73
795.207	16863.88
795.539	16679.7
795.871	16742.75
796.203	16585.69
796.535	16547.05
796.867	16541.18
797.198	16571
797.53	16461.63
797.862	16496.88
798.193	16481.29
798.525	16462.08
798.856	16428.64
799.188	16289.2
799.519	16194.07
799.85	16098.7
800.182	16095.54
800.513	16287.17
800.844	15982.55
801.175	16140.73
801.506	16053.73
801.837	16006.5
802.168	15915.65
802.499	15872.04
802.83	15897.35
803.161	15821.19
803.491	15882.89
803.822	15808.31
804.153	15735.32
804.483	15638.83
804.814	15533.29
805.145	15625.95
805.475	15602.67
805.805	15562.67
806.136	15528.32
806.466	15448.77
806.796	15470.47
807.126	15387.76
807.457	15408.78
807.787	15465.5
808.117	15253.53
808.447	15257.14
808.777	15301.21
809.107	15234.99
809.436	15226.41
809.766	15090.82
810.096	15092.4
810.426	15076.35
810.755	15075.45
811.085	14981.44
811.414	14969.24
811.744	14914.1
812.073	14858.28
812.403	14901.44
812.732	14794.78
813.061	14825.51
813.39	14827.32
813.719	14759.3
814.049	14794.78
814.378	14738.74
814.707	14717.72
815.036	14696.25
815.365	14604.95
815.693	14490.83
816.022	14550.49
816.351	14459.42
816.68	14397.5
817.008	14444.73
817.337	14238.18
817.665	14327.9
817.994	14309.82
818.322	14345.3
818.651	14291.29
818.979	14178.75
819.307	14254.91
819.636	14240.22
819.964	14157.51
820.292	14212.87
820.62	14162.03
820.948	14095.82
821.276	14214.91
821.604	14124.52
821.932	14144.85
822.259	14149.37
822.587	14157.96
822.915	14111.86
823.243	14132.88
823.57	14124.52
823.898	14167.23
824.225	14085.65
824.553	14100.34
824.88	14049.49
825.207	14134.68
825.535	14115.48
825.862	14185.98
826.189	14117.28
826.516	14202.25
826.843	14249.71
827.17	14211.29
827.497	14196.38
827.824	14182.37
828.151	14150.5
828.478	14217.39
828.805	14241.12
829.131	14149.15
829.458	14125.42
829.785	14097.85
830.111	14093.78
830.438	14249.03
830.764	14214.46
831.09	14232.76
831.417	14089.49
831.743	14166.77
832.069	14137.85
832.395	14162.25
832.722	14174.46
833.048	14189.15
833.374	14144.18
833.7	14129.49
834.026	14049.49
834.351	14106.44
834.677	14018.3
835.003	14069.83
835.329	13982.37
835.654	14068.7
835.98	13996.16
836.306	14040
836.631	13892.43
836.956	13964.07
837.282	13971.07
837.607	13840.91
837.932	13835.26
838.258	13837.74
838.583	13808.14
838.908	13703.06
839.233	13807.69
839.558	13753
839.883	13666.67
840.208	13744.64
840.533	13635.94
840.858	13658.31
841.182	13674.81
841.507	13618.09
841.832	13527.02
842.156	13542.84
842.481	13534.02
842.805	13483.85
843.13	13461.93
843.454	13430.97
843.778	13381.94
844.103	13404.08
844.427	13411.54
844.751	13414.48
845.075	13357.08
845.399	13282.96
845.723	13140.81
846.047	13216.29
846.371	13036.41
846.695	13126.58
847.019	13012.45
847.343	12928.39
847.666	12918.22
847.99	12872.8
848.313	12783.76
848.637	12734.95
848.96	12759.35
849.284	12633.93
849.607	12632.58
849.931	12569.53
850.254	12469.87
850.577	12389.87
850.9	12297.9
851.223	12384.9
851.546	12247.95
851.869	12153.49
852.192	12294.06
852.515	12109.88
852.838	12162.31
853.161	12110.33
853.483	12012.25
853.806	11927.74
854.129	11981.75
854.451	11806.84
854.774	11852.48
855.096	11843.45
855.419	11734.07
855.741	11690
856.063	11702.43
856.385	11662.43
856.708	11650.23
857.03	11569.1
857.352	11549.22
857.674	11567.75
857.996	11517.13
858.318	11439.84
858.64	11424.93
858.961	11360.52
859.283	11352.16
859.605	11323.46
859.926	11305.83
860.248	11314.42
860.57	11175.89
860.891	11210.24
861.212	11210.47
861.534	11204.14
861.855	11154.88
862.176	11168.21
862.498	11172.73
862.819	11056.35
863.14	11043.92
863.461	11028.78
863.782	11011.38
864.103	11090.47
864.424	10958.72
864.745	10979.51
865.065	10935.9
865.386	10921.89
865.707	10851.83
866.027	10881.89
866.348	10825.62
866.668	10889.12
866.989	10856.35
867.309	10777.94
867.63	10883.24
867.95	10753.08
868.27	10694.1
868.59	10762.57
868.91	10719.18
869.23	10696.58
869.55	10641.9
869.87	10715.34
870.19	10662.91
870.51	10685.28
870.83	10657.71
871.15	10605.51
871.469	10609.13
871.789	10676.7
872.109	10613.2
872.428	10543.37
872.748	10496.36
873.067	10474.22
873.386	10493.88
873.706	10468.34
874.025	10481
874.344	10411.84
874.663	10453.2
874.982	10406.42
875.301	10389.25
875.62	10309.02
875.939	10364.16
876.258	10350.83
876.577	10246.65
876.896	10245.07
877.214	10302.92
877.533	10266.99
877.852	10183.6
878.17	10219.99
878.489	10247.78
878.807	10173.89
879.125	10223.15
879.444	10124.85
879.762	10177.05
880.08	10137.95
880.398	10122.13
880.716	10064.06
881.034	10075.81
881.352	10080.1
881.67	9990.16
881.988	10024.28
882.306	9972.31
882.624	10018.41
882.941	9876.27
883.259	9890.05
883.577	9857.06
883.894	9879.88
884.212	9832.65
884.529	9860.22
884.846	9783.39
885.164	9748.36
885.481	9762.37
885.798	9720.79
886.115	9671.75
886.432	9677.63
886.75	9679.89
887.067	9618.65
887.383	9648.7
887.7	9652.32
888.017	9629.49
888.334	9593.11
888.651	9581.13
888.967	9500.91
889.284	9493.45
889.6	9439.67
889.917	9347.47
890.233	9418.2
890.55	9345.43
890.866	9389.27
891.182	9357.18
891.498	9274.02
891.815	9290.97
892.131	9212.78
892.447	9222.72
892.763	9150.41
893.079	9163.06
893.395	9081.26
893.71	9110.18
894.026	9088.49
894.342	9080.58
894.657	9022.73
894.973	8932.79
895.289	8914.26
895.604	8891.88
895.92	8833.58
896.235	8803.75
896.55	8822.51
896.865	8763.53
897.181	8814.6
897.496	8736.41
897.811	8706.58
898.126	8699.12
898.441	8620.48
898.756	8555.62
899.071	8581.84
899.386	8544.78
899.7	8479.01
900.015	8421.61
900.33	8410.77
900.644	8410.32
900.959	8377.77
901.273	8369.86
901.588	8326.02
901.902	8325.57
902.216	8227.72
902.531	8265.01
902.845	8227.95
903.159	8129.87
903.473	8151.11
903.787	8160.38
904.101	8071.34
904.415	8103.66
904.729	8033.38
905.042	8022.76
905.356	7922.87
905.67	7912.7
905.984	7985.69
906.297	7902.53
906.611	7873.15
906.924	7875.41
907.237	7770.56
907.551	7764
907.864	7792.03
908.177	7747.06
908.491	7711.8
908.804	7620.51
909.117	7609.66
909.43	7572.37
909.743	7521.75
910.056	7484.92
910.368	7467.52
910.681	7412.6
910.994	7406.27
911.307	7351.81
911.619	7316.56
911.932	7352.04
912.244	7280.4
912.557	7289.89
912.869	7237.47
913.181	7194.53
913.494	7169.44
913.806	7112.72
914.118	7124.02
914.43	7089.45
914.742	7037.02
915.054	7018.26
915.366	7007.19
915.678	6987.75
915.99	6954.99
916.302	6899.17
916.613	6888.77
916.925	6860.98
917.236	6874.08
917.548	6800.19
917.859	6783.24
918.171	6712.28
918.482	6707.54
918.794	6681.55
919.105	6670.25
919.416	6584.37
919.727	6615.79
920.038	6603.81
920.349	6572.85
920.66	6540.08
920.971	6518.39
921.282	6512.96
921.593	6434.1
921.903	6390.48
922.214	6438.39
922.525	6375.11
922.835	6368.79
923.146	6381.44
923.456	6300.54
923.767	6263.03
924.077	6298.51
924.387	6267.1
924.697	6167.66
925.008	6152.75
925.318	6171.73
925.628	6143.71
925.938	6127.89
926.248	6091.96
926.558	6104.16
926.867	6034.78
927.177	5953.66
927.487	5991.17
927.796	5892.87
928.106	5940.55
928.416	5877.73
928.725	5900.1
929.034	5861.23
929.344	5827.11
929.653	5784.85
929.962	5750.5
930.271	5714.34
930.581	5698.07
930.89	5748.92
931.199	5616.72
931.508	5707.56
931.817	5637.28
932.125	5639.31
932.434	5617.62
932.743	5583.27
933.051	5513.44
933.36	5556.83
933.669	5473.44
933.977	5457.17
934.286	5480.22
934.594	5462.6
934.902	5385.31
935.21	5352.77
935.519	5368.14
935.827	5309.61
936.135	5301.24
936.443	5310.28
936.751	5250.62
937.059	5276.16
937.367	5276.84
937.674	5219.21
937.982	5206.78
938.29	5176.05
938.597	5178.76
938.905	5153
939.213	5107.8
939.52	5101.25
939.827	5071.42
940.135	5020.8
940.442	5012.89
940.749	5014.92
941.056	5011.76
941.363	4968.6
941.67	4921.14
941.977	4930.63
942.284	4860.58
942.591	4866.68
942.898	4827.13
943.205	4829.39
943.511	4812.44
943.818	4797.98
944.125	4732.22
944.431	4757.3
944.738	4720.24
945.044	4691.54
945.35	4705.78
945.657	4642.73
945.963	4625.1
946.269	4609.06
946.575	4608.61
946.881	4563.86
947.187	4590.98
947.493	4550.53
947.799	4503.07
948.105	4519.34
948.41	4480.25
948.716	4524.09
949.022	4419.91
949.327	4473.47
949.633	4403.64
949.938	4418.56
950.244	4403.64
950.549	4393.47
950.854	4334.49
951.16	4339.91
951.465	4310.99
951.77	4266.7
952.075	4245.45
952.38	4228.5
952.685	4268.96
952.99	4229.18
953.294	4204.55
953.599	4148.05
953.904	4119.35
954.209	4114.16
954.513	4122.29
954.818	4101.95
955.122	4071.22
955.426	4138.56
955.731	4064.67
956.035	4064.22
956.339	4036.42
956.643	3977.89
956.948	3990.77
957.252	3954.16
957.556	3962.97
957.86	3982.86
958.163	3910.77
958.467	3907.38
958.771	3934.5
959.075	3874.62
959.378	3876.2
959.682	3880.72
959.985	3822.87
960.289	3801.4
960.592	3763.21
960.896	3791.23
961.199	3729.31
961.502	3762.98
961.805	3743.77
962.108	3711.23
962.411	3692.02
962.714	3645.47
963.017	3673.26
963.32	3655.64
963.623	3642.31
963.926	3638.01
964.228	3598.24
964.531	3632.36
964.833	3603.66
965.136	3533.61
965.438	3520.05
965.741	3531.8
966.043	3493.38
966.345	3480.73
966.648	3512.14
966.95	3438.47
967.252	3455.42
967.554	3444.57
967.856	3414.06
968.158	3373.39
968.46	3411.12
968.761	3348.3
969.063	3366.83
969.365	3347.62
969.666	3318.92
969.968	3350.79
970.269	3289.09
970.571	3292.26
970.872	3288.19
971.174	3279.6
971.475	3245.71
971.776	3247.97
972.077	3253.62
972.378	3202.77
972.679	3198.25
972.98	3163
973.281	3174.07
973.582	3096.33
973.883	3165.71
974.183	3115.31
974.484	3107.86
974.785	3056.56
975.085	3104.69
975.386	3108.08
975.686	3056.11
975.986	3011.36
976.287	3013.4
976.587	3027.63
976.887	2985.15
977.187	3031.02
977.487	2976.56
977.787	2927.07
978.087	2944.24
978.387	2970.91
978.687	2948.54
978.987	2932.95
979.286	2914.87
979.586	2901.53
979.885	2857.24
980.185	2854.08
980.484	2863.34
980.784	2813.17
981.083	2827.86
981.382	2780.41
981.682	2807.07
981.981	2788.99
982.28	2772.5
982.579	2778.6
982.878	2750.13
983.177	2705.15
983.475	2717.36
983.774	2718.26
984.073	2688.88
984.372	2694.08
984.67	2669.9
984.969	2657.47
985.267	2689.11
985.566	2633.74
985.864	2633.29
986.162	2619.73
986.461	2613.63
986.759	2570.24
987.057	2530.47
987.355	2545.39
987.653	2542.45
987.951	2521.88
988.249	2525.05
988.547	2547.42
988.844	2492.96
989.142	2487.31
989.44	2501.77
989.737	2445.27
990.035	2464.03
990.332	2476.69
990.63	2419.06
990.927	2436.46
991.224	2416.8
991.521	2411.15
991.819	2384.26
992.116	2378.84
992.413	2373.64
992.71	2359.18
993.006	2359.63
993.303	2350.14
993.6	2323.47
993.897	2327.76
994.193	2318.5
994.49	2298.84
994.787	2298.39
995.083	2264.49
995.379	2297.93
995.676	2273.75
995.972	2231.95
996.268	2215.9
996.565	2228.11
996.861	2250.25
997.157	2186.75
997.453	2175
997.749	2154.43
998.044	2198.28
998.34	2166.64
998.636	2137.49
998.932	2132.06
999.227	2107.88
999.523	2138.62
999.818	2122.12
1000.114	2097.71
1000.409	2080.31
1000.704	2087.77
1001	2081.67
1001.295	2021.33
1001.59	2057.71
1001.885	2029.47
1002.18	2016.13
1002.475	1996.92
1002.77	1995.79
1003.065	1985.17
1003.359	1975
1003.654	1978.62
1003.949	1939.75
1004.243	1903.82
1004.538	1935.23
1004.832	1917.6
1005.127	1897.72
1005.421	1876.02
1005.715	1883.03
1006.009	1904.5
1006.304	1881.67
1006.598	1874.67
1006.892	1849.58
1007.186	1832.86
1007.48	1835.35
1007.773	1838.51
1008.067	1799.19
1008.361	1812.75
1008.655	1750.83
1008.948	1772.52
1009.242	1760.77
1009.535	1775.24
1009.829	1751.73
1010.122	1751.96
1010.415	1738.17
1010.708	1744.05
1011.001	1722.58
1011.295	1710.38
1011.588	1677.61
1011.881	1666.09
1012.173	1629.25
1012.466	1649.82
1012.759	1646.88
1013.052	1634.67
1013.344	1625.18
1013.637	1622.25
1013.93	1604.62
1014.222	1599.87
1014.514	1599.42
1014.807	1581.57
1015.099	1582.92
1015.391	1611.4
1015.683	1562.59
1015.976	1547.67
1016.268	1569.82
1016.56	1522.14
1016.851	1479.88
1017.143	1522.36
1017.435	1519.2
1017.727	1488.69
1018.018	1476.71
1018.31	1473.55
1018.602	1464.28
1018.893	1462.02
1019.185	1439.43
1019.476	1427.45
1019.767	1426.77
1020.058	1404.62
1020.35	1405.98
1020.641	1412.08
1020.932	1410.05
1021.223	1383.61
1021.514	1375.25
1021.804	1345.42
1022.095	1366.88
1022.386	1343.83
1022.677	1308.58
1022.967	1318.75
1023.258	1317.17
1023.548	1303.16
1023.839	1310.16
1024.129	1290.73
1024.419	1279.66
1024.709	1267
1025	1247.11
1025.29	1278.98
1025.58	1280.79
1025.87	1219.77
1026.16	1231.3
1026.449	1224.52
1026.739	1229.26
1027.029	1201.69
1027.319	1216.38
1027.608	1180
1027.898	1190.84
1028.187	1196.04
1028.477	1152.65
1028.766	1128.02
1029.055	1177.29
1029.344	1152.43
1029.634	1121.92
1029.923	1149.04
1030.212	1157.62
1030.501	1122.6
1030.79	1116.04
1031.078	1093.67
1031.367	1096.38
1031.656	1086.44
1031.945	1072.88
1032.233	1083.73
1032.522	1066.55
1032.81	1073.79
1033.099	1073.56
1033.387	1060.23
1033.675	1056.38
1033.963	1060
1034.251	1055.03
1034.54	1015.71
1034.828	1025.43
1035.116	1011.19
1035.403	1012.77
1035.691	1008.7
1035.979	1013.67
1036.267	1005.09
1036.554	967.57
1036.842	999.21
1037.129	1006.22
1037.417	975.26
1037.704	964.64
1037.992	948.14
1038.279	953.34
1038.566	947.01
1038.853	947.01
1039.14	947.01
