Data from hue_170_FLMS001491_00012.txt Node
Date: Tue Feb 07 16:48:19 GMT 2017
User: dcchb
Spectrometer: FLMS00149
Trigger mode: 0
Integration Time (sec): 2.000000E-2
Scans to average: 10
Electric dark correction enabled: true
Nonlinearity correction enabled: false
Boxcar width: 0
XAxis mode: Wavelengths
Number of Pixels in Spectrum: 2048
>>>>>Begin Spectral Data<<<<<
341.393	-16.34
341.776	-16.34
342.16	-16.34
342.543	-61.09
342.927	-65.38
343.31	-65.61
343.693	-52.27
344.077	-58.37
344.46	-54.31
344.843	-52.72
345.226	-41.43
345.61	-24.7
345.993	-29
346.376	-12.73
346.759	11
347.142	29.31
347.525	27.73
347.908	42.19
348.291	69.08
348.674	102.3
349.057	109.53
349.44	125.58
349.823	129.42
350.206	166.7
350.588	196.08
350.971	232.92
351.354	218.68
351.737	232.01
352.119	249.87
352.502	263.88
352.884	274.5
353.267	287.61
353.65	291.9
354.032	269.75
354.414	290.09
354.797	301.39
355.179	307.04
355.562	305.23
355.944	312.24
356.326	328.73
356.709	348.17
357.091	333.71
357.473	342.29
357.855	338.68
358.238	342.75
358.62	327.15
359.002	346.81
359.384	347.26
359.766	330.09
360.148	344.78
360.53	335.74
360.912	342.29
361.294	345.91
361.676	351.11
362.057	324.21
362.439	328.96
362.821	327.15
363.203	345.46
363.584	310.88
363.966	345.68
364.348	335.51
364.729	322.86
365.111	332.8
365.493	314.05
365.874	308.85
366.256	311.11
366.637	297.55
367.019	316.76
367.4	321.05
367.781	311.56
368.163	326.7
368.544	317.66
368.925	310.88
369.306	295.74
369.688	289.64
370.069	293.48
370.45	319.24
370.831	312.24
371.212	314.72
371.593	307.94
371.974	315.63
372.355	310.66
372.736	325.12
373.117	311.79
373.498	328.06
373.879	314.05
374.26	324.67
374.641	303.42
375.021	305.01
375.402	316.76
375.783	319.69
376.163	321.05
376.544	328.73
376.925	337.1
377.305	323.08
377.686	313.14
378.066	312.46
378.447	310.43
378.827	328.73
379.208	341.84
379.588	336.42
379.968	335.51
380.349	341.16
380.729	348.17
381.109	362.18
381.489	354.72
381.87	315.4
382.25	330.32
382.63	344.33
383.01	352.46
383.39	352.24
383.77	353.37
384.15	354.95
384.53	352.01
384.91	356.53
385.29	339.81
385.67	326.7
386.049	357.43
386.429	368.73
386.809	354.95
387.189	361.05
387.568	373.03
387.948	347.04
388.328	343.2
388.707	352.91
389.087	372.57
389.466	374.38
389.846	383.87
390.225	385.46
390.605	350.65
390.984	362.18
391.363	361.73
391.743	369.64
392.122	367.6
392.501	379.58
392.881	372.8
393.26	385.68
393.639	389.07
394.018	392.01
394.397	376.19
394.776	370.32
395.155	388.62
395.534	397.89
395.913	384.55
396.292	403.99
396.671	402.63
397.05	394.95
397.429	408.51
397.808	379.35
398.186	396.3
398.565	380.48
398.944	397.66
399.323	410.99
399.701	404.89
400.08	409.18
400.458	408.73
400.837	406.7
401.215	420.03
401.594	399.24
401.972	427.26
402.351	416.64
402.729	410.54
403.107	426.58
403.486	432.91
403.864	460.26
404.242	440.14
404.62	463.87
404.999	413.03
405.377	433.59
405.755	453.02
406.133	438.79
406.511	440.37
406.889	468.39
407.267	453.7
407.645	461.39
408.023	451.67
408.401	459.58
408.779	468.84
409.156	483.31
409.534	468.39
409.912	495.96
410.29	492.57
410.667	504.32
411.045	509.97
411.422	502.52
411.8	516.3
412.178	507.71
412.555	511.78
412.933	522.85
413.31	511.55
413.687	529.18
414.065	542.06
414.442	529.41
414.819	542.06
415.197	543.87
415.574	542.97
415.951	558.11
416.328	580.93
416.705	570.54
417.082	550.42
417.46	563.3
417.837	599.69
418.214	603.53
418.591	587.94
418.967	599.69
419.344	619.35
419.721	622.06
420.098	599.69
420.475	639.23
420.852	633.13
421.228	644.88
421.605	640.82
421.982	664.32
422.358	636.75
422.735	667.48
423.111	664.32
423.488	668.61
423.864	690.76
424.241	685.11
424.617	701.61
424.994	694.37
425.37	693.47
425.746	726.92
426.123	726.24
426.499	728.95
426.875	745.22
427.251	749.97
427.627	764.43
428.003	757.88
428.379	786.12
428.756	785.22
429.132	790.42
429.507	787.48
429.883	793.13
430.259	840.36
430.635	814.6
431.011	821.38
431.387	836.29
431.763	848.72
432.138	842.85
432.514	862.51
432.89	847.59
433.265	883.3
433.641	915.16
434.016	909.51
434.392	917.87
434.767	945.44
435.143	949.51
435.518	965.33
435.894	983.41
436.269	984.54
436.644	978.66
437.02	1004.87
437.395	1021.6
437.77	1016.17
438.145	1011.43
438.52	1043.52
438.895	1072.22
439.271	1051.65
439.646	1075.38
440.021	1095.49
440.395	1128.04
440.77	1102.05
441.145	1140.69
441.52	1147.47
441.895	1117.19
442.27	1145.44
442.645	1137.98
443.019	1171.65
443.394	1158.32
443.769	1201.93
444.143	1183.85
444.518	1191.31
444.892	1217.07
445.267	1236.06
445.641	1229.05
446.016	1231.31
446.39	1266.34
446.764	1242.38
447.139	1261.14
447.513	1264.3
447.887	1281.25
448.262	1256.39
448.636	1291.87
449.01	1305.43
449.384	1302.72
449.758	1331.65
450.132	1354.47
450.506	1353.11
450.88	1375.03
451.254	1389.27
451.628	1380.68
452.002	1401.93
452.376	1416.62
452.75	1441.93
453.123	1417.29
453.497	1464.75
453.871	1489.16
454.244	1518.53
454.618	1525.54
454.992	1544.75
455.365	1535.93
455.739	1594.01
456.112	1588.81
456.486	1618.42
456.859	1624.97
457.232	1627.91
457.606	1639.21
457.979	1688.25
458.352	1713.78
458.725	1719.66
459.099	1745.19
459.472	1786.78
459.845	1809.83
460.218	1827.68
460.591	1817.73
460.964	1862.48
461.337	1936.38
461.71	1899.99
462.083	1951.06
462.456	1952.19
462.829	1961.46
463.201	1989.26
463.574	2013.44
463.947	2034.23
464.32	2110.61
464.692	2103.83
465.065	2146.31
465.438	2174.34
465.81	2250.94
466.183	2222.02
466.555	2276.71
466.928	2321
467.3	2317.83
467.672	2364.16
468.045	2417.04
468.417	2420.2
468.789	2454.55
469.161	2515.57
469.534	2573.42
469.906	2624.72
470.278	2630.59
470.65	2700.2
471.022	2765.28
471.394	2798.05
471.766	2857.26
472.138	2882.34
472.51	2945.84
472.882	3037.82
473.253	3050.92
473.625	3099.73
473.997	3198.49
474.369	3228.32
474.74	3278.49
475.112	3351.48
475.484	3452.27
475.855	3542.44
476.227	3568.2
476.598	3670.79
476.97	3732.49
477.341	3858.13
477.713	3939.49
478.084	3952.82
478.455	4097.45
478.827	4173.38
479.198	4274.85
479.569	4362.75
479.94	4473.94
480.311	4586.7
480.682	4656.3
481.053	4799.8
481.424	4923.42
481.795	4983.3
482.166	5131.55
482.537	5273.46
482.908	5350.75
483.279	5418.09
483.65	5581.25
484.021	5688.14
484.391	5772.88
484.762	5917.51
485.133	6007.46
485.503	6078.87
485.874	6317.05
486.244	6363.15
486.615	6512.75
486.985	6656.03
487.356	6842.69
487.726	6910.26
488.097	7102.34
488.467	7187.31
488.837	7323.58
489.207	7496
489.578	7675.89
489.948	7745.26
490.318	7925.37
490.688	8019.61
491.058	8175.76
491.428	8248.53
491.798	8418.47
492.168	8603.54
492.538	8680.15
492.908	8856.42
493.278	8857.55
493.648	9020.48
494.017	9178.22
494.387	9248.73
494.757	9435.84
495.126	9483.3
495.496	9571.43
495.866	9718.54
496.235	9771.42
496.605	9907.01
496.974	10061.13
497.344	10178.42
497.713	10209.6
498.082	10356.49
498.452	10487.56
498.821	10541.57
499.19	10583.15
499.559	10726.65
499.928	10805.07
500.298	10801
500.667	10938.62
501.036	10942.24
501.405	11131.16
501.774	11137.49
502.143	11239.18
502.512	11348.78
502.88	11401.44
503.249	11366.64
503.618	11491.38
503.987	11520.98
504.356	11693.18
504.724	11746.06
505.093	11710.13
505.462	11778.6
505.83	11879.84
506.199	11957.58
506.567	12077.13
506.936	12004.13
507.304	12294.3
507.672	12162.55
508.041	12316.67
508.409	12431.92
508.777	12405.25
509.145	12489.09
509.514	12408.64
509.882	12518.24
510.25	12578.81
510.618	12678.92
510.986	12653.38
511.354	12767.73
511.722	12854.28
512.09	12959.14
512.458	12851.12
512.826	13041.39
513.193	13025.58
513.561	13048.4
513.929	13072.81
514.297	13186.48
514.664	13208.62
515.032	13207.04
515.4	13254.95
515.767	13284.33
516.135	13329.3
516.502	13271.9
516.869	13388.28
517.237	13393.02
517.604	13367.71
517.972	13461.5
518.339	13491.55
518.706	13462.4
519.073	13451.1
519.44	13572.23
519.808	13663.52
520.175	13587.37
520.542	13710.3
520.909	13789.17
521.276	13770.64
521.643	13828.72
522.009	13812.45
522.376	13863.29
522.743	13887.93
523.11	13976.29
523.477	14030.29
523.843	14109.84
524.21	14215.6
524.577	14169.95
524.943	14210.86
525.31	14108.26
525.676	14236.17
526.043	14188.26
526.409	14256.05
526.776	14241.81
527.142	14333.79
527.508	14311.87
527.874	14324.75
528.241	14301.02
528.607	14293.34
528.973	14413.34
529.339	14310.51
529.705	14393.9
530.071	14406.33
530.437	14418.31
530.803	14460.34
531.169	14386.9
531.535	14423.5
531.901	14370.85
532.267	14385.99
532.632	14404.75
532.998	14308.71
533.364	14388.7
533.73	14299.21
534.095	14418.76
534.461	14261.48
534.826	14314.58
535.192	14341.47
535.557	14327.24
535.923	14310.06
536.288	14231.87
536.653	14245.2
537.019	14148.48
537.384	14070.75
537.749	14220.57
538.114	14090.86
538.479	14042.05
538.845	13984.87
539.21	14007.92
539.575	14022.16
539.94	13908.49
540.305	13938.77
540.67	13853.12
541.034	13875.72
541.399	13823.52
541.764	13764.09
542.129	13755.95
542.494	13717.99
542.858	13661.27
543.223	13701.49
543.587	13664.65
543.952	13511.21
544.316	13550.31
544.681	13474.38
545.045	13422.85
545.41	13390.76
545.774	13484.77
546.138	13399.8
546.503	13365.45
546.867	13301.27
547.231	13341.95
547.595	13278
547.959	13266.25
548.324	13189.41
548.688	13184.44
549.052	13085.24
549.416	13079.13
549.779	13034.39
550.143	12976.09
550.507	13067.16
550.871	12924.79
551.235	12929.31
551.599	12967.05
551.962	12810.21
552.326	12787.84
552.689	12908.74
553.053	12748.52
553.417	12735.19
553.78	12824.22
554.143	12689.54
554.507	12725.24
554.87	12665.13
555.234	12727.05
555.597	12676.66
555.96	12652.7
556.323	12606.15
556.686	12595.53
557.05	12652.25
557.413	12585.59
557.776	12540.84
558.139	12629.65
558.502	12677.11
558.865	12553.72
559.228	12544.68
559.59	12514.4
559.953	12519.37
560.316	12599.6
560.679	12572.03
561.041	12508.53
561.404	12593.04
561.767	12612.25
562.129	12522.09
562.492	12591.91
562.854	12492.48
563.217	12507.85
563.579	12532.93
563.941	12573.61
564.304	12459.71
564.666	12630.11
565.028	12603.67
565.39	12544.23
565.753	12606.38
566.115	12602.76
566.477	12575.42
566.839	12689.31
567.201	12660.16
567.563	12593.27
567.925	12707.17
568.287	12722.31
568.648	12579.49
569.01	12717.56
569.372	12737.22
569.734	12651.12
570.095	12728.86
570.457	12722.76
570.819	12693.61
571.18	12667.17
571.542	12775.64
571.903	12755.3
572.265	12833.04
572.626	12780.38
572.987	12784.23
573.349	12795.3
573.71	12817.67
574.071	12808.41
574.432	12806.15
574.794	12877.78
575.155	12835.07
575.516	12775.64
575.877	12796.43
576.238	12955.97
576.599	12925.69
576.96	12820.61
577.32	12880.72
577.681	12949.65
578.042	12873.94
578.403	12852.25
578.763	12870.33
579.124	12813.6
579.485	12922.3
579.845	12968.18
580.206	12851.79
580.566	12824.45
580.927	12863.09
581.287	12984.9
581.648	12870.55
582.008	12906.26
582.368	12810.67
582.728	12845.02
583.089	12810.67
583.449	12833.04
583.809	12845.47
584.169	12752.14
584.529	12744.68
584.889	12899.93
585.249	12768.86
585.609	12805.24
585.969	12734.28
586.329	12688.18
586.688	12767.05
587.048	12738.58
587.408	12649.77
587.768	12729.54
588.127	12589.88
588.487	12693.83
588.846	12721.4
589.206	12699.26
589.565	12693.61
589.925	12736.77
590.284	12635.98
590.643	12637.34
591.003	12666.26
591.362	12673.49
591.721	12720.27
592.08	12683.89
592.44	12749.88
592.799	12608.41
593.158	12463.1
593.517	12624
593.876	12552.37
594.235	12560.5
594.593	12513.5
594.952	12648.64
595.311	12585.14
595.67	12657.45
596.029	12615.42
596.387	12596.66
596.746	12511.92
597.104	12530.45
597.463	12448.42
597.822	12544.01
598.18	12515.53
598.538	12494.97
598.897	12600.5
599.255	12454.07
599.613	12604.8
599.972	12551.24
600.33	12550.33
600.688	12540.62
601.046	12530.22
601.404	12607.06
601.762	12584.23
602.12	12592.59
602.478	12559.6
602.836	12619.94
603.194	12492.71
603.552	12500.39
603.91	12491.35
604.268	12572.71
604.625	12512.82
604.983	12498.36
605.341	12481.18
605.698	12578.36
606.056	12535.42
606.413	12536.32
606.771	12478.02
607.128	12578.81
607.485	12506.49
607.843	12492.93
608.2	12498.81
608.557	12606.38
608.914	12545.14
609.272	12617
609.629	12625.59
609.986	12653.83
610.343	12589.65
610.7	12647.05
611.057	12635.3
611.414	12609.54
611.771	12629.65
612.127	12688.18
612.484	12682.08
612.841	12665.36
613.198	12662.65
613.554	12674.17
613.911	12689.99
614.267	12741.52
614.624	12745.13
614.98	12725.24
615.337	12738.8
615.693	12712.14
616.05	12699.03
616.406	12854.96
616.762	12755.3
617.118	12750.78
617.475	12727.73
617.831	12792.81
618.187	12808.63
618.543	12826.71
618.899	12923.66
619.255	12917.78
619.611	12825.35
619.967	12951.68
620.323	12917.1
620.678	12809.31
621.034	12804.11
621.39	12809.99
621.746	12806.82
622.101	12962.3
622.457	12861.74
622.812	12859.48
623.168	12941.74
623.523	12803.89
623.879	12893.83
624.234	12847.73
624.589	12918.01
624.945	12898.57
625.3	12922.98
625.655	12859.03
626.01	12883.88
626.365	12908.29
626.72	12819.03
627.075	12848.86
627.43	12915.52
627.785	12811.12
628.14	12804.11
628.495	12919.82
628.85	12862.42
629.205	12857.67
629.559	12930.21
629.914	12762.31
630.269	12807.28
630.623	12809.99
630.978	12728.18
631.332	12752.36
631.687	12840.04
632.041	12795.3
632.396	12720.95
632.75	12660.39
633.104	12642.31
633.459	12649.99
633.813	12663.1
634.167	12624.23
634.521	12569.99
634.875	12629.2
635.229	12582.88
635.583	12518.02
635.937	12530.45
636.291	12436.21
636.645	12524.8
636.999	12455.65
637.352	12520.05
637.706	12432.6
638.06	12521.18
638.413	12421.98
638.767	12440.73
639.121	12480.96
639.474	12318.25
639.828	12414.97
640.181	12435.31
640.534	12368.42
640.888	12346.27
641.241	12346.5
641.594	12363.67
641.947	12408.87
642.301	12354.63
642.654	12351.02
643.007	12314.18
643.36	12360.06
643.713	12276.67
644.066	12372.94
644.419	12248.87
644.771	12252.26
645.124	12147.41
645.477	12068.99
645.83	12047.75
646.182	11927.07
646.535	11954.19
646.888	11937.92
647.24	11892.95
647.593	11979.95
647.945	11889.56
648.298	11848.88
648.65	11797.81
649.002	11745.16
649.355	11885.72
649.707	11873.97
650.059	11911.25
650.411	12073.06
650.763	12028.09
651.115	12219.5
651.467	12088.65
651.819	12096.11
652.171	12125.03
652.523	12122.32
652.875	12126.39
653.227	12005.26
653.578	12154.64
653.93	12142.43
654.282	12060.86
654.633	12020.18
654.985	12102.66
655.337	12068.99
655.688	12114.64
656.039	12195.77
656.391	12074.87
656.742	12096.79
657.094	12132.04
657.445	12200.29
657.796	12193.96
658.147	12146.05
658.498	12118.25
658.849	12177.01
659.2	12189.44
659.551	12158.25
659.902	12161.64
660.253	12159.61
660.604	12167.07
660.955	12139.05
661.306	12258.59
661.656	12144.24
662.007	12201.42
662.358	12177.24
662.708	12147.18
663.059	12209.1
663.409	12092.04
663.76	12192.38
664.11	12186.5
664.461	12204.35
664.811	12215.88
665.161	12228.31
665.511	12145.82
665.862	12219.95
666.212	12195.77
666.562	12254.07
666.912	12182.43
667.262	12207.07
667.612	12238.03
667.962	12249.78
668.312	12256.33
668.662	12249.78
669.011	12245.26
669.361	12193.96
669.711	12153.51
670.06	12189.21
670.41	12196.22
670.76	12126.39
671.109	12170
671.459	12119.16
671.808	12205.03
672.157	12175.43
672.507	12087.52
672.856	12052.49
673.205	12082.32
673.554	12108.31
673.904	12074.87
674.253	12176.33
674.602	12073.51
674.951	12008.88
675.3	11870.35
675.649	12025.6
675.998	12040.97
676.346	12083.91
676.695	12034.64
677.044	11949.67
677.393	12062.66
677.741	12054.08
678.09	11960.97
678.438	11928.43
678.787	11957.13
679.135	11962.55
679.484	11844.36
679.832	11805.95
680.181	11786.51
680.529	11776.79
680.877	11797.36
681.225	11799.17
681.573	11821.99
681.922	11774.76
682.27	11717.81
682.618	11659.96
682.966	11632.39
683.314	11727.76
683.661	11600.3
684.009	11621.32
684.357	11545.16
684.705	11545.61
685.053	11553.3
685.4	11511.27
685.748	11481.44
686.095	11437.14
686.443	11451.38
686.79	11463.58
687.138	11518.95
687.485	11432.4
687.832	11382.23
688.18	11360.08
688.527	11276.7
688.874	11271.27
689.221	11211.16
689.568	11202.57
689.915	11140.2
690.262	11152.63
690.609	11166.42
690.956	11021.79
691.303	11060.66
691.65	11006.65
691.997	11013.65
692.344	10976.59
692.69	10908.57
693.037	10911.05
693.383	10836.93
693.73	10771.85
694.077	10830.83
694.423	10726.43
694.769	10733.88
695.116	10644.4
695.462	10691.85
695.808	10663.15
696.155	10647.79
696.501	10524.85
696.847	10569.59
697.193	10408.47
697.539	10467.68
697.885	10330.96
698.231	10253.45
698.577	10338.87
698.923	10260.45
699.269	10231.07
699.614	10164.86
699.96	10162.15
700.306	10100.68
700.651	10073.11
700.997	10008.93
701.342	10068.37
701.688	10024.52
702.033	9897.52
702.379	9996.73
702.724	9950.85
703.069	9961.7
703.415	9794.93
703.76	9806.23
704.105	9810.74
704.45	9768.49
704.795	9694.59
705.14	9607.81
705.485	9646.91
705.83	9600.81
706.175	9612.11
706.52	9530.75
706.865	9544.54
707.209	9500.47
707.554	9458.21
707.899	9459.12
708.243	9374.37
708.588	9312
708.932	9282.85
709.277	9152.68
709.621	9320.36
709.966	9230.87
710.31	9230.2
710.654	9147.94
710.998	9165.79
711.342	9203.98
711.687	9101.84
712.031	9154.94
712.375	9105
712.719	9104.1
713.063	9080.59
713.407	9104.77
713.75	9044.21
714.094	8998.34
714.438	8962.86
714.782	8962.63
715.125	8962.41
715.469	8980.71
715.812	8870.88
716.156	8873.82
716.499	8904.33
716.843	8935.74
717.186	8849.87
717.53	8883.54
717.873	8882.86
718.216	8791.11
718.559	8830.21
718.902	8799.92
719.246	8795.4
719.589	8781.39
719.932	8698.23
720.275	8673.37
720.617	8754.5
720.96	8716.08
721.303	8662.3
721.646	8725.35
721.989	8663.43
722.331	8694.84
722.674	8594.51
723.016	8652.81
723.359	8654.84
723.701	8640.38
724.044	8541.4
724.386	8564.22
724.729	8614.62
725.071	8584.79
725.413	8632.7
725.755	8575.3
726.097	8581.17
726.439	8473.83
726.782	8551.12
727.124	8550.44
727.465	8569.42
727.807	8526.48
728.149	8500.04
728.491	8495.53
728.833	8442.19
729.175	8462.98
729.516	8481.06
729.858	8529.2
730.199	8446.26
730.541	8486.49
730.882	8440.39
731.224	8429.99
731.565	8433.61
731.906	8387.51
732.248	8468.63
732.589	8466.83
732.93	8457.11
733.271	8375.53
733.612	8528.29
733.953	8528.52
734.294	8442.19
734.635	8444.68
734.976	8452.14
735.317	8431.8
735.658	8489.65
735.999	8506.37
736.339	8459.82
736.68	8502.53
737.021	8467.73
737.361	8414.17
737.702	8443.78
738.042	8520.16
738.383	8455.3
738.723	8533.26
739.063	8532.36
739.404	8568.97
739.744	8528.07
740.084	8563.77
740.424	8554.05
740.764	8565.35
741.104	8541.85
741.444	8551.34
741.784	8625.69
742.124	8590.66
742.464	8648.06
742.804	8668.4
743.143	8629.76
743.483	8702.75
743.823	8746.59
744.162	8726.93
744.502	8705.24
744.841	8798.12
745.181	8902.52
745.52	8808.96
745.86	8952.24
746.199	8857.32
746.538	8895.74
746.877	8963.76
747.216	9059.58
747.556	9059.13
747.895	9122.18
748.234	9151.33
748.573	9196.52
748.911	9289.85
749.25	9352
749.589	9399.23
749.928	9483.3
750.267	9504.31
750.605	9533.24
750.944	9671.31
751.283	9722.84
751.621	9830.41
751.96	9922.38
752.298	9991.31
752.636	10080.12
752.975	10119.89
753.313	10241.24
753.651	10438.3
753.989	10508.35
754.327	10665.41
754.666	10621.57
755.004	10841.68
755.342	10961
755.679	11112.18
756.017	11175.45
756.355	11335.9
756.693	11464.71
757.031	11685.05
757.368	11715.1
757.706	11846.62
758.044	12070.57
758.381	12200.51
758.719	12482.77
759.056	12529.77
759.394	12692.48
759.731	12798.01
760.068	12979.02
760.405	13171.33
760.743	13253.59
761.08	13520.48
761.417	13595.96
761.754	13804.76
762.091	13988.71
762.428	14145.09
762.765	14242.04
763.102	14517.06
763.438	14551.86
763.775	14685.19
764.112	14951.63
764.449	15155.24
764.785	15316.81
765.122	15363.37
765.458	15514.32
765.795	15646.3
766.131	15851.72
766.467	15951.83
766.804	16119.28
767.14	16228.2
767.476	16336
767.812	16418.93
768.148	16760.39
768.485	16758.13
768.821	16969.88
769.157	16949.99
769.492	17177.56
769.828	17395.86
770.164	17306.59
770.5	17512.92
770.836	17513.82
771.171	17724.66
771.507	17732.8
771.842	17770.08
772.178	17863.41
772.513	18043.97
772.849	18070.87
773.184	18143.41
773.519	18304.08
773.855	18289.39
774.19	18347.02
774.525	18507.69
774.86	18550.18
775.195	18627.01
775.53	18649.38
775.865	18728.25
776.2	18551.08
776.535	18652.09
776.87	18715.6
777.205	18752.88
777.539	18792.43
777.874	18941.58
778.209	18766.22
778.543	18883.27
778.878	18933.67
779.212	19036.49
779.547	18927.12
779.881	19068.81
780.215	18943.16
780.55	19076.04
780.884	19035.81
781.218	19012.31
781.552	19182.25
781.886	19102.25
782.22	19123.72
782.554	19017.28
782.888	18968.92
783.222	19041.91
783.556	18846.67
783.889	18962.37
784.223	18876.95
784.557	18848.25
784.89	18911.97
785.224	18806.44
785.557	18747.91
785.891	18869.72
786.224	18853.67
786.558	18853.9
786.891	18793.33
787.224	18706.56
787.557	18680.12
787.891	18703.17
788.224	18684.41
788.557	18756.27
788.89	18663.62
789.223	18686.67
789.556	18541.81
789.888	18681.25
790.221	18548.37
790.554	18578.2
790.887	18479.44
791.219	18464.08
791.552	18487.8
791.884	18427.02
792.217	18374.14
792.549	18358.09
792.882	18349.5
793.214	18266.57
793.546	18261.6
793.879	18144.54
794.211	18121.71
794.543	18225.44
794.875	18060.92
795.207	18173.01
795.539	18106.8
795.871	18126.91
796.203	17885.56
796.535	17894.83
796.867	17781.16
797.198	17749.29
797.53	17864.09
797.862	17681.27
798.193	17644.66
798.525	17659.58
798.856	17645.34
799.188	17518.79
799.519	17426.59
799.85	17346.14
800.182	17395.63
800.513	17404.9
800.844	17237.89
801.175	17495.97
801.506	17263.66
801.837	17298.23
802.168	17260.27
802.499	17156.99
802.83	17076.99
803.161	17084.45
803.491	17121.06
803.822	17030.22
804.153	16948.86
804.483	16845.59
804.814	16825.02
805.145	16750
805.475	16835.19
805.805	16765.14
806.136	16765.14
806.466	16841.07
806.796	16711.35
807.126	16629.77
807.457	16582.54
807.787	16593.62
808.117	16538.25
808.447	16391.59
808.777	16419.84
809.107	16437.01
809.436	16385.94
809.766	16368.99
810.096	16297.81
810.426	16211.25
810.755	16283.34
811.085	16248.99
811.414	16228.43
811.744	16059.62
812.073	16039.51
812.403	16087.87
812.732	15923.35
813.061	15974.65
813.39	15927.19
813.719	15933.75
814.049	15987.53
814.378	15919.96
814.707	15851.04
815.036	15835.45
815.365	15774.43
815.693	15627.09
816.022	15691.27
816.351	15665.73
816.68	15606.75
817.008	15552.51
817.337	15540.99
817.665	15475.23
817.994	15466.19
818.322	15477.26
818.651	15366.53
818.979	15345.29
819.307	15344.61
819.636	15400.88
819.964	15316.14
820.292	15341.9
820.62	15307.55
820.948	15263.03
821.276	15322.92
821.604	15139.64
821.932	15286.08
822.259	15316.59
822.587	15258.51
822.915	15260.09
823.243	15332.63
823.57	15238.4
823.898	15225.52
824.225	15201.11
824.553	15235.01
824.88	15252.64
825.207	15277.95
825.535	15234.56
825.862	15264.16
826.189	15209.02
826.516	15287.21
826.843	15331.73
827.17	15259.19
827.497	15300.54
827.824	15327.89
828.151	15394.78
828.478	15274.33
828.805	15378.06
829.131	15301.9
829.458	15216.48
829.785	15226.87
830.111	15303.48
830.438	15298.51
830.764	15290.83
831.09	15322.92
831.417	15205.63
831.743	15359.07
832.069	15309.13
832.395	15271.62
832.722	15267.1
833.048	15146.2
833.374	15238.4
833.7	15165.18
834.026	15146.2
834.351	15158.63
834.677	15150.72
835.003	15253.31
835.329	15142.81
835.654	15186.2
835.98	15077.27
836.306	15085.63
836.631	15075.01
836.956	15095.13
837.282	15092.87
837.607	15021
837.932	14969.03
838.258	15017.61
838.583	14950.5
838.908	14862.14
839.233	14926.99
839.558	14807
839.883	14815.81
840.208	14757.96
840.533	14770.61
840.858	14775.13
841.182	14795.25
841.507	14777.39
841.832	14687.23
842.156	14582.82
842.481	14681.35
842.805	14545.08
843.13	14564.97
843.454	14508.02
843.778	14554.8
844.103	14444.75
844.427	14477.06
844.751	14402.26
845.075	14309.84
845.399	14302.38
845.723	14222.15
846.047	14286.11
846.371	14150.97
846.695	14169.05
847.019	14054.7
847.343	13964.08
847.666	13887.47
847.99	13838.44
848.313	13929.51
848.637	13750.3
848.96	13755.5
849.284	13656.75
849.607	13586.92
849.931	13570.65
850.254	13482.51
850.577	13388.05
850.9	13392.57
851.223	13370.2
851.546	13215.4
851.869	13240.71
852.192	13252.46
852.515	13092.01
852.838	13042.3
853.161	13088.85
853.483	13001.4
853.806	12888.18
854.129	12944.45
854.451	12858.8
854.774	12824.22
855.096	12736.32
855.419	12750.78
855.741	12745.36
856.063	12635.98
856.385	12610.22
856.708	12565.47
857.03	12606.83
857.352	12555.08
857.674	12516.89
857.996	12432.37
858.318	12431.24
858.64	12386.27
858.961	12341.07
859.283	12310.57
859.605	12251.58
859.926	12322.54
860.248	12193.73
860.57	12233.73
860.891	12207.29
861.212	12159.61
861.534	12028.54
861.855	12037.13
862.176	12029.44
862.498	11984.02
862.819	12099.95
863.14	11913.06
863.461	11986.28
863.782	11940.63
864.103	11824.7
864.424	11848.43
864.745	11878.49
865.065	11821.31
865.386	11763.01
865.707	11702.45
866.027	11812.27
866.348	11742.67
866.668	11749.45
866.989	11713.29
867.309	11629.45
867.63	11768.21
867.95	11636.91
868.27	11567.53
868.59	11588.55
868.91	11549
869.23	11556.91
869.55	11484.37
869.87	11578.16
870.19	11498.38
870.51	11518.95
870.83	11636.69
871.15	11478.95
871.469	11396.92
871.789	11468.1
872.109	11444.6
872.428	11347.65
872.748	11399.86
873.067	11344.04
873.386	11338.61
873.706	11278.5
874.025	11237.83
874.344	11234.89
874.663	11298.62
874.982	11249.58
875.301	11202.57
875.62	11204.61
875.939	11204.15
876.258	11185.17
876.577	11163.03
876.896	11095.23
877.214	11145.4
877.533	11090.26
877.852	11074.89
878.17	11050.71
878.489	11128.45
878.807	11080.99
879.125	10952.64
879.444	10907.89
879.762	10948.12
880.08	10984.5
880.398	10925.52
880.716	10933.43
881.034	10949.47
881.352	10910.38
881.67	10763.49
881.988	10792.64
882.306	10802.36
882.624	10818.4
882.941	10691.17
883.259	10726.43
883.577	10693.21
883.894	10658.86
884.212	10676.48
884.529	10651.63
884.846	10638.07
885.164	10560.56
885.481	10534.79
885.798	10532.08
886.115	10483.04
886.432	10413.89
886.75	10472.65
887.067	10425.42
887.383	10418.41
887.7	10350.39
888.017	10349.49
888.334	10382.03
888.651	10346.55
888.967	10318.98
889.284	10220.45
889.6	10251.86
889.917	10133.45
890.233	10175.71
890.55	10158.98
890.866	10124.41
891.182	10146.56
891.498	10020.23
891.815	10045.09
892.131	10061.59
892.447	9930.52
892.763	9891.65
893.079	9877.64
893.395	9815.26
893.71	9779.11
894.026	9827.02
894.342	9759.9
894.657	9650.3
894.973	9690.75
895.289	9623.18
895.604	9642.16
895.92	9555.84
896.235	9528.27
896.55	9543.18
896.865	9503.86
897.181	9461.6
897.496	9455.95
897.811	9420.92
898.126	9345.67
898.441	9356.75
898.756	9294.6
899.071	9245.11
899.386	9289.18
899.7	9176.19
900.015	9123.53
900.33	9098.22
900.644	9071.1
900.959	9071.56
901.273	9081.72
901.588	8996.08
901.902	8900.03
902.216	8971.44
902.531	8873.59
902.845	8837.21
903.159	8876.76
903.473	8858.23
903.787	8769.19
904.101	8735.07
904.415	8672.02
904.729	8642.41
905.042	8692.58
905.356	8579.59
905.67	8576.88
905.984	8568.29
906.297	8489.2
906.611	8504.79
906.924	8492.59
907.237	8396.54
907.551	8392.93
907.864	8376.43
908.177	8392.48
908.491	8328.07
908.804	8306.6
909.117	8207.4
909.43	8156.33
909.743	8131.92
910.056	8132.14
910.368	8084.01
910.681	8097.8
910.994	7975.31
911.307	7965.14
911.619	7870
911.932	7975.99
912.244	7905.71
912.557	7922.21
912.869	7776.67
913.181	7804.7
913.494	7793.62
913.806	7708.2
914.118	7684.93
914.43	7602.44
914.742	7644.25
915.054	7566.51
915.366	7521.99
915.678	7495.78
915.99	7509.34
916.302	7437.7
916.613	7450.13
916.925	7420.75
917.236	7384.82
917.548	7362
917.859	7332.84
918.171	7334.2
918.482	7277.7
918.794	7208.33
919.105	7224.15
919.416	7166.75
919.727	7075.68
920.038	7117.93
920.349	7080.87
920.66	7057.37
920.971	7016.92
921.282	7031.38
921.593	6933.98
921.903	6938.28
922.214	6907.09
922.525	6881.56
922.835	6840.43
923.146	6862.57
923.456	6771.5
923.767	6720.88
924.077	6736.25
924.387	6728.57
924.697	6697.15
925.008	6658.06
925.318	6576.48
925.628	6588.23
925.938	6559.3
926.248	6521.79
926.558	6491.51
926.867	6442.47
927.177	6431.62
927.487	6468.01
927.796	6384.85
928.106	6422.36
928.416	6372.87
928.725	6321.8
929.034	6344.85
929.344	6249.03
929.653	6286.77
929.962	6222.14
930.271	6157.96
930.581	6166.09
930.89	6119.99
931.199	6088.58
931.508	6157.96
931.817	6102.14
932.125	6045.87
932.434	6015.36
932.743	6014.23
933.051	5959.32
933.36	5946.21
933.669	5898.53
933.977	5900.34
934.286	5852.2
934.594	5877.74
934.902	5808.14
935.21	5778.31
935.519	5719.55
935.827	5755.26
936.135	5730.17
936.443	5673.45
936.751	5705.54
937.059	5649.95
937.367	5633.91
937.674	5658.31
937.982	5615.15
938.29	5582.38
938.597	5550.97
938.905	5517.52
939.213	5434.81
939.52	5462.84
939.827	5413.57
940.135	5437.3
940.442	5415.61
940.749	5392.78
941.056	5393.01
941.363	5331.99
941.67	5297.64
941.977	5270.3
942.284	5255.16
942.591	5271.43
942.898	5232.33
943.205	5196.4
943.511	5210.87
943.818	5124.77
944.125	5132.9
944.431	5109.4
944.738	5084.32
945.044	5123.18
945.35	5057.42
945.657	5023.75
945.963	5024.43
946.269	4986.69
946.575	4965
946.881	4956.64
947.187	4920.48
947.493	4877.77
947.799	4904.89
948.105	4846.13
948.41	4816.07
948.716	4818.79
949.022	4764.78
949.327	4803.64
949.633	4717.32
949.938	4703.31
950.244	4742.18
950.549	4669.41
950.854	4670.09
951.16	4697.66
951.465	4647.49
951.77	4633.93
952.075	4588.06
952.38	4595.29
952.685	4557.1
952.99	4532.24
953.294	4503.99
953.599	4513.93
953.904	4469.42
954.209	4436.65
954.513	4428.74
954.818	4398.01
955.122	4421.96
955.426	4396.65
955.731	4383.77
956.035	4354.17
956.339	4302.64
956.643	4319.59
956.948	4311.91
957.252	4261.29
957.556	4260.16
957.86	4241.63
958.163	4208.63
958.467	4186.71
958.771	4204.56
959.075	4186.49
959.378	4144.23
959.682	4116.88
959.985	4080.05
960.289	4015.19
960.592	4064.68
960.896	4031.69
961.199	4036.89
961.502	4047.51
961.805	4036.43
962.108	3980.62
962.411	3941.07
962.714	3950.79
963.017	3952.59
963.32	3930.9
963.623	3882.77
963.926	3882.31
964.228	3867.85
964.531	3874.18
964.833	3821.75
965.136	3798.7
965.438	3780.85
965.741	3734.75
966.043	3765.03
966.345	3721.19
966.648	3720.96
966.95	3697.91
967.252	3649.1
967.554	3674.64
967.856	3657.46
968.158	3619.04
968.46	3649.55
968.761	3588.99
969.063	3631.92
969.365	3590.34
969.666	3592.38
969.968	3515.32
970.269	3503.11
970.571	3513.51
970.872	3501.76
971.174	3465.83
971.475	3445.49
971.776	3458.6
972.077	3413.17
972.378	3395.09
972.679	3406.85
972.98	3410.69
973.281	3368.43
973.582	3394.64
973.883	3347.64
974.183	3343.12
974.484	3311.03
974.785	3337.69
975.085	3305.61
975.386	3340.41
975.686	3268.09
975.986	3205.04
976.287	3243.23
976.587	3266.06
976.887	3257.92
977.187	3218.83
977.487	3187.87
977.787	3186.74
978.087	3164.14
978.387	3168.21
978.687	3107.19
978.987	3103.12
979.286	3095.89
979.586	3087.76
979.885	3115.1
980.185	3074.42
980.484	3043.01
980.784	3032.39
981.083	3051.83
981.382	2991.72
981.682	3010.25
981.981	2985.39
982.28	2972.28
982.579	2934.54
982.878	2949.68
983.177	2933.64
983.475	2935.22
983.774	2878.72
984.073	2904.94
984.372	2903.36
984.67	2849.35
984.969	2837.82
985.267	2822.68
985.566	2814.54
985.864	2784.26
986.162	2808.67
986.461	2766.86
986.759	2768.22
987.057	2719.18
987.355	2745.39
987.653	2710.59
987.951	2717.6
988.249	2716.92
988.547	2719.18
988.844	2672.18
989.142	2702.23
989.44	2647.77
989.737	2600.54
990.035	2637.6
990.332	2572.74
990.63	2564.38
990.927	2587.88
991.224	2578.62
991.521	2537.26
991.819	2568.45
992.116	2566.42
992.413	2541.33
992.71	2527.09
993.006	2516.02
993.303	2521.45
993.6	2520.77
993.897	2498.39
994.193	2458.62
994.49	2467.21
994.787	2452.97
995.083	2398.74
995.379	2422.92
995.676	2411.62
995.972	2395.12
996.268	2380.43
996.565	2398.28
996.861	2343.14
997.157	2345.86
997.453	2324.16
997.749	2322.81
998.044	2306.99
998.34	2325.07
998.636	2313.31
998.932	2294.33
999.227	2256.59
999.523	2267.89
999.818	2250.94
1000.114	2245.97
1000.409	2202.58
1000.704	2212.98
1001	2202.36
1001.295	2178.86
1001.59	2178.86
1001.885	2156.03
1002.18	2144.51
1002.475	2118.52
1002.77	2109.48
1003.065	2124.17
1003.359	2101.34
1003.654	2106.09
1003.949	2043.94
1004.243	2059.31
1004.538	2057.95
1004.832	2041.68
1005.127	2040.78
1005.421	1993.32
1005.715	1997.17
1006.009	1998.97
1006.304	1981.57
1006.598	1997.17
1006.892	1988.13
1007.186	1950.84
1007.48	1949.71
1007.773	1920.33
1008.067	1935.7
1008.361	1902.7
1008.655	1910.16
1008.948	1888.24
1009.242	1891.18
1009.535	1856.83
1009.829	1860.9
1010.122	1853.89
1010.415	1867.45
1010.708	1855.93
1011.001	1825.42
1011.295	1807.11
1011.588	1798.07
1011.881	1780
1012.173	1780.67
1012.466	1750.84
1012.759	1775.02
1013.052	1708.13
1013.344	1699.55
1013.637	1707.23
1013.93	1723.05
1014.222	1723.05
1014.514	1714.23
1014.807	1704.07
1015.099	1674.46
1015.391	1662.03
1015.683	1656.83
1015.976	1657.06
1016.268	1622.94
1016.56	1631.52
1016.851	1602.15
1017.143	1594.24
1017.435	1623.62
1017.727	1586.33
1018.018	1562.6
1018.31	1572.77
1018.602	1567.8
1018.893	1549.72
1019.185	1529.61
1019.476	1515.37
1019.767	1541.13
1020.058	1497.07
1020.35	1489.38
1020.641	1482.15
1020.932	1484.18
1021.223	1426.11
1021.514	1441.7
1021.804	1424.98
1022.095	1432.66
1022.386	1450.74
1022.677	1393.34
1022.967	1426.56
1023.258	1399.21
1023.548	1401.93
1023.839	1420.91
1024.129	1401.7
1024.419	1324.41
1024.709	1367.13
1025	1332.55
1025.29	1340.46
1025.58	1346.79
1025.87	1343.85
1026.16	1313.12
1026.449	1315.38
1026.739	1305.21
1027.029	1284.42
1027.319	1265.43
1027.608	1255.26
1027.898	1270.86
1028.187	1238.99
1028.477	1256.39
1028.766	1256.17
1029.055	1253.46
1029.344	1250.07
1029.634	1202.84
1029.923	1199.67
1030.212	1170.52
1030.501	1213.46
1030.79	1166.9
1031.078	1188.37
1031.367	1148.6
1031.656	1129.84
1031.945	1137.3
1032.233	1138.2
1032.522	1139.33
1032.81	1107.24
1033.099	1104.99
1033.387	1107.24
1033.675	1089.62
1033.963	1112.67
1034.251	1096.62
1034.54	1090.52
1034.828	1081.48
1035.116	1079.68
1035.403	1063.18
1035.691	1067.25
1035.979	1062.27
1036.267	1041.94
1036.554	1044.65
1036.842	1025.44
1037.129	1007.36
1037.417	1010.52
1037.704	1045.33
1037.992	995.38
1038.279	993.58
1038.566	984.08
1038.853	984.08
1039.14	984.08
