Data from hue_50_FLMS001491_61.txt Node
Date: Mon Feb 06 15:10:44 GMT 2017
User: dcchb
Spectrometer: FLMS00149
Trigger mode: 0
Integration Time (sec): 2.000000E-2
Scans to average: 10
Electric dark correction enabled: true
Nonlinearity correction enabled: false
Boxcar width: 0
XAxis mode: Wavelengths
Number of Pixels in Spectrum: 2048
>>>>>Begin Spectral Data<<<<<
341.393	-0.42
341.776	-0.42
342.16	-0.42
342.543	-63.02
342.927	-67.09
343.31	-72.06
343.693	-72.06
344.077	-60.08
344.46	-56.47
344.843	-58.28
345.226	-36.13
345.61	-25.28
345.993	-27.32
346.376	3.64
346.759	26.47
347.142	12.23
347.525	48.61
347.908	47.48
348.291	74.6
348.674	94.72
349.057	99.91
349.44	110.31
349.823	151.21
350.206	148.05
350.588	192.34
350.971	213.13
351.354	225.56
351.737	249.51
352.119	244.99
352.502	264.65
352.884	267.37
353.267	282.73
353.65	294.71
354.032	306.91
354.414	301.72
354.797	301.49
355.179	327.48
355.562	333.8
355.944	332
356.326	322.05
356.709	346.69
357.091	347.59
357.473	357.98
357.855	336.29
358.238	329.06
358.62	325.67
359.002	338.32
359.384	343.07
359.766	330.19
360.148	340.58
360.53	351.43
360.912	347.36
361.294	358.21
361.676	329.29
362.057	338.32
362.439	341.49
362.821	321.38
363.203	327.25
363.584	323.41
363.966	316.4
364.348	325.22
364.729	312.79
365.111	319.79
365.493	333.8
365.874	317.08
366.256	328.61
366.637	319.12
367.019	326.57
367.4	317.99
367.781	322.73
368.163	304.2
368.544	315.95
368.925	328.38
369.306	320.47
369.688	311.43
370.069	307.82
370.45	339
370.831	329.51
371.212	315.73
371.593	322.96
371.974	328.61
372.355	311.43
372.736	332.45
373.117	298.55
373.498	327.03
373.879	316.4
374.26	357.31
374.641	320.25
375.021	330.64
375.402	335.84
375.783	325.67
376.163	339.91
376.544	331.09
376.925	327.03
377.305	326.57
377.686	327.7
378.066	311.43
378.447	305.78
378.827	331.77
379.208	352.56
379.588	338.78
379.968	341.94
380.349	352.11
380.729	348.72
381.109	333.13
381.489	319.34
381.87	348.27
382.25	329.29
382.63	324.54
383.01	353.01
383.39	335.61
383.77	331.09
384.15	329.06
384.53	345.1
384.91	354.6
385.29	342.62
385.67	340.58
386.049	335.61
386.429	332.9
386.809	327.7
387.189	339.45
387.568	356.63
387.948	363.41
388.328	355.05
388.707	347.59
389.087	353.01
389.466	375.39
389.846	358.66
390.225	358.44
390.605	383.52
390.984	358.66
391.363	355.95
391.743	349.4
392.122	344.2
392.501	366.57
392.881	375.16
393.26	361.6
393.639	367.02
394.018	369.28
394.397	352.11
394.776	366.35
395.155	391.2
395.534	381.71
395.913	381.26
396.292	357.08
396.671	393.46
397.05	376.52
397.429	373.35
397.808	386.01
398.186	395.27
398.565	390.53
398.944	366.12
399.323	413.12
399.701	372.22
400.08	400.24
400.458	397.31
400.837	368.15
401.215	378.78
401.594	401.6
401.972	404.99
402.351	409.06
402.729	400.92
403.107	407.48
403.486	391.2
403.864	400.7
404.242	406.8
404.62	394.37
404.999	407.25
405.377	409.73
405.755	413.58
406.133	425.1
406.511	416.06
406.889	417.19
407.267	416.29
407.645	419.68
408.023	399.34
408.401	424.65
408.779	432.11
409.156	428.49
409.534	419.23
409.912	446.8
410.29	425.55
410.667	414.03
411.045	445.89
411.422	439.11
411.8	446.34
412.178	423.75
412.555	450.86
412.933	426.68
413.31	444.08
413.687	453.58
414.065	467.13
414.442	463.07
414.819	466
415.197	443.41
415.574	476.63
415.951	475.95
416.328	487.47
416.705	483.41
417.082	470.3
417.46	503.29
417.837	483.18
418.214	486.12
418.591	471.2
418.967	481.15
419.344	478.66
419.721	504.42
420.098	499.68
420.475	488.6
420.852	507.59
421.228	501.03
421.605	509.85
421.982	526.57
422.358	516.85
422.735	506.68
423.111	513.24
423.488	505.1
423.864	530.64
424.241	498.55
424.617	520.47
424.994	520.24
425.37	526.34
425.746	522.5
426.123	541.26
426.499	526.57
426.875	540.13
427.251	558.88
427.627	548.04
428.003	553.01
428.379	558.21
428.756	551.88
429.132	562.73
429.507	550.97
429.883	556.85
430.259	569.96
430.635	580.35
431.011	567.24
431.387	589.17
431.763	581.71
432.138	608.83
432.514	585.1
432.89	605.66
433.265	598.43
433.641	587.81
434.016	618.54
434.392	625.32
434.767	620.35
435.143	632.78
435.518	626
435.894	614.93
436.269	637.53
436.644	644.31
437.02	655.6
437.395	673.23
437.77	672.1
438.145	657.64
438.52	667.58
438.895	653.12
439.271	696.06
439.646	688.6
440.021	668.49
440.395	694.25
440.77	679.33
441.145	703.74
441.52	682.04
441.895	673
442.27	711.2
442.645	696.28
443.019	716.85
443.394	722.95
443.769	708.94
444.143	734.47
444.518	728.37
444.892	709.84
445.267	749.39
445.641	727.69
446.016	753.23
446.39	685.89
446.764	745.09
447.139	745.32
447.513	750.74
447.887	736.96
448.262	756.17
448.636	776.05
449.01	760.46
449.384	757.07
449.758	770.63
450.132	775.15
450.506	775.38
450.88	805.66
451.254	809.95
451.628	811.31
452.002	818.54
452.376	808.14
452.75	822.61
453.123	825.32
453.497	813.57
453.871	828.26
454.244	849.27
454.618	872.1
454.992	858.99
455.365	841.36
455.739	867.58
456.112	860.57
456.486	900.8
456.859	898.08
457.232	934.24
457.606	911.19
457.979	929.72
458.352	955.26
458.725	950.74
459.099	934.92
459.472	956.84
459.845	970.17
460.218	984.64
460.591	992.09
460.964	983.51
461.337	1023.28
461.71	1019.21
462.083	1047.91
462.456	1045.88
462.829	1031.64
463.201	1061.7
463.574	1100.79
463.947	1122.71
464.32	1123.39
464.692	1108.02
465.065	1106.67
465.438	1139.43
465.81	1158.42
466.183	1152.99
466.555	1227.34
466.928	1237.28
467.3	1197.96
467.672	1250.84
468.045	1262.37
468.417	1275.02
468.789	1297.17
469.161	1326.32
469.534	1308.69
469.906	1378.98
470.278	1406.32
470.65	1374
471.022	1420.33
471.394	1471.4
471.766	1478.63
472.138	1511.63
472.51	1560.44
472.882	1578.29
473.253	1634.11
473.625	1648.12
473.997	1684.73
474.369	1727.67
474.74	1747.1
475.112	1797.27
475.484	1851.05
475.855	1905.51
476.227	1915.68
476.598	1971.28
476.97	2040.43
477.341	2091.95
477.713	2174.21
478.084	2182.57
478.455	2291.04
478.827	2322.45
479.198	2399.29
479.569	2433.41
479.94	2496.91
480.311	2575.78
480.682	2705.04
481.053	2756.34
481.424	2868.2
481.795	2932.38
482.166	2952.04
482.537	3081.53
482.908	3176.89
483.279	3315.65
483.65	3394.74
484.021	3502.54
484.391	3604.91
484.762	3681.74
485.133	3760.61
485.503	3883.32
485.874	4000.83
486.244	4095.97
486.615	4236.08
486.985	4339.35
487.356	4503.19
487.726	4621.83
488.097	4780.92
488.467	4837.64
488.837	5008.26
489.207	5162.83
489.578	5309.72
489.948	5391.07
490.318	5532.99
490.688	5635.59
491.058	5772.53
491.428	5987.89
491.798	6102.47
492.168	6264.95
492.538	6358.73
492.908	6569.8
493.278	6709.46
493.648	6780.41
494.017	6931.82
494.387	7065.15
494.757	7224.02
495.126	7400.96
495.496	7531.13
495.866	7628.98
496.235	7913.94
496.605	7978.12
496.974	8080.27
497.344	8263.31
497.713	8392.35
498.082	8480.71
498.452	8685
498.821	8764.09
499.19	8885.67
499.559	9129.96
499.928	9188.94
500.298	9363.62
500.667	9552.09
501.036	9524.75
501.405	9727.46
501.774	9809.94
502.143	9991.63
502.512	10113.66
502.88	10234.56
503.249	10347.33
503.618	10425.52
503.987	10634.78
504.356	10715.68
504.724	10775.34
505.093	10941.89
505.462	11018.5
505.83	11130.36
506.199	11296
506.567	11474.08
506.936	11532.61
507.304	11695.99
507.672	11833.62
508.041	11904.8
508.409	12048.75
508.777	12202.65
509.145	12278.58
509.514	12408.74
509.882	12488.51
510.25	12625.23
510.618	12709.07
510.986	12817.54
511.354	12996.75
511.722	13038.78
512.09	13256.4
512.458	13263.41
512.826	13493.01
513.193	13578.2
513.561	13596.05
513.929	13760.34
514.297	13905.43
514.664	14029.04
515.032	14038.08
515.4	14158.3
515.767	14282.82
516.135	14467.22
516.502	14405.3
516.869	14663.37
517.237	14747.21
517.604	14751.96
517.972	14883.48
518.339	15026.53
518.706	15113.98
519.073	15098.39
519.44	15344.71
519.808	15572.27
520.175	15601.43
520.542	15669.67
520.909	15877.12
521.276	15854.07
521.643	16010.91
522.009	16179.26
522.376	16300.16
522.743	16313.27
523.11	16571.57
523.477	16755.52
523.843	16817.44
524.21	16954.84
524.577	17022.18
524.943	17058.56
525.31	17254.04
525.676	17470.3
526.043	17561.6
526.409	17779
526.776	17877.07
527.142	17885.89
527.508	17989.61
527.874	18169.95
528.241	18202.94
528.607	18297.4
528.973	18576.94
529.339	18574.46
529.705	18776.03
530.071	18902.36
530.437	18915.69
530.803	19098.74
531.169	19207.21
531.535	19162.69
531.901	19261.67
532.267	19353.19
532.632	19477.93
532.998	19665.73
533.364	19697.59
533.73	19845.16
534.095	19933.06
534.461	20078.82
534.826	20117.47
535.192	20205.37
535.557	20257.12
535.923	20220.97
536.288	20279.5
536.653	20515.65
537.019	20449.43
537.384	20573.95
537.749	20658.02
538.114	20790.89
538.479	20790.44
538.845	20941.85
539.21	20848.52
539.575	21047.84
539.94	21134.61
540.305	21274.95
540.67	21224.1
541.034	21299.81
541.399	21453.02
541.764	21470.88
542.129	21551.33
542.494	21637.2
542.858	21767.37
543.223	21803.97
543.587	21963.07
543.952	21832.22
544.316	21956.51
544.681	22074.48
545.045	22205.32
545.41	22342.72
545.774	22311.31
546.138	22421.36
546.503	22408.48
546.867	22471.3
547.231	22700.67
547.595	22655.93
547.959	22828.13
548.324	22853.89
548.688	22936.83
549.052	22932.53
549.416	23011.4
549.779	23107.22
550.143	23145.41
550.507	23357.83
550.871	23369.81
551.235	23250.04
551.599	23672.17
551.962	23681.44
552.326	23820.64
552.689	23869.46
553.053	23798.5
553.417	23877.59
553.78	24113.74
554.143	24058.6
554.507	24186.74
554.87	24254.31
555.234	24470.35
555.597	24356.22
555.96	24486.84
556.323	24518.71
556.686	24704.69
557.05	24817
557.413	24783.33
557.776	24911.46
558.139	25073.72
558.502	25172.02
558.865	25150.55
559.228	25438.68
559.59	25435.52
559.953	25471.67
560.316	25698.56
560.679	25729.75
561.041	25890.42
561.404	26002.96
561.767	26063.3
562.129	26105.78
562.492	26341.93
562.854	26331.09
563.217	26403.4
563.579	26553
563.941	26675.71
564.304	26827.35
564.666	27031.63
565.028	26975.82
565.39	26936.95
565.753	27185.98
566.115	27357.05
566.477	27462.81
566.839	27610.15
567.201	27651.96
567.563	27729.02
567.925	27857.15
568.287	27965.85
568.648	28030.48
569.01	28167.65
569.372	28299.17
569.734	28257.82
570.095	28465.49
570.457	28638.37
570.819	28597.02
571.18	28748.42
571.542	28889.66
571.903	28900.29
572.265	29074.07
572.626	29141.41
572.987	29159.04
573.349	29418.24
573.71	29475.64
574.071	29357.22
574.432	29593.6
574.794	29918.56
575.155	29873.37
575.516	29731.68
575.877	30034.27
576.238	30167.14
576.599	30365.78
576.96	30331.89
577.32	30463.18
577.681	30603.97
578.042	30626.12
578.403	30778.65
578.763	30820.69
579.124	30979.55
579.485	31170.28
579.845	31232.2
580.206	31386.55
580.566	31383.61
580.927	31468.35
581.287	31676.71
581.648	31593.55
582.008	32017.94
582.368	32003.25
582.728	32122.12
583.089	32196.24
583.449	32243.93
583.809	32310.59
584.169	32471.04
584.529	32559.17
584.889	32977.01
585.249	32913.97
585.609	32790.58
585.969	33074.41
586.329	33160.29
586.688	33370.68
587.048	33424.23
587.408	33575.42
587.768	33717.79
588.127	33794.62
588.487	33786.26
588.846	34201.39
589.206	33881.62
589.565	34180.6
589.925	34413.59
590.284	34323.42
590.643	34589.18
591.003	34738.32
591.362	34989.16
591.721	34909.39
592.08	35025.55
592.44	35304.64
592.799	35254.92
593.158	35251.53
593.517	35467.57
593.876	35592.99
594.235	35625.31
594.593	35777.84
594.952	36011.28
595.311	35856.49
595.67	36185.74
596.029	36388.9
596.387	36518.62
596.746	36594.32
597.104	36511.84
597.463	36567.88
597.822	36810.59
598.18	36673.19
598.538	36733.53
598.897	37088.09
599.255	37006.06
599.613	37617.8
599.972	37381.87
600.33	37512.71
600.688	37460.06
601.046	37586.84
601.404	37934.62
601.762	37975.98
602.12	38150.89
602.478	38211.23
602.836	38263.65
603.194	38105.92
603.552	38408.28
603.91	38283.54
604.268	38520.15
604.625	38498.9
604.983	38697.77
605.341	38605.57
605.698	38831.78
606.056	39015.5
606.413	38992.22
606.771	39192.67
607.128	39238.09
607.485	39247.58
607.843	39208.49
608.2	39419.56
608.557	39550.63
608.914	39573
609.272	39902.48
609.629	39823.84
609.986	40050.5
610.343	39835.37
610.7	40066.55
611.057	40248.24
611.414	40172.53
611.771	40323.04
612.127	40338.18
612.484	40436.25
612.841	40688
613.198	40516.48
613.554	40584.05
613.911	40836.02
614.267	40919.4
614.624	41032.4
614.98	41050.47
615.337	41126.18
615.693	41207.53
616.05	41115.56
616.406	41457.7
616.762	41500.18
617.118	41412.05
617.475	41341.54
617.831	41514.19
618.187	41713.96
618.543	41715.09
618.899	41900.17
619.255	42030.11
619.611	42012.71
619.967	42044.57
620.323	42187.17
620.678	42116.66
621.034	41959.38
621.39	42097.45
621.746	42096.77
622.101	42587.16
622.457	42186.49
622.812	42331.34
623.168	42504.9
623.523	42505.8
623.879	42596.87
624.234	42200.73
624.589	42560.94
624.945	42522.3
625.3	42675.06
625.655	42645.23
626.01	42567.04
626.365	42711
626.72	42764.1
627.075	42724.1
627.43	42572.24
627.785	42593.48
628.14	42721.39
628.495	42669.64
628.85	42680.26
629.205	42627.83
629.559	42972.91
629.914	42686.82
630.269	42702.63
630.623	42643.88
630.978	42619.02
631.332	42803.2
631.687	42872.35
632.041	42602.3
632.396	42775.85
632.75	42665.12
633.104	42649.08
633.459	42492.7
633.813	42457.67
634.167	42447.95
634.521	42555.29
634.875	42555.52
635.229	42473.04
635.583	42441.62
635.937	42423.77
636.291	42423.55
636.645	42306.26
636.999	42306.26
637.352	42516.42
637.706	42221.97
638.06	42394.17
638.413	42355.98
638.767	42185.59
639.121	42337.22
639.474	42004.12
639.828	42097.9
640.181	42169.09
640.534	42140.16
640.888	41943.11
641.241	42034.86
641.594	42054.52
641.947	42152.59
642.301	42021.3
642.654	42063.78
643.007	41861.75
643.36	41991.47
643.713	41849.55
644.066	42062.43
644.419	41739.27
644.771	41485.94
645.124	41170.25
645.477	41131.83
645.83	40918.05
646.182	40867.65
646.535	40614.33
646.888	40573.42
647.24	40412.75
647.593	40769.13
647.945	40703.14
648.298	40386.31
648.65	40499.08
649.002	40274.22
649.355	40386.54
649.707	40466.99
650.059	40567.55
650.411	40979.97
650.763	41123.24
651.115	41422.67
651.467	41364.82
651.819	41337.25
652.171	41233.75
652.523	41173.86
652.875	41140.19
653.227	40957.14
653.578	41219.96
653.93	41172.05
654.282	41037.59
654.633	40939.29
654.985	41070.36
655.337	41018.38
655.688	40974.32
656.039	41089.8
656.391	40720.54
656.742	40855.9
657.094	40796.92
657.445	40931.83
657.796	40977.03
658.147	40785.85
658.498	40862.23
658.849	40810.25
659.2	40668.56
659.551	40637.83
659.902	40814.32
660.253	40777.94
660.604	40798.96
660.955	40563.48
661.306	40747.43
661.656	40596.25
662.007	40647.1
662.358	40612.29
662.708	40665.17
663.059	40672.18
663.409	40419.08
663.76	40685.96
664.11	40670.15
664.461	40674.21
664.811	40620.88
665.161	40693.42
665.511	40684.16
665.862	40630.6
666.212	40677.38
666.562	40664.27
666.912	40538.4
667.262	40374.33
667.612	40450.49
667.962	40560.77
668.312	40516.7
668.662	40709.01
669.011	40470.6
669.361	40390.15
669.711	40401.23
670.06	40389.93
670.41	40241.91
670.76	40350.38
671.109	40485.52
671.459	40274.68
671.808	40220.21
672.157	40321.91
672.507	40189.25
672.856	40123.04
673.205	40240.78
673.554	40368.01
673.904	40292.98
674.253	40298.18
674.602	40290.95
674.951	39570.29
675.3	39553.34
675.649	40088.24
675.998	40039.2
676.346	40060.44
676.695	40254.11
677.044	39806.89
677.393	40057.28
677.741	40087.34
678.09	39928.02
678.438	39946.32
678.787	40015.47
679.135	39944.06
679.484	39606.22
679.832	39855.7
680.181	39476.96
680.529	39708.36
680.877	39620.91
681.225	39514.24
681.573	39811.86
681.922	39430.4
682.27	39397.18
682.618	39519.44
682.966	39266.34
683.314	39278.32
683.661	39212.33
684.009	39075.61
684.357	39009.17
684.705	38957.2
685.053	38957.2
685.4	38941.83
685.748	38851.89
686.095	38719.69
686.443	38714.04
686.79	38591.33
687.138	38660.48
687.485	38666.36
687.832	38481.05
688.18	38606.92
688.527	38426.81
688.874	38205.8
689.221	38333.03
689.568	38113.15
689.915	38061.4
690.262	38001.29
690.609	37887.39
690.956	37786.61
691.303	37670.22
691.65	37726.49
691.997	37597.46
692.344	37405.37
692.69	37419.61
693.037	37277.24
693.383	37041.31
693.73	37196.11
694.077	36925.16
694.423	36910.02
694.769	36623.25
695.116	36693.07
695.462	36705.96
695.808	36511.84
696.155	36550.48
696.501	36423.93
696.847	36325.4
697.193	36125.18
697.539	36293.54
697.885	35944.39
698.231	36040.44
698.577	35816.04
698.923	35914.79
699.269	35688.13
699.614	35514.8
699.96	35400.68
700.306	35591.41
700.651	35358.87
700.997	35422.6
701.342	35202.94
701.688	35144.41
702.033	35097.18
702.379	35003.63
702.724	34924.08
703.069	35035.27
703.415	34526.8
703.76	34627.14
704.105	34684.31
704.45	34510.53
704.795	34303.31
705.14	34169.3
705.485	34199.81
705.83	34058.12
706.175	34042.75
706.52	34043.2
706.865	33838.46
707.209	33797.78
707.554	33674.4
707.899	33825.13
708.243	33514.63
708.588	33540.16
708.932	33445.25
709.277	33366.16
709.621	33321.19
709.966	33155.31
710.31	33120.74
710.654	32937.92
710.998	33020.18
711.342	33071.7
711.687	32895.66
712.031	32751.71
712.375	32578.83
712.719	32631.71
713.063	32645.72
713.407	32762.78
713.75	32554.65
714.094	32453.19
714.438	32371.61
714.782	32363.02
715.125	32381.1
715.469	32370.02
715.812	32204.15
716.156	31936.82
716.499	31976.36
716.843	32051.84
717.186	31791.06
717.53	32017.94
717.873	31925.52
718.216	31921.45
718.559	31688.23
718.902	31539.31
719.246	31669.93
719.589	31513.78
719.932	31358.98
720.275	31290.5
720.617	31385.19
720.96	31300.45
721.303	31265.42
721.646	31329.83
721.989	31068.82
722.331	31196.04
722.674	31009.16
723.016	30946.33
723.359	30857.75
723.701	30954.69
724.044	30739.56
724.386	30636.06
724.729	30651.2
725.071	30536.63
725.413	30528.27
725.755	30552.22
726.097	30337.54
726.439	30333.92
726.782	30352.9
727.124	30530.3
727.465	30201.72
727.807	30272
728.149	30101.16
728.491	30146.35
728.833	30191.55
729.175	30023.87
729.516	30072.68
729.858	29891.9
730.199	29972.8
730.541	29887.15
730.882	29855.74
731.224	29876.53
731.565	29747.27
731.906	29698.46
732.248	29707.04
732.589	29587.05
732.93	29531.68
733.271	29546.37
733.612	29460.27
733.953	29470.89
734.294	29312.25
734.635	29217.57
734.976	29330.1
735.317	29082.65
735.658	29234.29
735.999	29078.36
736.339	29119.71
736.68	29156.32
737.021	28930.34
737.361	28931.7
737.702	29152.26
738.042	28973.5
738.383	28902.32
738.723	29009.43
739.063	28927.86
739.404	28820.51
739.744	28685.38
740.084	28691.48
740.424	28661.42
740.764	28678.37
741.104	28671.59
741.444	28431.6
741.784	28383.91
742.124	28495.1
742.464	28376.91
742.804	28376.23
743.143	28403.35
743.483	28400.19
743.823	28190.47
744.162	28124.26
744.502	28382.78
744.841	28097.37
745.181	28159.74
745.52	28161.77
745.86	28096.46
746.199	27926.07
746.538	27892.18
746.877	28016.92
747.216	27978.05
747.556	27895.79
747.895	27823.48
748.234	27723.82
748.573	27686.08
748.911	27638.4
749.25	27685.85
749.589	27508.23
749.928	27518.4
750.267	27568.12
750.605	27383.72
750.944	27410.15
751.283	27372.42
751.621	27306.65
751.96	27194.57
752.298	27145.53
752.636	27119.09
752.975	27094.46
753.313	26984.63
753.651	27062.82
753.989	26866.89
754.327	26828.7
754.666	26753.22
755.004	26824.18
755.342	26830.51
755.679	26716.84
756.017	26642.04
756.355	26712.32
756.693	26586
757.031	26562.27
757.368	26370.63
757.706	26389.62
758.044	26226.01
758.381	26277.08
758.719	26156.63
759.056	26218.32
759.394	25995.73
759.731	25865.11
760.068	25912.57
760.405	25849.52
760.743	25675.74
761.08	25734.27
761.417	25555.29
761.754	25508.96
762.091	25441.17
762.428	25397.1
762.765	25237.33
763.102	25293.15
763.438	25079.59
763.775	25122.31
764.112	25053.15
764.449	25017.45
764.785	24839.6
765.122	24724.58
765.458	24774.52
765.795	24596.44
766.131	24643.67
766.467	24521.87
766.804	24393.29
767.14	24247.98
767.476	24338.6
767.812	24158.72
768.148	24258.83
768.485	23992.84
768.821	23881.89
769.157	23816.8
769.492	23748.78
769.828	23816.8
770.164	23547.43
770.5	23479.41
770.836	23505.17
771.171	23410.71
771.507	23376.59
771.842	23182.47
772.178	23131.4
772.513	23125.3
772.849	23019.31
773.184	22973.89
773.519	22882.59
773.855	22829.71
774.19	22731.86
774.525	22686.66
774.86	22568.7
775.195	22568.02
775.53	22437.86
775.865	22362.38
776.2	22206.22
776.535	22066.79
776.87	22004.42
777.205	21983.63
777.539	21879.68
777.874	21940.69
778.209	21699.57
778.543	21624.09
778.878	21522.85
779.212	21566.01
779.547	21440.37
779.881	21422.29
780.215	21353.14
780.55	21302.74
780.884	21180.49
781.218	21041.96
781.552	21069.98
781.886	20996.76
782.22	20710.22
782.554	20796.09
782.888	20594.97
783.222	20573.72
783.556	20500.51
783.889	20473.16
784.223	20321.3
784.557	20335.09
784.89	20320.85
785.224	20277.46
785.557	20065.72
785.891	19985.72
786.224	20047.64
786.558	19889
786.891	19836.12
787.224	19686.97
787.557	19617.14
787.891	19515.22
788.224	19554.32
788.557	19557.25
788.89	19283.14
789.223	19491.72
789.556	19292.18
789.888	19249.24
790.221	19199.98
790.554	18953.2
790.887	18983.03
791.219	18929.93
791.552	18840.44
791.884	18698.29
792.217	18741.23
792.549	18711.4
792.882	18541.46
793.214	18461.24
793.546	18527.68
793.879	18259.44
794.211	18372.43
794.543	18408.58
794.875	18220.34
795.207	18274.8
795.539	18201.81
795.871	18068.48
796.203	17983.96
796.535	17840.69
796.867	17832.55
797.198	17797.98
797.53	17835.72
797.862	17666
798.193	17680.47
798.525	17585.78
798.856	17595.72
799.188	17392.57
799.519	17329.52
799.85	17307.82
800.182	17365.9
800.513	17262.63
800.844	17099.01
801.175	17191.89
801.506	17188.05
801.837	16998.23
802.168	16982.41
802.499	16938.34
802.83	16920.49
803.161	16861.51
803.491	16829.19
803.822	16721.85
804.153	16555.98
804.483	16544
804.814	16644.56
805.145	16484.34
805.475	16477.79
805.805	16480.05
806.136	16378.13
806.466	16428.97
806.796	16399.6
807.126	16188.98
807.457	16151.02
807.787	16148.76
808.117	16092.71
808.447	16021.3
808.777	16087.29
809.107	15968.87
809.436	15928.42
809.766	15919.38
810.096	15842.78
810.426	15730.01
810.755	15776.56
811.085	15800.06
811.414	15740.63
811.744	15597.36
812.073	15558.04
812.403	15494.54
812.732	15422.22
813.061	15494.76
813.39	15464.03
813.719	15336.57
814.049	15330.7
814.378	15306.07
814.707	15220.42
815.036	15214.54
815.365	15144.49
815.693	15018.39
816.022	15068.56
816.351	15011.61
816.68	14798.96
817.008	14979.75
817.337	14850.26
817.665	14760.77
817.994	14844.38
818.322	14840.09
818.651	14637.16
818.979	14719.42
819.307	14818.85
819.636	14701.34
819.964	14567.1
820.292	14611.17
820.62	14592.86
820.948	14536.37
821.276	14645.07
821.604	14506.54
821.932	14571.4
822.259	14551.06
822.587	14514.22
822.915	14521.68
823.243	14597.61
823.57	14433.55
823.898	14497.05
824.225	14421.12
824.553	14325.08
824.88	14440.1
825.207	14546.76
825.535	14452.76
825.862	14521.91
826.189	14492.53
826.516	14543.83
826.843	14492.3
827.17	14434.9
827.497	14518.74
827.824	14448.01
828.151	14504.05
828.478	14460.66
828.805	14445.75
829.131	14395.36
829.458	14419.54
829.785	14355.36
830.111	14373.44
830.438	14417.73
830.764	14480.33
831.09	14470.83
831.417	14347.45
831.743	14408.69
832.069	14374.34
832.395	14300.22
832.722	14436.94
833.048	14353.55
833.374	14295.25
833.7	14297.73
834.026	14350.16
834.351	14305.87
834.677	14330.27
835.003	14296.6
835.329	14363.04
835.654	14196.94
835.98	14142.03
836.306	14214.57
836.631	14121.69
836.956	14162.82
837.282	14192.88
837.607	14084.63
837.932	14038.3
838.258	14047.79
838.583	14032.88
838.908	14079.88
839.233	14024.29
839.558	13906.33
839.883	13941.13
840.208	13888.02
840.533	13854.58
840.858	13898.87
841.182	13885.99
841.507	13810.06
841.832	13830.17
842.156	13722.83
842.481	13789.72
842.805	13668.82
843.13	13669.73
843.454	13679.89
843.778	13549.73
844.103	13577.52
844.427	13526.45
844.751	13594.25
845.075	13531.65
845.399	13325.78
845.723	13319.68
846.047	13325.33
846.371	13192
846.695	13271.09
847.019	13241.71
847.343	13131.21
847.666	13013.7
847.99	13050.76
848.313	12902.97
848.637	12835.62
848.96	12884.66
849.284	12849.86
849.607	12775.74
849.931	12660.49
850.254	12628.62
850.577	12514.05
850.9	12464.11
851.223	12454.84
851.546	12450.1
851.869	12333.04
852.192	12318.12
852.515	12259.14
852.838	12251.23
853.161	12217.79
853.483	12119.48
853.806	12151.8
854.129	12065.25
854.451	12074.06
854.774	11983.67
855.096	11841.75
855.419	11907.96
855.741	11881.3
856.063	11824.58
856.385	11795.65
856.708	11723.34
857.03	11668.42
857.352	11769.89
857.674	11617.35
857.996	11595.88
858.318	11601.76
858.64	11583.68
858.961	11497.13
859.283	11530.35
859.605	11370.35
859.926	11431.59
860.248	11421.65
860.57	11450.12
860.891	11427.07
861.212	11283.12
861.534	11288.54
861.855	11272.95
862.176	11337.81
862.498	11285.83
862.819	11270.01
863.14	11121.54
863.461	11155.22
863.782	11106.4
864.103	11111.37
864.424	11100.75
864.745	11137.14
865.065	11045.84
865.386	10962.45
865.707	11034.99
866.027	10985.73
866.348	10938.95
866.668	10928.55
866.989	10902.79
867.309	10857.37
867.63	10897.59
867.95	10871.61
868.27	10769.24
868.59	10774.21
868.91	10785.73
869.23	10766.3
869.55	10701.67
869.87	10758.39
870.19	10778.28
870.51	10717.49
870.83	10679.97
871.15	10696.47
871.469	10665.28
871.789	10650.14
872.109	10610.82
872.428	10566.53
872.748	10648.79
873.067	10589.58
873.386	10581.9
873.706	10504.84
874.025	10473.65
874.344	10500.32
874.663	10521.56
874.982	10467.1
875.301	10543.03
875.62	10390.26
875.939	10348.68
876.258	10397.27
876.577	10291.06
876.896	10337.16
877.214	10323.15
877.533	10369.93
877.852	10302.81
878.17	10233.43
878.489	10342.13
878.807	10295.35
879.125	10266.2
879.444	10245.41
879.762	10181.46
880.08	10232.08
880.398	10152.53
880.716	10190.27
881.034	10121.12
881.352	10192.98
881.67	10091.97
881.988	9983.72
882.306	10061.91
882.624	10070.5
882.941	10005.64
883.259	9979.65
883.577	9948.92
883.894	9938.52
884.212	9935.13
884.529	9955.7
884.846	9886.77
885.164	9820.11
885.481	9797.51
885.798	9866.66
886.115	9789.38
886.432	9801.35
886.75	9677.51
887.067	9718.42
887.383	9690.39
887.7	9633.9
888.017	9593.22
888.334	9650.17
888.651	9532.21
888.967	9611.98
889.284	9527.46
889.6	9454.47
889.917	9417.86
890.233	9343.96
890.55	9400.91
890.866	9349.16
891.182	9414.7
891.498	9331.76
891.815	9280.01
892.131	9250.63
892.447	9226
892.763	9229.39
893.079	9174.93
893.395	9183.29
893.71	9169.28
894.026	9094.93
894.342	9180.13
894.657	9017.42
894.973	9019.9
895.289	9053.35
895.604	8946.23
895.92	8899
896.235	8836.63
896.55	8920.02
896.865	8841.6
897.181	8813.81
897.496	8812.23
897.811	8797.09
898.126	8747.14
898.441	8666.02
898.756	8656.07
899.071	8635.73
899.386	8715.73
899.7	8584.66
900.015	8547.37
900.33	8487.26
900.644	8503.31
900.959	8535.4
901.273	8435.51
901.588	8425.57
901.902	8364.55
902.216	8321.84
902.531	8253.14
902.845	8306.93
903.159	8326.81
903.473	8192.36
903.787	8144.9
904.101	8136.09
904.415	8143.32
904.729	8110.78
905.042	8090.44
905.356	8021.74
905.67	7991.68
905.984	7994.62
906.297	8038.23
906.611	7894.96
906.924	7919.59
907.237	7893.83
907.551	7857.9
907.864	7837.34
908.177	7807.51
908.491	7771.12
908.804	7761.63
909.117	7647.06
909.43	7617.23
909.743	7574.74
910.056	7525.71
910.368	7545.82
910.681	7502.88
910.994	7471.47
911.307	7388.08
911.619	7378.59
911.932	7362.09
912.244	7328.65
912.557	7357.35
912.869	7283.9
913.181	7264.24
913.494	7208.88
913.806	7236
914.118	7155.77
914.43	7125.26
914.742	7144.25
915.054	7079.16
915.366	7039.39
915.678	7061.31
915.99	7022.67
916.302	6961.88
916.613	6968.66
916.925	6893.63
917.236	6953.52
917.548	6887.98
917.859	6838.72
918.171	6773.18
918.482	6784.93
918.794	6769.57
919.105	6747.65
919.416	6664.26
919.727	6685.05
920.038	6658.61
920.349	6662.68
920.66	6610.93
920.971	6573.41
921.282	6595.11
921.593	6546.3
921.903	6426.3
922.214	6497.03
922.525	6420.88
922.835	6436.92
923.146	6303.37
923.456	6334.32
923.767	6291.61
924.077	6336.36
924.387	6242.8
924.697	6264.04
925.008	6197.83
925.318	6202.8
925.628	6220.43
925.938	6191.73
926.248	6076.7
926.558	6063.15
926.867	6053.65
927.177	6100.43
927.487	6048.23
927.796	6019.08
928.106	5922.81
928.416	5952.41
928.725	5917.84
929.034	5876.03
929.344	5905.64
929.653	5902.02
929.962	5782.25
930.271	5744.28
930.581	5736.15
930.89	5691.18
931.199	5661.12
931.508	5700.67
931.817	5670.16
932.125	5679.2
932.434	5657.05
932.743	5543.16
933.051	5551.97
933.36	5534.35
933.669	5519.66
933.977	5441.92
934.286	5410.06
934.594	5435.14
934.902	5404.63
935.21	5409.15
935.519	5379.77
935.827	5342.49
936.135	5346.55
936.443	5268.59
936.751	5271.53
937.059	5213.9
937.367	5180.91
937.674	5210.06
937.982	5195.37
938.29	5162.6
938.597	5218.65
938.905	5090.52
939.213	5084.87
939.52	5014.13
939.827	5069.5
940.135	4993.57
940.442	5035.38
940.749	4996.73
941.056	4932.78
941.363	4944.08
941.67	4934.81
941.977	4941.37
942.284	4918.54
942.591	4884.19
942.898	4826.79
943.205	4867.7
943.511	4826.12
943.818	4815.49
944.125	4798.55
944.431	4755.61
944.738	4723.97
945.044	4730.07
945.35	4686.01
945.657	4632.22
945.963	4628.61
946.269	4588.16
946.575	4629.74
946.881	4563.07
947.187	4561.26
947.493	4601.49
947.799	4567.37
948.105	4495.28
948.41	4530.08
948.716	4458.22
949.022	4463.41
949.327	4481.27
949.633	4379.35
949.938	4373.92
950.244	4370.76
950.549	4357.88
950.854	4332.12
951.16	4315.85
951.465	4289.41
951.77	4266.81
952.075	4274.72
952.38	4253.93
952.685	4237.88
952.99	4205.34
953.294	4198.11
953.599	4184.78
953.904	4126.7
954.209	4083.31
954.513	4101.84
954.818	4098
955.122	4093.93
955.426	4053.93
955.731	4015.52
956.035	3999.02
956.339	4050.77
956.643	4000.83
956.948	3998.34
957.252	3997.89
957.556	3978.91
957.86	3925.12
958.163	3915.18
958.467	3906.14
958.771	3862.53
959.075	3851.45
959.378	3818.68
959.682	3799.93
959.985	3828.85
960.289	3783.21
960.592	3745.47
960.896	3706.15
961.199	3760.16
961.502	3726.26
961.805	3713.6
962.108	3658.24
962.411	3660.72
962.714	3615.75
963.017	3632.93
963.32	3639.03
963.623	3616.43
963.926	3601.29
964.228	3582.53
964.531	3558.8
964.833	3564.68
965.136	3519.94
965.438	3512.48
965.741	3468.86
966.043	3481.74
966.345	3467.28
966.648	3460.73
966.95	3442.88
967.252	3416.66
967.554	3414.85
967.856	3424.12
968.158	3362.43
968.46	3396.78
968.761	3342.54
969.063	3332.37
969.365	3304.57
969.666	3294.4
969.968	3256.89
970.269	3285.14
970.571	3253.28
970.872	3254.63
971.174	3239.04
971.475	3227.06
971.776	3230.45
972.077	3173.96
972.378	3167.4
972.679	3178.48
972.98	3151.13
973.281	3142.09
973.582	3138.02
973.883	3108.2
974.183	3096.22
974.484	3094.41
974.785	3084.69
975.085	3072.49
975.386	3054.19
975.686	3062.77
975.986	3006.5
976.287	3065.94
976.587	3001.98
976.887	2963.57
977.187	2951.82
977.487	2952.72
977.787	2909.33
978.087	2953.17
978.387	2895.09
978.687	2888.09
978.987	2881.31
979.286	2895.32
979.586	2853.06
979.885	2874.08
980.185	2826.85
980.484	2822.55
980.784	2791.14
981.083	2782.1
981.382	2776.9
981.682	2775.77
981.981	2747.98
982.28	2725.15
982.579	2743.46
982.878	2718.6
983.177	2719.28
983.475	2683.8
983.774	2682.67
984.073	2698.26
984.372	2634.08
984.67	2654.42
984.969	2627.53
985.267	2630.47
985.566	2625.5
985.864	2618.04
986.162	2610.81
986.461	2578.49
986.759	2559.73
987.057	2551.15
987.355	2526.29
987.653	2536.46
987.951	2461.43
988.249	2532.39
988.547	2526.29
988.844	2484.26
989.142	2472.51
989.44	2468.21
989.737	2446.97
990.035	2436.12
990.332	2415.56
990.63	2433.18
990.927	2433.41
991.224	2430.92
991.521	2382.11
991.819	2372.85
992.116	2371.04
992.413	2353.41
992.71	2304.83
993.006	2347.09
993.303	2332.17
993.6	2337.59
993.897	2336.46
994.193	2284.04
994.49	2279.97
994.787	2275.9
995.083	2250.14
995.379	2246.97
995.676	2226.64
995.972	2207.65
996.268	2213.98
996.565	2231.16
996.861	2188.67
997.157	2200.87
997.453	2151.84
997.749	2139.63
998.044	2150.03
998.34	2120.65
998.636	2103.7
998.932	2124.04
999.227	2094.21
999.523	2091.72
999.818	2093.08
1000.114	2069.8
1000.409	2085.17
1000.704	2050.37
1001	2068.9
1001.295	2032.07
1001.59	1998.62
1001.885	2013.08
1002.18	1976.02
1002.475	1974.67
1002.77	2004.04
1003.065	1985.51
1003.359	1957.49
1003.654	1954.78
1003.949	1954.1
1004.243	1935.57
1004.538	1925.18
1004.832	1912.29
1005.127	1913.42
1005.421	1873.65
1005.715	1892.18
1006.009	1879.98
1006.304	1872.3
1006.598	1822.35
1006.892	1836.59
1007.186	1826.65
1007.48	1810.15
1007.773	1790.49
1008.067	1803.14
1008.361	1777.83
1008.655	1795.69
1008.948	1755.91
1009.242	1755.01
1009.535	1756.37
1009.829	1725.18
1010.122	1745.97
1010.415	1723.6
1010.708	1697.84
1011.001	1722.69
1011.295	1691.51
1011.588	1674.11
1011.881	1655.13
1012.173	1660.32
1012.466	1628.01
1012.759	1661.91
1013.052	1639.53
1013.344	1623.04
1013.637	1625.3
1013.93	1592.3
1014.222	1593.66
1014.514	1609.48
1014.807	1590.72
1015.099	1611.06
1015.391	1571.74
1015.683	1527.9
1015.976	1556.15
1016.268	1562.93
1016.56	1508.24
1016.851	1507.56
1017.143	1507.56
1017.435	1494.45
1017.727	1470.72
1018.018	1482.25
1018.31	1471.85
1018.602	1446.77
1018.893	1467.11
1019.185	1419.2
1019.476	1432.76
1019.767	1435.47
1020.058	1420.1
1020.35	1367.45
1020.641	1405.19
1020.932	1371.29
1021.223	1375.13
1021.514	1374.23
1021.804	1361.12
1022.095	1364.06
1022.386	1305.08
1022.677	1302.82
1022.967	1336.26
1023.258	1311.41
1023.548	1293.33
1023.839	1304.17
1024.129	1306.43
1024.419	1286.77
1024.709	1281.8
1025	1242.93
1025.29	1255.81
1025.58	1242.71
1025.87	1253.78
1026.16	1262.82
1026.449	1218.98
1026.739	1224.63
1027.029	1224.85
1027.319	1221.24
1027.608	1189.6
1027.898	1183.05
1028.187	1193.44
1028.477	1166.78
1028.766	1180.11
1029.055	1170.62
1029.344	1133.78
1029.634	1134.91
1029.923	1138.98
1030.212	1137.63
1030.501	1120.9
1030.79	1105.76
1031.078	1085.88
1031.367	1096.72
1031.656	1076.84
1031.945	1090.85
1032.233	1100.56
1032.522	1079.55
1032.81	1052.88
1033.099	1054.69
1033.387	1055.37
1033.675	1051.3
1033.963	1043.39
1034.251	1060.57
1034.54	1023.05
1034.828	1004.07
1035.116	1015.37
1035.403	998.19
1035.691	965.88
1035.979	998.42
1036.267	970.85
1036.554	968.82
1036.842	963.17
1037.129	972.88
1037.417	951.64
1037.704	957.07
1037.992	963.62
1038.279	945.09
1038.566	928.14
1038.853	928.14
1039.14	928.14
