Data from hue_30_FLMS001491_27.txt Node
Date: Mon Feb 06 15:04:57 GMT 2017
User: dcchb
Spectrometer: FLMS00149
Trigger mode: 0
Integration Time (sec): 2.000000E-2
Scans to average: 10
Electric dark correction enabled: true
Nonlinearity correction enabled: false
Boxcar width: 0
XAxis mode: Wavelengths
Number of Pixels in Spectrum: 2048
>>>>>Begin Spectral Data<<<<<
341.393	-7.84
341.776	-7.84
342.16	-7.84
342.543	-57.78
342.927	-74.5
343.31	-64.79
343.693	-83.09
344.077	-55.52
344.46	-60.27
344.843	-55.07
345.226	-51.45
345.61	-34.28
345.993	-26.6
346.376	2.56
346.759	29.45
347.142	26.28
347.525	34.65
347.908	75.55
348.291	51.82
348.674	90.01
349.057	120.75
349.44	114.64
349.823	142.89
350.206	161.65
350.588	198.48
350.971	203.68
351.354	246.84
351.737	228.99
352.119	257.24
352.502	259.95
352.884	290.68
353.267	285.71
353.65	299.27
354.032	300.85
354.414	301.98
354.797	310.34
355.179	324.13
355.562	319.61
355.944	353.51
356.326	355.77
356.709	354.64
357.091	334.3
357.473	336.33
357.855	335.43
358.238	350.8
358.62	345.15
359.002	348.76
359.384	351.02
359.766	350.57
360.148	337.91
360.53	319.38
360.912	341.3
361.294	348.31
361.676	333.17
362.057	322.77
362.439	345.6
362.821	339.95
363.203	350.12
363.584	321.19
363.966	326.39
364.348	327.07
364.729	339.04
365.111	317.12
365.493	333.4
365.874	315.54
366.256	326.62
366.637	319.84
367.019	326.16
367.4	313.51
367.781	314.41
368.163	320.97
368.544	353.96
368.925	312.83
369.306	331.59
369.688	320.06
370.069	330.23
370.45	311.93
370.831	315.99
371.212	332.72
371.593	311.25
371.974	307.41
372.355	334.53
372.736	333.17
373.117	318.93
373.498	321.19
373.879	326.39
374.26	320.06
374.641	334.07
375.021	357.58
375.402	326.62
375.783	347.63
376.163	343.11
376.544	325.26
376.925	348.31
377.305	350.12
377.686	326.62
378.066	320.97
378.447	355.09
378.827	327.07
379.208	336.78
379.588	332.49
379.968	335.66
380.349	347.18
380.729	329.1
381.109	334.75
381.489	302.66
381.87	336.56
382.25	357.58
382.63	346.5
383.01	333.85
383.39	342.21
383.77	359.16
384.15	360.74
384.53	359.38
384.91	337.24
385.29	340.63
385.67	351.93
386.049	355.77
386.429	340.63
386.809	353.51
387.189	358.03
387.568	351.25
387.948	374.3
388.328	353.06
388.707	362.55
389.087	383.56
389.466	378.37
389.846	370.91
390.225	366.84
390.605	374.98
390.984	379.27
391.363	377.46
391.743	381.98
392.122	359.84
392.501	368.2
392.881	381.08
393.26	379.5
393.639	402.09
394.018	391.25
394.397	387.86
394.776	383.34
395.155	385.82
395.534	382.89
395.913	381.76
396.292	373.39
396.671	382.89
397.05	391.47
397.429	407.52
397.808	393.73
398.186	379.5
398.565	398.7
398.944	409.78
399.323	387.18
399.701	398.48
400.08	409.78
400.458	399.61
400.837	400.29
401.215	429.89
401.594	403.9
401.972	415.88
402.351	385.82
402.729	421.08
403.107	431.47
403.486	420.85
403.864	401.87
404.242	418.82
404.62	413.39
404.999	431.7
405.377	434.18
405.755	446.39
406.133	426.73
406.511	423.79
406.889	447.29
407.267	441.41
407.645	442.09
408.023	440.06
408.401	446.61
408.779	437.35
409.156	449.32
409.534	453.62
409.912	445.03
410.29	457.23
410.667	468.08
411.045	455.65
411.422	449.1
411.8	465.37
412.178	452.26
412.555	473.28
412.933	473.96
413.31	471.47
413.687	477.35
414.065	474.63
414.442	493.16
414.819	483.67
415.197	508.53
415.574	497.46
415.951	509.21
416.328	489.1
416.705	489.32
417.082	492.04
417.46	489.32
417.837	509.21
418.214	495.88
418.591	505.14
418.967	511.24
419.344	540.85
419.721	515.31
420.098	514.86
420.475	511.92
420.852	533.62
421.228	532.49
421.605	548.53
421.982	551.02
422.358	553.05
422.735	556.44
423.111	550.11
423.488	543.79
423.864	532.26
424.241	562.09
424.617	544.69
424.994	586.72
425.37	582.65
425.746	583.33
426.123	582.65
426.499	561.64
426.875	580.85
427.251	573.84
427.627	627.62
428.003	581.52
428.379	604.8
428.756	604.8
429.132	602.77
429.507	607.06
429.883	619.72
430.259	606.38
430.635	636.66
431.011	638.47
431.387	648.19
431.763	642.09
432.138	656.1
432.514	669.66
432.89	661.75
433.265	665.14
433.641	680.96
434.016	687.74
434.392	700.62
434.767	693.16
435.143	702.65
435.518	697.68
435.894	711.46
436.269	736.55
436.644	708.98
437.02	716.66
437.395	731.35
437.77	713.72
438.145	719.15
438.52	737.23
438.895	743.33
439.271	739.26
439.646	752.82
440.021	760.28
440.395	759.37
440.77	770.45
441.145	744.68
441.52	784.23
441.895	797.79
442.27	782.65
442.645	786.72
443.019	773.84
443.394	802.31
443.769	794.85
444.143	793.04
444.518	792.37
444.892	784.23
445.267	820.16
445.641	811.12
446.016	819.71
446.39	809.31
446.764	844.34
447.139	818.35
447.513	821.97
447.887	844.12
448.262	850.44
448.636	839.14
449.01	868.75
449.384	886.15
449.758	844.79
450.132	872.14
450.506	883.66
450.88	888.41
451.254	896.32
451.628	886.6
452.002	931.12
452.376	910.1
452.75	938.8
453.123	915.53
453.497	921.63
453.871	902.87
454.244	913.72
454.618	935.19
454.992	964.34
455.365	977.67
455.739	981.74
456.112	1000.04
456.486	987.62
456.859	1022.87
457.232	1016.32
457.606	1009.76
457.979	1035.75
458.352	1069.2
458.725	1061.06
459.099	1028.52
459.472	1061.06
459.845	1104.45
460.218	1108.06
460.591	1100.83
460.964	1142.41
461.337	1125.69
461.71	1117.56
462.083	1154.16
462.456	1169.76
462.829	1163.88
463.201	1190.55
463.574	1167.27
463.947	1208.63
464.32	1216.31
464.692	1255.63
465.065	1265.12
465.438	1269.19
465.81	1280.94
466.183	1326.82
466.555	1322.52
466.928	1371.56
467.3	1341.05
467.672	1363.65
468.045	1379.02
468.417	1396.64
468.789	1448.17
469.161	1436.42
469.534	1403.42
469.906	1486.13
470.278	1468.51
470.65	1508.05
471.022	1569.52
471.394	1564.55
471.766	1582.63
472.138	1595.96
472.51	1657.43
472.882	1649.97
473.253	1670.08
473.625	1697.2
473.997	1771.32
474.369	1781.94
474.74	1782.62
475.112	1810.42
475.484	1854.26
475.855	1884.77
476.227	1883.18
476.598	1969.74
476.97	1985.56
477.341	2050.64
477.713	2106.23
478.084	2117.98
478.455	2162.73
478.827	2192.33
479.198	2231.65
479.569	2309.84
479.94	2307.81
480.311	2388.93
480.682	2463.96
481.053	2492.66
481.424	2537.41
481.795	2606.1
482.166	2617.18
482.537	2692.2
482.908	2772.88
483.279	2819.66
483.65	2879.09
484.021	2912.54
484.391	2949.6
484.762	3056.49
485.133	3032.76
485.503	3117.05
485.874	3213.55
486.244	3293.09
486.615	3331.96
486.985	3389.13
487.356	3498.51
487.726	3523.37
488.097	3567.66
488.467	3642.01
488.837	3748.67
489.207	3782.57
489.578	3877.26
489.948	3912.06
490.318	4020.08
490.688	4018.72
491.058	4114.76
491.428	4176.68
491.798	4228.89
492.168	4334.42
492.538	4374.87
492.908	4481.99
493.278	4533.74
493.648	4540.29
494.017	4631.59
494.387	4698.25
494.757	4739.61
495.126	4795.65
495.496	4820.96
495.866	4882.88
496.235	4976.21
496.605	5040.16
496.974	5041.07
497.344	5102.99
497.713	5159.48
498.082	5197
498.452	5275.64
498.821	5357.22
499.19	5331.68
499.559	5428.85
499.928	5496.42
500.298	5519.93
500.667	5558.12
501.036	5561.96
501.405	5656.42
501.774	5669.98
502.143	5721.95
502.512	5800.6
502.88	5843.98
503.249	5836.3
503.618	5881.72
503.987	5926.24
504.356	5946.81
504.724	5979.57
505.093	6040.14
505.462	6061.61
505.83	6125.56
506.199	6195.16
506.567	6215.5
506.936	6253.24
507.304	6344.31
507.672	6315.38
508.041	6389.96
508.409	6428.15
508.777	6425.21
509.145	6498.43
509.514	6539.56
509.882	6528.94
510.25	6584.76
510.618	6553.57
510.986	6659.33
511.354	6677.41
511.722	6753.11
512.09	6836.05
512.458	6786.56
512.826	6898.19
513.193	6863.17
513.561	6940
513.929	6936.39
514.297	6983.84
514.664	7018.87
515.032	7066.78
515.4	7170.05
515.767	7101.35
516.135	7130.05
516.502	7140.9
516.869	7231.52
517.237	7249.15
517.604	7306.77
517.972	7345.64
518.339	7346.77
518.706	7350.84
519.073	7377.28
519.44	7413.21
519.808	7513.77
520.175	7462.93
520.542	7599.64
520.909	7628.8
521.276	7608.91
521.643	7682.81
522.009	7726.65
522.376	7791.5
522.743	7759.19
523.11	7874.89
523.477	7906.76
523.843	7954.89
524.21	8029.24
524.577	8055.68
524.943	8097.94
525.31	8155.11
525.676	8177.93
526.043	8283.47
526.409	8244.37
526.776	8316.91
527.142	8295.45
527.508	8407.08
527.874	8433.97
528.241	8450.24
528.607	8483.69
528.973	8622.89
529.339	8553.97
529.705	8695.44
530.071	8729.56
530.437	8818.82
530.803	8830.12
531.169	8847.75
531.535	8813.85
531.901	8947.18
532.267	8925.71
532.632	8952.83
532.998	8957.8
533.364	9058.14
533.73	9129.1
534.095	9088.87
534.461	9148.98
534.826	9240.28
535.192	9198.7
535.557	9223.78
535.923	9343.55
536.288	9353.27
536.653	9437.34
537.019	9347.62
537.384	9423.78
537.749	9472.59
538.114	9522.08
538.479	9555.53
538.845	9660.38
539.21	9661.51
539.575	9744.45
539.94	9776.08
540.305	9825.57
540.67	9755.97
541.034	9797.55
541.399	9926.59
541.764	9846.59
542.129	9888.17
542.494	9926.14
542.858	10030.54
543.223	10059.02
543.587	10149.18
543.952	10171.33
544.316	10217.2
544.681	10161.84
545.045	10266.92
545.41	10324.77
545.774	10298.1
546.138	10381.27
546.503	10456.07
546.867	10470.08
547.231	10496.29
547.595	10610.41
547.959	10534.48
548.324	10622.62
548.688	10642.73
549.052	10734.48
549.416	10736.74
549.779	10779.22
550.143	10753.46
550.507	10827.36
550.871	10843.18
551.235	10911.42
551.599	10994.81
551.962	10994.81
552.326	11059.67
552.689	11048.37
553.053	11040.46
553.417	11054.7
553.78	11223.5
554.143	11180.34
554.507	11275.48
554.87	11301.24
555.234	11353.67
555.597	11256.95
555.96	11322.48
556.323	11421.47
556.686	11365.87
557.05	11470.73
557.413	11541.69
557.776	11559.09
558.139	11676.15
558.502	11675.02
558.865	11606.77
559.228	11736.49
559.59	11756.82
559.953	11750.5
560.316	11863.71
560.679	11858.06
561.041	11930.15
561.404	11978.51
561.767	12044.27
562.129	12000.43
562.492	12108.45
562.854	12086.53
563.217	12191.16
563.579	12154.78
563.941	12260.99
564.304	12290.82
564.666	12370.82
565.028	12369.91
565.39	12369.46
565.753	12473.64
566.115	12451.04
566.477	12552.06
566.839	12559.06
567.201	12718.15
567.563	12660.08
567.925	12749.57
568.287	12767.87
568.648	12824.59
569.01	12907.98
569.372	12954.76
569.734	12923.12
570.095	12992.05
570.457	13157.92
570.819	13101.87
571.18	13199.72
571.542	13255.54
571.903	13192.49
572.265	13421.86
572.626	13347.52
572.987	13465.93
573.349	13512.94
573.71	13628.86
574.071	13671.8
574.432	13766.94
574.794	13837.45
575.155	13961.29
575.516	14004.67
575.877	14061.85
576.238	14196.76
576.599	14368.51
576.96	14322.18
577.32	14383.2
577.681	14586.35
578.042	14701.15
578.403	14823.41
578.763	14860.92
579.124	15016.4
579.485	15092.56
579.845	15310.18
580.206	15397.86
580.566	15471.98
580.927	15725.31
581.287	15918.07
581.648	15998.97
582.008	16262.02
582.368	16394.67
582.728	16571.16
583.089	16765.05
583.449	16900.87
583.809	17109.9
584.169	17386.73
584.529	17464.92
584.889	17934.06
585.249	18007.96
585.609	18123.44
585.969	18512.35
586.329	18643.65
586.688	18952.57
587.048	19052
587.408	19390.52
587.768	19635.71
588.127	19961.58
588.487	20108.24
588.846	20515.92
589.206	20698.28
589.565	20940.99
589.925	21247.2
590.284	21477.7
590.643	21864.35
591.003	22073.16
591.362	22458.69
591.721	22760.15
592.08	22895.97
592.44	23391.09
592.799	23577.08
593.158	23826.56
593.517	24059.1
593.876	24477.85
594.235	24775.69
594.593	24964.61
594.952	25285.73
595.311	25507.87
595.67	25781.77
596.029	26294.29
596.387	26599.6
596.746	26981.28
597.104	26993.71
597.463	27376.3
597.822	27726.35
598.18	27908.26
598.538	28234.36
598.897	28533.33
599.255	28639.09
599.613	29258.51
599.972	29302.13
600.33	29684.26
600.688	29791.15
601.046	30242.89
601.404	30622.99
601.762	30848.98
602.12	31145.01
602.478	31403.76
602.836	31693.47
603.194	31590.65
603.552	32075.61
603.91	32138.66
604.268	32472.66
604.625	32735.03
604.983	32941.8
605.341	33098.18
605.698	33509.47
606.056	33793.76
606.413	33940.2
606.771	34239.85
607.128	34340.86
607.485	34504.93
607.843	34633.28
608.2	35063.33
608.557	35315.98
608.914	35408.63
609.272	35805.23
609.629	35894.49
609.986	36309.62
610.343	36252.9
610.7	36644.76
611.057	36792.78
611.414	36846.33
611.771	37056.27
612.127	37230.96
612.484	37335.59
612.841	37545.75
613.198	37687.67
613.554	37899.41
613.911	38103.02
614.267	38203.36
614.624	38314.54
614.98	38526.29
615.337	38845.38
615.693	38903.68
616.05	39015.77
616.406	39174.41
616.762	39292.37
617.118	39391.8
617.475	39466.15
617.831	39753.38
618.187	40017.32
618.543	40195.17
618.899	40299.12
619.255	40305
619.611	40313.36
619.967	40620.7
620.323	40755.38
620.678	40638.55
621.034	40693.92
621.39	40761.26
621.746	40773.69
622.101	41420.45
622.457	41008.03
622.812	41257.06
623.168	41446.89
623.523	41399.43
623.879	41578.64
624.234	41312.43
624.589	41745.41
624.945	41657.28
625.3	41628.13
625.655	41897.73
626.01	41854.79
626.365	41869.25
626.72	41978.4
627.075	41991.51
627.43	42059.76
627.785	42079.64
628.14	42062.02
628.495	42180.88
628.85	42257.04
629.205	42185.63
629.559	42456.36
629.914	42378.84
630.269	42310.82
630.623	42405.96
630.978	42210.26
631.332	42489.8
631.687	42586.3
632.041	42461.1
632.396	42523.02
632.75	42341.56
633.104	42404.15
633.459	42254.78
633.813	42432.4
634.167	42343.14
634.521	42447.99
634.875	42524.38
635.229	42231.5
635.583	42260.65
635.937	42365.96
636.291	42238.06
636.645	42304.72
636.999	42146.99
637.352	42377.49
637.706	42225.63
638.06	42368.22
638.413	42304.27
638.767	42179.3
639.121	42371.39
639.474	41985.41
639.828	42173.42
640.181	42108.12
640.534	42218.85
640.888	42135.01
641.241	42034.45
641.594	42031.51
641.947	42265.63
642.301	42006.88
642.654	42212.97
643.007	41947.44
643.36	41996.93
643.713	41919.19
644.066	42007.33
644.419	41859.53
644.771	41613.67
645.124	41314.92
645.477	41170.97
645.83	41045.09
646.182	40885.78
646.535	40742.73
646.888	40970.74
647.24	40692.11
647.593	40964.87
647.945	40735.95
648.298	40741.37
648.65	40624.09
649.002	40561.72
649.355	40709.28
649.707	40653.46
650.059	40696.4
650.411	41117.86
650.763	41207.57
651.115	41748.13
651.467	41443.5
651.819	41488.47
652.171	41386.1
652.523	41352.2
652.875	41496.83
653.227	41256.16
653.578	41545.64
653.93	41394.91
654.282	41185.65
654.633	41212.77
654.985	41243.51
655.337	41149.95
655.688	41260.23
656.039	41380.68
656.391	40945.89
656.742	41122.83
657.094	41171.42
657.445	41268.14
657.796	41242.38
658.147	41110.4
658.498	41036.28
658.849	41124.41
659.2	41084.87
659.551	40985.43
659.902	41191.3
660.253	41086.9
660.604	41067.24
660.955	40933.46
661.306	41003.29
661.656	40917.19
662.007	40951.31
662.358	40908.6
662.708	40979.78
663.059	41010.07
663.409	40833.35
663.76	41077.63
664.11	40972.33
664.461	41041.7
664.811	41080.12
665.161	40849.17
665.511	40832.67
665.862	40911.54
666.212	41007.35
666.562	40941.37
666.912	40845.78
667.262	40817.3
667.612	40889.84
667.962	40942.5
668.312	40795.83
668.662	40918.54
669.011	40922.84
669.361	40759.68
669.711	40822.27
670.06	40613.92
670.41	40689.85
670.76	40651.66
671.109	40820.01
671.459	40773.91
671.808	40684.88
672.157	40706.34
672.507	40532.56
672.856	40545.22
673.205	40596.74
673.554	40681.49
673.904	40478.55
674.253	40866.57
674.602	40621.15
674.951	40113.14
675.3	39834.5
675.649	40364.21
675.998	40380.7
676.346	40410.08
676.695	40504.54
677.044	40109.75
677.393	40275.17
677.741	40343.64
678.09	40300.25
678.438	40170.54
678.787	40187.49
679.135	40222.74
679.484	39987.95
679.832	40224.32
680.181	39959.25
680.529	40065.46
680.877	40020.49
681.225	39923.77
681.573	40020.04
681.922	39838.57
682.27	39778.69
682.618	39761.06
682.966	39682.87
683.314	39705.02
683.661	39465.7
684.009	39384.57
684.357	39355.65
684.705	39328.98
685.053	39210.11
685.4	39225.25
685.748	39028.42
686.095	39099.83
686.443	38921.76
686.79	38835.89
687.138	38996.56
687.485	38834.98
687.832	38794.98
688.18	38878.82
688.527	38525.61
688.874	38518.61
689.221	38426.4
689.568	38262.79
689.915	38247.65
690.262	38288.78
690.609	38273.64
690.956	38112.51
691.303	37993.42
691.65	37860.77
691.997	37856.25
692.344	37515.24
692.69	37586.43
693.037	37620.1
693.383	37309.37
693.73	37482.02
694.077	37216.04
694.423	37228.02
694.769	37149.6
695.116	37026.44
695.462	36972.43
695.808	36910.96
696.155	36971.98
696.501	36642.5
696.847	36680.69
697.193	36431.43
697.539	36555.72
697.885	36201.83
698.231	36204.32
698.577	36059.24
698.923	36031.89
699.269	35991.21
699.614	35835.51
699.96	35858.11
700.306	35903.76
700.651	35651.79
700.997	35443.43
701.342	35402.53
701.688	35271.01
702.033	35234.85
702.379	35322.76
702.724	35155.08
703.069	35214.74
703.415	34798.25
703.76	34889.32
704.105	34893.62
704.45	34716.22
704.795	34610.69
705.14	34315.55
705.485	34472.16
705.83	34258.83
706.175	34227.65
706.52	34191.26
706.865	34114.65
707.209	34024.49
707.554	33899.97
707.899	33967.31
708.243	33859.75
708.588	33824.49
708.932	33539.53
709.277	33464.28
709.621	33473.31
709.966	33479.19
710.31	33416.82
710.654	33170.95
710.998	33194
711.342	33218.18
711.687	33008.69
712.031	32852.77
712.375	32800.79
712.719	32908.13
713.063	32860.22
713.407	32864.52
713.75	32685.54
714.094	32688.7
714.438	32595.82
714.782	32487.58
715.125	32434.7
715.469	32371.2
715.812	32353.34
716.156	32100.92
716.499	32179.34
716.843	32175.95
717.186	31942.73
717.53	32129.62
717.873	32154.71
718.216	32049.85
718.559	31836.07
718.902	31537.09
719.246	31693.7
719.589	31705
719.932	31513.59
720.275	31470.2
720.617	31543.87
720.96	31370.09
721.303	31426.81
721.646	31343.65
721.989	31047.62
722.331	31314.5
722.674	31226.82
723.016	31225.92
723.359	31102.53
723.701	31128.07
724.044	30922.87
724.386	30790.9
724.729	30915.87
725.071	30761.3
725.413	30804.23
725.755	30795.65
726.097	30681.07
726.439	30473.62
726.782	30500.06
727.124	30632.03
727.465	30300.29
727.807	30491.25
728.149	30419.38
728.491	30331.25
728.833	30260.07
729.175	30125.83
729.516	30334.87
729.858	30194.76
730.199	30204.25
730.541	30205.6
730.882	30162.89
731.224	30132.84
731.565	29874.77
731.906	29937.59
732.248	30005.84
732.589	29803.81
732.93	29588.67
733.271	29573.53
733.612	29752.28
733.953	29702.11
734.294	29503.48
734.635	29510.03
734.976	29500.54
735.317	29463.02
735.658	29384.38
735.999	29431.39
736.339	29450.37
736.68	29279.53
737.021	29233.2
737.361	29105.07
737.702	29382.12
738.042	29235.46
738.383	29100.55
738.723	29151.85
739.063	28911.85
739.404	29073.43
739.744	28935.81
740.084	28872.98
740.424	28999.99
740.764	28745.76
741.104	28872.98
741.444	28694.46
741.784	28631.18
742.124	28760.44
742.464	28563.39
742.804	28591.64
743.143	28650.16
743.483	28584.63
743.823	28421.47
744.162	28437.74
744.502	28402.26
744.841	28282.72
745.181	28305.77
745.52	28292.21
745.86	28294.92
746.199	28171.76
746.538	28272.32
746.877	28324.3
747.216	28248.37
747.556	28121.37
747.895	28210.63
748.234	28019.9
748.573	27924.76
748.911	27898.09
749.25	27868.94
749.589	27886.34
749.928	27858.32
750.267	27867.59
750.605	27746.69
750.944	27762.96
751.283	27608.16
751.621	27731.32
751.96	27483.87
752.298	27494.94
752.636	27553.7
752.975	27381.27
753.313	27301.05
753.651	27369.07
753.989	27274.83
754.327	27258.11
754.666	27103.76
755.004	27081.39
755.342	27099.7
755.679	27033.71
756.017	26928.18
756.355	26913.04
756.693	26928.18
757.031	26927.72
757.368	26690.89
757.706	26738.35
758.044	26616.77
758.381	26677.79
758.719	26570.67
759.056	26596.89
759.394	26479.15
759.731	26258.59
760.068	26351.02
760.405	26213.62
760.743	26097.01
761.08	26208.87
761.417	26064.24
761.754	26007.07
762.091	25949.67
762.428	25824.93
762.765	25689.11
763.102	25808.66
763.438	25671.71
763.775	25524.37
764.112	25561.21
764.449	25559.17
764.785	25390.36
765.122	25220.65
765.458	25184.95
765.795	25102.69
766.131	25073.31
766.467	25116.25
766.804	24811.85
767.14	24847.1
767.476	24784.05
767.812	24557.39
768.148	24608.46
768.485	24408.69
768.821	24436.72
769.157	24321.24
769.492	24115.37
769.828	24340
770.164	24067.91
770.5	23981.81
770.836	24006.67
771.171	23793.57
771.507	23748.82
771.842	23702.5
772.178	23709.5
772.513	23542.28
772.849	23510.41
773.184	23400.81
773.519	23428.16
773.855	23185
774.19	23223.64
774.525	23154.94
774.86	23107.26
775.195	22943.65
775.53	22939.13
775.865	22792.47
776.2	22621.4
776.535	22520.38
776.87	22587.5
777.205	22461.4
777.539	22367.62
777.874	22387.5
778.209	22138.47
778.543	22136.89
778.878	22004.69
779.212	21949.78
779.547	21777.58
779.881	21943
780.215	21630.69
780.55	21707.52
780.884	21555.44
781.218	21533.06
781.552	21547.07
781.886	21321.32
782.22	21297.59
782.554	21284.71
782.888	20986.86
783.222	20987.32
783.556	20878.17
783.889	20877.04
784.223	20640.66
784.557	20636.82
784.89	20645.4
785.224	20557.95
785.557	20479.31
785.891	20473.43
786.224	20287.45
786.558	20396.6
786.891	20107.56
787.224	20097.4
787.557	19887.91
787.891	20000.45
788.224	19912.99
788.557	19862.6
788.89	19855.82
789.223	19801.13
789.556	19639.78
789.888	19568.6
790.221	19573.34
790.554	19436.17
790.887	19400.01
791.219	19287.25
791.552	19320.24
791.884	19182.84
792.217	19150.08
792.549	19140.81
792.882	18972.91
793.214	18825.56
793.546	18866.24
793.879	18744.44
794.211	18706.7
794.543	18779.46
794.875	18589.64
795.207	18674.83
795.539	18482.75
795.871	18521.62
796.203	18331.79
796.535	18305.8
796.867	18198.01
797.198	18233.49
797.53	18294.28
797.862	18066.71
798.193	18089.99
798.525	17985.13
798.856	17988.52
799.188	17781.52
799.519	17750.34
799.85	17579.72
800.182	17714.63
800.513	17628.99
800.844	17542.89
801.175	17593.05
801.506	17459.05
801.837	17343.8
802.168	17430.8
802.499	17283.01
802.83	17169.11
803.161	17167.75
803.491	17144.48
803.822	17195.78
804.153	16961.43
804.483	16898.84
804.814	16801.66
805.145	16944.03
805.475	16826.52
805.805	16783.81
806.136	16759.4
806.466	16713.53
806.796	16572.52
807.126	16497.49
807.457	16550.14
807.787	16494.78
808.117	16422.01
808.447	16343.14
808.777	16377.04
809.107	16347.44
809.436	16358.06
809.766	16272.86
810.096	16112.87
810.426	16128.01
810.755	16125.97
811.085	16048.46
811.414	16040.1
811.744	15937.5
812.073	15857.73
812.403	15811.86
812.732	15751.52
813.061	15794.23
813.39	15703.39
813.719	15584.75
814.049	15715.59
814.378	15614.8
814.707	15625.2
815.036	15574.8
815.365	15487.12
815.693	15378.2
816.022	15394.24
816.351	15350.63
816.68	15175.72
817.008	15216.62
817.337	15094.81
817.665	15172.55
817.994	15144.98
818.322	15131.2
818.651	14987.93
818.979	15034.25
819.307	15050.52
819.636	15026.57
819.964	14865.44
820.292	14901.15
820.62	15048.26
820.948	14918.1
821.276	14911.32
821.604	14844.88
821.932	14926.91
822.259	14829.74
822.587	14829.74
822.915	14794.03
823.243	14902.5
823.57	14806.01
823.898	14806.46
824.225	14710.64
824.553	14742.28
824.88	14727.82
825.207	14820.7
825.535	14727.14
825.862	14744.77
826.189	14706.58
826.516	14792.22
826.843	14804.43
827.17	14804.88
827.497	14799
827.824	14804.2
828.151	14751.55
828.478	14806.69
828.805	14827.25
829.131	14697.31
829.458	14696.86
829.785	14574.83
830.111	14749.97
830.438	14744.09
830.764	14670.65
831.09	14725.33
831.417	14612.79
831.743	14662.74
832.069	14665.45
832.395	14626.8
832.722	14692.79
833.048	14605.11
833.374	14626.8
833.7	14579.12
834.026	14542.51
834.351	14629.52
834.677	14586.81
835.003	14605.56
835.329	14632.91
835.654	14467.49
835.98	14483.76
836.306	14513.14
836.631	14412.8
836.956	14499.35
837.282	14503.42
837.607	14439.24
837.932	14359.92
838.258	14394.04
838.583	14379.13
838.908	14201.96
839.233	14219.58
839.558	14180.04
839.883	14131.45
840.208	14135.07
840.533	14126.7
840.858	14192.01
841.182	14108.85
841.507	14172.35
841.832	14029.98
842.156	13994.96
842.481	13994.05
842.805	14048.06
843.13	13914.96
843.454	13935.07
843.778	13875.86
844.103	13797.9
844.427	13845.36
844.751	13815.98
845.075	13756.32
845.399	13702.31
845.723	13679.71
846.047	13646.94
846.371	13559.04
846.695	13543.9
847.019	13350.23
847.343	13368.76
847.666	13342.54
847.99	13266.61
848.313	13244.02
848.637	13112.49
848.96	13198.14
849.284	13067.3
849.607	13016.45
849.931	13060.52
850.254	12851.26
850.577	12864.14
850.9	12822.78
851.223	12717.02
851.546	12663.01
851.869	12594.32
852.192	12681.77
852.515	12535.56
852.838	12454.21
853.161	12493.75
853.483	12300.31
853.806	12357.03
854.129	12342.57
854.451	12256.47
854.774	12197.49
855.096	12191.84
855.419	12197.26
855.741	12121.79
856.063	12057.38
856.385	12024.16
856.708	12035.69
857.03	11933.09
857.352	11950.49
857.674	11913.43
857.996	11880.89
858.318	11828.46
858.64	11814.9
858.961	11780.33
859.283	11686.99
859.605	11677.05
859.926	11696.94
860.248	11708.69
860.57	11563.38
860.891	11605.19
861.212	11513.67
861.534	11508.02
861.855	11437.51
862.176	11492.42
862.498	11512.99
862.819	11465.76
863.14	11399.77
863.461	11380.56
863.782	11352.31
864.103	11352.54
864.424	11339.89
864.745	11315.25
865.065	11282.71
865.386	11217.85
865.707	11178.99
866.027	11256.95
866.348	11138.31
866.668	11162.26
866.989	11087.46
867.309	10981.93
867.63	11062.6
867.95	11101.25
868.27	11009.72
868.59	10997.07
868.91	11018.09
869.23	10984.64
869.55	10880.24
869.87	10958.65
870.19	10891.08
870.51	10934.92
870.83	11008.59
871.15	10884.53
871.469	10810.63
871.789	10902.83
872.109	10828.03
872.428	10707.59
872.748	10765.66
873.067	10873.91
873.386	10823.29
873.706	10721.6
874.025	10759.56
874.344	10655.16
874.663	10719.56
874.982	10698.32
875.301	10627.81
875.62	10631.66
875.939	10605.44
876.258	10572.22
876.577	10593.01
876.896	10567.25
877.214	10548.95
877.533	10564.31
877.852	10466.46
878.17	10505.78
878.489	10470.76
878.807	10505.56
879.125	10459
879.444	10474.82
879.762	10379.23
880.08	10334.49
880.398	10319.8
880.716	10384.2
881.034	10340.59
881.352	10308.95
881.67	10326.8
881.988	10315.51
882.306	10197.09
882.624	10249.07
882.941	10209.75
883.259	10150.31
883.577	10142.85
883.894	10152.8
884.212	10092.69
884.529	10055.17
884.846	10050.43
885.164	10027.6
885.481	9974.05
885.798	9994.61
886.115	9936.31
886.432	9934.27
886.75	9881.17
887.067	9935.4
887.383	9845.24
887.7	9801.39
888.017	9793.03
888.334	9800.04
888.651	9760.27
888.967	9817.44
889.284	9714.84
889.6	9670.78
889.917	9613.38
890.233	9623.55
890.55	9583.55
890.866	9595.75
891.182	9601.4
891.498	9541.51
891.815	9482.53
892.131	9474.17
892.447	9466.71
892.763	9392.14
893.079	9369.32
893.395	9366.15
893.71	9369.77
894.026	9336.32
894.342	9284.8
894.657	9205.48
894.973	9202.09
895.289	9198.47
895.604	9193.5
895.92	9137.01
896.235	9043.67
896.55	9086.39
896.865	9078.93
897.181	9036.22
897.496	9032.15
897.811	8902.44
898.126	8976.56
898.441	8918.25
898.756	8925.71
899.071	8858.37
899.386	8875.09
899.7	8738.82
900.015	8713.97
900.33	8672.16
900.644	8626.96
900.959	8658.37
901.273	8650.24
901.588	8595.78
901.902	8503.35
902.216	8540.41
902.531	8524.82
902.845	8436.01
903.159	8395.1
903.473	8346.97
903.787	8287.08
904.101	8338.16
904.415	8317.14
904.729	8280.3
905.042	8233.07
905.356	8218.16
905.67	8178.16
905.984	8185.39
906.297	8203.02
906.611	8058.39
906.924	8041.22
907.237	8037.83
907.551	8033.98
907.864	7936.13
908.177	7934.55
908.491	7937.94
908.804	7863.82
909.117	7859.3
909.43	7822.24
909.743	7782.92
910.056	7723.48
910.368	7778.62
910.681	7665.18
910.994	7629.25
911.307	7591.28
911.619	7552.87
911.932	7523.71
912.244	7521.68
912.557	7535.69
912.869	7464.51
913.181	7480.78
913.494	7414.11
913.806	7293.44
914.118	7356.04
914.43	7307.45
914.742	7328.01
915.054	7191.97
915.366	7223.61
915.678	7175.93
915.99	7165.31
916.302	7090.96
916.613	7189.94
916.925	7072.2
917.236	7065.87
917.548	6983.62
917.859	7054.57
918.171	6952.88
918.482	6952.88
918.794	6914.01
919.105	6888.03
919.416	6863.17
919.727	6808.03
920.038	6803.28
920.349	6701.36
920.66	6702.95
920.971	6684.64
921.282	6692.78
921.593	6589.95
921.903	6600.12
922.214	6582.72
922.525	6551.08
922.835	6546.79
923.146	6477.87
923.456	6462.73
923.767	6450.97
924.077	6450.75
924.387	6428.6
924.697	6326.68
925.008	6355.16
925.318	6302.73
925.628	6321.26
925.938	6314.25
926.248	6157.87
926.558	6217.53
926.867	6143.41
927.177	6154.49
927.487	6103.64
927.796	6061.15
928.106	6033.81
928.416	6056.41
928.725	6064.54
929.034	5992
929.344	5985.45
929.653	5996.75
929.962	5948.84
930.271	5836.98
930.581	5889.63
930.89	5840.37
931.199	5813.03
931.508	5791.1
931.817	5737.55
932.125	5751.11
932.434	5722.86
932.743	5689.64
933.051	5681.05
933.36	5628.62
933.669	5623.43
933.977	5592.47
934.286	5557.44
934.594	5566.48
934.902	5538
935.21	5435.18
935.519	5483.99
935.827	5486.25
936.135	5459.81
936.443	5362.19
936.751	5433.83
937.059	5377.78
937.367	5357.67
937.674	5300.27
937.982	5301.63
938.29	5279.03
938.597	5272.93
938.905	5224.79
939.213	5171.91
939.52	5163.32
939.827	5178.69
940.135	5134.17
940.442	5086.72
940.749	5081.97
941.056	5132.37
941.363	5068.41
941.67	5037.45
941.977	4993.16
942.284	4976.89
942.591	4956.55
942.898	4948.42
943.205	4929.88
943.511	4943.67
943.818	4886.04
944.125	4845.59
944.431	4801.07
944.738	4828.19
945.044	4748.42
945.35	4739.61
945.657	4713.62
945.963	4715.88
946.269	4715.2
946.575	4704.13
946.881	4617.58
947.187	4657.8
947.493	4636.33
947.799	4594.3
948.105	4530.35
948.41	4551.14
948.716	4588.42
949.022	4557.46
949.327	4512.49
949.633	4466.85
949.938	4496.68
950.244	4478.37
950.549	4403.12
950.854	4440.41
951.16	4419.62
951.465	4350.69
951.77	4365.61
952.075	4337.58
952.38	4282.67
952.685	4243.12
952.99	4259.39
953.294	4211.94
953.599	4233.41
953.904	4180.75
954.209	4232.73
954.513	4229.34
954.818	4184.37
955.122	4206.29
955.426	4142.33
955.731	4130.13
956.035	4078.83
956.339	4054.2
956.643	4062.56
956.948	4050.36
957.252	4027.08
957.556	4008.33
957.86	3981.43
958.163	3979.18
958.467	3940.08
958.771	3897.14
959.075	3939.18
959.378	3912.28
959.682	3913.19
959.985	3836.13
960.289	3812.63
960.592	3817.37
960.896	3863.92
961.199	3818.73
961.502	3752.74
961.805	3794.55
962.108	3764.27
962.411	3714.78
962.714	3717.49
963.017	3714.32
963.32	3731.27
963.623	3679.07
963.926	3643.82
964.228	3671.84
964.531	3638.62
964.833	3607.21
965.136	3599.07
965.438	3545.06
965.741	3555.01
966.043	3524.72
966.345	3538.73
966.648	3505.52
966.95	3538.28
967.252	3496.02
967.554	3450.15
967.856	3464.16
968.158	3435.91
968.46	3417.61
968.761	3386.87
969.063	3389.36
969.365	3359.3
969.666	3366.99
969.968	3357.5
970.269	3366.31
970.571	3329.25
970.872	3324.95
971.174	3301
971.475	3269.14
971.776	3290.83
972.077	3278.18
972.378	3234.11
972.679	3240.89
972.98	3208.12
973.281	3170.38
973.582	3159.31
973.883	3183.49
974.183	3189.82
974.484	3128.12
974.785	3142.13
975.085	3129.93
975.386	3151.17
975.686	3085.64
975.986	3066.2
976.287	3101.46
976.587	3017.62
976.887	3058.3
977.187	3048.8
977.487	3000.22
977.787	2981.91
978.087	2955.93
978.387	2929.49
978.687	2953.44
978.987	2936.72
979.286	2908.24
979.586	2925.64
979.885	2883.16
980.185	2888.81
980.484	2874.35
980.784	2855.59
981.083	2851.07
981.382	2827.79
981.682	2809.71
981.981	2826.66
982.28	2767
982.579	2775.59
982.878	2791.41
983.177	2788.02
983.475	2750.51
983.774	2699.43
984.073	2717.51
984.372	2704.18
984.67	2700.79
984.969	2725.65
985.267	2673.9
985.566	2654.69
985.864	2677.51
986.162	2627.57
986.461	2659.66
986.759	2660.79
987.057	2601.36
987.355	2600.68
987.653	2612.21
987.951	2578.99
988.249	2571.98
988.547	2579.44
988.844	2545.77
989.142	2537.63
989.44	2477.75
989.737	2490.63
990.035	2505.09
990.332	2492.89
990.63	2461.93
990.927	2443.17
991.224	2460.12
991.521	2447.46
991.819	2421.7
992.116	2402.72
992.413	2389.39
992.71	2380.35
993.006	2376.96
993.303	2366.56
993.6	2343.96
993.897	2379.9
994.193	2325.66
994.49	2329.27
994.787	2304.42
995.083	2303.51
995.379	2270.97
995.676	2246.79
995.972	2273.01
996.268	2240.01
996.565	2249.95
996.861	2213.12
997.157	2227.13
997.453	2195.72
997.749	2206.34
998.044	2186.23
998.34	2176.51
998.636	2155.49
998.932	2146.68
999.227	2151.2
999.523	2160.47
999.818	2139.9
1000.114	2126.34
1000.409	2118.21
1000.704	2074.82
1001	2095.61
1001.295	2070.07
1001.59	2085.44
1001.885	2084.08
1002.18	2035.5
1002.475	2022.84
1002.77	2019.68
1003.065	1972.45
1003.359	1997.53
1003.654	1997.08
1003.949	1965.22
1004.243	1941.71
1004.538	1946.01
1004.832	1936.52
1005.127	1963.63
1005.421	1947.82
1005.715	1921.38
1006.009	1920.02
1006.304	1884.31
1006.598	1922.73
1006.892	1896.29
1007.186	1892.9
1007.48	1857.2
1007.773	1870.53
1008.067	1840.25
1008.361	1845.67
1008.655	1796.86
1008.948	1800.93
1009.242	1813.13
1009.535	1792.79
1009.829	1771.32
1010.122	1757.31
1010.415	1758.22
1010.708	1756.18
1011.001	1716.64
1011.295	1720.48
1011.588	1737.65
1011.881	1714.83
1012.173	1697.43
1012.466	1701.49
1012.759	1665.79
1013.052	1668.28
1013.344	1663.98
1013.637	1667.37
1013.93	1626.69
1014.222	1628.05
1014.514	1640.93
1014.807	1607.03
1015.099	1623.53
1015.391	1584.66
1015.683	1592.35
1015.976	1554.38
1016.268	1567.71
1016.56	1532.91
1016.851	1538.34
1017.143	1533.82
1017.435	1510.54
1017.727	1525.23
1018.018	1501.5
1018.31	1481.61
1018.602	1476.19
1018.893	1504.21
1019.185	1461.05
1019.476	1441.16
1019.767	1428.73
1020.058	1447.49
1020.35	1395.29
1020.641	1431.67
1020.932	1411.33
1021.223	1421.28
1021.514	1411.11
1021.804	1382.41
1022.095	1378.34
1022.386	1390.77
1022.677	1363.88
1022.967	1361.62
1023.258	1337.66
1023.548	1341.5
1023.839	1314.61
1024.129	1318
1024.419	1291.56
1024.709	1286.82
1025	1307.83
1025.29	1305.8
1025.58	1282.97
1025.87	1273.48
1026.16	1232.58
1026.449	1248.4
1026.739	1229.19
1027.029	1235.52
1027.319	1204.56
1027.608	1206.59
1027.898	1199.81
1028.187	1210.43
1028.477	1208.17
1028.766	1185.12
1029.055	1189.19
1029.344	1174.28
1029.634	1166.82
1029.923	1146.93
1030.212	1147.16
1030.501	1146.03
1030.79	1117.56
1031.078	1122.53
1031.367	1146.03
1031.656	1127.5
1031.945	1095.86
1032.233	1110.55
1032.522	1107.84
1032.81	1096.76
1033.099	1083.43
1033.387	1055.18
1033.675	1080.72
1033.963	1046.37
1034.251	1054.51
1034.54	1075.75
1034.828	1025.81
1035.116	1045.69
1035.403	1026.48
1035.691	1012.02
1035.979	1000.04
1036.267	1000.95
1036.554	1003.89
1036.842	980.84
1037.129	1003.43
1037.417	993.26
1037.704	997.11
1037.992	965.02
1038.279	939.25
1038.566	961.63
1038.853	961.63
1039.14	961.63
