Data from hue_40_FLMS001491_50.txt Node
Date: Mon Feb 06 15:07:58 GMT 2017
User: dcchb
Spectrometer: FLMS00149
Trigger mode: 0
Integration Time (sec): 2.000000E-2
Scans to average: 10
Electric dark correction enabled: true
Nonlinearity correction enabled: false
Boxcar width: 0
XAxis mode: Wavelengths
Number of Pixels in Spectrum: 2048
>>>>>Begin Spectral Data<<<<<
341.393	-3.42
341.776	-3.42
342.16	-3.42
342.543	-58.78
342.927	-77.31
343.31	-65.56
343.693	-70.31
344.077	-66.92
344.46	-70.99
344.843	-72.12
345.226	-31.21
345.61	-35.73
345.993	-14.94
346.376	-21.27
346.759	21.67
347.142	22.8
347.525	42.68
347.908	84.49
348.291	78.61
348.674	94.66
349.057	104.15
349.44	123.81
349.823	146.86
350.206	172.85
350.588	194.77
350.971	222.79
351.354	223.47
351.737	234.77
352.119	255.33
352.502	273.18
352.884	273.64
353.267	284.48
353.65	301.66
354.032	302.11
354.414	319.06
354.797	319.29
355.179	314.31
355.562	331.26
355.944	318.61
356.326	338.72
356.709	334.88
357.091	336.91
357.473	337.59
357.855	338.72
358.238	358.83
358.62	336.91
359.002	344.14
359.384	329.23
359.766	355.89
360.148	338.49
360.53	371.71
360.912	334.65
361.294	323.35
361.676	318.61
362.057	348.21
362.439	333.75
362.821	329.45
363.203	336.46
363.584	317.48
363.966	335.56
364.348	327.19
364.729	334.2
365.111	326.06
365.493	321.77
365.874	327.19
366.256	345.27
366.637	319.06
367.019	319.96
367.4	330.13
367.781	314.09
368.163	302.11
368.544	316.8
368.925	316.57
369.306	327.42
369.688	306.4
370.069	300.98
370.45	314.77
370.831	327.87
371.212	331.94
371.593	314.31
371.974	322
372.355	307.31
372.736	324.93
373.117	319.29
373.498	326.06
373.879	316.57
374.26	343.92
374.641	322.68
375.021	311.15
375.402	329.68
375.783	320.42
376.163	337.82
376.544	329.45
376.925	317.7
377.305	331.26
377.686	311.6
378.066	349.12
378.447	346.63
378.827	327.42
379.208	332.62
379.588	318.16
379.968	353.18
380.349	338.27
380.729	330.81
381.109	311.83
381.489	335.1
381.87	344.82
382.25	345.27
382.63	348.44
383.01	327.19
383.39	340.08
383.77	337.14
384.15	362.67
384.53	341.43
384.91	352.96
385.29	376.69
385.67	340.75
386.049	348.44
386.429	362
386.809	359.51
387.189	354.54
387.568	338.95
387.948	374.43
388.328	358.61
388.707	343.47
389.087	365.39
389.466	374.2
389.846	368.1
390.225	359.96
390.605	377.14
390.984	342.56
391.363	364.93
391.743	365.16
392.122	373.52
392.501	373.3
392.881	374.88
393.26	380.75
393.639	369.45
394.018	393.18
394.397	379.4
394.776	362.9
395.155	400.41
395.534	389.11
395.913	403.8
396.292	395.67
396.671	390.7
397.05	375.33
397.429	390.24
397.808	361.54
398.186	373.75
398.565	380.75
398.944	396.8
399.323	399.96
399.701	391.6
400.08	387.31
400.458	381.88
400.837	392.28
401.215	404.48
401.594	387.08
401.972	414.42
402.351	407.19
402.729	403.35
403.107	404.03
403.486	388.44
403.864	434.76
404.242	414.42
404.62	422.56
404.999	426.63
405.377	422.79
405.755	415.55
406.133	429.34
406.511	423.01
406.889	402.45
407.267	433.63
407.645	420.53
408.023	436.8
408.401	442.67
408.779	429.56
409.156	439.28
409.534	432.73
409.912	442.45
410.29	424.59
410.667	451.71
411.045	447.64
411.422	465.72
411.8	441.09
412.178	467.76
412.555	479.73
412.933	468.21
413.31	470.69
413.687	483.57
414.065	466.4
414.442	487.87
414.819	468.21
415.197	473.41
415.574	447.87
415.951	474.99
416.328	462.11
416.705	476.12
417.082	485.61
417.46	487.19
417.837	508.66
418.214	511.14
418.591	488.55
418.967	503.69
419.344	516.12
419.721	540.3
420.098	495.33
420.475	511.6
420.852	541.65
421.228	527.64
421.605	511.6
421.982	531.48
422.358	519.51
422.735	557.92
423.111	526.29
423.488	542.33
423.864	555.89
424.241	559.73
424.617	550.24
424.994	538.71
425.37	562.67
425.746	565.83
426.123	558.83
426.499	572.61
426.875	553.4
427.251	584.59
427.627	579.17
428.003	585.72
428.379	575.32
428.756	576.45
429.132	605.83
429.507	592.05
429.883	603.57
430.259	605.15
430.635	613.06
431.011	597.47
431.387	619.62
431.763	624.59
432.138	622.78
432.514	631.59
432.89	648.54
433.265	636.57
433.641	648.09
434.016	651.71
434.392	661.2
434.767	663.23
435.143	661.65
435.518	679.5
435.894	702.33
436.269	656.23
436.644	690.12
437.02	691.25
437.395	684.25
437.77	706.62
438.145	697.13
438.52	699.16
438.895	720.86
439.271	721.31
439.646	731.48
440.021	752.49
440.395	722.89
440.77	747.07
441.145	742.78
441.52	748.88
441.895	761.08
442.27	756.79
442.645	761.53
443.019	753.85
443.394	770.35
443.769	770.12
444.143	755.21
444.518	782.55
444.892	770.12
445.267	794.53
445.641	773.96
446.016	782.78
446.39	801.53
446.764	792.49
447.139	806.28
447.513	824.36
447.887	824.81
448.262	816.45
448.636	814.41
449.01	844.7
449.384	862.32
449.758	851.93
450.132	829.55
450.506	867.52
450.88	833.17
451.254	874.3
451.628	875.65
452.002	863.45
452.376	859.38
452.75	886.5
453.123	889.21
453.497	910
453.871	899.61
454.244	917.69
454.618	908.42
454.992	921.76
455.365	923.56
455.739	948.2
456.112	956.78
456.486	963.11
456.859	975.09
457.232	1007.18
457.606	991.13
457.979	1011.24
458.352	1028.65
458.725	1039.04
459.099	1035.42
459.472	1059.6
459.845	1059.15
460.218	1058.25
460.591	1074.97
460.964	1079.04
461.337	1103.45
461.71	1110.23
462.083	1162.65
462.456	1117
462.829	1130.79
463.201	1174.86
463.574	1190.67
463.947	1182.54
464.32	1211.24
464.692	1197.68
465.065	1226.15
465.438	1233.39
465.81	1244.46
466.183	1263.44
466.555	1294.4
466.928	1289.2
467.3	1310.67
467.672	1341.41
468.045	1382.08
468.417	1358.58
468.789	1361.52
469.161	1383.21
469.534	1430.22
469.906	1470.44
470.278	1479.48
470.65	1506.15
471.022	1540.72
471.394	1561.74
471.766	1575.75
472.138	1605.35
472.51	1618.91
472.882	1661.85
473.253	1702.98
473.625	1738.46
473.997	1796.53
474.369	1788.85
474.74	1826.14
475.112	1889.41
475.484	1891.45
475.855	1954.5
476.227	1999.92
476.598	2063.87
476.97	2035.17
477.341	2130.54
477.713	2177.09
478.084	2229.29
478.455	2264.54
478.827	2326.01
479.198	2414.37
479.569	2424.54
479.94	2531.2
480.311	2561.49
480.682	2670.64
481.053	2746.57
481.424	2782.95
481.795	2852.78
482.166	2933.91
482.537	2961.02
482.908	3061.81
483.279	3134.35
483.65	3181.58
484.021	3319.43
484.391	3359.43
484.762	3476.94
485.133	3539.77
485.503	3602.36
485.874	3732.75
486.244	3793.77
486.615	3899.53
486.985	3967.33
487.356	4131.84
487.726	4236.47
488.097	4329.58
488.467	4354.66
488.837	4474.43
489.207	4630.81
489.578	4709.23
489.948	4833.97
490.318	4934.08
490.688	5044.13
491.058	5139.72
491.428	5295.65
491.798	5337.01
492.168	5548.07
492.538	5561.18
492.908	5659.48
493.278	5810.44
493.648	5919.82
494.017	6034.84
494.387	6120.26
494.757	6223.99
495.126	6325.46
495.496	6346.7
495.866	6453.59
496.235	6577.88
496.605	6645.45
496.974	6783.07
497.344	6885.67
497.713	6957.53
498.082	7073.23
498.452	7222.15
498.821	7304.41
499.19	7382.83
499.559	7463.05
499.928	7578.76
500.298	7678.41
500.667	7773.33
501.036	7772.42
501.405	7908.01
501.774	7992.53
502.143	8129.48
502.512	8181.9
502.88	8273.43
503.249	8354.78
503.618	8417.15
503.987	8496.7
504.356	8644.72
504.724	8712.29
505.093	8771.49
505.462	8803.13
505.83	8994.54
506.199	9024.59
506.567	9161.76
506.936	9122.9
507.304	9392.04
507.672	9363.12
508.041	9414.19
508.409	9523.56
508.777	9591.58
509.145	9687.4
509.514	9747.74
509.882	9842.65
510.25	9810.56
510.618	9994.51
510.986	10034.51
511.354	10202.64
511.722	10240.15
512.09	10326.71
512.458	10347.72
512.826	10433.37
513.193	10503.42
513.561	10544.33
513.929	10702.97
514.297	10768.73
514.664	10791.55
515.032	10860.48
515.4	10960.81
515.767	11050.53
516.135	11033.81
516.502	11119.91
516.869	11322.16
517.237	11261.6
517.604	11319.22
517.972	11359.22
518.339	11503.4
518.706	11548.37
519.073	11678.76
519.44	11701.36
519.808	11784.97
520.175	11811.19
520.542	11989.49
520.909	11948.58
521.276	12020.22
521.643	12182.48
522.009	12240.55
522.376	12266.09
522.743	12475.8
523.11	12525.29
523.477	12558.06
523.843	12731.16
524.21	12753.08
524.577	12885.73
524.943	12931.38
525.31	12980.2
525.676	13092.28
526.043	13221.55
526.409	13310.13
526.776	13330.02
527.142	13473.74
527.508	13485.49
527.874	13580.63
528.241	13725.03
528.607	13757.35
528.973	13844.81
529.339	13878.02
529.705	13986.72
530.071	14097.91
530.437	14192.82
530.803	14217.23
531.169	14318.92
531.535	14257
531.901	14331.57
532.267	14389.88
532.632	14545.8
532.998	14568.85
533.364	14687.95
533.73	14699.47
534.095	14845.46
534.461	14978.79
534.826	15007.26
535.192	15057.43
535.557	15180.36
535.923	15135.84
536.288	15248.16
536.653	15347.82
537.019	15279.12
537.384	15350.53
537.749	15452.67
538.114	15466.91
538.479	15555.72
538.845	15603.86
539.21	15673.01
539.575	15720.46
539.94	15729.95
540.305	15939.21
540.67	15888.14
541.034	16003.39
541.399	16056.5
541.764	16062.6
542.129	16145.31
542.494	16240.9
542.858	16381.69
543.223	16292.65
543.587	16351.41
543.952	16429.37
544.316	16560.21
544.681	16424.4
545.045	16652.42
545.41	16619.2
545.774	16754.56
546.138	16774.22
546.503	16839.98
546.867	16800.43
547.231	17020.32
547.595	17113.19
547.959	17122.01
548.324	17104.83
548.688	17040.65
549.052	17254.89
549.416	17176.92
549.779	17330.82
550.143	17318.16
550.507	17528.78
550.871	17590.7
551.235	17590.7
551.599	17650.13
551.962	17717.47
552.326	17785.04
552.689	17848.99
553.053	17875.66
553.417	17891.93
553.78	18145.48
554.143	17982.32
554.507	18074.07
554.87	18149.1
555.234	18411.69
555.597	18250.34
555.96	18395.42
556.323	18406.04
556.686	18457.79
557.05	18604.45
557.413	18680.16
557.776	18686.26
558.139	18891
558.502	18838.8
558.865	18886.48
559.228	19044.67
559.59	19104.1
559.953	19084.22
560.316	19236.3
560.679	19349.75
561.041	19440.59
561.404	19485.11
561.767	19579.34
562.129	19565.78
562.492	19783.63
562.854	19736.18
563.217	19657.53
563.579	19930.07
563.941	20024.98
564.304	19989.05
564.666	20105.88
565.028	20228.14
565.39	20181.14
565.753	20328.02
566.115	20437.63
566.477	20505.42
566.839	20589.49
567.201	20766.21
567.563	20651.86
567.925	20785.41
568.287	20816.83
568.648	20885.75
569.01	20968.46
569.372	21170.49
569.734	21089.81
570.095	21406.64
570.457	21377.94
570.819	21371.39
571.18	21490.25
571.542	21539.52
571.903	21657.93
572.265	21669.46
572.626	21828.78
572.987	21837.14
573.349	22012.73
573.71	22070.35
574.071	22171.14
574.432	22241.65
574.794	22534.07
575.155	22481.87
575.516	22570
575.877	22675.53
576.238	22793.27
576.599	22981.51
576.96	22960.05
577.32	23046.15
577.681	23239.59
578.042	23416.76
578.403	23405.68
578.763	23605.9
579.124	23575.17
579.485	23869.63
579.845	23995.5
580.206	24054.48
580.566	24146
580.927	24240.24
581.287	24491.53
581.648	24515.49
582.008	24785.99
582.368	24957.06
582.728	25093.32
583.089	25152.3
583.449	25296.93
583.809	25464.39
584.169	25741.89
584.529	25879.97
584.889	26102.79
585.249	26108.66
585.609	26170.36
585.969	26586.84
586.329	26760.4
586.688	26944.8
587.048	27028.87
587.408	27199.26
587.768	27380.72
588.127	27582.52
588.487	27803.99
588.846	28033.13
589.206	28029.74
589.565	28429.51
589.925	28633.8
590.284	28675.6
590.643	29031.52
591.003	29093.9
591.362	29348.58
591.721	29509.48
592.08	29755.57
592.44	29988.11
592.799	30102.23
593.158	30391.94
593.517	30423.13
593.876	30664.7
594.235	30873.96
594.593	31089.32
594.952	31324.57
595.311	31111.24
595.67	31691.79
596.029	31843.43
596.387	32020.15
596.746	32220.59
597.104	32305.11
597.463	32544.88
597.822	32870.29
598.18	32835.04
598.538	32873.46
598.897	33160.91
599.255	33226.89
599.613	33697.16
599.972	33854.22
600.33	33792.76
600.688	33866.2
601.046	34120.43
601.404	34490.36
601.762	34616.01
602.12	34960.86
602.478	34891.94
602.836	35101.65
603.194	34935.32
603.552	35327.63
603.91	35281.08
604.268	35639.49
604.625	35655.76
604.983	35948.41
605.341	35852.81
605.698	36164.9
606.056	36268.4
606.413	36305.23
606.771	36625.68
607.128	36695.73
607.485	36702.74
607.843	36896.4
608.2	36889.62
608.557	37213.23
608.914	37214.13
609.272	37498.65
609.629	37581.58
609.986	37870.16
610.343	37728.25
610.7	38089.82
611.057	38151.28
611.414	38183.6
611.771	38229.7
612.127	38616.58
612.484	38538.39
612.841	38713.08
613.198	38635.11
613.554	38767.77
613.911	39082.56
614.267	39030.58
614.624	39069.23
614.98	39281.2
615.337	39494.98
615.693	39405.72
616.05	39478.48
616.406	39794.63
616.762	39577.91
617.118	39657.23
617.475	39781.3
617.831	39895.42
618.187	40092.7
618.543	40105.58
618.899	40418.57
619.255	40317.1
619.611	40322.53
619.967	40541.28
620.323	40634.16
620.678	40454.95
621.034	40565.91
621.39	40654.27
621.746	40562.07
622.101	41122.73
622.457	40683.87
622.812	40937.65
623.168	41015.84
623.523	41103.07
623.879	41167.25
624.234	41040.93
624.589	41194.14
624.945	41362.5
625.3	41282.5
625.655	41378.77
626.01	41382.39
626.365	41381.93
626.72	41312.33
627.075	41256.74
627.43	41335.61
627.785	41341.71
628.14	41423.52
628.495	41505.55
628.85	41504.42
629.205	41370.18
629.559	41761.81
629.914	41521.37
630.269	41682.94
630.623	41520.46
630.978	41515.26
631.332	41548.26
631.687	41772.66
632.041	41546.45
632.396	41659.89
632.75	41485.21
633.104	41550.52
633.459	41438.43
633.813	41418.32
634.167	41517.3
634.521	41513.68
634.875	41433.23
635.229	41395.95
635.583	41444.08
635.937	41388.49
636.291	41248.38
636.645	41388.94
636.999	41105.11
637.352	41294.48
637.706	41186.23
638.06	41245.21
638.413	41198.66
638.767	41158.21
639.121	41140.36
639.474	41214.03
639.828	41025.11
640.181	41050.87
640.534	41078.44
640.888	41121.83
641.241	40875.96
641.594	41002.96
641.947	41101.72
642.301	40884.77
642.654	40988.95
643.007	40940.36
643.36	40902.17
643.713	40956.86
644.066	41032.11
644.419	40705.57
644.771	40569.98
645.124	40189.88
645.477	40108.75
645.83	39962.54
646.182	39941.75
646.535	39571.59
646.888	39861.3
647.24	39530.46
647.593	39842.54
647.945	39744.69
648.298	39516.45
648.65	39473.51
649.002	39367.75
649.355	39502.44
649.707	39541.08
650.059	39616.56
650.411	39989.65
650.763	39995.98
651.115	40434.16
651.467	40328.18
651.819	40356.2
652.171	40171.34
652.523	40138.8
652.875	40133.61
653.227	39924.35
653.578	40220.61
653.93	40217.9
654.282	40042.76
654.633	39876.66
654.985	40033.04
655.337	40016.09
655.688	40019.94
656.039	40107.62
656.391	39721.87
656.742	39795.31
657.094	40037.56
657.445	40095.64
657.796	39937.45
658.147	39830.11
658.498	39830.34
658.849	39841.41
659.2	39854.97
659.551	39768.64
659.902	39982.65
660.253	39787.17
660.604	39796.89
660.955	39683.9
661.306	39885.25
661.656	39894.06
662.007	39930
662.358	39808.42
662.708	39640.29
663.059	39667.86
663.409	39577.46
663.76	39810.22
664.11	39801.64
664.461	39790.34
664.811	39728.87
665.161	39791.69
665.511	39626.5
665.862	39674.18
666.212	39677.35
666.562	39642.32
666.912	39620.85
667.262	39656.33
667.612	39682.09
667.962	39675.54
668.312	39540.63
668.662	39707.18
669.011	39578.82
669.361	39486.62
669.711	39473.74
670.06	39421.99
670.41	39457.47
670.76	39301.31
671.109	39477.58
671.459	39427.86
671.808	39294.08
672.157	39548.54
672.507	39168.89
672.856	39267.41
673.205	39307.41
673.554	39268.77
673.904	39219.96
674.253	39556.22
674.602	39258.83
674.951	38774.55
675.3	38639.63
675.649	39122.78
675.998	39038.72
676.346	39102.22
676.695	39189.22
677.044	38902
677.393	39015.44
677.741	39260.63
678.09	39051.6
678.438	38945.39
678.787	39017.93
679.135	39015.9
679.484	38720.99
679.832	38827.65
680.181	38782.91
680.529	38819.97
680.877	38714.89
681.225	38685.73
681.573	38863.81
681.922	38526.87
682.27	38353.09
682.618	38443.25
682.966	38504.95
683.314	38463.37
683.661	38266.99
684.009	38148.12
684.357	38060.67
684.705	38097.5
685.053	38099.53
685.4	38010.05
685.748	37864.51
686.095	37906.55
686.443	37736.61
686.79	37638.08
687.138	37852.08
687.485	37737.51
687.832	37668.13
688.18	37744.74
688.527	37478.76
688.874	37374.58
689.221	37366.45
689.568	37163.06
689.915	37180.24
690.262	37227.92
690.609	36987.47
690.956	36856.18
691.303	36799.23
691.65	36816.18
691.997	36769.4
692.344	36499.58
692.69	36610.99
693.037	36467.04
693.383	36263.88
693.73	36380.26
694.077	36141.62
694.423	36188.62
694.769	35960.16
695.116	35857.33
695.462	35696.66
695.808	35716.09
696.155	35938.01
696.501	35609.43
696.847	35571.24
697.193	35302.09
697.539	35346.61
697.885	35181.42
698.231	35048.99
698.577	35187.52
698.923	35031.82
699.269	34858.49
699.614	34852.16
699.96	34762.67
700.306	34677.25
700.651	34637.93
700.997	34474.09
701.342	34421.21
701.688	34386.19
702.033	34187.55
702.379	34271.61
702.724	34110.94
703.069	34202.01
703.415	33726.77
703.76	33759.54
704.105	33776.94
704.45	33660.56
704.795	33568.13
705.14	33370.85
705.485	33406.55
705.83	33324.07
706.175	33345.31
706.52	33154.13
706.865	33110.06
707.209	32982.38
707.554	32958.65
707.899	32943.51
708.243	32854.48
708.588	32743.52
708.932	32594.37
709.277	32650.19
709.621	32553.47
709.966	32364.54
710.31	32486.12
710.654	32195.06
710.998	32251.33
711.342	32191.22
711.687	32061.5
712.031	31978.79
712.375	31875.29
712.719	31935.86
713.063	31863.31
713.407	31939.7
713.75	31732.02
714.094	31807.5
714.438	31703.09
714.782	31767.05
715.125	31445.02
715.469	31522.31
715.812	31329.09
716.156	31208.87
716.499	31193.28
716.843	31227.4
717.186	30939.72
717.53	31149.44
717.873	31133.84
718.216	31025.82
718.559	30949.67
718.902	30761.65
719.246	30758.03
719.589	30798.94
719.932	30572.05
720.275	30494.31
720.617	30643.23
720.96	30380.64
721.303	30544.48
721.646	30392.39
721.989	30305.62
722.331	30446.63
722.674	30226.3
723.016	30281.89
723.359	30150.82
723.701	30270.36
724.044	30097.49
724.386	29868.34
724.729	30072.85
725.071	29933.42
725.413	29882.8
725.755	29849.13
726.097	29819.98
726.439	29647.1
726.782	29549.48
727.124	29747.89
727.465	29562.58
727.807	29685.52
728.149	29605.07
728.491	29444.62
728.833	29523.49
729.175	29374.79
729.516	29295.7
729.858	29282.82
730.199	29397.62
730.541	29157.17
730.882	29178.41
731.224	29309.94
731.565	29050.73
731.906	29110.84
732.248	29022.26
732.589	28911.98
732.93	28766.9
733.271	28875.37
733.612	28805.32
733.953	28866.11
734.294	28786.79
734.635	28585.43
734.976	28650.74
735.317	28648.03
735.658	28575.27
735.999	28421.15
736.339	28372.56
736.68	28438.55
737.021	28375.72
737.361	28235.16
737.702	28359.45
738.042	28299.34
738.383	28265.22
738.723	28215.5
739.063	28144.77
739.404	28127.59
739.744	28048.05
740.084	27897.77
740.424	28029.74
740.764	27933.93
741.104	28126.46
741.444	27859.58
741.784	27735.51
742.124	27762.41
742.464	27737.55
742.804	27762.63
743.143	27627.27
743.483	27616.65
743.823	27555.86
744.162	27635.4
744.502	27493.03
744.841	27373.04
745.181	27459.36
745.52	27404.67
745.86	27417.56
746.199	27399.93
746.538	27218.92
746.877	27294.62
747.216	27297.79
747.556	27134.17
747.895	27286.94
748.234	26972.37
748.573	26997
748.911	27029.32
749.25	26920.62
749.589	26747.74
749.928	26810.79
750.267	26853.28
750.605	26611.48
750.944	26696.67
751.283	26552.95
751.621	26668.88
751.96	26530.8
752.298	26495.09
752.636	26559.27
752.975	26259.62
753.313	26241.99
753.651	26367.64
753.989	26214.65
754.327	26185.72
754.666	26029.34
755.004	26064.37
755.342	26073.64
755.679	25981.44
756.017	25873.19
756.355	25993.19
756.693	25743.02
757.031	25844.26
757.368	25691.95
757.706	25657.83
758.044	25551.39
758.381	25571.73
758.719	25449.7
759.056	25435.01
759.394	25480.66
759.731	25248.35
760.068	25156.82
760.405	25041.35
760.743	24921.58
761.08	25066.66
761.417	24978.3
761.754	24844.52
762.091	24760.9
762.428	24779.89
762.765	24635.93
763.102	24617.86
763.438	24490.85
763.775	24352.1
764.112	24415.6
764.449	24411.76
764.785	24353.23
765.122	24185.55
765.458	24094.93
765.795	24115.72
766.131	24019.23
766.467	23933.81
766.804	23831.21
767.14	23663.98
767.476	23639.12
767.812	23525.45
768.148	23650.2
768.485	23449.3
768.821	23326.82
769.157	23155.97
769.492	23199.81
769.828	23221.28
770.164	22895.19
770.5	22821.52
770.836	22895.64
771.171	22738.58
771.507	22722.09
771.842	22606.16
772.178	22507.4
772.513	22631.92
772.849	22509.44
773.184	22318.93
773.519	22358.03
773.855	22196
774.19	22057.7
774.525	22042.1
774.86	22078.71
775.195	21970.47
775.53	21852.96
775.865	21718.5
776.2	21543.36
776.535	21475.11
776.87	21549.46
777.205	21288.9
777.539	21216.36
777.874	21313.99
778.209	21042.13
778.543	21122.58
778.878	20920.33
779.212	20919.2
779.547	20817.5
779.881	20904.73
780.215	20682.14
780.55	20659.09
780.884	20613.44
781.218	20476.27
781.552	20459.32
781.886	20441.24
782.22	20258.87
782.554	20272.21
782.888	19973.68
783.222	19988.37
783.556	19903.86
783.889	19894.82
784.223	19690.98
784.557	19648.04
784.89	19698.89
785.224	19583.41
785.557	19455.51
785.891	19464.77
786.224	19306.36
786.558	19385.45
786.891	19199.69
787.224	19048.51
787.557	19092.35
787.891	19087.38
788.224	19100.49
788.557	19037.21
788.89	19008.06
789.223	18938.46
789.556	18861.17
789.888	18702.53
790.221	18668.86
790.554	18511.12
790.887	18505.93
791.219	18465.47
791.552	18334.18
791.884	18282.2
792.217	18260.73
792.549	18125.37
792.882	18054.41
793.214	17932.38
793.546	18023.68
793.879	17862.33
794.211	17908.2
794.543	17811.93
794.875	17732.39
795.207	17814.64
795.539	17713.63
795.871	17672.5
796.203	17566.06
796.535	17508.21
796.867	17379.4
797.198	17370.59
797.53	17373.98
797.862	17217.6
798.193	17203.81
798.525	17129.69
798.856	17086.08
799.188	16918.62
799.519	16911.39
799.85	16795.24
800.182	16874.33
800.513	16775.58
800.844	16673.21
801.175	16709.36
801.506	16649.48
801.837	16617.39
802.168	16517.96
802.499	16477.5
802.83	16376.04
803.161	16388.69
803.491	16331.97
803.822	16305.53
804.153	16193.9
804.483	16106.21
804.814	16053.56
805.145	16114.58
805.475	16127.68
805.805	15990.51
806.136	15970.4
806.466	15983.96
806.796	15986.22
807.126	15763.63
807.457	15681.14
807.787	15706.23
808.117	15652.67
808.447	15694.7
808.777	15640.92
809.107	15499.23
809.436	15467.14
809.766	15492.45
810.096	15401.83
810.426	15394.6
810.755	15391.88
811.085	15265.33
811.414	15259.01
811.744	15193.7
812.073	15143.53
812.403	15134.04
812.732	15063.53
813.061	15056.75
813.39	15009.07
813.719	14918.68
814.049	14905.34
814.378	14943.31
814.707	14867.15
815.036	14847.94
815.365	14748.51
815.693	14692.24
816.022	14640.94
816.351	14631.9
816.68	14520.72
817.008	14589.87
817.337	14407.73
817.665	14437.11
817.994	14444.34
818.322	14361.4
818.651	14436.88
818.979	14315.08
819.307	14357.11
819.636	14257.22
819.964	14195.53
820.292	14286.38
820.62	14269.43
820.948	14154.18
821.276	14201.86
821.604	14068.3
821.932	14199.6
822.259	14189.66
822.587	14161.18
822.915	14110.11
823.243	14153.95
823.57	14154.85
823.898	14085.48
824.225	14065.36
824.553	14099.26
824.88	14087.51
825.207	14163.89
825.535	14041.18
825.862	14114.85
826.189	14083.9
826.516	14081.86
826.843	14166.38
827.17	14114.85
827.497	14040.73
827.824	14125.48
828.151	14077.79
828.478	14108.75
828.805	14174.74
829.131	14049.32
829.458	14037.79
829.785	14052.94
830.111	14012.94
830.438	14082.09
830.764	14161.63
831.09	14138.36
831.417	13994.41
831.743	14024.69
832.069	14066.04
832.395	13970.9
832.722	13979.27
833.048	13968.42
833.374	13944.24
833.7	13946.05
834.026	13942.88
834.351	14039.83
834.677	13838.48
835.003	13933.16
835.329	13889.55
835.654	13892.04
835.98	13785.6
836.306	13768.42
836.631	13866.05
836.956	13840.06
837.282	13786.73
837.607	13770.23
837.932	13709.44
838.258	13689.56
838.583	13713.74
838.908	13650.46
839.233	13588.99
839.558	13608.43
839.883	13511.03
840.208	13528.88
840.533	13471.48
840.858	13499.28
841.182	13441.88
841.507	13469
841.832	13413.63
842.156	13330.24
842.481	13348.32
842.805	13339.73
843.13	13272.39
843.454	13226.52
843.778	13308.55
844.103	13219.51
844.427	13237.14
844.751	13198.49
845.075	13147.87
845.399	13036.24
845.723	12995.56
846.047	12979.52
846.371	12920.76
846.695	12924.15
847.019	12841.67
847.343	12790.82
847.666	12687.77
847.99	12721.22
848.313	12645.06
848.637	12601.67
848.96	12540.66
849.284	12492.07
849.607	12432.41
849.931	12329.59
850.254	12309.03
850.577	12294.34
850.9	12094.34
851.223	12108.35
851.546	12071.07
851.869	11991.52
852.192	12053.89
852.515	11995.59
852.838	11959.66
853.161	11910.17
853.483	11873.11
853.806	11754.46
854.129	11808.7
854.451	11715.82
854.774	11735.93
855.096	11648.93
855.419	11552.21
855.741	11607.8
856.063	11507.01
856.385	11470.4
856.708	11425.66
857.03	11454.36
857.352	11412.33
857.674	11317.64
857.996	11287.36
858.318	11257.75
858.64	11237.87
858.961	11245.33
859.283	11191.09
859.605	11110.41
859.926	11074.48
860.248	10996.07
860.57	11048.95
860.891	11071.55
861.212	10999.46
861.534	10957.65
861.855	10922.4
862.176	11020.7
862.498	10954.03
862.819	10896.86
863.14	10881.72
863.461	10817.54
863.782	10808.5
864.103	10805.56
864.424	10819.57
864.745	10814.83
865.065	10693.02
865.386	10729.86
865.707	10688.05
866.027	10696.41
866.348	10559.24
866.668	10603.76
866.989	10605.57
867.309	10561.95
867.63	10587.04
867.95	10597.66
868.27	10478.79
868.59	10556.3
868.91	10508.85
869.23	10454.61
869.55	10472.24
869.87	10478.79
870.19	10465.23
870.51	10394.95
870.83	10480.6
871.15	10428.17
871.469	10354.95
871.789	10389.08
872.109	10351.11
872.428	10380.72
872.748	10327.84
873.067	10327.84
873.386	10388.85
873.706	10274.05
874.025	10266.59
874.344	10180.72
874.663	10185.69
874.982	10214.84
875.301	10137.33
875.62	10145.47
875.939	10118.58
876.258	10114.51
876.577	10080.38
876.896	10131.23
877.214	10058.01
877.533	10076.77
877.852	10046.94
878.17	10032.93
878.489	9982.99
878.807	10032.25
879.125	9995.64
879.444	9983.21
879.762	9879.49
880.08	9939.15
880.398	9870.67
880.716	9845.81
881.034	9822.09
881.352	9864.57
881.67	9760.62
881.988	9770.56
882.306	9789.32
882.624	9758.13
882.941	9685.82
883.259	9729.89
883.577	9672.71
883.894	9653.73
884.212	9607.18
884.529	9619.83
884.846	9571.25
885.164	9564.92
885.481	9556.78
885.798	9570.79
886.115	9477.24
886.432	9468.65
886.75	9403.34
887.067	9486.95
887.383	9397.01
887.7	9418.93
888.017	9343.68
888.334	9339.39
888.651	9388.2
888.967	9323.34
889.284	9214.64
889.6	9264.81
889.917	9151.82
890.233	9275.21
890.55	9186.4
890.866	9174.19
891.182	9147.3
891.498	9025.95
891.815	9051.94
892.131	9031.6
892.447	9027.98
892.763	8968.55
893.079	9012.84
893.395	8877.25
893.71	8919.51
894.026	8943.47
894.342	8884.26
894.657	8774.88
894.973	8841.1
895.289	8783.02
895.604	8756.58
895.92	8711.38
896.235	8681.55
896.55	8669.35
896.865	8658.73
897.181	8617.82
897.496	8631.61
897.811	8589.58
898.126	8528.79
898.441	8536.02
898.756	8482.46
899.071	8406.76
899.386	8431.39
899.7	8390.26
900.015	8320.66
900.33	8284.5
900.644	8265.97
900.959	8289.47
901.273	8231.62
901.588	8200.21
901.902	8167.89
902.216	8136.93
902.531	8149.36
902.845	8119.76
903.159	8087.44
903.473	8005.86
903.787	8010.61
904.101	8004.06
904.415	7868.69
904.729	7883.83
905.042	7834.12
905.356	7818.98
905.67	7811.52
905.984	7812.87
906.297	7745.76
906.611	7761.35
906.924	7697.85
907.237	7702.59
907.551	7661.92
907.864	7636.16
908.177	7627.57
908.491	7559.1
908.804	7554.35
909.117	7556.84
909.43	7421.7
909.743	7392.32
910.056	7374.69
910.368	7362.94
910.681	7326.78
910.994	7274.36
911.307	7257.63
911.619	7204.3
911.932	7266
912.244	7225.77
912.557	7186
912.869	7145.32
913.181	7102.84
913.494	7043.63
913.806	7015.83
914.118	7039.33
914.43	6988.04
914.742	7024.42
915.054	6954.14
915.366	6910.52
915.678	6892.67
915.99	6844.54
916.302	6761.6
916.613	6796.63
916.925	6780.58
917.236	6780.58
917.548	6713.24
917.859	6687.48
918.171	6612.45
918.482	6571.32
918.794	6543.98
919.105	6516.41
919.416	6504.21
919.727	6509.41
920.038	6467.82
920.349	6439.35
920.66	6398.45
920.971	6425.57
921.282	6367.94
921.593	6302.86
921.903	6314.38
922.214	6255.63
922.525	6246.14
922.835	6219.92
923.146	6247.49
923.456	6181.05
923.767	6183.76
924.077	6151
924.387	6142.64
924.697	6039.36
925.008	6065.12
925.318	6061.51
925.628	6012.02
925.938	5993.49
926.248	6012.92
926.558	5948.29
926.867	5868.74
927.177	5910.32
927.487	5858.8
927.796	5827.62
928.106	5801.18
928.416	5797.33
928.725	5758.24
929.034	5721.86
929.344	5726.83
929.653	5692.25
929.962	5671.01
930.271	5654.74
930.581	5645.25
930.89	5607.06
931.199	5516.44
931.508	5527.06
931.817	5520.96
932.125	5516.21
932.434	5515.76
932.743	5445.7
933.051	5457.91
933.36	5389.43
933.669	5334.75
933.977	5359.15
934.286	5351.47
934.594	5335.2
934.902	5248.65
935.21	5314.41
935.519	5281.64
935.827	5257.23
936.135	5186.05
936.443	5204.58
936.751	5137.92
937.059	5150.57
937.367	5094.3
937.674	5093.62
937.982	5052.27
938.29	5013.63
938.597	5081.42
938.905	4976.56
939.213	4963.68
939.52	4930.01
939.827	4943.34
940.135	4931.82
940.442	4891.59
940.749	4864.93
941.056	4914.87
941.363	4861.54
941.67	4797.59
941.977	4784.7
942.284	4789
942.591	4782.44
942.898	4703.8
943.205	4725.72
943.511	4686.18
943.818	4652.96
944.125	4642.79
944.431	4677.59
944.738	4604.6
945.044	4551.72
945.35	4577.7
945.657	4497.48
945.963	4520.53
946.269	4485.5
946.575	4506.52
946.881	4468.1
947.187	4461.1
947.493	4459.52
947.799	4414.32
948.105	4384.49
948.41	4345.85
948.716	4382.91
949.022	4352.4
949.327	4367.77
949.633	4289.8
949.938	4275.34
950.244	4279.41
950.549	4214.1
950.854	4220.43
951.16	4232.85
951.465	4222.91
951.77	4149.02
952.075	4136.13
952.38	4169.58
952.685	4135.68
952.99	4087.32
953.294	4038.51
953.599	4068.79
953.904	4033.99
954.209	4015.91
954.513	3975.23
954.818	3991.28
955.122	3988.12
955.426	4015.69
955.731	3929.59
956.035	3888.68
956.339	3889.36
956.643	3910.83
956.948	3876.03
957.252	3848.91
957.556	3871.51
957.86	3831.96
958.163	3836.71
958.467	3810.72
958.771	3778.18
959.075	3756.94
959.378	3768.46
959.682	3751.96
959.985	3719.87
960.289	3676.03
960.592	3702.7
960.896	3700.44
961.199	3710.38
961.502	3608.92
961.805	3609.37
962.108	3610.27
962.411	3584.06
962.714	3586.09
963.017	3556.49
963.32	3518.07
963.623	3545.87
963.926	3556.04
964.228	3481.69
964.531	3458.86
964.833	3475.36
965.136	3415.48
965.438	3437.4
965.741	3426.32
966.043	3395.14
966.345	3370.5
966.648	3394.01
966.95	3349.49
967.252	3356.04
967.554	3333.44
967.856	3318.98
968.158	3284.86
968.46	3251.86
968.761	3255.93
969.063	3259.77
969.365	3243.28
969.666	3231.75
969.968	3223.16
970.269	3196.05
970.571	3175.26
970.872	3188.59
971.174	3167.35
971.475	3211.64
971.776	3133.9
972.077	3095.03
972.378	3098.2
972.679	3097.97
972.98	3091.19
973.281	3073.79
973.582	3007.12
973.883	3032.43
974.183	2994.92
974.484	3009.16
974.785	3006.45
975.085	3016.39
975.386	3003.73
975.686	2980.23
975.986	2951.98
976.287	2905.66
976.587	2942.95
976.887	2928.26
977.187	2937.97
977.487	2866.79
977.787	2831.08
978.087	2860.91
978.387	2855.26
978.687	2852.55
978.987	2821.37
979.286	2795.38
979.586	2801.71
979.885	2828.15
980.185	2749.96
980.484	2722.84
980.784	2750.63
981.083	2723.06
981.382	2683.74
981.682	2687.36
981.981	2711.54
982.28	2688.94
982.579	2654.37
982.878	2684.87
983.177	2669.73
983.475	2655.27
983.774	2655.72
984.073	2604.65
984.372	2646
984.67	2601.49
984.969	2574.37
985.267	2588.83
985.566	2563.07
985.864	2559.45
986.162	2535.5
986.461	2528.94
986.759	2524.2
987.057	2460.47
987.355	2487.59
987.653	2530.07
987.951	2485.33
988.249	2458.44
988.547	2432.9
988.844	2486.23
989.142	2450.3
989.44	2423.64
989.737	2404.88
990.035	2391.55
990.332	2389.06
990.63	2358.55
990.927	2385.9
991.224	2332.79
991.521	2336.86
991.819	2341.15
992.116	2303.41
992.413	2352.68
992.71	2323.75
993.006	2323.07
993.303	2299.35
993.6	2241.49
993.897	2266.13
994.193	2254.6
994.49	2207.15
994.787	2233.13
995.083	2182.74
995.379	2188.16
995.676	2226.58
995.972	2212.34
996.268	2168.73
996.565	2165.11
996.861	2125.11
997.157	2153.14
997.453	2157.2
997.749	2111.55
998.044	2106.36
998.34	2087.37
998.636	2074.27
998.932	2063.42
999.227	2065.91
999.523	2032.91
999.818	2040.82
1000.114	2018.22
1000.409	2024.1
1000.704	2022.74
1001	2001.5
1001.295	1971.22
1001.59	1982.97
1001.885	1954.5
1002.18	1952.01
1002.475	1966.02
1002.77	1939.58
1003.065	1906.59
1003.359	1957.21
1003.654	1900.03
1003.949	1913.59
1004.243	1889.87
1004.538	1885.57
1004.832	1878.79
1005.127	1861.62
1005.421	1871.33
1005.715	1852.13
1006.009	1837.21
1006.304	1818
1006.598	1802.41
1006.892	1788.85
1007.186	1763.32
1007.48	1759.25
1007.773	1775.07
1008.067	1751.11
1008.361	1788.17
1008.655	1734.62
1008.948	1716.54
1009.242	1709.08
1009.535	1734.16
1009.829	1698.46
1010.122	1667.27
1010.415	1682.19
1010.708	1681.51
1011.001	1665.24
1011.295	1680.61
1011.588	1646.03
1011.881	1639.7
1012.173	1637.67
1012.466	1621.4
1012.759	1603.77
1013.052	1612.81
1013.344	1579.37
1013.637	1601.51
1013.93	1575.52
1014.222	1569.65
1014.514	1550.89
1014.807	1554.06
1015.099	1546.15
1015.391	1514.51
1015.683	1521.06
1015.976	1531.46
1016.268	1512.02
1016.56	1523.1
1016.851	1502.08
1017.143	1465.7
1017.435	1456.2
1017.727	1487.84
1018.018	1436.77
1018.31	1433.61
1018.602	1437.9
1018.893	1439.48
1019.185	1423.66
1019.476	1408.07
1019.767	1404.91
1020.058	1389.54
1020.35	1379.37
1020.641	1371.69
1020.932	1354.74
1021.223	1346.38
1021.514	1311.8
1021.804	1319.26
1022.095	1314.97
1022.386	1329.65
1022.677	1304.34
1022.967	1321.07
1023.258	1295.08
1023.548	1292.59
1023.839	1276.1
1024.129	1284.01
1024.419	1253.05
1024.709	1242.65
1025	1237
1025.29	1214.18
1025.58	1207.4
1025.87	1220.96
1026.16	1210.79
1026.449	1219.83
1026.739	1213.5
1027.029	1182.77
1027.319	1164.46
1027.608	1172.6
1027.898	1193.16
1028.187	1158.81
1028.477	1161.52
1028.766	1146.16
1029.055	1143.22
1029.344	1113.61
1029.634	1140.28
1029.923	1118.81
1030.212	1106.38
1030.501	1111.35
1030.79	1100.51
1031.078	1068.19
1031.367	1065.48
1031.656	1062.32
1031.945	1053.73
1032.233	1048.08
1032.522	1037.23
1032.81	1052.6
1033.099	1023.67
1033.387	1019.38
1033.675	1007.4
1033.963	1014.63
1034.251	1004.92
1034.54	1035.42
1034.828	985.26
1035.116	978.25
1035.403	1017.8
1035.691	1005.37
1035.979	975.09
1036.267	958.82
1036.554	957.01
1036.842	956.56
1037.129	978.93
1037.417	923.79
1037.704	939.61
1037.992	923.79
1038.279	917.24
1038.566	940.51
1038.853	940.51
1039.14	940.51
