Data from hue_50_FLMS001491_36.txt Node
Date: Mon Feb 06 15:10:02 GMT 2017
User: dcchb
Spectrometer: FLMS00149
Trigger mode: 0
Integration Time (sec): 2.000000E-2
Scans to average: 10
Electric dark correction enabled: true
Nonlinearity correction enabled: false
Boxcar width: 0
XAxis mode: Wavelengths
Number of Pixels in Spectrum: 2048
>>>>>Begin Spectral Data<<<<<
341.393	-16.96
341.776	-16.96
342.16	-16.96
342.543	-43.18
342.927	-85.21
343.31	-62.84
343.693	-66.45
344.077	-73.46
344.46	-53.57
344.843	-55.61
345.226	-31.88
345.61	-46.34
345.993	-32.78
346.376	0.66
346.759	19.42
347.142	24.84
347.525	45.18
347.908	66.65
348.291	61.68
348.674	85.18
349.057	119.3
349.44	137.84
349.823	156.59
350.206	176.93
350.588	199.98
350.971	227.32
351.354	228.23
351.737	245.63
352.119	257.83
352.502	272.52
352.884	278.17
353.267	261.67
353.65	298.28
354.032	288.34
354.414	330.15
354.797	310.49
355.179	303.93
355.562	304.38
355.944	313.42
356.326	325.18
356.709	357.26
357.091	333.76
357.473	368.11
357.855	331.95
358.238	329.47
358.62	350.49
359.002	326.53
359.384	357.26
359.766	357.26
360.148	346.64
360.53	322.01
360.912	338.06
361.294	338.96
361.676	342.35
362.057	348.9
362.439	344.61
362.821	317.94
363.203	340.32
363.584	309.36
363.966	327.21
364.348	332.41
364.729	307.77
365.111	296.02
365.493	332.18
365.874	314.55
366.256	324.95
366.637	311.16
367.019	334.44
367.4	313.65
367.781	309.36
368.163	326.3
368.544	317.49
368.925	317.27
369.306	326.08
369.688	338.96
370.069	333.08
370.45	312.75
370.831	315.23
371.212	321.79
371.593	311.39
371.974	318.17
372.355	311.62
372.736	317.49
373.117	325.18
373.498	324.95
373.879	318.85
374.26	315.91
374.641	317.27
375.021	307.55
375.402	331.73
375.783	310.94
376.163	336.25
376.544	320.88
376.925	317.94
377.305	322.92
377.686	359.07
378.066	322.01
378.447	332.18
378.827	328.34
379.208	319.75
379.588	343.93
379.968	315.46
380.349	332.86
380.729	345.06
381.109	325.63
381.489	339.19
381.87	345.51
382.25	320.88
382.63	333.76
383.01	336.7
383.39	343.03
383.77	338.51
384.15	346.64
384.53	347.77
384.91	348.9
385.29	364.95
385.67	343.25
386.049	347.32
386.429	344.84
386.809	343.71
387.189	359.3
387.568	339.41
387.948	339.41
388.328	334.67
388.707	345.29
389.087	345.06
389.466	352.74
389.846	340.32
390.225	351.16
390.605	356.36
390.984	353.87
391.363	349.13
391.743	355.68
392.122	350.94
392.501	363.37
392.881	373.99
393.26	355.23
393.639	367.66
394.018	364.72
394.397	362.69
394.776	331.05
395.155	378.73
395.534	372.63
395.913	361.56
396.292	397.94
396.671	355.91
397.05	371.5
397.429	378.51
397.808	378.28
398.186	372.86
398.565	383.48
398.944	383.7
399.323	388.22
399.701	376.25
400.08	377.15
400.458	376.25
400.837	396.59
401.215	378.96
401.594	365.4
401.972	364.95
402.351	404.27
402.729	388.9
403.107	381.44
403.486	404.04
403.864	382.35
404.242	395.23
404.62	403.37
404.999	399.07
405.377	423.48
405.755	381.9
406.133	400.65
406.511	396.36
406.889	406.3
407.267	404.95
407.645	397.72
408.023	418.96
408.401	428.22
408.779	415.57
409.156	425.29
409.534	426.19
409.912	428
410.29	417.6
410.667	425.29
411.045	426.64
411.422	441.33
411.8	426.87
412.178	425.51
412.555	433.65
412.933	446.75
413.31	446.53
413.687	430.93
414.065	437.26
414.442	452.63
414.819	452.4
415.197	446.08
415.574	455.34
415.951	445.62
416.328	446.98
416.705	464.38
417.082	458.05
417.46	471.84
417.837	468
418.214	482.46
418.591	443.82
418.967	479.97
419.344	495.79
419.721	471.61
420.098	477.94
420.475	484.72
420.852	501.67
421.228	500.76
421.605	483.81
421.982	489.01
422.358	512.51
422.735	508.22
423.111	502.8
423.488	511.38
423.864	500.76
424.241	528.79
424.617	515.23
424.994	497.6
425.37	520.42
425.746	510.25
426.123	529.69
426.499	536.47
426.875	532.85
427.251	523.14
427.627	547.99
428.003	530.37
428.379	543.02
428.756	544.83
429.132	547.09
429.507	549.8
429.883	546.41
430.259	554.55
430.635	555.45
431.011	567.65
431.387	559.29
431.763	543.93
432.138	548.9
432.514	570.59
432.89	550.25
433.265	611.95
433.641	577.37
434.016	610.14
434.392	578.05
434.767	631.16
435.143	617.37
435.518	598.61
435.894	591.38
436.269	625.28
436.644	614.66
437.02	619.18
437.395	638.16
437.77	646.3
438.145	636.58
438.52	656.92
438.895	659.18
439.271	646.3
439.646	639.74
440.021	660.53
440.395	665.96
440.77	650.36
441.145	686.52
441.52	671.83
441.895	654.43
442.27	707.09
442.645	666.18
443.019	688.78
443.394	663.92
443.769	706.18
444.143	690.14
444.518	696.24
444.892	714.32
445.267	688.1
445.641	701.21
446.016	700.53
446.39	701.66
446.764	717.03
447.139	688.1
447.513	721.55
447.887	715.45
448.262	747.99
448.636	719.29
449.01	739.18
449.384	723.36
449.758	745.28
450.132	753.41
450.506	758.61
450.88	743.7
451.254	742.57
451.628	754.99
452.002	754.99
452.376	798.16
452.75	778.95
453.123	786.41
453.497	801.09
453.871	797.71
454.244	807.87
454.618	815.33
454.992	798.61
455.365	834.99
455.739	834.77
456.112	859.85
456.486	841.32
456.859	856.01
457.232	874.31
457.606	862.56
457.979	876.12
458.352	871.6
458.725	891.71
459.099	910.47
459.472	940.53
459.845	938.72
460.218	952.28
460.591	917.02
460.964	939.17
461.337	980.98
461.71	982.33
462.083	981.43
462.456	997.25
462.829	999.96
463.201	1028.66
463.574	998.83
463.947	1026.85
464.32	1067.75
464.692	1095.1
465.065	1065.27
465.438	1093.29
465.81	1119.96
466.183	1115.21
466.555	1110.47
466.928	1146.4
467.3	1148.43
467.672	1178.94
468.045	1199.5
468.417	1234.53
468.789	1223.91
469.161	1251.48
469.534	1266.17
469.906	1323.11
470.278	1317.69
470.65	1322.44
471.022	1379.84
471.394	1383.23
471.766	1415.77
472.138	1434.75
472.51	1467.74
472.882	1510
473.253	1510.91
473.625	1577.57
473.997	1599.04
474.369	1629.1
474.74	1634.75
475.112	1700.51
475.484	1750.22
475.855	1757.45
476.227	1814.4
476.598	1853.27
476.97	1899.82
477.341	1963.78
477.713	1999.48
478.084	2003.32
478.455	2104.11
478.827	2151.57
479.198	2221.17
479.569	2244.45
479.94	2341.85
480.311	2387.95
480.682	2498.45
481.053	2570.54
481.424	2622.52
481.795	2664.77
482.166	2793.13
482.537	2830.42
482.908	2961.49
483.279	3013.47
483.65	3085.1
484.021	3226.34
484.391	3282.61
484.762	3377.07
485.133	3430.4
485.503	3540.01
485.874	3676.05
486.244	3732.32
486.615	3859.09
486.985	3986.1
487.356	4093.89
487.726	4173.66
488.097	4315.35
488.467	4430.15
488.837	4549.47
489.207	4597.83
489.578	4826.53
489.948	4891.16
490.318	5051.38
490.688	5130.7
491.058	5282.78
491.428	5379.51
491.798	5521.87
492.168	5718.25
492.538	5787.63
492.908	5877.8
493.278	6042.99
493.648	6137.45
494.017	6265.36
494.387	6375.86
494.757	6569.76
495.126	6687.72
495.496	6801.16
495.866	6912.8
496.235	7033.7
496.605	7135.62
496.974	7303.07
497.344	7447.47
497.713	7514.36
498.082	7625.1
498.452	7804.3
498.821	7903.51
499.19	7928.14
499.559	8129.04
499.928	8303.27
500.298	8383.72
500.667	8551.63
501.036	8541.91
501.405	8725.41
501.774	8783.48
502.143	8991.61
502.512	9063.02
502.88	9249.69
503.249	9171.95
503.618	9389.57
503.987	9435.22
504.356	9546.63
504.724	9673.86
505.093	9806.06
505.462	9908.2
505.83	10031.36
506.199	10101.64
506.567	10253.05
506.936	10353.61
507.304	10467.73
507.672	10525.58
508.041	10651.68
508.409	10773.49
508.777	10884.67
509.145	10995.4
509.514	11056.87
509.882	11157.66
510.25	11271.55
510.618	11314.94
510.986	11451.66
511.354	11605.56
511.722	11617.08
512.09	11769.85
512.458	11827.02
512.826	12020.46
513.193	12103.4
513.561	12197.63
513.929	12336.38
514.297	12470.17
514.664	12532.54
515.032	12605.3
515.4	12734.11
515.767	12815.47
516.135	12906.54
516.502	12879.42
516.869	13090.94
517.237	13220.2
517.604	13258.39
517.972	13366.87
518.339	13400.76
518.706	13494.77
519.073	13523.47
519.44	13695.44
519.808	13882.78
520.175	13865.38
520.542	14045.72
520.909	14210.46
521.276	14200.29
521.643	14277.12
522.009	14352.15
522.376	14592.82
522.743	14680.28
523.11	14740.39
523.477	14882.31
523.843	15080.72
524.21	15141.51
524.577	15250.43
524.943	15300.6
525.31	15418.34
525.676	15616.98
526.043	15713.7
526.409	15751.66
526.776	15883.86
527.142	15953.69
527.508	16155.49
527.874	16208.6
528.241	16233.91
528.607	16428.48
528.973	16614.24
529.339	16517.52
529.705	16652.66
530.071	16861.24
530.437	16966.09
530.803	16988.01
531.169	17161.12
531.535	17157.27
531.901	17230.72
532.267	17378.74
532.632	17446.08
532.998	17428.91
533.364	17623.7
533.73	17707.54
534.095	17749.12
534.461	17912.06
534.826	17924.26
535.192	17968.78
535.557	18152.5
535.923	18180.52
536.288	18238.6
536.653	18283.35
537.019	18298.49
537.384	18458.48
537.749	18499.39
538.114	18565.6
538.479	18570.12
538.845	18753.84
539.21	18696.22
539.575	18777.8
539.94	18878.59
540.305	19052.82
540.67	18962.65
541.034	19060.05
541.399	19166.49
541.764	19293.72
542.129	19383.66
542.494	19381.62
542.858	19484.45
543.223	19464.78
543.587	19705.68
543.952	19621.62
544.316	19737.77
544.681	19669.75
545.045	19882.85
545.41	19893.02
545.774	20088.5
546.138	20014.83
546.503	20049.18
546.867	20073.58
547.231	20298.21
547.595	20325.55
547.959	20379.11
548.324	20436.96
548.688	20416.62
549.052	20685.77
549.416	20552.44
549.779	20551.54
550.143	20728.93
550.507	20836.95
550.871	20789.5
551.235	20801.92
551.599	21120.79
551.962	20987.68
552.326	21114.91
552.689	21254.34
553.053	21295.25
553.417	21303.61
553.78	21571.17
554.143	21535.69
554.507	21535.01
554.87	21609.36
555.234	21829.92
555.597	21713.99
555.96	21846.64
556.323	22074.89
556.686	22036.24
557.05	22156.01
557.413	22292.96
557.776	22323.24
558.139	22530.69
558.502	22423.13
558.865	22530.69
559.228	22797.35
559.59	22841.87
559.953	22775.21
560.316	23048.19
560.679	22983.56
561.041	23147.17
561.404	23308.98
561.767	23419.94
562.129	23334.97
562.492	23555.07
562.854	23523.66
563.217	23680.72
563.579	23734.05
563.941	23885.91
564.304	23915.74
564.666	24119.58
565.028	24106.24
565.39	24255.39
565.753	24406.58
566.115	24477.99
566.477	24585.1
566.839	24647.93
567.201	24875.72
567.563	24671.65
567.925	24987.8
568.287	25007.69
568.648	25102.83
569.01	25278.87
569.372	25425.76
569.734	25270.96
570.095	25502.37
570.457	25691.29
570.819	25738.29
571.18	25812.19
571.542	25815.35
571.903	25826.43
572.265	26037.72
572.626	26105.97
572.987	26229.58
573.349	26268
573.71	26350.03
574.071	26593.86
574.432	26559.97
574.794	26799.73
575.155	26802.9
575.516	26728.55
575.877	26902.33
576.238	27028.88
576.599	27064.13
576.96	27111.59
577.32	27200.63
577.681	27228.65
578.042	27414.18
578.403	27571.46
578.763	27648.98
579.124	27739.6
579.485	27866.6
579.845	27938.69
580.206	27940.04
580.566	28117.66
580.927	28152.47
581.287	28341.61
581.648	28242.86
582.008	28430.88
582.368	28495.06
582.728	28642.4
583.089	28654.83
583.449	28674.03
583.809	28917.19
584.169	28929.39
584.529	29047.13
584.889	29301.36
585.249	29248.03
585.609	29283.74
585.969	29538.42
586.329	29454.8
586.688	29694.57
587.048	29640.34
587.408	29733.89
587.768	29911.97
588.127	29926.2
588.487	30023.83
588.846	30292.97
589.206	30256.59
589.565	30278.06
589.925	30496.36
590.284	30442.35
590.643	30682.12
591.003	30886.63
591.362	31012.5
591.721	31016.12
592.08	31043.01
592.44	31194.87
592.799	31401.19
593.158	31237.58
593.517	31608.42
593.876	31580.4
594.235	31584.01
594.593	31746.04
594.952	31808.19
595.311	31769.77
595.67	32054.74
596.029	32224.9
596.387	32426.03
596.746	32334.05
597.104	32404.11
597.463	32355.97
597.822	32533.37
598.18	32684.32
598.538	32575.4
598.897	32946.24
599.255	32710.31
599.613	33209.96
599.972	33142.17
600.33	33151.88
600.688	33177.87
601.046	33400.46
601.404	33548.03
601.762	33445.21
602.12	33886.78
602.478	33785.99
602.836	33797.52
603.194	33760
603.552	33958.87
603.91	33906.44
604.268	34134.23
604.625	34112.08
604.983	34329.7
605.341	34207.45
605.698	34447.89
606.056	34460.55
606.413	34526.31
606.771	34667.32
607.128	34720.65
607.485	34630.94
607.843	34707.55
608.2	35032.74
608.557	35068.89
608.914	34957.94
609.272	35280.64
609.629	35442.44
609.986	35469.79
610.343	35311.37
610.7	35728.54
611.057	35529.22
611.414	35605.6
611.771	35660.97
612.127	35731.02
612.484	35896.44
612.841	35982.54
613.198	35895.09
613.554	35971.92
613.911	36259.15
614.267	36185.93
614.624	36203.1
614.98	36385.7
615.337	36551.12
615.693	36476.31
616.05	36480.61
616.406	36706.37
616.762	36508.4
617.118	36625.69
617.475	36696.65
617.831	36836.31
618.187	36893.48
618.543	37022.29
618.899	37144.09
619.255	37208.5
619.611	36991.78
619.967	37249.4
620.323	37316.74
620.678	37223.64
621.034	37255.05
621.39	37344.54
621.746	37278.1
622.101	37702.27
622.457	37409.85
622.812	37506.34
623.168	37514.03
623.523	37593.35
623.879	37761.7
624.234	37573.46
624.589	37605.32
624.945	37763.06
625.3	37753.8
625.655	37639.45
626.01	37654.36
626.365	37848.71
626.72	37672.22
627.075	37890.97
627.43	37747.92
627.785	37725.55
628.14	37799.44
628.495	37826.79
628.85	37906.56
629.205	37663.4
629.559	37938.65
629.914	37823.4
630.269	37841.48
630.623	37742.72
630.978	37751.99
631.332	37936.62
631.687	37921.25
632.041	37934.58
632.396	37888.93
632.75	37782.5
633.104	37909.5
633.459	37794.92
633.813	37751.99
634.167	37791.08
634.521	37682.84
634.875	37811.65
635.229	37656.4
635.583	37580.92
635.937	37646.68
636.291	37741.14
636.645	37732.55
636.999	37552.9
637.352	37716.28
637.706	37497.31
638.06	37557.87
638.413	37705.44
638.767	37438.55
639.121	37554.93
639.474	37359
639.828	37411.88
640.181	37517.87
640.534	37387.93
640.888	37270.19
641.241	37090.99
641.594	37318.55
641.947	37340.02
642.301	37157.43
642.654	37195.39
643.007	37370.75
643.36	37101.16
643.713	37157.43
644.066	37318.1
644.419	37168.95
644.771	36912.24
645.124	36419.37
645.477	36460.27
645.83	36218.69
646.182	36071.81
646.535	36154.97
646.888	36143.44
647.24	35956.78
647.593	36082.2
647.945	36052.37
648.298	35810.57
648.65	35880.4
649.002	35780.97
649.355	35914.3
649.707	35841.53
650.059	36039.26
650.411	36310.22
650.763	36359.71
651.115	36710.66
651.467	36668.4
651.819	36486.03
652.171	36531.91
652.523	36498.69
652.875	36444.9
653.227	36348.86
653.578	36556.99
653.93	36552.7
654.282	36495.07
654.633	36189.09
654.985	36389.31
655.337	36262.54
655.688	36303.89
656.039	36476.99
656.391	36246.04
656.742	36211.24
657.094	36244.23
657.445	36453.72
657.796	36167.4
658.147	36199.26
658.498	36238.36
658.849	36228.86
659.2	36214.4
659.551	36062.99
659.902	36261.41
660.253	36217.56
660.604	36229.99
660.955	36102.99
661.306	36088.53
661.656	36035.42
662.007	35990.23
662.358	36123.78
662.708	36006.95
663.059	36001.98
663.409	35825.48
663.76	36064.57
664.11	36109.09
664.461	36039.72
664.811	36083.56
665.161	36069.77
665.511	35911.36
665.862	35967.63
666.212	36047.63
666.562	36085.36
666.912	35993.39
667.262	36000.85
667.612	36003.11
667.962	35998.14
668.312	36059.83
668.662	36056.66
669.011	35982.09
669.361	35846.95
669.711	35967.18
670.06	35870.23
670.41	35858.03
670.76	35694.41
671.109	35936.67
671.459	35820.29
671.808	35877.91
672.157	35872.94
672.507	35648.31
672.856	35592.27
673.205	35811.93
673.554	35789.1
673.904	35712.49
674.253	35905.03
674.602	35785.71
674.951	35277.02
675.3	35182.34
675.649	35698.26
675.998	35536
676.346	35550.92
676.695	35788.2
677.044	35389.79
677.393	35577.81
677.741	35453.29
678.09	35330.81
678.438	35518.83
678.787	35407.42
679.135	35411.26
679.484	35356.34
679.832	35191.83
680.181	35012.17
680.529	35261.43
680.877	35184.15
681.225	35117.48
681.573	35332.84
681.922	35131.27
682.27	34905.06
682.618	34907.32
682.966	34892.18
683.314	34911.84
683.661	34786.42
684.009	34728.34
684.357	34706.87
684.705	34651.05
685.053	34744.61
685.4	34699.64
685.748	34435.46
686.095	34479.31
686.443	34400.66
686.79	34324.51
687.138	34368.12
687.485	34291.06
687.832	34163.16
688.18	34201.12
688.527	34105.76
688.874	34020.79
689.221	33951.18
689.568	33983.27
689.915	33845.42
690.262	33723.17
690.609	33651.53
690.956	33720.23
691.303	33519.78
691.65	33342.16
691.997	33382.84
692.344	33188.49
692.69	33196.4
693.037	33360.01
693.383	32930.19
693.73	33106.91
694.077	32871.21
694.423	32949.4
694.769	32770.65
695.116	32678.67
695.462	32600.71
695.808	32539.02
696.155	32643.2
696.501	32349.87
696.847	32349.42
697.193	32103.55
697.539	32348.06
697.885	31934.74
698.231	32003.21
698.577	31934.06
698.923	31890.22
699.269	31630.57
699.614	31771.58
699.96	31484.36
700.306	31596.67
700.651	31402.78
700.997	31361.2
701.342	31318.94
701.688	31260.41
702.033	31084.59
702.379	31095.21
702.724	30996.23
703.069	31009.11
703.415	30784.49
703.76	30777.71
704.105	30713.3
704.45	30724.83
704.795	30391.5
705.14	30455.68
705.485	30391.73
705.83	30179.08
706.175	30280.77
706.52	30234.9
706.865	30111.96
707.209	30020.67
707.554	29971.63
707.899	30037.61
708.243	29770.05
708.588	29716.04
708.932	29590.39
709.277	29671.52
709.621	29678.3
709.966	29413.45
710.31	29574.12
710.654	29237.18
710.998	29400.12
711.342	29360.34
711.687	29172.78
712.031	29128.26
712.375	29159.22
712.719	29089.39
713.063	28954.25
713.407	29164.42
713.75	28837.19
714.094	28976.85
714.438	28879
714.782	28729.4
715.125	28579.8
715.469	28711.32
715.812	28485.34
716.156	28427.94
716.499	28463.64
716.843	28417.77
717.186	28231.33
717.53	28385
717.873	28358.34
718.216	28308.39
718.559	28162.64
718.902	27965.8
719.246	27961.06
719.589	27782.98
719.932	27779.14
720.275	27796.54
720.617	27717.22
720.96	27697.11
721.303	27708.64
721.646	27752.93
721.989	27488.3
722.331	27667.73
722.674	27544.35
723.016	27534.63
723.359	27493.05
723.701	27484.01
724.044	27215.09
724.386	27177.35
724.729	27347.97
725.071	27190.23
725.413	27129.44
725.755	27156.56
726.097	27006.73
726.439	26879.05
726.782	26991.59
727.124	27024.81
727.465	26895.55
727.807	26881.54
728.149	26788.66
728.491	26794.08
728.833	26745.27
729.175	26793.41
729.516	26675.44
729.858	26616.46
730.199	26625.95
730.541	26641.32
730.882	26615.56
731.224	26672.5
731.565	26378.95
731.906	26340.31
732.248	26428.67
732.589	26299.86
732.93	26159.75
733.271	26165.4
733.612	26124.04
733.953	26152.97
734.294	26150.71
734.635	25997.95
734.976	26073.2
735.317	26021.67
735.658	25862.13
735.999	25967.89
736.339	25795.24
736.68	25962.02
737.021	25664.62
737.361	25745.3
737.702	25974.67
738.042	25792.98
738.383	25608.35
738.723	25707.78
739.063	25597.73
739.404	25620.56
739.744	25529.03
740.084	25439.32
740.424	25515.47
740.764	25517.73
741.104	25517.96
741.444	25322.71
741.784	25316.16
742.124	25357.96
742.464	25312.99
742.804	25184.18
743.143	25099.21
743.483	25124.75
743.823	24985.54
744.162	25123.39
744.502	25085.43
744.841	24938.77
745.181	25122.49
745.52	25001.36
745.86	24896.51
746.199	24822.61
746.538	24809.73
746.877	24887.47
747.216	24790.97
747.556	24716.4
747.895	24726.79
748.234	24677.3
748.573	24588.72
748.911	24531.54
749.25	24473.47
749.589	24396.18
749.928	24345.33
750.267	24494.71
750.605	24195.73
750.944	24346.69
751.283	24218.33
751.621	24253.59
751.96	24159.35
752.298	24101.73
752.636	24013.82
752.975	24020.15
753.313	23877.55
753.651	24002.74
753.989	23887.27
754.327	23860.6
754.666	23660.83
755.004	23716.2
755.342	23810.66
755.679	23779.02
756.017	23484.79
756.355	23643.66
756.693	23433.04
757.031	23539.25
757.368	23344
757.706	23348.98
758.044	23295.42
758.381	23226.49
758.719	23131.81
759.056	23079.15
759.394	23086.16
759.731	22922.77
760.068	22913.06
760.405	22864.02
760.743	22676.45
761.08	22760.74
761.417	22574.31
761.754	22548.77
762.091	22470.58
762.428	22509.9
762.765	22334.99
763.102	22362.11
763.438	22278.27
763.775	22184.94
764.112	22214.77
764.449	22211.15
764.785	22099.74
765.122	21944.27
765.458	21892.52
765.795	21793.31
766.131	21821.56
766.467	21612.75
766.804	21659.76
767.14	21468.57
767.476	21570.27
767.812	21225.87
768.148	21375.7
768.485	21215.25
768.821	21216.15
769.157	21202.37
769.492	21068.81
769.828	20987.23
770.164	20862.71
770.5	20807.12
770.836	20895.48
771.171	20621.36
771.507	20546.79
771.842	20461.14
772.178	20462.05
772.513	20366.68
772.849	20399.45
773.184	20173.47
773.519	20209.85
773.855	20113.36
774.19	20095.05
774.525	20000.36
774.86	19911.78
775.195	19898.67
775.53	19772.35
775.865	19698.22
776.2	19578
776.535	19428.4
776.87	19550.66
777.205	19309.53
777.539	19383.66
777.874	19313.83
778.209	19127.17
778.543	19190.44
778.878	19004.23
779.212	18997
779.547	18905.03
779.881	19017.56
780.215	18807.85
780.55	18832.71
780.884	18737.57
781.218	18674.75
781.552	18666.39
781.886	18565.15
782.22	18519.27
782.554	18340.97
782.888	18278.6
783.222	18201.77
783.556	18083.8
783.889	18092.62
784.223	17900.76
784.557	17874.77
784.89	17964.26
785.224	17863.92
785.557	17814.88
785.891	17729.92
786.224	17654.21
786.558	17639.75
786.891	17418.96
787.224	17450.15
787.557	17332.19
787.891	17295.8
788.224	17235.92
788.557	17287.44
788.89	17090.16
789.223	17119.31
789.556	17045.87
789.888	16978.97
790.221	16890.84
790.554	16872.54
790.887	16737.62
791.219	16694.91
791.552	16656.72
791.884	16581.47
792.217	16570.85
792.549	16445.43
792.882	16392.55
793.214	16298.09
793.546	16321.36
793.879	16237.07
794.211	16201.59
794.543	16154.36
794.875	16132.22
795.207	16181.93
795.539	16055.61
795.871	16009.51
796.203	15909.17
796.535	15816.52
796.867	15779.68
797.198	15746.46
797.53	15745.33
797.862	15622.4
798.193	15675.96
798.525	15452.01
798.856	15518.9
799.188	15354.84
799.519	15351.67
799.85	15329.98
800.182	15313.48
800.513	15225.57
800.844	15143.77
801.175	15174.28
801.506	15188.06
801.837	15084.56
802.168	15031.91
802.499	14950.33
802.83	14836.43
803.161	14910.55
803.491	14895.19
803.822	14784.23
804.153	14738.36
804.483	14643.67
804.814	14553.05
805.145	14643.22
805.475	14557.8
805.805	14604.8
806.136	14521.64
806.466	14496.55
806.796	14443.9
807.126	14298.82
807.457	14262.44
807.787	14308.76
808.117	14235.54
808.447	14177.24
808.777	14238.26
809.107	14096.34
809.436	14064.7
809.766	14106.28
810.096	14079.16
810.426	13958.26
810.755	13998.26
811.085	13915.33
811.414	13842.33
811.744	13851.6
812.073	13857.02
812.403	13800.53
812.732	13697.25
813.061	13672.17
813.39	13605.5
813.719	13544.71
814.049	13642.11
814.378	13556.24
814.707	13441.44
815.036	13417.94
815.365	13434.21
815.693	13382.01
816.022	13304.04
816.351	13249.36
816.68	13156.25
817.008	13336.13
817.337	13130.94
817.665	13144.72
817.994	13095.69
818.322	13128.45
818.651	13079.64
818.979	12989.25
819.307	13056.37
819.636	13079.19
819.964	12930.49
820.292	12973.66
820.62	13004.16
820.948	12864.05
821.276	12939.53
821.604	12943.37
821.932	12894.79
822.259	12883.26
822.587	12889.59
822.915	12830.16
823.243	12848.01
823.57	12890.04
823.898	12851.85
824.225	12825.41
824.553	12794.68
824.88	12784.96
825.207	12858.86
825.535	12728.46
825.862	12898.63
826.189	12817.95
826.516	12816.15
826.843	12882.36
827.17	12831.74
827.497	12833.55
827.824	12863.38
828.151	12864.73
828.478	12812.53
828.805	12902.92
829.131	12748.58
829.458	12788.58
829.785	12727.33
830.111	12777.05
830.438	12769.82
830.764	12726.88
831.09	12804.62
831.417	12678.52
831.743	12733.21
832.069	12758.97
832.395	12710.61
832.722	12738.86
833.048	12662.93
833.374	12723.04
833.7	12591.75
834.026	12655.47
834.351	12695.92
834.677	12686.43
835.003	12638.3
835.329	12620.22
835.654	12557.62
835.98	12549.03
836.306	12515.36
836.631	12506.32
836.956	12489.83
837.282	12495.93
837.607	12466.32
837.932	12382.49
838.258	12441.69
838.583	12394.69
838.908	12295.26
839.233	12399.66
839.558	12415.93
839.883	12308.59
840.208	12240.34
840.533	12289.61
840.858	12279.66
841.182	12243.96
841.507	12236.05
841.832	12185.65
842.156	12175.94
842.481	12125.99
842.805	12068.37
843.13	12049.61
843.454	12020.46
843.778	12117.41
844.103	11940.01
844.427	11848.26
844.751	11938.88
845.075	11943.4
845.399	11898.43
845.723	11901.37
846.047	11822.5
846.371	11761.03
846.695	11685.1
847.019	11600.81
847.343	11567.82
847.666	11566.46
847.99	11472.23
848.313	11514.26
848.637	11439.91
848.96	11349.74
849.284	11363.98
849.607	11301.16
849.931	11231.1
850.254	11118.11
850.577	11208.96
850.9	11055.74
851.223	11026.81
851.546	11022.97
851.869	10900.94
852.192	11013.71
852.515	10857.55
852.838	10858.01
853.161	10845.12
853.483	10754.96
853.806	10697.33
854.129	10692.81
854.451	10676.09
854.774	10639.93
855.096	10543.66
855.419	10554.06
855.741	10491.01
856.063	10493.27
856.385	10539.6
856.708	10326.49
857.03	10410.33
857.352	10340.96
857.674	10300.28
857.996	10240.62
858.318	10221.19
858.64	10286.04
858.961	10183.45
859.283	10152.49
859.605	10104.58
859.926	10110.91
860.248	10112.71
860.57	10018.25
860.891	10033.85
861.212	10020.06
861.534	9985.49
861.855	9983
862.176	9988.42
862.498	9936.45
862.819	9973.28
863.14	9915.43
863.461	9804.02
863.782	9870.46
864.103	9839.95
864.424	9897.35
864.745	9845.15
865.065	9790.24
865.386	9689.67
865.707	9773.51
866.027	9762.22
866.348	9693.74
866.668	9704.82
866.989	9671.82
867.309	9608.32
867.63	9600.19
867.95	9632.5
868.27	9599.28
868.59	9575.1
868.91	9597.25
869.23	9602.9
869.55	9504.14
869.87	9490.13
870.19	9530.36
870.51	9478.61
870.83	9451.26
871.15	9452.39
871.469	9444.48
871.789	9476.35
872.109	9463.24
872.428	9421.43
872.748	9397.48
873.067	9398.61
873.386	9351.15
873.706	9357.48
874.025	9284.71
874.344	9245.84
874.663	9347.76
874.982	9294.2
875.301	9231.38
875.62	9233.87
875.939	9160.42
876.258	9233.19
876.577	9165.85
876.896	9103.93
877.214	9143.93
877.533	9133.98
877.852	9155.9
878.17	9130.82
878.489	9065.74
878.807	9129.92
879.125	9068.22
879.444	9100.31
879.762	9014.66
880.08	9098.05
880.398	8968.11
880.716	8979.86
881.034	8914.1
881.352	8975.12
881.67	8920.66
881.988	8946.19
882.306	8884.27
882.624	8883.82
882.941	8838.17
883.259	8832.75
883.577	8725.41
883.894	8814.22
884.212	8757.95
884.529	8761.11
884.846	8756.82
885.164	8684.96
885.481	8694.45
885.798	8712.75
886.115	8618.74
886.432	8617.84
886.75	8601.34
887.067	8597.27
887.383	8577.61
887.7	8577.84
888.017	8508.24
888.334	8512.08
888.651	8419.65
888.967	8468.46
889.284	8441.35
889.6	8405.87
889.917	8428.24
890.233	8372.65
890.55	8355.7
890.866	8339.2
891.182	8350.27
891.498	8348.69
891.815	8293.1
892.131	8234.12
892.447	8249.94
892.763	8223.27
893.079	8106.21
893.395	8166.32
893.71	8148.25
894.026	8111.19
894.342	8036.84
894.657	8028.7
894.973	8022.83
895.289	8023.28
895.604	8024.18
895.92	7889.95
896.235	7925.43
896.55	7924.07
896.865	7873.23
897.181	7856.5
897.496	7847.92
897.811	7807.24
898.126	7749.61
898.441	7758.65
898.756	7740.35
899.071	7625.1
899.386	7724.75
899.7	7598.2
900.015	7531.09
900.33	7501.71
900.644	7575.38
900.959	7502.16
901.273	7482.05
901.588	7485.21
901.902	7436.85
902.216	7413.12
902.531	7411.77
902.845	7374.71
903.159	7315.27
903.473	7282.28
903.787	7258.55
904.101	7198.21
904.415	7196.86
904.729	7181.72
905.042	7168.38
905.356	7112.34
905.67	7118.44
905.984	7088.39
906.297	7043.42
906.611	6988.95
906.924	7060.14
907.237	7008.84
907.551	6962.74
907.864	6900.14
908.177	6946.92
908.491	6946.92
908.804	6906.7
909.117	6821.73
909.43	6722.75
909.743	6781.05
910.056	6746.7
910.368	6692.47
910.681	6654.27
910.994	6609.53
911.307	6653.82
911.619	6542.19
911.932	6576.99
912.244	6540.83
912.557	6566.59
912.869	6502.87
913.181	6499.48
913.494	6447.5
913.806	6408.18
914.118	6364.79
914.43	6319.37
914.742	6376.32
915.054	6301.29
915.366	6325.7
915.678	6224.23
915.99	6209.99
916.302	6155.3
916.613	6144.91
916.925	6167.06
917.236	6150.78
917.548	6098.13
917.859	6072.82
918.171	6059.26
918.482	6012.94
918.794	5997.57
919.105	6006.16
919.416	5939.72
919.727	5916.21
920.038	5932.71
920.349	5913.73
920.66	5830.57
920.971	5844.35
921.282	5793.51
921.593	5828.31
921.903	5726.16
922.214	5707.41
922.525	5719.84
922.835	5688.88
923.146	5635.54
923.456	5628.09
923.767	5619.27
924.077	5546.51
924.387	5575.21
924.697	5558.03
925.008	5472.61
925.318	5492.5
925.628	5481.65
925.938	5491.59
926.248	5465.15
926.558	5419.96
926.867	5440.07
927.177	5290.02
927.487	5311.26
927.796	5322.56
928.106	5340.86
928.416	5295.67
928.725	5271.49
929.034	5210.92
929.344	5234.2
929.653	5208.21
929.962	5192.17
930.271	5137.03
930.581	5142.45
930.89	5106.29
931.199	5061.1
931.508	5083.02
931.817	5011.61
932.125	5007.76
932.434	5023.58
932.743	4966.18
933.051	4957.82
933.36	4903.13
933.669	4870.37
933.977	4884.6
934.286	4860.65
934.594	4804.83
934.902	4829.46
935.21	4822.23
935.519	4781.33
935.827	4759.86
936.135	4740.65
936.443	4652.52
936.751	4705.62
937.059	4679.18
937.367	4629.69
937.674	4674.67
937.982	4638.06
938.29	4586.31
938.597	4586.76
938.905	4511.96
939.213	4518.51
939.52	4505.4
939.827	4502.24
940.135	4498.17
940.442	4476.25
940.749	4453.2
941.056	4438.29
941.363	4383.6
941.67	4422.92
941.977	4353.77
942.284	4344.28
942.591	4364.16
942.898	4311.51
943.205	4332.53
943.511	4252.98
943.818	4261.12
944.125	4216.15
944.431	4212.08
944.738	4254.34
945.044	4174.34
945.35	4155.13
945.657	4155.36
945.963	4166.66
946.269	4170.27
946.575	4109.03
946.881	4057.73
947.187	4101.35
947.493	4072.87
947.799	4024.51
948.105	4041.91
948.41	3959.66
948.716	4000.33
949.022	3951.97
949.327	3951.07
949.633	3952.65
949.938	3949.26
950.244	3932.99
950.549	3919.2
950.854	3870.84
951.16	3833.78
951.465	3831.3
951.77	3802.6
952.075	3762.6
952.38	3759.89
952.685	3813.22
952.99	3734.35
953.294	3746.1
953.599	3704.75
953.904	3733
954.209	3708.81
954.513	3686.44
954.818	3671.53
955.122	3654.35
955.426	3630.4
955.731	3627.46
956.035	3608.93
956.339	3574.36
956.643	3593.11
956.948	3520.35
957.252	3536.62
957.556	3511.98
957.86	3507.46
958.163	3486.67
958.467	3506.33
958.771	3437.86
959.075	3446.22
959.378	3398.99
959.682	3398.54
959.985	3369.61
960.289	3353.57
960.592	3384.76
960.896	3368.71
961.199	3345.21
961.502	3311.54
961.805	3340.69
962.108	3260.47
962.411	3283.74
962.714	3298.66
963.017	3237.87
963.32	3237.87
963.623	3216.62
963.926	3215.04
964.228	3189.28
964.531	3173.46
964.833	3178.43
965.136	3144.08
965.438	3138.43
965.741	3142.73
966.043	3144.99
966.345	3106.34
966.648	3094.37
966.95	3046.46
967.252	3062.73
967.554	3073.8
967.856	3060.02
968.158	2952.22
968.46	3019.12
968.761	3005.78
969.063	3009.85
969.365	2949.06
969.666	2956.74
969.968	2931.66
970.269	2952
970.571	2950.19
970.872	2911.77
971.174	2912.23
971.475	2889.4
971.776	2876.29
972.077	2847.14
972.378	2895.28
972.679	2819.8
972.98	2841.49
973.281	2799.46
973.582	2772.34
973.883	2768.95
974.183	2738.67
974.484	2755.62
974.785	2737.32
975.085	2723.53
975.386	2742.51
975.686	2678.11
975.986	2701.38
976.287	2714.72
976.587	2646.24
976.887	2673.59
977.187	2693.02
977.487	2657.54
977.787	2629.07
978.087	2639.24
978.387	2596.3
978.687	2619.13
978.987	2623.65
979.286	2572.57
979.586	2588.17
979.885	2583.42
980.185	2559.92
980.484	2520.37
980.784	2518.56
981.083	2521.5
981.382	2508.39
981.682	2514.5
981.981	2488.51
982.28	2493.93
982.579	2493.93
982.878	2445.8
983.177	2464.78
983.475	2415.06
983.774	2407.15
984.073	2388.17
984.372	2349.08
984.67	2392.69
984.969	2375.29
985.267	2399.02
985.566	2377.1
985.864	2350.88
986.162	2347.27
986.461	2333.03
986.759	2358.34
987.057	2306.82
987.355	2312.92
987.653	2281.06
987.951	2269.08
988.249	2233.15
988.547	2247.61
988.844	2223.66
989.142	2238.8
989.44	2228.4
989.737	2251.9
990.035	2197.22
990.332	2198.12
990.63	2178.69
990.927	2173.94
991.224	2173.04
991.521	2153.83
991.819	2171
992.116	2132.13
992.413	2129.2
992.71	2116.31
993.006	2118.12
993.303	2133.49
993.6	2135.3
993.897	2094.62
994.193	2073.15
994.49	2063.43
994.787	2058.01
995.083	2033.83
995.379	2034.06
995.676	2011.91
995.972	2006.49
996.268	2034.06
996.565	1983.21
996.861	1983.66
997.157	1975.08
997.453	1935.53
997.749	1951.8
998.044	1941.18
998.34	1933.27
998.636	1924.23
998.932	1930.56
999.227	1898.69
999.523	1894.63
999.818	1884.46
1000.114	1903.66
1000.409	1876.09
1000.704	1841.52
1001	1840.39
1001.295	1852.59
1001.59	1824.12
1001.885	1848.98
1002.18	1781.63
1002.475	1795.87
1002.77	1773.5
1003.065	1781.86
1003.359	1780.96
1003.654	1750.67
1003.949	1770.56
1004.243	1730.79
1004.538	1752.71
1004.832	1735.08
1005.127	1717.45
1005.421	1729.88
1005.715	1711.81
1006.009	1673.84
1006.304	1674.07
1006.598	1670.45
1006.892	1645.59
1007.186	1653.28
1007.48	1628.42
1007.773	1615.76
1008.067	1634.07
1008.361	1631.58
1008.655	1619.83
1008.948	1601.07
1009.242	1581.41
1009.535	1579.83
1009.829	1584.58
1010.122	1531.92
1010.415	1580.06
1010.708	1532.15
1011.001	1531.47
1011.295	1541.41
1011.588	1537.35
1011.881	1484.47
1012.173	1518.82
1012.466	1510.23
1012.759	1479.95
1013.052	1472.72
1013.344	1479.49
1013.637	1453.96
1013.93	1432.72
1014.222	1459.38
1014.514	1466.39
1014.807	1438.59
1015.099	1423.23
1015.391	1435.88
1015.683	1439.04
1015.976	1411.25
1016.268	1394.53
1016.56	1398.14
1016.851	1367.86
1017.143	1356.33
1017.435	1382.1
1017.727	1340.29
1018.018	1323.57
1018.31	1358.14
1018.602	1337.8
1018.893	1331.48
1019.185	1300.74
1019.476	1317.01
1019.767	1289.9
1020.058	1311.36
1020.35	1279.27
1020.641	1262.55
1020.932	1271.14
1021.223	1268.2
1021.514	1222.55
1021.804	1270.23
1022.095	1245.15
1022.386	1240.86
1022.677	1230.91
1022.967	1233.63
1023.258	1188.66
1023.548	1214.64
1023.839	1196.11
1024.129	1181.42
1024.419	1170.8
1024.709	1161.09
1025	1166.73
1025.29	1151.82
1025.58	1136.68
1025.87	1133.97
1026.16	1131.71
1026.449	1141.42
1026.739	1118.83
1027.029	1104.36
1027.319	1107.75
1027.608	1116.57
1027.898	1115.21
1028.187	1090.58
1028.477	1100.52
1028.766	1089
1029.055	1089.22
1029.344	1065.95
1029.634	1065.04
1029.923	1058.49
1030.212	1072.05
1030.501	1033.18
1030.79	1022.78
1031.078	1032.5
1031.367	1031.6
1031.656	1023.24
1031.945	1026.85
1032.233	1013.07
1032.522	1001.77
1032.81	976.46
1033.099	968.77
1033.387	983.69
1033.675	959.73
1033.963	964.03
1034.251	958.6
1034.54	950.92
1034.828	933.07
1035.116	921.09
1035.403	926.52
1035.691	933.07
1035.979	914.76
1036.267	908.44
1036.554	910.47
1036.842	884.26
1037.129	899.85
1037.417	902.79
1037.704	874.31
1037.992	863.69
1038.279	855.78
1038.566	866.86
1038.853	866.86
1039.14	866.86
