Data from hue_280_FLMS001491_00026.txt Node
Date: Tue Feb 07 15:55:03 GMT 2017
User: dcchb
Spectrometer: FLMS00149
Trigger mode: 0
Integration Time (sec): 2.000000E-2
Scans to average: 10
Electric dark correction enabled: true
Nonlinearity correction enabled: false
Boxcar width: 0
XAxis mode: Wavelengths
Number of Pixels in Spectrum: 2048
>>>>>Begin Spectral Data<<<<<
341.393	-11.53
341.776	-11.53
342.16	-11.53
342.543	-50.39
342.927	-61.92
343.31	-60.11
343.693	-66.89
344.077	-72.77
344.46	-51.3
344.843	-59.21
345.226	-34.8
345.61	-20.56
345.993	-0.68
346.376	-1.36
346.759	-11.07
347.142	34.58
347.525	28.25
347.908	36.38
348.291	70.28
348.674	96.95
349.057	112.31
349.44	135.36
349.823	143.95
350.206	164.74
350.588	174.01
350.971	201.12
351.354	193.67
351.737	216.04
352.119	242.93
352.502	252.65
352.884	265.98
353.267	287
353.65	282.03
354.032	288.81
354.414	297.17
354.797	321.8
355.179	322.7
355.562	324.96
355.944	310.27
356.326	299.2
356.709	322.7
357.091	343.49
357.473	319.54
357.855	316.38
358.238	345.3
358.62	343.95
359.002	350.5
359.384	338.3
359.766	328.58
360.148	332.19
360.53	333.78
360.912	337.84
361.294	328.35
361.676	334.23
362.057	321.8
362.439	317.96
362.821	299.43
363.203	321.35
363.584	300.56
363.966	336.04
364.348	318.41
364.729	296.49
365.111	326.32
365.493	322.48
365.874	309.14
366.256	309.14
366.637	309.6
367.019	305.08
367.4	311.18
367.781	309.82
368.163	286.55
368.544	315.25
368.925	318.18
369.306	296.26
369.688	297.17
370.069	319.54
370.45	327.45
370.831	319.99
371.212	291.97
371.593	305.08
371.974	312.53
372.355	308.69
372.736	298.52
373.117	340.33
373.498	331.06
373.879	327.68
374.26	301.46
374.641	298.75
375.021	307.11
375.402	310.5
375.783	321.12
376.163	338.75
376.544	332.19
376.925	314.57
377.305	309.82
377.686	313.89
378.066	326.32
378.447	334.45
378.827	318.64
379.208	329.71
379.588	329.03
379.968	319.31
380.349	315.25
380.729	332.19
381.109	344.17
381.489	327
381.87	326.09
382.25	329.26
382.63	334.45
383.01	322.93
383.39	356.83
383.77	344.85
384.15	334.23
384.53	334.91
384.91	353.89
385.29	344.17
385.67	333.55
386.049	355.47
386.429	351.63
386.809	378.07
387.189	349.6
387.568	352.76
387.948	366.54
388.328	370.84
388.707	373.78
389.087	396.83
389.466	349.82
389.846	352.53
390.225	360.89
390.605	353.44
390.984	373.55
391.363	347.11
391.743	375.58
392.122	378.3
392.501	379.2
392.881	374.91
393.26	389.59
393.639	381.46
394.018	354.79
394.397	379.43
394.776	397.96
395.155	394.79
395.534	391.4
395.913	375.81
396.292	396.15
396.671	392.31
397.05	367.67
397.429	375.58
397.808	385.3
398.186	406.77
398.565	409.71
398.944	391.4
399.323	407.9
399.701	429.59
400.08	417.16
400.458	400.22
400.837	409.93
401.215	414.23
401.594	393.66
401.972	423.04
402.351	438.63
402.729	416.94
403.107	422.36
403.486	435.92
403.864	417.84
404.242	431.18
404.62	450.61
404.999	433.89
405.377	449.71
405.755	454.45
406.133	486.54
406.511	457.62
406.889	451.74
407.267	482.47
407.645	464.39
408.023	473.21
408.401	489.48
408.779	473.21
409.156	489.7
409.534	497.84
409.912	493.32
410.29	515.69
410.667	521.12
411.045	514.11
411.422	512.75
411.8	540.1
412.178	543.26
412.555	568.35
412.933	557.95
413.31	547.1
413.687	562.7
414.065	550.27
414.442	570.61
414.819	580.1
415.197	580.78
415.574	608.8
415.951	617.38
416.328	621.68
416.705	601.34
417.082	623.94
417.46	618.97
417.837	629.81
418.214	625.75
418.591	634.33
418.967	641.11
419.344	665.29
419.721	692.19
420.098	688.8
420.475	687.21
420.852	691.96
421.228	718.4
421.605	703.94
421.982	718.85
422.358	727.21
422.735	757.49
423.111	732.41
423.488	783.93
423.864	764.95
424.241	812.41
424.617	802.92
424.994	827.32
425.37	816.48
425.746	810.83
426.123	821.22
426.499	816.7
426.875	825.74
427.251	871.39
427.627	868
428.003	858.73
428.379	906.42
428.756	864.84
429.132	918.17
429.507	901.9
429.883	904.83
430.259	934.89
430.635	945.29
431.011	966.53
431.387	936.92
431.763	986.87
432.138	999.07
432.514	1009.24
432.89	1027.77
433.265	1048.56
433.641	1038.62
434.016	1072.74
434.392	1065.96
434.767	1094.43
435.143	1085.17
435.518	1085.17
435.894	1127.88
436.269	1146.18
436.644	1155.9
437.02	1164.72
437.395	1164.49
437.77	1188.22
438.145	1221.89
438.52	1201.78
438.895	1240.19
439.271	1253.07
439.646	1296.01
440.021	1296.69
440.395	1305.73
440.77	1284.49
441.145	1323.58
441.52	1318.61
441.895	1293.53
442.27	1338.04
442.645	1345.73
443.019	1358.38
443.394	1347.08
443.769	1347.99
444.143	1372.17
444.518	1382.56
444.892	1391.83
445.267	1394.54
445.641	1414.88
446.016	1417.14
446.39	1424.37
446.764	1409
447.139	1457.14
447.513	1436.35
447.887	1441.09
448.262	1456.68
448.636	1463.24
449.01	1495.33
449.384	1499.4
449.758	1489
450.132	1508.21
450.506	1521.77
450.88	1549.34
451.254	1534.65
451.628	1538.94
452.002	1541.65
452.376	1585.72
452.75	1582.11
453.123	1580.07
453.497	1591.6
453.871	1610.58
454.244	1653.29
454.618	1637.92
454.992	1669.56
455.365	1651.26
455.739	1710.46
456.112	1716.57
456.486	1718.37
456.859	1753.85
457.232	1751.37
457.606	1782.33
457.979	1791.59
458.352	1821.2
458.725	1828.88
459.099	1836.56
459.472	1840.63
459.845	1852.15
460.218	1865.71
460.591	1905.03
460.964	1898.93
461.337	1944.81
461.71	1935.32
462.083	1948.42
462.456	1965.15
462.829	1977.58
463.201	1975.32
463.574	2007.4
463.947	2063.9
464.32	2068.19
464.692	2063.45
465.065	2091.7
465.438	2110.23
465.81	2116.78
466.183	2147.51
466.555	2206.72
466.928	2187.51
467.3	2196.33
467.672	2240.85
468.045	2265.03
468.417	2282.65
468.789	2298.02
469.161	2308.87
469.534	2330.79
469.906	2367.85
470.278	2350.9
470.65	2439.71
471.022	2446.26
471.394	2492.82
471.766	2491.91
472.138	2497.56
472.51	2565.58
472.882	2571.23
473.253	2614.85
473.625	2630.44
473.997	2612.36
474.369	2685.35
474.74	2739.14
475.112	2740.04
475.484	2800.38
475.855	2805.12
476.227	2849.87
476.598	2887.61
476.97	2905.46
477.341	2924.67
477.713	2974.61
478.084	3038.34
478.455	3080.6
478.827	3101.39
479.198	3148.17
479.569	3175.51
479.94	3269.29
480.311	3246.69
480.682	3286.24
481.053	3320.36
481.424	3407.59
481.795	3391.78
482.166	3443.53
482.537	3484.65
482.908	3561.71
483.279	3568.04
483.65	3595.16
484.021	3635.16
484.391	3687.13
484.762	3719.22
485.133	3781.6
485.503	3780.92
485.874	3844.64
486.244	3869.28
486.615	3948.37
486.985	3923.29
487.356	4040.12
487.726	4041.02
488.097	4113.56
488.467	4060.46
488.837	4152.66
489.207	4222.71
489.578	4231.3
489.948	4261.81
490.318	4336.84
490.688	4375.25
491.058	4384.97
491.428	4433.56
491.798	4463.84
492.168	4499.54
492.538	4535.7
492.908	4585.87
493.278	4667
493.648	4655.02
494.017	4680.78
494.387	4701.35
494.757	4736.82
495.126	4808.01
495.496	4789.93
495.866	4819.31
496.235	4848.23
496.605	4869.93
496.974	4927.33
497.344	4930.27
497.713	4997.38
498.082	4984.5
498.452	5073.09
498.821	5042.35
499.19	5033.77
499.559	5060.21
499.928	5079.19
500.298	5136.81
500.667	5121.67
501.036	5089.58
501.405	5184.72
501.774	5194.44
502.143	5256.36
502.512	5300.65
502.88	5297.49
503.249	5277.83
503.618	5305.17
503.987	5334.77
504.356	5335
504.724	5408.22
505.093	5383.81
505.462	5404.83
505.83	5429.91
506.199	5461.78
506.567	5520.31
506.936	5488.44
507.304	5536.13
507.672	5523.7
508.041	5562.11
508.409	5576.8
508.777	5651.83
509.145	5589.46
509.514	5654.54
509.882	5638.72
510.25	5668.55
510.618	5705.39
510.986	5723.24
511.354	5699.51
511.722	5783.35
512.09	5765.5
512.458	5797.59
512.826	5832.61
513.193	5829.68
513.561	5859.96
513.929	5925.72
514.297	5963.91
514.664	5903.8
515.032	5937.25
515.4	5964.36
515.767	5969.33
516.135	5982.67
516.502	5930.69
516.869	6078.71
517.237	6038.49
517.604	6002.55
517.972	6065.83
518.339	6113.74
518.706	6079.61
519.073	6031.03
519.44	6113.96
519.808	6091.37
520.175	6184.02
520.542	6198.71
520.909	6236.67
521.276	6244.81
521.643	6237.58
522.009	6281.42
522.376	6305.37
522.743	6307.18
523.11	6391.92
523.477	6357.35
523.843	6427.4
524.21	6519.83
524.577	6470.56
524.943	6470.34
525.31	6490
525.676	6528.19
526.043	6566.83
526.409	6606.15
526.776	6607.51
527.142	6582.43
527.508	6666.27
527.874	6733.83
528.241	6698.35
528.607	6760.27
528.973	6814.51
529.339	6816.77
529.705	6842.76
530.071	6785.81
530.437	6891.57
530.803	6912.36
531.169	6926.6
531.535	6870.78
531.901	6926.82
532.267	6923.21
532.632	6953.72
532.998	6957.11
533.364	7047.95
533.73	7018.8
534.095	7049.08
534.461	7097.21
534.826	7083.43
535.192	7031.91
535.557	7140.6
535.923	7105.58
536.288	7126.37
536.653	7174.05
537.019	7186.48
537.384	7202.97
537.749	7187.83
538.114	7260.15
538.479	7261.05
538.845	7270.77
539.21	7279.13
539.575	7218.34
539.94	7308.28
540.305	7305.8
540.67	7289.98
541.034	7353.93
541.399	7386.92
541.764	7343.54
542.129	7385.34
542.494	7379.24
542.858	7439.35
543.223	7393.25
543.587	7416.75
543.952	7438
544.316	7451.1
544.681	7431.67
545.045	7499.92
545.41	7584.66
545.774	7506.02
546.138	7578.11
546.503	7559.8
546.867	7618.56
547.231	7613.81
547.595	7648.84
547.959	7641.38
548.324	7595.28
548.688	7674.15
549.052	7683.41
549.416	7660.14
549.779	7677.31
550.143	7732.45
550.507	7710.08
550.871	7674.37
551.235	7710.31
551.599	7697.42
551.962	7725.45
552.326	7879.57
552.689	7773.35
553.053	7803.64
553.417	7772.68
553.78	7919.11
554.143	7867.36
554.507	7823.07
554.87	7855.61
555.234	7926.12
555.597	7882.28
555.96	7911.88
556.323	7954.14
556.686	7923.86
557.05	7949.17
557.413	7989.17
557.776	7962.28
558.139	8057.42
558.502	8037.53
558.865	8059.22
559.228	8148.49
559.59	8145.32
559.953	8106
560.316	8208.82
560.679	8177.41
561.041	8230.29
561.404	8213.34
561.767	8267.13
562.129	8280.91
562.492	8326.79
562.854	8340.8
563.217	8337.41
563.579	8355.49
563.941	8440.23
564.304	8455.82
564.666	8477.97
565.028	8453.34
565.39	8501.25
565.753	8551.64
566.115	8576.72
566.477	8609.94
566.839	8594.35
567.201	8647.68
567.563	8670.73
567.925	8768.81
568.287	8757.06
568.648	8720.22
569.01	8755.93
569.372	8739.21
569.734	8839.32
570.095	8879.77
570.457	8858.98
570.819	8948.01
571.18	8967.45
571.542	9005.19
571.903	8940.33
572.265	9048.35
572.626	9064.17
572.987	9052.87
573.349	9134.9
573.71	9177.61
574.071	9170.83
574.432	9197.72
574.794	9306.2
575.155	9308.23
575.516	9283.15
575.877	9369.25
576.238	9342.58
576.599	9443.59
576.96	9449.02
577.32	9523.59
577.681	9545.29
578.042	9575.79
578.403	9581.22
578.763	9652.85
579.124	9667.99
579.485	9751.83
579.845	9756.58
580.206	9837.03
580.566	9854.88
580.927	9854.2
581.287	9974.2
581.648	9965.39
582.008	10069.79
582.368	10013.75
582.728	10131.49
583.089	10162.44
583.449	10224.82
583.809	10247.64
584.169	10271.82
584.529	10378.48
584.889	10476.79
585.249	10387.75
585.609	10517.24
585.969	10611.92
586.329	10526.5
586.688	10637.01
587.048	10660.51
587.408	10719.94
587.768	10847.4
588.127	10914.97
588.487	10901.41
588.846	11036.55
589.206	11054.4
589.565	11055.75
589.925	11156.77
590.284	11201.74
590.643	11285.35
591.003	11417.1
591.362	11502.97
591.721	11512.92
592.08	11593.82
592.44	11684.21
592.799	11686.02
593.158	11772.57
593.517	11775.96
593.876	11921.04
594.235	11920.59
594.593	11977.54
594.952	12054.15
595.311	12118.1
595.67	12086.69
596.029	12226.57
596.387	12368.71
596.746	12412.55
597.104	12409.39
597.463	12421.59
597.822	12593.57
598.18	12594.92
598.538	12673.11
598.897	12777.97
599.255	12647.58
599.613	12819.78
599.972	12787.46
600.33	12914.91
600.688	12885.08
601.046	13020
601.404	13037.4
601.762	13012.54
602.12	13207.11
602.478	13269.71
602.836	13239.65
603.194	13229.48
603.552	13335.02
603.91	13318.29
604.268	13431.74
604.625	13371.85
604.983	13490.04
605.341	13461.79
605.698	13509.48
606.056	13618.85
606.413	13632.41
606.771	13676.48
607.128	13608
607.485	13686.65
607.843	13664.27
608.2	13734.1
608.557	13790.6
608.914	13762.58
609.272	13875.79
609.629	14020.87
609.986	13976.13
610.343	13980.2
610.7	14130.93
611.057	14124.15
611.414	14160.31
611.771	14258.16
612.127	14213.19
612.484	14206.86
612.841	14292.51
613.198	14299.96
613.554	14319.85
613.911	14371.15
614.267	14431.48
614.624	14344.71
614.98	14416.34
615.337	14498.6
615.693	14499.96
616.05	14427.19
616.406	14584.93
616.762	14431.94
617.118	14525.49
617.475	14605.94
617.831	14592.84
618.187	14603.91
618.543	14689.56
618.899	14742.44
619.255	14850.91
619.611	14687.3
619.967	14839.38
620.323	14802.77
620.678	14735.43
621.034	14749.89
621.39	14731.82
621.746	14725.04
622.101	14865.15
622.457	14769.78
622.812	14865.15
623.168	14834.19
623.523	14914.64
623.879	14904.92
624.234	14727.3
624.589	14884.35
624.945	14874.41
625.3	14911.02
625.655	14861.53
626.01	15009.1
626.365	14949.66
626.72	14953.73
627.075	14840.97
627.43	14918.03
627.785	14882.55
628.14	14969.32
628.495	14948.08
628.85	14923.9
629.205	14857.46
629.559	15054.97
629.914	14911.7
630.269	14906.73
630.623	14802.77
630.978	14861.3
631.332	14910.57
631.687	15012.49
632.041	14836.9
632.396	14884.58
632.75	14779.95
633.104	14950.34
633.459	14793.96
633.813	14833.06
634.167	14770.91
634.521	14793.74
634.875	14840.29
635.229	14748.54
635.583	14693.17
635.937	14664.02
636.291	14776.33
636.645	14773.62
636.999	14707.18
637.352	14727.52
637.706	14574.08
638.06	14711.03
638.413	14748.09
638.767	14642.55
639.121	14655.66
639.474	14485.95
639.828	14556
640.181	14632.61
640.534	14566.17
640.888	14585.83
641.241	14435.1
641.594	14502.44
641.947	14523.91
642.301	14563.46
642.654	14554.19
643.007	14573.4
643.36	14509.67
643.713	14459.73
644.066	14557.58
644.419	14479.62
644.771	14446.4
645.124	14314.65
645.477	14247.53
645.83	14156.69
646.182	14109.23
646.535	13981.33
646.888	14114.21
647.24	13950.82
647.593	14020.2
647.945	14029.91
648.298	14003.47
648.65	13979.29
649.002	14017.26
649.355	13950.37
649.707	13988.78
650.059	14123.92
650.411	14195.11
650.763	14219.51
651.115	14388.32
651.467	14340.41
651.819	14357.59
652.171	14365.95
652.523	14297.7
652.875	14308.55
653.227	14236.69
653.578	14309.23
653.93	14337.93
654.282	14242.79
654.633	14250.92
654.985	14319.85
655.337	14313.3
655.688	14319.85
656.039	14342.45
656.391	14231.26
656.742	14283.01
657.094	14310.36
657.445	14338.61
657.796	14325.5
658.147	14364.14
658.498	14297.7
658.849	14361.66
659.2	14293.18
659.551	14320.3
659.902	14434.65
660.253	14381.77
660.604	14400.75
660.955	14354.42
661.306	14397.14
661.656	14370.7
662.007	14437.36
662.358	14404.59
662.708	14399.62
663.059	14421.77
663.409	14355.55
663.76	14432.16
664.11	14386.29
664.461	14450.47
664.811	14514.42
665.161	14382.22
665.511	14445.27
665.862	14396.91
666.212	14456.8
666.562	14443.91
666.912	14352.62
667.262	14407.76
667.612	14391.26
667.962	14386.06
668.312	14330.92
668.662	14423.35
669.011	14422.67
669.361	14384.03
669.711	14376.35
670.06	14410.69
670.41	14443.46
670.76	14291.38
671.109	14406.63
671.459	14433.52
671.808	14361.43
672.157	14400.53
672.507	14186.75
672.856	14316.01
673.205	14266.97
673.554	14299.29
673.904	14250.02
674.253	14417.25
674.602	14285.27
674.951	14072.62
675.3	14019.29
675.649	14256.35
675.998	14222.45
676.346	14221.55
676.695	14295.22
677.044	14165.73
677.393	14133.87
677.741	14148.55
678.09	14105.17
678.438	14158.72
678.787	14155.56
679.135	14087.77
679.484	14103.58
679.832	14121.89
680.181	14031.72
680.529	14097.93
680.877	14030.59
681.225	14046.18
681.573	14030.82
681.922	14037.37
682.27	13971.61
682.618	13913.08
682.966	13936.13
683.314	13826.53
683.661	13846.19
684.009	13794.67
684.357	13741.56
684.705	13747.66
685.053	13773.65
685.4	13717.38
685.748	13708.11
686.095	13637.61
686.443	13624.73
686.79	13552.41
687.138	13561.68
687.485	13504.96
687.832	13476.71
688.18	13525.75
688.527	13346.99
688.874	13395.35
689.221	13364.39
689.568	13331.17
689.915	13279.65
690.262	13267.22
690.609	13214.12
690.956	13194.68
691.303	13181.57
691.65	13088.47
691.997	13025.65
692.344	12945.65
692.69	13004.63
693.037	12939.09
693.383	12826.56
693.73	12900
694.077	12807.35
694.423	12756.05
694.769	12679.89
695.116	12774.81
695.462	12659.33
695.808	12629.95
696.155	12668.37
696.501	12508.15
696.847	12476.96
697.193	12423.18
697.539	12393.35
697.885	12339.56
698.231	12351.77
698.577	12277.64
698.923	12207.81
699.269	12158.78
699.614	12089.63
699.96	12116.74
700.306	12031.1
700.651	12036.97
700.997	12032.45
701.342	12033.81
701.688	11942.51
702.033	11915.62
702.379	11809.41
702.724	11753.36
703.069	11765.11
703.415	11676.76
703.76	11616.19
704.105	11647.38
704.45	11633.82
704.795	11525.35
705.14	11435.18
705.485	11534.61
705.83	11346.59
706.175	11444.67
706.52	11318.8
706.865	11332.58
707.209	11262.98
707.554	11344.11
707.899	11346.82
708.243	11247.39
708.588	11217.56
708.932	11143.21
709.277	11154.96
709.621	11096.43
709.966	11035.87
710.31	10978.47
710.654	10957.45
710.998	11005.59
711.342	10936.89
711.687	10926.04
712.031	10877.91
712.375	10863.9
712.719	10838.36
713.063	10844.69
713.407	10851.01
713.75	10788.87
714.094	10766.95
714.438	10704.8
714.782	10806.04
715.125	10689.44
715.469	10668.87
715.812	10618.25
716.156	10604.92
716.499	10588.87
716.843	10584.81
717.186	10515.43
717.53	10590.68
717.873	10537.8
718.216	10543.68
718.559	10569.21
718.902	10480.18
719.246	10499.38
719.589	10417.58
719.932	10314.53
720.275	10425.49
720.617	10418.03
720.96	10404.92
721.303	10325.83
721.646	10427.3
721.989	10337.13
722.331	10359.95
722.674	10333.51
723.016	10276.57
723.359	10303.68
723.701	10280.86
724.044	10257.81
724.386	10180.52
724.729	10199.05
725.071	10248.32
725.413	10296.68
725.755	10233.18
726.097	10205.61
726.439	10084.93
726.782	10205.38
727.124	10177.13
727.465	10136
727.807	10116.12
728.149	10167.87
728.491	10125.38
728.833	10094.42
729.175	10113.86
729.516	10093.75
729.858	10131.94
730.199	10171.26
730.541	10131.26
730.882	10119.28
731.224	10173.07
731.565	10048.78
731.906	10090.81
732.248	10047.19
732.589	10056.68
732.93	10083.8
733.271	10074.99
733.612	10126.06
733.953	10130.58
734.294	10042.9
734.635	10115.89
734.976	10124.03
735.317	10058.72
735.658	10133.74
735.999	10080.86
736.339	10006.06
736.68	10112.5
737.021	10068.89
737.361	10030.47
737.702	10110.47
738.042	10085.61
738.383	10049.91
738.723	10185.95
739.063	10149.11
739.404	10099.62
739.744	10092.16
740.084	10029.79
740.424	10175.33
740.764	10093.97
741.104	10141.88
741.444	10123.8
741.784	10207.64
742.124	10184.36
742.464	10189.79
742.804	10199.51
743.143	10291.48
743.483	10277.02
743.823	10308.66
744.162	10288.09
744.502	10350.24
744.841	10299.84
745.181	10386.39
745.52	10388.88
745.86	10493.28
746.199	10502.32
746.538	10526.95
746.877	10617.57
747.216	10647.63
747.556	10630.68
747.895	10775.99
748.234	10770.34
748.573	10783.45
748.911	10820.51
749.25	10915.65
749.589	10924.91
749.928	11134.62
750.267	11147.73
750.605	11157.22
750.944	11291
751.283	11345.92
751.621	11460.26
751.96	11483.99
752.298	11548.4
752.636	11641.95
752.975	11714.72
753.313	11769.63
753.651	12000.81
753.989	12028.38
754.327	12108.16
754.666	12199.23
755.004	12334.82
755.342	12532.78
755.679	12660.68
756.017	12656.39
756.355	12818.87
756.693	12963.5
757.031	13084.4
757.368	13146.32
757.706	13252.76
758.044	13474.9
758.381	13614.56
758.719	13681.22
759.056	13863.36
759.394	13893.42
759.731	14081.44
760.068	14224.71
760.405	14351.94
760.743	14457.25
761.08	14708.77
761.417	14689.78
761.754	14923
762.091	15044.58
762.428	15065.82
762.765	15300.16
763.102	15449.99
763.438	15539.25
763.775	15690.89
764.112	15742.86
764.449	16022.18
764.785	16028.28
765.122	16055.62
765.458	16194.83
765.795	16353.92
766.131	16496.29
766.467	16679.56
766.804	16645.44
767.14	16728.37
767.476	16941.25
767.812	16910.52
768.148	17169.04
768.485	17155.26
768.821	17160.45
769.157	17256.72
769.492	17378.98
769.828	17442.71
770.164	17420.78
770.5	17526.77
770.836	17728.12
771.171	17598.86
771.507	17727.44
771.842	17771.06
772.178	17855.58
772.513	17887.44
772.849	17976.93
773.184	18002.46
773.519	18093.99
773.855	18015.12
774.19	18071.39
774.525	18188.22
774.86	18165.4
775.195	18200.88
775.53	18202.91
775.865	18213.08
776.2	18233.64
776.535	18134.21
776.87	18252.18
777.205	18179.18
777.539	18150.48
777.874	18369.23
778.209	18204.49
778.543	18264.38
778.878	18270.25
779.212	18324.94
779.547	18183.48
779.881	18365.62
780.215	18247.43
780.55	18294.66
780.884	18160.43
781.218	18178.28
781.552	18234.32
781.886	18190.48
782.22	18080.65
782.554	18078.39
782.888	18034.55
783.222	17999.3
783.556	17990.71
783.889	18018.96
784.223	17951.39
784.557	17879.98
784.89	18001.33
785.224	17796.59
785.557	17844.5
785.891	17799.76
786.224	17839.98
786.558	17865.97
786.891	17751.4
787.224	17653.32
787.557	17609.71
787.891	17699.42
788.224	17552.98
788.557	17639.76
788.89	17477.28
789.223	17550.5
789.556	17432.31
789.888	17409.71
790.221	17396.6
790.554	17228.47
790.887	17341.01
791.219	17265.31
791.552	17223.05
791.884	17179.21
792.217	17176.5
792.549	17197.51
792.882	17045.65
793.214	16919.33
793.546	16948.71
793.879	16881.59
794.211	16849.27
794.543	16930.18
794.875	16854.7
795.207	16927.01
795.539	16797.3
795.871	16810.18
796.203	16555.72
796.535	16544.88
796.867	16517.98
797.198	16544.88
797.53	16535.38
797.862	16442.96
798.193	16407.25
798.525	16380.81
798.856	16441.6
799.188	16259.01
799.519	16233.92
799.85	16156.19
800.182	16160.71
800.513	16145.11
800.844	16018.79
801.175	16038.9
801.506	16124.32
801.837	16024.89
802.168	15904.44
802.499	15931.78
802.83	15861.28
803.161	15682.98
803.491	15746.7
803.822	15755.74
804.153	15734.95
804.483	15579.7
804.814	15541.74
805.145	15624.9
805.475	15524.34
805.805	15476.66
806.136	15459.48
806.466	15434.62
806.796	15420.16
807.126	15260.84
807.457	15307.85
807.787	15269.88
808.117	15208.19
808.447	15221.52
808.777	15212.71
809.107	15144.23
809.436	15150.56
809.766	15113.27
810.096	14993.05
810.426	14990.34
810.755	15090.45
811.085	14958.93
811.414	14910.79
811.744	14773.62
812.073	14753.28
812.403	14814.75
812.732	14705.83
813.061	14727.3
813.39	14690.24
813.719	14690.91
814.049	14650.46
814.378	14698.14
814.707	14551.26
815.036	14495.21
815.365	14448.66
815.693	14286.18
816.022	14401.2
816.351	14368.66
816.68	14287.53
817.008	14276.23
817.337	14154.43
817.665	14177.03
817.994	14205.95
818.322	14230.81
818.651	14204.37
818.979	14033.98
819.307	14153.3
819.636	14196.91
819.964	14096.8
820.292	14069.91
820.62	14097.93
820.948	13958.96
821.276	13977.94
821.604	14049.12
821.932	14032.63
822.259	13988.11
822.587	13986.52
822.915	13933.87
823.243	13997.82
823.57	13897.49
823.898	13957.15
824.225	14005.28
824.553	13925.06
824.88	13946.53
825.207	13958.28
825.535	13951.72
825.862	13942.46
826.189	13925.74
826.516	14025.17
826.843	13971.84
827.17	13986.98
827.497	14060.42
827.824	13999.18
828.151	14090.02
828.478	14032.85
828.805	14086.86
829.131	13949.92
829.458	13994.43
829.785	13959.63
830.111	13999.41
830.438	14047.31
830.764	13957.15
831.09	14012.06
831.417	13934.32
831.743	14021.78
832.069	13977.26
832.395	13942.23
832.722	13955.79
833.048	13866.75
833.374	13920.54
833.7	13893.19
834.026	13835.57
834.351	13872.4
834.677	13869.92
835.003	13833.53
835.329	13864.95
835.654	13862.23
835.98	13706.31
836.306	13799.41
836.631	13729.36
836.956	13776.59
837.282	13794.21
837.607	13705.85
837.932	13733.65
838.258	13644.84
838.583	13634.9
838.908	13649.36
839.233	13683.71
839.558	13601.68
839.883	13539.98
840.208	13509.93
840.533	13505.18
840.858	13532.98
841.182	13485.75
841.507	13490.49
841.832	13411.85
842.156	13329.59
842.481	13356.71
842.805	13333.43
843.13	13299.31
843.454	13317.62
843.778	13229.93
844.103	13194.91
844.427	13184.96
844.751	13122.82
845.075	13153.1
845.399	13099.09
845.723	12893.67
846.047	13073.33
846.371	12913.56
846.695	12919.21
847.019	12831.75
847.343	12788.14
847.666	12715.37
847.99	12612.32
848.313	12635.37
848.637	12460.92
848.96	12519.44
849.284	12508.37
849.607	12415.94
849.931	12334.36
850.254	12246.01
850.577	12222.73
850.9	12131.21
851.223	12111.32
851.546	12109.74
851.869	11996.07
852.192	12062.28
852.515	11936.86
852.838	11912
853.161	11950.19
853.483	11857.54
853.806	11781.61
854.129	11782.97
854.451	11717.43
854.774	11703.65
855.096	11653.25
855.419	11596.98
855.741	11685.12
856.063	11529.87
856.385	11479.47
856.708	11465.69
857.03	11430.43
857.352	11453.48
857.674	11442.19
857.996	11322.87
858.318	11267.5
858.64	11278.8
858.961	11265.24
859.283	11187.28
859.605	11093.72
859.926	11204.23
860.248	11168.52
860.57	11049.43
860.891	11084.68
861.212	11030.67
861.534	11015.3
861.855	10949.09
862.176	10974.17
862.498	11060.73
862.819	10995.87
863.14	10929.88
863.461	10940.73
863.782	10865.93
864.103	10907.28
864.424	10863.22
864.745	10881.07
865.065	10821.86
865.386	10771.92
865.707	10693.73
866.027	10793.16
866.348	10752.94
866.668	10734.41
866.989	10661.87
867.309	10628.2
867.63	10664.13
867.95	10631.36
868.27	10530.8
868.59	10568.99
868.91	10503.68
869.23	10511.36
869.55	10467.75
869.87	10525.6
870.19	10447.18
870.51	10479.5
870.83	10500.74
871.15	10400.63
871.469	10450.57
871.789	10469.56
872.109	10373.96
872.428	10389.33
872.748	10387.75
873.067	10370.57
873.386	10332.84
873.706	10336.9
874.025	10336.68
874.344	10278.15
874.663	10327.64
874.982	10263.01
875.301	10296
875.62	10201.99
875.939	10231.37
876.258	10190.92
876.577	10156.57
876.896	10136.91
877.214	10104.14
877.533	10088.32
877.852	10118.15
878.17	10096.01
878.489	10095.55
878.807	10093.29
879.125	10044.93
879.444	10001.77
879.762	10036.35
880.08	9983.69
880.398	9931.04
880.716	9996.35
881.034	9921.1
881.352	9866.41
881.67	9879.74
881.988	9865.05
882.306	9855.33
882.624	9818.95
882.941	9805.39
883.259	9788.44
883.577	9743.7
883.894	9716.81
884.212	9702.8
884.529	9725.85
884.846	9675.45
885.164	9643.14
885.481	9598.84
885.798	9592.06
886.115	9557.71
886.432	9530.37
886.75	9526.53
887.067	9565.17
887.383	9445.4
887.7	9455.34
888.017	9397.94
888.334	9464.16
888.651	9411.73
888.967	9481.33
889.284	9389.36
889.6	9292.19
889.917	9277.95
890.233	9305.97
890.55	9208.57
890.866	9242.69
891.182	9176.03
891.498	9152.98
891.815	9144.84
892.131	9086.77
892.447	9006.32
892.763	9060.78
893.079	9070.04
893.395	8945.08
893.71	8942.59
894.026	8995.7
894.342	8874.34
894.657	8824.4
894.973	8836.83
895.289	8777.85
895.604	8782.82
895.92	8658.98
896.235	8692.88
896.55	8658.98
896.865	8677.74
897.181	8628.7
897.496	8607.68
897.811	8661.92
898.126	8615.59
898.441	8453.56
898.756	8472.77
899.071	8503.51
899.386	8468.7
899.7	8394.36
900.015	8359.55
900.33	8241.82
900.644	8261.25
900.959	8320.91
901.273	8281.59
901.588	8154.59
901.902	8221.03
902.216	8222.38
902.531	8173.34
902.845	8071.88
903.159	8062.16
903.473	8087.47
903.787	7955.27
904.101	7911.2
904.415	7964.31
904.729	7905.33
905.042	7837.08
905.356	7845.67
905.67	7821.94
905.984	7832.56
906.297	7741.94
906.611	7733.36
906.924	7749.63
907.237	7631.89
907.551	7706.24
907.864	7615.84
908.177	7585.79
908.491	7626.47
908.804	7527.03
909.117	7520.25
909.43	7421.95
909.743	7482.29
910.056	7388.51
910.368	7359.35
910.681	7336.3
910.994	7283.88
911.307	7251.11
911.619	7223.54
911.932	7203.43
912.244	7151.68
912.557	7187.83
912.869	7120.72
913.181	7075.75
913.494	7003.21
913.806	7023.77
914.118	7006.14
914.43	6969.76
914.742	6964.34
915.054	6927.73
915.366	6873.72
915.678	6827.17
915.99	6838.69
916.302	6827.17
916.613	6858.12
916.925	6824
917.236	6699.26
917.548	6729.77
917.859	6671.24
918.171	6689.77
918.482	6594.85
918.794	6572.03
919.105	6571.13
919.416	6537.68
919.727	6497.46
920.038	6443.22
920.349	6450.68
920.66	6461.53
920.971	6422.43
921.282	6385.37
921.593	6341.3
921.903	6302.89
922.214	6294.3
922.525	6306.05
922.835	6269.67
923.146	6253.39
923.456	6226.5
923.767	6231.47
924.077	6111.93
924.387	6102.89
924.697	6158.48
925.008	6064.93
925.318	5999.62
925.628	6062.89
925.938	6022.67
926.248	5946.28
926.558	5894.08
926.867	5950.58
927.177	5932.73
927.487	5886.17
927.796	5821.32
928.106	5816.57
928.416	5833.07
928.725	5758.27
929.034	5747.87
929.344	5701.55
929.653	5697.7
929.962	5676.01
930.271	5661.32
930.581	5618.61
930.89	5599.4
931.199	5577.03
931.508	5580.19
931.817	5591.72
932.125	5543.58
932.434	5511.04
932.743	5438.73
933.051	5492.28
933.36	5440.53
933.669	5377.26
933.977	5392.85
934.286	5338.84
934.594	5367.54
934.902	5325.96
935.21	5296.36
935.519	5249.35
935.827	5194.44
936.135	5241.9
936.443	5182.24
936.751	5146.08
937.059	5184.95
937.367	5142.01
937.674	5156.7
937.982	5105.18
938.29	5067.44
938.597	5039.87
938.905	5015.01
939.213	5020.43
939.52	5030.15
939.827	4968.23
940.135	4953.09
940.442	4897.5
940.749	4921.9
941.056	4941.79
941.363	4828.12
941.67	4815.24
941.977	4766.88
942.284	4793.32
942.591	4765.52
942.898	4733.66
943.205	4768.91
943.511	4701.8
943.818	4670.61
944.125	4699.99
944.431	4671.74
944.738	4618.41
945.044	4614.12
945.35	4596.26
945.657	4568.24
945.963	4525.98
946.269	4487.34
946.575	4510.39
946.881	4516.94
947.187	4468.36
947.493	4445.31
947.799	4424.74
948.105	4392.43
948.41	4389.49
948.716	4363.73
949.022	4388.59
949.327	4321.69
949.633	4291.64
949.938	4312.65
950.244	4305.42
950.549	4283.96
950.854	4280.34
951.16	4268.59
951.465	4225.2
951.77	4178.87
952.075	4162.6
952.38	4180.68
952.685	4156.73
952.99	4080.8
953.294	4095.26
953.599	4074.47
953.904	4027.92
954.209	4043.28
954.513	3963.74
954.818	4018.88
955.122	4012.78
955.426	3989.5
955.731	3927.81
956.035	3946.11
956.339	3925.55
956.643	3911.76
956.948	3878.77
957.252	3868.37
957.556	3845.55
957.86	3814.81
958.163	3834.48
958.467	3788.15
958.771	3794.48
959.075	3791.31
959.378	3771.2
959.682	3728.72
959.985	3730.98
960.289	3713.35
960.592	3716.96
960.896	3696.63
961.199	3679
961.502	3661.82
961.805	3639.9
962.108	3604.43
962.411	3606.46
962.714	3593.35
963.017	3581.15
963.32	3567.14
963.623	3566.91
963.926	3565.33
964.228	3518.33
964.531	3492.11
964.833	3498.67
965.136	3453.92
965.438	3461.6
965.741	3444.2
966.043	3408.5
966.345	3403.07
966.648	3397.65
966.95	3391.55
967.252	3363.08
967.554	3355.84
967.856	3355.39
968.158	3283.98
968.46	3319.91
968.761	3338.22
969.063	3267.03
969.365	3262.29
969.666	3263.42
969.968	3213.47
970.269	3207.83
970.571	3224.77
970.872	3201.27
971.174	3212.34
971.475	3157.21
971.776	3181.16
972.077	3152.23
972.378	3123.76
972.679	3104.78
972.98	3130.54
973.281	3128.51
973.582	3087.6
973.883	3053.71
974.183	3025.68
974.484	3043.99
974.785	3020.49
975.085	3018.9
975.386	3013.71
975.686	2982.29
975.986	2968.74
976.287	2952.46
976.587	2959.24
976.887	2912.24
977.187	2971.9
977.487	2896.65
977.787	2890.32
978.087	2901.84
978.387	2858.46
978.687	2847.83
978.987	2805.35
979.286	2832.47
979.586	2811.23
979.885	2758.12
980.185	2788.63
980.484	2766.93
980.784	2740.49
981.083	2752.24
981.382	2757.67
981.682	2745.24
981.981	2722.64
982.28	2666.37
982.579	2688.29
982.878	2719.7
983.177	2677.9
983.475	2670.21
983.774	2675.64
984.073	2628.41
984.372	2627.5
984.67	2602.87
984.969	2602.64
985.267	2610.55
985.566	2586.82
985.864	2536.2
986.162	2568.07
986.461	2544.34
986.759	2535.98
987.057	2492.14
987.355	2487.62
987.653	2494.62
987.951	2495.08
988.249	2473.38
988.547	2463.44
988.844	2443.33
989.142	2434.74
989.44	2437.22
989.737	2384.8
990.035	2391.35
990.332	2422.31
990.63	2350.45
990.927	2381.63
991.224	2350.67
991.521	2342.09
991.819	2357.68
992.116	2356.32
992.413	2319.94
992.71	2262.99
993.006	2311.8
993.303	2287.62
993.6	2316.78
993.897	2277.68
994.193	2256.89
994.49	2240.62
994.787	2232.48
995.083	2246.27
995.379	2207.63
995.676	2190.9
995.972	2171.24
996.268	2161.07
996.565	2174.41
996.861	2145.48
997.157	2159.04
997.453	2138.93
997.749	2121.75
998.044	2123.56
998.34	2113.39
998.636	2111.81
998.932	2082.21
999.227	2090.57
999.523	2049.89
999.818	2049.89
1000.114	1993.17
1000.409	2032.71
1000.704	2022.55
1001	1995.2
1001.295	1988.2
1001.59	1993.85
1001.885	1951.59
1002.18	1972.38
1002.475	1940.74
1002.77	1936.22
1003.065	1931.47
1003.359	1929.89
1003.654	1936.45
1003.949	1871.82
1004.243	1877.24
1004.538	1881.31
1004.832	1885.37
1005.127	1861.65
1005.421	1862.32
1005.715	1868.65
1006.009	1843.57
1006.304	1831.14
1006.598	1794.53
1006.892	1806.05
1007.186	1782.78
1007.48	1780.97
1007.773	1755.66
1008.067	1784.13
1008.361	1728.54
1008.655	1739.16
1008.948	1749.33
1009.242	1728.32
1009.535	1733.06
1009.829	1723.34
1010.122	1680.18
1010.415	1680.86
1010.708	1674.31
1011.001	1653.29
1011.295	1655.55
1011.588	1633.18
1011.881	1638.38
1012.173	1607.64
1012.466	1617.13
1012.759	1624.36
1013.052	1562.9
1013.344	1586.4
1013.637	1600.41
1013.93	1529.45
1014.222	1562.67
1014.514	1528.1
1014.807	1523.12
1015.099	1492.16
1015.391	1505.5
1015.683	1522.9
1015.976	1505.27
1016.268	1463.69
1016.56	1459.62
1016.851	1466.4
1017.143	1481.77
1017.435	1439.74
1017.727	1409.23
1018.018	1438.15
1018.31	1457.59
1018.602	1429.11
1018.893	1407.65
1019.185	1405.16
1019.476	1396.57
1019.767	1389.79
1020.058	1364.48
1020.35	1371.26
1020.641	1378.27
1020.932	1378.95
1021.223	1327.42
1021.514	1351.38
1021.804	1338.72
1022.095	1323.13
1022.386	1309.34
1022.677	1314.09
1022.967	1304.37
1023.258	1278.61
1023.548	1267.76
1023.839	1277.71
1024.129	1232.74
1024.419	1229.57
1024.709	1258.95
1025	1226.63
1025.29	1223.24
1025.58	1190.48
1025.87	1234.77
1026.16	1198.84
1026.449	1194.54
1026.739	1178.73
1027.029	1178.95
1027.319	1172.85
1027.608	1163.81
1027.898	1183.02
1028.187	1136.24
1028.477	1121.55
1028.766	1145.73
1029.055	1137.37
1029.344	1132.4
1029.634	1124.04
1029.923	1102.12
1030.212	1118.61
1030.501	1091.72
1030.79	1095.34
1031.078	1084.04
1031.367	1063.25
1031.656	1049.46
1031.945	1049.69
1032.233	1049.92
1032.522	1060.31
1032.81	1047.2
1033.099	1057.15
1033.387	1018.28
1033.675	1023.7
1033.963	1012.85
1034.251	1019.63
1034.54	998.84
1034.828	990.03
1035.116	960.65
1035.403	998.17
1035.691	986.64
1035.979	983.48
1036.267	979.86
1036.554	960.2
1036.842	962.91
1037.129	940.99
1037.417	914.1
1037.704	925.17
1037.992	938.96
1038.279	925.17
1038.566	925.85
1038.853	925.85
1039.14	925.85
