Data from hue_00_FLMS001491_22.txt Node
Date: Mon Feb 06 15:29:28 GMT 2017
User: dcchb
Spectrometer: FLMS00149
Trigger mode: 0
Integration Time (sec): 2.000000E-2
Scans to average: 10
Electric dark correction enabled: true
Nonlinearity correction enabled: false
Boxcar width: 0
XAxis mode: Wavelengths
Number of Pixels in Spectrum: 2048
>>>>>Begin Spectral Data<<<<<
341.393	-19.15
341.776	-19.15
342.16	-19.15
342.543	-59.6
342.927	-40.85
343.31	-70
343.693	-62.77
344.077	-61.64
344.46	-81.52
344.843	-46.5
345.226	-45.82
345.61	-31.13
345.993	-24.58
346.376	7.74
346.759	7.29
347.142	36.21
347.525	22.65
347.908	49.55
348.291	88.87
348.674	113.27
349.057	98.36
349.44	117.34
349.823	134.29
350.206	164.8
350.588	208.86
350.971	223.78
351.354	221.75
351.737	236.43
352.119	249.32
352.502	289.54
352.884	264.91
353.267	268.75
353.65	303.55
354.032	308.3
354.414	297
354.797	319.6
355.179	330.22
355.562	336.32
355.944	352.82
356.326	314.62
356.709	341.29
357.091	348.97
357.473	331.12
357.855	342.42
358.238	352.14
358.62	346.49
359.002	329.54
359.384	318.47
359.766	332.48
360.148	352.36
360.53	347.17
360.912	320.27
361.294	344.68
361.676	332.03
362.057	323.44
362.439	327.96
362.821	324.57
363.203	329.09
363.584	325.02
363.966	328.41
364.348	318.24
364.729	339.48
365.111	308.97
365.493	327.73
365.874	331.8
366.256	326.83
366.637	297.22
367.019	315.75
367.4	294.29
367.781	305.13
368.163	309.43
368.544	325.92
368.925	301.52
369.306	308.07
369.688	317.11
370.069	320.95
370.45	312.59
370.831	305.81
371.212	294.74
371.593	310.56
371.974	318.24
372.355	301.97
372.736	319.82
373.117	328.86
373.498	311.69
373.879	329.31
374.26	330.22
374.641	325.47
375.021	304.23
375.402	311.46
375.783	340.61
376.163	320.5
376.544	328.41
376.925	329.31
377.305	336.09
377.686	333.38
378.066	315.53
378.447	304
378.827	316.21
379.208	334.74
379.588	324.79
379.968	321.86
380.349	314.17
380.729	324.79
381.109	339.03
381.489	334.51
381.87	312.36
382.25	339.71
382.63	342.42
383.01	338.58
383.39	351.23
383.77	342.19
384.15	343.1
384.53	345.58
384.91	347.62
385.29	329.31
385.67	355.75
386.049	362.31
386.429	335.87
386.809	362.76
387.189	318.92
387.568	343.1
387.948	337.9
388.328	339.48
388.707	345.36
389.087	344.23
389.466	358.69
389.846	346.94
390.225	367.96
390.605	351.23
390.984	359.37
391.363	370.89
391.743	358.47
392.122	356.66
392.501	375.87
392.881	366.6
393.26	372.25
393.639	389.65
394.018	371.57
394.397	369.76
394.776	372.48
395.155	373.38
395.534	386.71
395.913	355.08
396.292	389.42
396.671	394.17
397.05	377.22
397.429	385.36
397.808	387.39
398.186	389.65
398.565	379.71
398.944	368.41
399.323	391.91
399.701	388.29
400.08	402.53
400.458	401.63
400.837	393.94
401.215	407.5
401.594	382.87
401.972	404.57
402.351	405.24
402.729	400.5
403.107	411.57
403.486	403.89
403.864	405.47
404.242	396.43
404.62	402.76
404.999	406.37
405.377	405.24
405.755	397.11
406.133	406.15
406.511	419.93
406.889	414.51
407.267	428.75
407.645	444.11
408.023	435.98
408.401	413.15
408.779	445.69
409.156	427.16
409.534	439.59
409.912	442.98
410.29	451.12
410.667	441.4
411.045	469.42
411.422	459.71
411.8	437.79
412.178	440.5
412.555	474.62
412.933	452.02
413.31	450.89
413.687	468.74
414.065	475.07
414.442	482.3
414.819	476.43
415.197	480.04
415.574	483.89
415.951	477.78
416.328	498.12
416.705	486.82
417.082	509.42
417.46	474.62
417.837	504.45
418.214	491.12
418.591	500.16
418.967	501.06
419.344	518.01
419.721	508.74
420.098	495.18
420.475	534.96
420.852	516.88
421.228	524.79
421.605	536.31
421.982	523.66
422.358	536.77
422.735	547.39
423.111	546.26
423.488	559.36
423.864	560.49
424.241	556.65
424.617	556.65
424.994	573.15
425.37	566.14
425.746	566.14
426.123	568.4
426.499	557.33
426.875	594.39
427.251	568.18
427.627	587.61
428.003	614.05
428.379	589.65
428.756	566.37
429.132	576.99
429.507	605.24
429.883	611.79
430.259	617.22
430.635	630.55
431.011	630.55
431.387	633.03
431.763	650.21
432.138	647.5
432.514	647.95
432.89	647.5
433.265	656.08
433.641	669.19
434.016	669.19
434.392	684.78
434.767	686.14
435.143	669.42
435.518	683.88
435.894	708.51
436.269	682.07
436.644	693.37
437.02	685.01
437.395	699.93
437.77	692.02
438.145	735.4
438.52	747.38
438.895	718.91
439.271	748.51
439.646	739.25
440.021	751.68
440.395	754.39
440.77	750.55
441.145	735.18
441.52	775.4
441.895	760.94
442.27	750.55
442.645	761.62
443.019	780.15
443.394	785.57
443.769	789.87
444.143	798.68
444.518	787.61
444.892	797.55
445.267	778.12
445.641	826.25
446.016	804.78
446.39	832.13
446.764	812.92
447.139	823.54
447.513	804.33
447.887	816.53
448.262	845.23
448.636	846.81
449.01	841.39
449.384	847.49
449.758	833.93
450.132	869.86
450.506	876.19
450.88	851.11
451.254	863.31
451.628	851.11
452.002	871.9
452.376	893.37
452.75	912.12
453.123	889.3
453.497	917.09
453.871	910.32
454.244	913.25
454.618	929.3
454.992	936.98
455.365	953.25
455.739	931.11
456.112	957.55
456.486	967.94
456.859	963.42
457.232	956.19
457.606	995.96
457.979	1006.58
458.352	1014.49
458.725	1044.55
459.099	1036.64
459.472	1047.26
459.845	1037.32
460.218	1045.68
460.591	1068.05
460.964	1080.03
461.337	1086.13
461.71	1101.04
462.083	1091.33
462.456	1110.31
462.829	1124.77
463.201	1126.13
463.574	1154.38
463.947	1147.37
464.32	1166.58
464.692	1186.01
465.065	1175.62
465.438	1206.13
465.81	1217.88
466.183	1251.1
466.555	1283.41
466.928	1251.1
467.3	1270.98
467.672	1289.97
468.045	1292.45
468.417	1309.17
468.789	1315.5
469.161	1378.55
469.534	1356.86
469.906	1376.52
470.278	1400.02
470.65	1396.18
471.022	1441.83
471.394	1453.35
471.766	1472.11
472.138	1470.53
472.51	1506.01
472.882	1516.63
473.253	1552.11
473.625	1595.95
473.997	1591.88
474.369	1602.05
474.74	1626.91
475.112	1655.15
475.484	1703.74
475.855	1708.03
476.227	1727.02
476.598	1762.72
476.97	1791.2
477.341	1811.08
477.713	1872.55
478.084	1878.65
478.455	1948.93
478.827	1958.65
479.198	2003.17
479.569	2028.7
479.94	2073
480.311	2070.96
480.682	2116.61
481.053	2135.14
481.424	2211.52
481.795	2169.72
482.166	2280.22
482.537	2305.98
482.908	2339.43
483.279	2370.84
483.65	2394.34
484.021	2482.25
484.391	2461.69
484.762	2510.72
485.133	2540.33
485.503	2585.53
485.874	2626.65
486.244	2663.94
486.615	2696.26
486.985	2767.89
487.356	2824.39
487.726	2840.21
488.097	2898.74
488.467	2892.41
488.837	2978.96
489.207	2959.53
489.578	3020.77
489.948	3084.27
490.318	3093.99
490.688	3157.71
491.058	3168.79
491.428	3270.03
491.798	3245.17
492.168	3304.15
492.538	3363.81
492.908	3403.36
493.278	3418.72
493.648	3443.36
494.017	3473.41
494.387	3496.01
494.757	3541.88
495.126	3586.4
495.496	3607.42
495.866	3607.65
496.235	3702.56
496.605	3710.24
496.974	3750.24
497.344	3728.32
497.713	3788.66
498.082	3772.84
498.452	3801.54
498.821	3858.26
499.19	3900.74
499.559	3950.24
499.928	3925.83
500.298	3961.99
500.667	3994.53
501.036	4014.64
501.405	4035.2
501.774	4051.25
502.143	4096.45
502.512	4088.76
502.88	4121.76
503.249	4214.41
503.618	4173.51
503.987	4175.31
504.356	4227.52
504.724	4263.45
505.093	4291.02
505.462	4269.1
505.83	4307.74
506.199	4304.35
506.567	4379.83
506.936	4382.54
507.304	4406.04
507.672	4411.01
508.041	4440.17
508.409	4459.6
508.777	4463.89
509.145	4544.12
509.514	4527.17
509.882	4542.31
510.25	4586.38
510.618	4618.24
510.986	4568.75
511.354	4625.25
511.722	4695.98
512.09	4701.85
512.458	4691.68
512.826	4683.55
513.193	4731.91
513.561	4777.56
513.929	4779.82
514.297	4789.54
514.664	4820.95
515.032	4821.17
515.4	4827.73
515.767	4933.94
516.135	4929.64
516.502	4885.35
516.869	4927.16
517.237	4959.25
517.604	4969.42
517.972	5001.96
518.339	5018.23
518.706	5029.08
519.073	5007.83
519.44	5040.6
519.808	5093.48
520.175	5102.75
520.542	5138.68
520.909	5153.37
521.276	5146.59
521.643	5218.68
522.009	5232.69
522.376	5280.37
522.743	5274.72
523.11	5285.79
523.477	5393.81
523.843	5388.16
524.21	5422.06
524.577	5436.75
524.943	5427.03
525.31	5459.35
525.676	5490.76
526.043	5532.57
526.409	5571.44
526.776	5601.94
527.142	5589.29
527.508	5648.27
527.874	5687.14
528.241	5702.28
528.607	5689.17
528.973	5781.15
529.339	5733.92
529.705	5835.61
530.071	5834.93
530.437	5873.57
530.803	5911.54
531.169	5986.79
531.535	5966.68
531.901	6012.33
532.267	5989.5
532.632	6041.71
532.998	6047.13
533.364	6068.15
533.73	6125.55
534.095	6077.64
534.461	6174.58
534.826	6178.2
535.192	6182.49
535.557	6236.05
535.923	6216.39
536.288	6269.04
536.653	6309.04
537.019	6322.38
537.384	6316.5
537.749	6373.9
538.114	6402.37
538.479	6453.45
538.845	6405.99
539.21	6465.2
539.575	6461.58
539.94	6493.67
540.305	6527.57
540.67	6546.1
541.034	6586.32
541.399	6675.81
541.764	6606.89
542.129	6681.46
542.494	6662.03
542.858	6719.43
543.223	6697.96
543.587	6810.95
543.952	6717.17
544.316	6807.11
544.681	6746.09
545.045	6866.32
545.41	6903.15
545.774	6907.9
546.138	6909.03
546.503	7013.43
546.867	7025.63
547.231	6987.67
547.595	7021.11
547.959	7035.13
548.324	7108.8
548.688	7135.46
549.052	7144.05
549.416	7099.76
549.779	7200.32
550.143	7128.91
550.507	7266.76
550.871	7283.25
551.235	7294.78
551.599	7319.19
551.962	7390.37
552.326	7416.36
552.689	7420.43
553.053	7372.29
553.417	7389.69
553.78	7496.13
554.143	7433.53
554.507	7556.24
554.87	7526.19
555.234	7621.33
555.597	7525.96
555.96	7564.83
556.323	7637.14
556.686	7678.72
557.05	7675.56
557.413	7770.93
557.776	7693.87
558.139	7731.38
558.502	7825.39
558.865	7784.71
559.228	7864.93
559.59	7879.85
559.953	7897.93
560.316	7930.02
560.679	7906.52
561.041	8034.42
561.404	8006.85
561.767	8060.41
562.129	8045.49
562.492	8113.74
562.854	8152.16
563.217	8102.44
563.579	8206.17
563.941	8252.04
564.304	8207.98
564.666	8298.82
565.028	8298.82
565.39	8328.65
565.753	8313.96
566.115	8398.03
566.477	8482.55
566.839	8466.05
567.201	8521.41
567.563	8482.09
567.925	8556.67
568.287	8574.52
568.648	8676.66
569.01	8650
569.372	8697.91
569.734	8679.6
570.095	8771.8
570.457	8770.9
570.819	8856.09
571.18	8819.03
571.542	8929.99
571.903	8888.64
572.265	9043.43
572.626	9032.36
572.987	9009.99
573.349	9105.58
573.71	9159.14
574.071	9202.53
574.432	9229.64
574.794	9296.99
575.155	9304.44
575.516	9357.78
575.877	9439.81
576.238	9568.17
576.599	9583.99
576.96	9672.12
577.32	9742.85
577.681	9837.09
578.042	9865.56
578.403	9956.86
578.763	10015.61
579.124	10106.91
579.485	10256.28
579.845	10259.9
580.206	10383.96
580.566	10503.28
580.927	10613.11
581.287	10784.86
581.648	10867.57
582.008	10998.86
582.368	11084.51
582.728	11187.78
583.089	11405.41
583.449	11477.27
583.809	11698.96
584.169	11864.15
584.529	11971.72
584.889	12198.38
585.249	12335.55
585.609	12473.17
585.969	12823
586.329	12901.41
586.688	13127.17
587.048	13278.13
587.408	13531
587.768	13714.95
588.127	13917.2
588.487	14169.63
588.846	14441.71
589.206	14609.16
589.565	14840.57
589.925	15097.51
590.284	15367.56
590.643	15542.7
591.003	15883.48
591.362	16200.08
591.721	16439.17
592.08	16588.77
592.44	17031.25
592.799	17268.98
593.158	17484.12
593.517	17773.15
593.876	18097.89
594.235	18364.09
594.593	18674.59
594.952	18956.62
595.311	19220.12
595.67	19533.1
596.029	19842.47
596.387	20141.67
596.746	20424.6
597.104	20604.03
597.463	20908.43
597.822	21361.08
598.18	21507.06
598.538	21783.89
598.897	22238.79
599.255	22343.65
599.613	23036.29
599.972	23162.39
600.33	23473.11
600.688	23560.34
601.046	23916.04
601.404	24254.79
601.762	24456.14
602.12	24827.2
602.478	25094.99
602.836	25376.34
603.194	25577.92
603.552	25819.94
603.91	26042.54
604.268	26394.16
604.625	26500.15
604.983	26938.33
605.341	27075.05
605.698	27528.15
606.056	27721.59
606.413	27909.15
606.771	28268.47
607.128	28412.19
607.485	28559.53
607.843	28799.3
608.2	29095.56
608.557	29394.99
608.914	29467.3
609.272	29953.17
609.629	30033.39
609.986	30469.09
610.343	30445.58
610.7	30906.14
611.057	30968.96
611.414	31075.62
611.771	31396.52
612.127	31685.78
612.484	31745.89
612.841	32068.14
613.198	32137.06
613.554	32310.62
613.911	32701.8
614.267	32764.84
614.624	32801.23
614.98	33052.97
615.337	33468.78
615.693	33435.11
616.05	33369.35
616.406	33821.09
616.762	33947.41
617.118	33985.15
617.475	34262.21
617.831	34409.1
618.187	34586.27
618.543	34724.79
618.899	35128.85
619.255	35157.78
619.611	35103.54
619.967	35263.99
620.323	35607.93
620.678	35571.32
621.034	35530.87
621.39	35727.93
621.746	35730.42
622.101	36242.95
622.457	35930.86
622.812	36157.07
623.168	36285.2
623.523	36487.68
623.879	36602.26
624.234	36347.58
624.589	36727.23
624.945	36779.65
625.3	36866.66
625.655	36917.96
626.01	37033.88
626.365	37210.38
626.72	37125.86
627.075	37223.48
627.43	37341.67
627.785	37262.58
628.14	37363.37
628.495	37573.98
628.85	37344.16
629.205	37444.95
629.559	37611.04
629.914	37546.64
630.269	37535.57
630.623	37498.51
630.978	37439.07
631.332	37725.39
631.687	37819.85
632.041	37586.64
632.396	37771.94
632.75	37672.29
633.104	37800.19
633.459	37594.32
633.813	37596.36
634.167	37872.06
634.521	37740.31
634.875	37921.32
635.229	37774.43
635.583	37624.83
635.937	37677.71
636.291	37733.53
636.645	37856.69
636.999	37758.61
637.352	37866.41
637.706	37721.78
638.06	37820.53
638.413	37820.76
638.767	37639.07
639.121	37870.93
639.474	37587.54
639.828	37705.73
640.181	37778.72
640.534	37705.73
640.888	37640.2
641.241	37483.14
641.594	37638.61
641.947	37728.56
642.301	37806.29
642.654	37692.85
643.007	37756.58
643.36	37662.8
643.713	37479.52
644.066	37820.98
644.419	37509.8
644.771	37320.43
645.124	36987.78
645.477	37006.54
645.83	36760.9
646.182	36624.86
646.535	36539.89
646.888	36643.16
647.24	36513.22
647.593	36578.08
647.945	36581.02
648.298	36313.68
648.65	36374.92
649.002	36375.82
649.355	36362.04
649.707	36383.28
650.059	36534.46
650.411	36948.01
650.763	37044.28
651.115	37367.66
651.467	37226.42
651.819	37293.99
652.171	37114.56
652.523	37087.22
652.875	37189.59
653.227	36878.18
653.578	37269.36
653.93	37296.93
654.282	37006.54
654.633	36826.66
654.985	37005.86
655.337	36887.67
655.688	36943.27
656.039	37060.78
656.391	36785.53
656.742	36890.16
657.094	36752.76
657.445	37042.25
657.796	36853.1
658.147	36810.84
658.498	36865.53
658.849	37023.26
659.2	36952.08
659.551	36947.79
659.902	36904.62
660.253	36920.44
660.604	36910.95
660.955	36791.18
661.306	36922.25
661.656	36772.42
662.007	36802.93
662.358	36785.98
662.708	36731.52
663.059	36692.65
663.409	36634.8
663.76	36843.38
664.11	36759.54
664.461	36812.2
664.811	36869.14
665.161	36870.73
665.511	36754.12
665.862	36671.18
666.212	36999.08
666.562	36786.43
666.912	36874.12
667.262	36752.76
667.612	36709.15
667.962	36767.23
668.312	36692.43
668.662	36891.97
669.011	36712.09
669.361	36936.49
669.711	36601.81
670.06	36593.9
670.41	36470.96
670.76	36570.62
671.109	36683.84
671.459	36737.17
671.808	36563.39
672.157	36664.86
672.507	36393.45
672.856	36440.45
673.205	36582.6
673.554	36665.53
673.904	36453.11
674.253	36762.48
674.602	36539.89
674.951	36019.67
675.3	35816.74
675.649	36348.03
675.998	36417.18
676.346	36281.59
676.695	36397.07
677.044	36174.7
677.393	36303.96
677.741	36415.82
678.09	36324.75
678.438	36063.97
678.787	36181.03
679.135	36162.04
679.484	36096.06
679.832	36184.19
680.181	35827.82
680.529	35937.42
680.877	36014.7
681.225	35943.74
681.573	36077.53
681.922	35862.39
682.27	35734.03
682.618	35688.84
682.966	35753.24
683.314	35715.73
683.661	35736.07
684.009	35483.87
684.357	35378.11
684.705	35229.41
685.053	35401.16
685.4	35228.06
685.748	35124.78
686.095	35320.94
686.443	35049.08
686.79	35072.81
687.138	35260.37
687.485	35024.9
687.832	34827.16
688.18	35023.09
688.527	34751.01
688.874	34731.35
689.221	34729.31
689.568	34673.72
689.915	34636.21
690.262	34556.66
690.609	34494.06
690.956	34328.19
691.303	34364.8
691.65	34211.36
691.997	34153.06
692.344	33955.55
692.69	33964.59
693.037	33868.32
693.383	33575.22
693.73	33801.65
694.077	33545.16
694.423	33520.76
694.769	33406.41
695.116	33296.81
695.462	33220.43
695.808	33215.68
696.155	33316.47
696.501	32899.76
696.847	33031.73
697.193	32782.7
697.539	32987.66
697.885	32742.02
698.231	32542.48
698.577	32644.17
698.923	32579.09
699.269	32431.29
699.614	32331.86
699.96	32290.73
700.306	32343.39
700.651	32177.97
700.997	32055.71
701.342	32016.84
701.688	31984.98
702.033	31794.02
702.379	31737.08
702.724	31555.38
703.069	31795.38
703.415	31464.77
703.76	31467.25
704.105	31486.23
704.45	31394.71
704.795	31215.28
705.14	31042.4
705.485	30995.63
705.83	31102.97
706.175	31021.39
706.52	30979.13
706.865	30800.83
707.209	30704.56
707.554	30589.31
707.899	30710.66
708.243	30557.9
708.588	30517.9
708.932	30366.72
709.277	30319.49
709.621	30283.33
709.966	29957.01
710.31	30132.15
710.654	29897.35
710.998	29999.72
711.342	30014.41
711.687	29866.62
712.031	29743.68
712.375	29669.78
712.719	29769.9
713.063	29475.21
713.407	29793.62
713.75	29418.94
714.094	29454.65
714.438	29357.93
714.782	29483.8
715.125	29300.98
715.469	29252.17
715.812	29129.69
716.156	28983.02
716.499	28926.53
716.843	28976.92
717.186	28750.71
717.53	28991.84
717.873	28863.93
718.216	28788.23
718.559	28667.33
718.902	28502.36
719.246	28695.12
719.589	28608.57
719.932	28566.54
720.275	28490.38
720.617	28498.97
720.96	28482.25
721.303	28403.38
721.646	28356.83
721.989	28127.9
722.331	28324.74
722.674	28195.25
723.016	28150.95
723.359	28144.85
723.701	28186.89
724.044	27932.88
724.386	27764.07
724.729	27940.79
725.071	27809.49
725.413	27822.38
725.755	27743.73
726.097	27676.84
726.439	27516.85
726.782	27522.72
727.124	27726.56
727.465	27457.19
727.807	27414.25
728.149	27387.81
728.491	27470.97
728.833	27342.61
729.175	27270.75
729.516	27207.7
729.858	27228.49
730.199	27288.38
730.541	27187.82
730.882	27210.87
731.224	27233.24
731.565	27047.03
731.906	27050.19
732.248	26966.58
732.589	26896.75
732.93	26880.03
733.271	26853.81
733.612	26901.5
733.953	26848.84
734.294	26721.84
734.635	26750.77
734.976	26684.33
735.317	26611.56
735.658	26629.41
735.999	26544.44
736.339	26457.67
736.68	26649.98
737.021	26501.05
737.361	26426.93
737.702	26529.75
738.042	26424.45
738.383	26272.59
738.723	26383.32
739.063	26282.76
739.404	26321.17
739.744	26067.85
740.084	26099.71
740.424	26154.4
740.764	26041.41
741.104	26133.15
741.444	25832.82
741.784	25836.44
742.124	25876.44
742.464	25888.87
742.804	25645.26
743.143	25795.54
743.483	25677.57
743.823	25598.93
744.162	25519.84
744.502	25646.61
744.841	25525.04
745.181	25627.63
745.52	25517.58
745.86	25480.97
746.199	25489.78
746.538	25378.37
746.877	25445.72
747.216	25476.22
747.556	25363.23
747.895	25330.69
748.234	25248.66
748.573	25238.94
748.911	25143.35
749.25	25206.63
749.589	25202.33
749.928	25138.15
750.267	25188.32
750.605	24995.33
750.944	24955.33
751.283	24969.34
751.621	24964.6
751.96	24711.27
752.298	24753.76
752.636	24845.05
752.975	24702.68
753.313	24602.8
753.651	24726.41
753.989	24542.46
754.327	24555.12
754.666	24338.17
755.004	24325.74
755.342	24370.94
755.679	24402.13
756.017	24128.46
756.355	24337.04
756.693	24132.98
757.031	24209.82
757.368	24053.66
757.706	23996.26
758.044	23968.01
758.381	23910.39
758.719	23883.27
759.056	23891.63
759.394	23737.51
759.731	23665.2
760.068	23640.11
760.405	23502.04
760.743	23556.27
761.08	23408.25
761.417	23340.01
761.754	23346.34
762.091	23361.48
762.428	23178.2
762.765	23043.97
763.102	23133.91
763.438	23006.46
763.775	22806.91
764.112	22898.44
764.449	22960.58
764.785	22758.55
765.122	22620.48
765.458	22606.24
765.795	22552.01
766.131	22594.49
766.467	22361.73
766.804	22336.19
767.14	22196.54
767.476	22278.34
767.812	22187.27
768.148	22149.3
768.485	22115.41
768.821	21846.71
769.157	21771.69
769.492	21844.45
769.828	21808.07
770.164	21600.62
770.5	21503.22
770.836	21541.41
771.171	21412.37
771.507	21263.9
771.842	21184.58
772.178	21276.11
772.513	21133.29
772.849	21043.34
773.184	21007.64
773.519	21063.46
773.855	20820.53
774.19	20707.31
774.525	20746.63
774.86	20696.46
775.195	20665.28
775.53	20528.78
775.865	20402.68
776.2	20198.85
776.535	20239.98
776.87	20162.24
777.205	20098.06
777.539	20076.82
777.874	19997.95
778.209	19895.8
778.543	19804.73
778.878	19637.51
779.212	19612.2
779.547	19536.72
779.881	19657.62
780.215	19534.46
780.55	19522.03
780.884	19326.55
781.218	19354.8
781.552	19275.03
781.886	19203.85
782.22	19129.95
782.554	19066.45
782.888	18931.76
783.222	18877.98
783.556	18714.82
783.889	18760.92
784.223	18540.81
784.557	18567.03
784.89	18516.41
785.224	18390.53
785.557	18329.07
785.891	18288.62
786.224	18212.91
786.558	18221.95
786.891	18052.24
787.224	18038.45
787.557	17949.64
787.891	17832.36
788.224	17968.4
788.557	17931.34
788.89	17843.66
789.223	17778.12
789.556	17624.45
789.888	17656.99
790.221	17492.25
790.554	17390.79
790.887	17424.46
791.219	17345.82
791.552	17311.01
791.884	17183.56
792.217	17150.11
792.549	17168.87
792.882	17038.7
793.214	16809.78
793.546	16989.21
793.879	16753.29
794.211	16735.21
794.543	16793.06
794.875	16648.66
795.207	16669
795.539	16599.17
795.871	16627.42
796.203	16402.11
796.535	16430.58
796.867	16271.49
797.198	16255.67
797.53	16242.79
797.862	16169.8
798.193	16240.08
798.525	16064.49
798.856	16112.18
799.188	15909.92
799.519	15873.31
799.85	15940.88
800.182	15879.86
800.513	15838.96
800.844	15616.37
801.175	15788.12
801.506	15722.81
801.837	15630.15
802.168	15571.62
802.499	15488.46
802.83	15474.68
803.161	15360.78
803.491	15450.05
803.822	15524.39
804.153	15306.32
804.483	15189.49
804.814	15217.28
805.145	15104.52
805.475	15184.29
805.805	15046.89
806.136	14996.27
806.466	15113.78
806.796	14961.25
807.126	14897.52
807.457	14819.55
807.787	14774.13
808.117	14675.6
808.447	14694.59
808.777	14692.78
809.107	14591.76
809.436	14604.19
809.766	14527.58
810.096	14598.32
810.426	14483.74
810.755	14431.99
811.085	14360.13
811.414	14367.59
811.744	14289.85
812.073	14302.51
812.403	14264.99
812.732	14195.84
813.061	14234.48
813.39	14086.47
813.719	14092.12
814.049	14115.39
814.378	14069.29
814.707	13970.99
815.036	13970.99
815.365	13928.5
815.693	13772.8
816.022	13766.25
816.351	13799.02
816.68	13619.36
817.008	13731.67
817.337	13577.1
817.665	13570.32
817.994	13667.04
818.322	13598.57
818.651	13618
818.979	13462.3
819.307	13498.46
819.636	13509.98
819.964	13359.48
820.292	13502.07
820.62	13464.79
820.948	13367.84
821.276	13392.7
821.604	13260.95
821.932	13426.82
822.259	13395.86
822.587	13365.58
822.915	13408.52
823.243	13387.95
823.57	13259.82
823.898	13382.76
824.225	13262.08
824.553	13315.19
824.88	13303.21
825.207	13299.82
825.535	13255.75
825.862	13288.29
826.189	13213.95
826.516	13343.43
826.843	13291.68
827.17	13342.98
827.497	13380.72
827.824	13333.72
828.151	13301.85
828.478	13329.2
828.805	13295.3
829.131	13261.63
829.458	13221.63
829.785	13185.25
830.111	13225.92
830.438	13326.26
830.764	13297.56
831.09	13249.2
831.417	13248.52
831.743	13240.39
832.069	13161.97
832.395	13320.38
832.722	13196.09
833.048	13209.88
833.374	13185.47
833.7	13187.28
834.026	13137.34
834.351	13220.05
834.677	13142.31
835.003	13115.87
835.329	13130.33
835.654	13074.74
835.98	13006.04
836.306	13113.16
836.631	12993.84
836.956	13051.92
837.282	13019.6
837.607	12958.81
837.932	12890.57
838.258	12912.26
838.583	12968.98
838.908	12812.37
839.233	12907.06
839.558	12742.09
839.883	12827.06
840.208	12757.46
840.533	12749.1
840.858	12762.66
841.182	12688.54
841.507	12670.91
841.832	12603.11
842.156	12626.17
842.481	12602.66
842.805	12620.74
843.13	12550.91
843.454	12533.29
843.778	12503.91
844.103	12472.95
844.427	12467.3
844.751	12455.32
845.075	12371.93
845.399	12317.47
845.723	12233.86
846.047	12314.99
846.371	12201.32
846.695	12187.08
847.019	12139.4
847.343	12028.44
847.666	11954.54
847.99	11907.09
848.313	11990.7
848.637	11951.61
848.96	11802.91
849.284	11861.67
849.607	11665.06
849.931	11745.96
850.254	11611.5
850.577	11591.62
850.9	11480.43
851.223	11515.69
851.546	11403.37
851.869	11305.07
852.192	11451.51
852.515	11310.95
852.838	11265.52
853.161	11196.82
853.483	11157.96
853.806	11098.97
854.129	11077.28
854.451	11135.58
854.774	11022.14
855.096	10995.25
855.419	10980.11
855.741	10921.35
856.063	10861.24
856.385	10854.46
856.708	10809.49
857.03	10757.97
857.352	10757.74
857.674	10712.54
857.996	10706.67
858.318	10624.18
858.64	10653.34
858.961	10572.66
859.283	10554.13
859.605	10499.67
859.926	10521.81
860.248	10474.36
860.57	10472.55
860.891	10480.23
861.212	10466.67
861.534	10395.72
861.855	10370.63
862.176	10328.82
862.498	10358.43
862.819	10333.12
863.14	10239.79
863.461	10287.47
863.782	10153.91
864.103	10200.01
864.424	10262.61
864.745	10197.75
865.065	10154.37
865.386	10085.67
865.707	10135.61
866.027	10155.72
866.348	10061.94
866.668	10056.97
866.989	10049.06
867.309	9966.8
867.63	10051.09
867.95	10019
868.27	9946.24
868.59	10014.03
868.91	9912.56
869.23	9920.47
869.55	9899.46
869.87	9944.88
870.19	9820.59
870.51	9888.84
870.83	9895.84
871.15	9788.95
871.469	9863.98
871.789	9859.46
872.109	9783.98
872.428	9774.71
872.748	9767.94
873.067	9737.43
873.386	9753.02
873.706	9690.42
874.025	9659.69
874.344	9612.46
874.663	9607.26
874.982	9579.47
875.301	9643.19
875.62	9597.77
875.939	9588.5
876.258	9575.62
876.577	9537.88
876.896	9474.16
877.214	9409.3
877.533	9450.66
877.852	9481.84
878.17	9520.03
878.489	9450.43
878.807	9429.41
879.125	9446.81
879.444	9414.05
879.762	9348.51
880.08	9360.49
880.398	9344.22
880.716	9316.87
881.034	9345.57
881.352	9314.39
881.67	9246.14
881.988	9309.19
882.306	9281.39
882.624	9237.1
882.941	9162.53
883.259	9168.63
883.577	9106.71
883.894	9170.66
884.212	9105.13
884.529	9135.41
884.846	9031.46
885.164	9077.11
885.481	9030.78
885.798	9001.63
886.115	8958.24
886.432	8961.18
886.75	8970.89
887.067	8991.23
887.383	8840.05
887.7	8920.73
888.017	8877.79
888.334	8938.35
888.651	8873.04
888.967	8782.65
889.284	8760.73
889.6	8735.87
889.917	8690
890.233	8723.89
890.55	8684.12
890.866	8657.68
891.182	8662.88
891.498	8592.37
891.815	8565.48
892.131	8564.13
892.447	8515.09
892.763	8518.48
893.079	8515.76
893.395	8497.23
893.71	8443
894.026	8449.33
894.342	8377.92
894.657	8330.01
894.973	8345.83
895.289	8305.83
895.604	8280.52
895.92	8238.94
896.235	8164.14
896.55	8202.33
896.865	8126.17
897.181	8099.28
897.496	8167.98
897.811	8143.12
898.126	8089.11
898.441	8024.93
898.756	8024.03
899.071	8003.01
899.386	8002.33
899.7	7891.6
900.015	7856.8
900.33	7813.64
900.644	7822.45
900.959	7835.1
901.273	7773.19
901.588	7732.51
901.902	7720.76
902.216	7696.13
902.531	7694.77
902.845	7612.06
903.159	7587.65
903.473	7614.55
903.787	7523.93
904.101	7535.23
904.415	7478.96
904.729	7396.92
905.042	7418.17
905.356	7372.07
905.67	7351.73
905.984	7299.3
906.297	7354.21
906.611	7289.58
906.924	7285.74
907.237	7192.64
907.551	7220.88
907.864	7167.1
908.177	7158.74
908.491	7128.23
908.804	7122.36
909.117	7031.74
909.43	7016.37
909.743	6987.9
910.056	6987.67
910.368	6947.67
910.681	6928.46
910.994	6920.78
911.307	6827.67
911.619	6856.6
911.932	6853.44
912.244	6798.52
912.557	6747.68
912.869	6708.35
913.181	6656.6
913.494	6704.06
913.806	6693.44
914.118	6640.79
914.43	6637.4
914.742	6645.76
915.054	6585.42
915.366	6528.92
915.678	6561.92
915.99	6498.19
916.302	6412.09
916.613	6362.83
916.925	6431.53
917.236	6378.87
917.548	6369.61
917.859	6377.97
918.171	6266.11
918.482	6257.75
918.794	6274.47
919.105	6200.12
919.416	6202.15
919.727	6166.9
920.038	6207.12
920.349	6088.03
920.66	6079.22
920.971	6091.87
921.282	6046
921.593	6018.43
921.903	6014.36
922.214	5933.23
922.525	5908.15
922.835	5892.56
923.146	5884.65
923.456	5898.21
923.767	5829.51
924.077	5802.39
924.387	5807.59
924.697	5765.33
925.008	5734.59
925.318	5736.85
925.628	5701.38
925.938	5657.08
926.248	5663.86
926.558	5584.77
926.867	5578.21
927.177	5566.01
927.487	5518.33
927.796	5500.25
928.106	5474.04
928.416	5497.31
928.725	5461.16
929.034	5447.14
929.344	5432.46
929.653	5421.38
929.962	5341.84
930.271	5355.17
930.581	5294.38
930.89	5281.05
931.199	5283.99
931.508	5243.08
931.817	5222.29
932.125	5246.02
932.434	5193.14
932.743	5150.66
933.051	5133.48
933.36	5110.66
933.669	5140.26
933.977	5058.45
934.286	5053.71
934.594	5081.05
934.902	4991.11
935.21	4986.59
935.519	5001.05
935.827	4960.83
936.135	4919.7
936.443	4864.34
936.751	4842.64
937.059	4830.89
937.367	4880.15
937.674	4856.43
937.982	4846.48
938.29	4791.34
938.597	4744.11
938.905	4695.75
939.213	4697.79
939.52	4728.07
939.827	4691.68
940.135	4688.75
940.442	4666.83
940.749	4622.53
941.056	4614.4
941.363	4588.64
941.67	4554.29
941.977	4545.47
942.284	4548.41
942.591	4495.53
942.898	4490.56
943.205	4490.79
943.511	4484.01
943.818	4418.02
944.125	4394.74
944.431	4375.08
944.738	4395.42
945.044	4341.64
945.35	4352.03
945.657	4317.68
945.963	4310.23
946.269	4320.39
946.575	4247.85
946.881	4252.37
947.187	4220.96
947.493	4210.34
947.799	4165.37
948.105	4196.78
948.41	4123.56
948.716	4208.76
949.022	4123.11
949.327	4079.72
949.633	4056.45
949.938	4081.31
950.244	4042.44
950.549	4037.01
950.854	4030.23
951.16	3977.58
951.465	4024.13
951.77	3979.61
952.075	3936
952.38	3921.99
952.685	3933.96
952.99	3939.16
953.294	3885.6
953.599	3829.33
953.904	3807.64
954.209	3850.12
954.513	3850.35
954.818	3792.95
955.122	3808.54
955.426	3791.37
955.731	3764.7
956.035	3715.89
956.339	3683.35
956.643	3700.75
956.948	3706.63
957.252	3676.57
957.556	3691.03
957.86	3625.27
958.163	3621.66
958.467	3615.55
958.771	3553.18
959.075	3574.43
959.378	3543.24
959.682	3574.43
959.985	3562
960.289	3543.92
960.592	3479.06
960.896	3463.47
961.199	3451.72
961.502	3445.84
961.805	3445.16
962.108	3411.04
962.411	3447.65
962.714	3384.15
963.017	3402.23
963.32	3375.79
963.623	3354.09
963.926	3346.18
964.228	3337.37
964.531	3322.23
964.833	3293.98
965.136	3298.27
965.438	3251.95
965.741	3239.29
966.043	3227.77
966.345	3160.88
966.648	3204.94
966.95	3222.12
967.252	3160.88
967.554	3179.86
967.856	3158.62
968.158	3131.27
968.46	3144.38
968.761	3133.31
969.063	3110.71
969.365	3099.41
969.666	3072.07
969.968	3046.98
970.269	3027.32
970.571	3039.75
970.872	3017.6
971.174	3036.36
971.475	2983.48
971.776	2943.71
972.077	2933.31
972.378	2962.01
972.679	2950.26
972.98	2930.15
973.281	2927.21
973.582	2919.3
973.883	2868.46
974.183	2867.78
974.484	2868.23
974.785	2879.53
975.085	2851.51
975.386	2830.49
975.686	2834.33
975.986	2810.83
976.287	2797.72
976.587	2756.37
976.887	2738.06
977.187	2788.23
977.487	2735.58
977.787	2720.66
978.087	2734.9
978.387	2714.11
978.687	2701.23
978.987	2733.09
979.286	2675.69
979.586	2666.88
979.885	2684.05
980.185	2633.66
980.484	2620.1
980.784	2637.28
981.083	2627.11
981.382	2625.52
981.682	2588.69
981.981	2595.69
982.28	2550.27
982.579	2528.58
982.878	2544.62
983.177	2542.81
983.475	2546.66
983.774	2496.04
984.073	2507.34
984.372	2475.02
984.67	2515.92
984.969	2474.57
985.267	2462.59
985.566	2466.21
985.864	2435.47
986.162	2414.68
986.461	2429.37
986.759	2400.67
987.057	2386.43
987.355	2365.64
987.653	2356.6
987.951	2359.54
988.249	2334.46
988.547	2376.04
988.844	2336.72
989.142	2311.63
989.44	2334.23
989.737	2312.76
990.035	2326.55
990.332	2280.67
990.63	2259.43
990.927	2251.75
991.224	2238.87
991.521	2224.63
991.819	2234.12
992.116	2245.2
992.413	2196.16
992.71	2163.84
993.006	2173.56
993.303	2163.39
993.6	2178.08
993.897	2155.71
994.193	2163.16
994.49	2131.07
994.787	2121.36
995.083	2084.3
995.379	2061.92
995.676	2082.26
995.972	2089.04
996.268	2093.79
996.565	2062.15
996.861	2074.13
997.157	2000.23
997.453	2045.65
997.749	2026.67
998.044	2013.34
998.34	1970.4
998.636	2025.09
998.932	1986.67
999.227	1944.86
999.523	1957.97
999.818	1944.86
1000.114	1941.7
1000.409	1940.8
1000.704	1943.06
1001	1938.76
1001.295	1909.84
1001.59	1889.72
1001.885	1890.4
1002.18	1881.59
1002.475	1904.64
1002.77	1858.09
1003.065	1832.32
1003.359	1844.75
1003.654	1846.56
1003.949	1822.38
1004.243	1826.22
1004.538	1790.97
1004.832	1807.47
1005.127	1774.47
1005.421	1776.96
1005.715	1795.72
1006.009	1781.25
1006.304	1746.45
1006.598	1712.33
1006.892	1736.73
1007.186	1699.67
1007.48	1708.49
1007.773	1703.06
1008.067	1678.88
1008.361	1678.88
1008.655	1664.65
1008.948	1661.26
1009.242	1641.6
1009.535	1643.63
1009.829	1616.29
1010.122	1628.49
1010.415	1623.29
1010.708	1609.28
1011.001	1585.78
1011.295	1588.49
1011.588	1587.81
1011.881	1573.12
1012.173	1543.29
1012.466	1526.57
1012.759	1539.45
1013.052	1541.71
1013.344	1528.6
1013.637	1536.74
1013.93	1508.72
1014.222	1514.59
1014.514	1503.52
1014.807	1478.89
1015.099	1471.43
1015.391	1484.99
1015.683	1438.66
1015.976	1443.18
1016.268	1472.11
1016.56	1441.6
1016.851	1400.02
1017.143	1448.61
1017.435	1392.56
1017.727	1412.67
1018.018	1414.26
1018.31	1386.91
1018.602	1384.2
1018.893	1341.04
1019.185	1348.27
1019.476	1367.7
1019.767	1331.09
1020.058	1331.32
1020.35	1348.95
1020.641	1303.75
1020.932	1296.75
1021.223	1291.55
1021.514	1303.98
1021.804	1272.57
1022.095	1256.75
1022.386	1253.81
1022.677	1247.48
1022.967	1253.81
1023.258	1258.33
1023.548	1240.02
1023.839	1213.58
1024.129	1206.58
1024.419	1202.96
1024.709	1257.88
1025	1207.48
1025.29	1179.46
1025.58	1185.11
1025.87	1169.29
1026.16	1178.1
1026.449	1160.7
1026.739	1150.31
1027.029	1160.25
1027.319	1144.43
1027.608	1145.11
1027.898	1129.97
1028.187	1112.8
1028.477	1114.83
1028.766	1067.83
1029.055	1092.01
1029.344	1104.66
1029.634	1071.89
1029.923	1077.99
1030.212	1067.83
1030.501	1048.62
1030.79	1083.19
1031.078	1080.03
1031.367	1062.4
1031.656	1018.11
1031.945	1029.41
1032.233	1052.23
1032.522	1017.2
1032.81	1006.36
1033.099	982.4
1033.387	1028.28
1033.675	996.87
1033.963	990.31
1034.251	1008.17
1034.54	989.63
1034.828	968.84
1035.116	946.92
1035.403	934.5
1035.691	954.61
1035.979	962.07
1036.267	936.76
1036.554	913.48
1036.842	913.03
1037.129	944.21
1037.417	910.09
1037.704	912.12
1037.992	897.43
1038.279	896.53
1038.566	896.76
1038.853	896.76
1039.14	896.76
