Data from hue_300_FLMS001491_00008.txt Node
Date: Tue Feb 07 15:49:39 GMT 2017
User: dcchb
Spectrometer: FLMS00149
Trigger mode: 0
Integration Time (sec): 2.000000E-2
Scans to average: 10
Electric dark correction enabled: true
Nonlinearity correction enabled: false
Boxcar width: 0
XAxis mode: Wavelengths
Number of Pixels in Spectrum: 2048
>>>>>Begin Spectral Data<<<<<
341.393	-19.65
341.776	-19.65
342.16	-19.65
342.543	-30.04
342.927	-63.26
343.31	-54.45
343.693	-59.19
344.077	-70.72
344.46	-55.13
344.843	-55.13
345.226	-41.57
345.61	-40.89
345.993	-31.85
346.376	1.6
346.759	4.76
347.142	33.91
347.525	54.25
347.908	54.02
348.291	73.91
348.674	95.15
349.057	91.31
349.44	106.9
349.823	118.88
350.206	164.76
350.588	205.88
350.971	210.4
351.354	212.44
351.737	222.16
352.119	217.86
352.502	266.22
352.884	258.54
353.267	268.26
353.65	279.78
354.032	291.08
354.414	298.31
354.797	283.85
355.179	327.92
355.562	302.83
355.944	320.91
356.326	326.11
356.709	304.19
357.091	319.1
357.473	325.88
357.855	331.53
358.238	357.07
358.62	340.34
359.002	344.64
359.384	336.28
359.766	325.88
360.148	350.97
360.53	329.95
360.912	332.43
361.294	352.55
361.676	336.73
362.057	315.71
362.439	305.32
362.821	326.79
363.203	339.67
363.584	341.7
363.966	311.64
364.348	347.35
364.729	340.12
365.111	323.4
365.493	297.18
365.874	307.35
366.256	324.53
366.637	302.15
367.019	323.4
367.4	314.36
367.781	307.12
368.163	293.57
368.544	312.1
368.925	302.15
369.306	295.6
369.688	316.84
370.069	298.99
370.45	290.4
370.831	301.93
371.212	320.68
371.593	325.66
371.974	280.68
372.355	301.02
372.736	308.93
373.117	322.72
373.498	297.18
373.879	304.41
374.26	324.53
374.641	299.67
375.021	309.38
375.402	304.19
375.783	317.75
376.163	336.5
376.544	329.72
376.925	325.2
377.305	321.14
377.686	324.07
378.066	327.69
378.447	319.33
378.827	313.23
379.208	321.59
379.588	316.62
379.968	331.98
380.349	309.84
380.729	327.24
381.109	335.6
381.489	315.26
381.87	327.24
382.25	328.37
382.63	330.63
383.01	357.52
383.39	339.21
383.77	335.6
384.15	341.02
384.53	346.45
384.91	344.86
385.29	337.18
385.67	326.56
386.049	340.34
386.429	355.71
386.809	355.03
387.189	340.57
387.568	324.53
387.948	361.36
388.328	365.65
388.707	356.39
389.087	341.25
389.466	350.51
389.846	364.98
390.225	363.17
390.605	341.02
390.984	358.2
391.363	365.43
391.743	359.55
392.122	371.3
392.501	367.46
392.881	366.78
393.26	377.86
393.639	393.68
394.018	385.31
394.397	374.47
394.776	372.21
395.155	390.29
395.534	395.48
395.913	378.08
396.292	378.08
396.671	404.98
397.05	381.92
397.429	385.54
397.808	385.99
398.186	396.16
398.565	395.48
398.944	387.12
399.323	396.61
399.701	402.04
400.08	405.2
400.458	407.91
400.837	390.51
401.215	407.91
401.594	393.22
401.972	419.66
402.351	408.82
402.729	424.86
403.107	413.56
403.486	424.18
403.864	434.8
404.242	444.97
404.62	450.4
404.999	449.49
405.377	437.06
405.755	435.26
406.133	444.97
406.511	466.44
406.889	455.82
407.267	463.28
407.645	477.97
408.023	474.13
408.401	455.82
408.779	487.46
409.156	499.89
409.534	483.84
409.912	485.88
410.29	498.08
410.667	500.57
411.045	510.96
411.422	544.18
411.8	530.4
412.178	540.79
412.555	563.16
412.933	544.41
413.31	575.37
413.687	589.38
414.065	562.71
414.442	599.09
414.819	575.14
415.197	593.9
415.574	600.68
415.951	610.62
416.328	597.96
416.705	630.96
417.082	637.06
417.46	637.96
417.837	674.57
418.214	657.17
418.591	675.93
418.967	664.63
419.344	676.61
419.721	671.41
420.098	710.28
420.475	711.18
420.852	727
421.228	720.22
421.605	740.33
421.982	741.01
422.358	764.74
422.735	754.8
423.111	763.84
423.488	791.18
423.864	777.39
424.241	800.45
424.617	805.19
424.994	794.8
425.37	827.11
425.746	825.76
426.123	825.76
426.499	833.89
426.875	817.85
427.251	866.66
427.627	865.75
428.003	887.45
428.379	912.31
428.756	888.13
429.132	914.57
429.507	940.33
429.883	927.45
430.259	938.97
430.635	964.06
431.011	962.47
431.387	974
431.763	988.46
432.138	995.47
432.514	1009.93
432.89	1011.29
433.265	1038.18
433.641	1050.61
434.016	1057.16
434.392	1098.74
434.767	1073.66
435.143	1088.8
435.518	1120.89
435.894	1111.4
436.269	1162.24
436.644	1161.34
437.02	1173.77
437.395	1124.73
437.77	1159.53
438.145	1216.93
438.52	1175.35
438.895	1190.94
439.271	1195.01
439.646	1252.86
440.021	1245.86
440.395	1256.25
440.77	1221.22
441.145	1248.34
441.52	1279.08
441.895	1279.75
442.27	1266.42
442.645	1267.1
443.019	1279.3
443.394	1279.75
443.769	1311.39
444.143	1322.01
444.518	1307.55
444.892	1310.71
445.267	1319.08
445.641	1331.28
446.016	1324.05
446.39	1330.15
446.764	1338.51
447.139	1322.47
447.513	1345.52
447.887	1352.75
448.262	1335.12
448.636	1351.84
449.01	1380.09
449.384	1390.26
449.758	1374.44
450.132	1371.73
450.506	1388.68
450.88	1397.49
451.254	1408.56
451.628	1414.21
452.002	1404.95
452.376	1433.2
452.75	1405.17
453.123	1427.77
453.497	1463.03
453.871	1432.29
454.244	1496.47
454.618	1504.16
454.992	1480.88
455.365	1471.16
455.739	1503.03
456.112	1505.06
456.486	1508.45
456.859	1540.54
457.232	1567.88
457.606	1558.17
457.979	1594.32
458.352	1601.33
458.725	1615.79
459.099	1585.74
459.472	1623.93
459.845	1637.03
460.218	1623.47
460.591	1677.26
460.964	1685.62
461.337	1674.55
461.71	1702.79
462.083	1734.43
462.456	1737.6
462.829	1699.63
463.201	1720.19
463.574	1738.95
463.947	1777.59
464.32	1786.18
464.692	1804.71
465.065	1753.41
465.438	1794.09
465.81	1839.74
466.183	1850.13
466.555	1887.2
466.928	1875.67
467.3	1877.7
467.672	1888.1
468.045	1952.73
468.417	1943.47
468.789	1958.61
469.161	1951.15
469.534	1986.18
469.906	2012.16
470.278	2002.45
470.65	2007.64
471.022	2031.83
471.394	2063.24
471.766	2082.9
472.138	2105.72
472.51	2108.21
472.882	2152.73
473.253	2179.39
473.625	2174.87
473.997	2211.48
474.369	2212.61
474.74	2245.6
475.112	2277.92
475.484	2298.03
475.855	2307.98
476.227	2325.38
476.598	2384.58
476.97	2390.69
477.341	2434.75
477.713	2410.35
478.084	2452.83
478.455	2520.17
478.827	2472.72
479.198	2533.73
479.569	2531.47
479.94	2576.22
480.311	2621.41
480.682	2622.77
481.053	2695.99
481.424	2723.33
481.795	2737.12
482.166	2755.87
482.537	2784.57
482.908	2841.52
483.279	2804.69
483.65	2870.67
484.021	2901.86
484.391	2887.85
484.762	2902.54
485.133	2937.56
485.503	2999.03
485.874	3027.05
486.244	3025.02
486.615	3067.28
486.985	3116.99
487.356	3135.98
487.726	3151.8
488.097	3211.46
488.467	3194.28
488.837	3196.99
489.207	3256.2
489.578	3299.81
489.948	3342.53
490.318	3370.32
490.688	3346.37
491.058	3390.89
491.428	3442.41
491.798	3443.09
492.168	3528.96
492.538	3489.41
492.908	3495.06
493.278	3578.9
493.648	3598.34
494.017	3562.86
494.387	3601.28
494.757	3639.92
495.126	3635.85
495.496	3695.28
495.866	3706.81
496.235	3765.11
496.605	3747.94
496.974	3739.35
497.344	3779.12
497.713	3774.83
498.082	3790.42
498.452	3825
498.821	3822.96
499.19	3877.65
499.559	3862.51
499.928	3879.01
500.298	3879.23
500.667	3923.75
501.036	3943.64
501.405	3956.52
501.774	3970.76
502.143	3939.12
502.512	3985.45
502.88	4035.39
503.249	4039.23
503.618	4001.04
503.987	4051.21
504.356	4023.64
504.724	4069.06
505.093	4053.47
505.462	4110.87
505.83	4115.16
506.199	4093.69
506.567	4179.79
506.936	4150.87
507.304	4171.88
507.672	4194.93
508.041	4194.93
508.409	4196.06
508.777	4209.62
509.145	4263.63
509.514	4280.35
509.882	4258.21
510.25	4242.84
510.618	4252.78
510.986	4289.39
511.354	4328.04
511.722	4371.42
512.09	4342.27
512.458	4333.01
512.826	4383.18
513.193	4407.81
513.561	4385.21
513.929	4371.65
514.297	4458.43
514.664	4427.92
515.032	4425.43
515.4	4490.07
515.767	4488.48
516.135	4489.84
516.502	4458.2
516.869	4531.42
517.237	4532.55
517.604	4531.87
517.972	4586.11
518.339	4551.08
518.706	4518.54
519.073	4573.68
519.44	4571.65
519.808	4635.82
520.175	4620.68
520.542	4670.4
520.909	4653.68
521.276	4648.25
521.643	4716.73
522.009	4721.7
522.376	4725.54
522.743	4722.6
523.11	4801.47
523.477	4811.87
523.843	4773.45
524.21	4857.74
524.577	4875.82
524.943	4867.91
525.31	4874.46
525.676	4916.72
526.043	4910.85
526.409	4958.75
526.776	5033.1
527.142	4999.2
527.508	5059.32
527.874	5086.89
528.241	5042.37
528.607	5109.94
528.973	5167.79
529.339	5110.61
529.705	5167.79
530.071	5249.59
530.437	5209.59
530.803	5228.13
531.169	5225.64
531.535	5253.44
531.901	5291.63
532.267	5251.4
532.632	5369.82
532.998	5328.01
533.364	5367.33
533.73	5435.35
534.095	5492.98
534.461	5435.35
534.826	5444.39
535.192	5474.22
535.557	5485.52
535.923	5541.79
536.288	5541.56
536.653	5619.98
537.019	5572.52
537.384	5579.3
537.749	5649.36
538.114	5651.62
538.479	5656.59
538.845	5675.35
539.21	5631.73
539.575	5641.67
539.94	5728.68
540.305	5700.88
540.67	5762.57
541.034	5820.43
541.399	5812.29
541.764	5825.62
542.129	5865.4
542.494	5873.31
542.858	5916.47
543.223	5940.2
543.587	5955.79
543.952	6003.02
544.316	5966.18
544.681	5991.72
545.045	6038.05
545.41	6092.51
545.774	6122.57
546.138	6072.85
546.503	6120.31
546.867	6154.88
547.231	6183.13
547.595	6190.81
547.959	6257.25
548.324	6192.62
548.688	6244.37
549.052	6268.55
549.416	6288.21
549.779	6275.1
550.143	6306.74
550.507	6441.2
550.871	6392.39
551.235	6397.59
551.599	6411.14
551.962	6358.72
552.326	6463.57
552.689	6507.87
553.053	6471.71
553.417	6502.44
553.78	6540.41
554.143	6565.04
554.507	6593.74
554.87	6561.2
555.234	6645.94
555.597	6611.14
555.96	6654.75
556.323	6617.92
556.686	6613.17
557.05	6664.92
557.413	6724.36
557.776	6677.58
558.139	6748.31
558.502	6688.65
558.865	6798.48
559.228	6801.87
559.59	6809.78
559.953	6812.49
560.316	6877.8
560.679	6840.74
561.041	6884.13
561.404	6896.33
561.767	6973.16
562.129	6912.83
562.492	7016.1
562.854	7068.08
563.217	7026.04
563.579	7080.05
563.941	7062.65
564.304	7106.95
564.666	7137.45
565.028	7142.43
565.39	7163.67
565.753	7227.39
566.115	7222.88
566.477	7256.09
566.839	7301.07
567.201	7339.03
567.563	7339.71
567.925	7373.15
568.287	7363.21
568.648	7390.55
569.01	7499.93
569.372	7458.12
569.734	7489.76
570.095	7521.62
570.457	7562.98
570.819	7616.76
571.18	7621.06
571.542	7708.29
571.903	7766.36
572.265	7806.14
572.626	7836.42
572.987	7833.03
573.349	7869.64
573.71	7902.41
574.071	7991.44
574.432	8050.42
574.794	8083.64
575.155	8076.86
575.516	8140.59
575.877	8190.99
576.238	8223.98
576.599	8344.2
576.96	8441.37
577.32	8473.69
577.681	8572.44
578.042	8728.15
578.403	8708.71
578.763	8830.74
579.124	8842.95
579.485	9035.26
579.845	9141.69
580.206	9272.99
580.566	9277.96
580.927	9414.46
581.287	9537.39
581.648	9661.91
582.008	9843.37
582.368	9933.99
582.728	10098.51
583.089	10226.86
583.449	10416.01
583.809	10575.1
584.169	10766.74
584.529	10934.87
584.889	11184.13
585.249	11285.59
585.609	11458.02
585.969	11716.32
586.329	11894.62
586.688	12142.07
587.048	12320.82
587.408	12560.59
587.768	12779.57
588.127	12957.87
588.487	13256.39
588.846	13562.6
589.206	13706.09
589.565	13986.09
589.925	14280.09
590.284	14543.36
590.643	14843.24
591.003	15076.23
591.362	15435.09
591.721	15625.82
592.08	15843.21
592.44	16278.23
592.799	16541.05
593.158	16823.75
593.517	17054.03
593.876	17398.88
594.235	17639.32
594.593	17871.18
594.952	18269.82
595.311	18490.83
595.67	18955
596.029	19273.63
596.387	19543
596.746	19864.8
597.104	20055.98
597.463	20338.46
597.822	20679.24
598.18	20993.36
598.538	21208.95
598.897	21655.04
599.255	21762.38
599.613	22346.55
599.972	22473.32
600.33	22771.84
600.688	23021.56
601.046	23404.6
601.404	23797.81
601.762	24092.71
602.12	24295.42
602.478	24619.25
602.836	24939.7
603.194	25122.29
603.552	25306.24
603.91	25499.68
604.268	26002.27
604.625	26122.94
604.983	26466.44
605.341	26584.85
605.698	26935.13
606.056	27200.43
606.413	27335.57
606.771	27679.06
607.128	27861.88
607.485	28030.24
607.843	28316.11
608.2	28749.99
608.557	28877.9
608.914	29020.72
609.272	29330.54
609.629	29622.06
609.986	29808.27
610.343	29981.15
610.7	30188.37
611.057	30478.76
611.414	30714.91
611.771	30829.26
612.127	31180.44
612.484	31345.4
612.841	31516.25
613.198	31603.93
613.554	31827.2
613.911	32049.11
614.267	32224.03
614.624	32432.83
614.98	32420.4
615.337	32911.47
615.693	32875.99
616.05	33096.77
616.406	33354.17
616.762	33247.28
617.118	33486.59
617.475	33603.2
617.831	33852.23
618.187	33930.87
618.543	34169.29
618.899	34395.49
619.255	34322.28
619.611	34492.89
619.967	34768.82
620.323	34860.34
620.678	34923.62
621.034	34922.71
621.39	35018.98
621.746	35095.36
622.101	35572.64
622.457	35476.37
622.812	35477.05
623.168	35787.32
623.523	35825.06
623.879	35938.96
624.234	35829.13
624.589	36081.33
624.945	36131.49
625.3	36307.53
625.655	36340.75
626.01	36471.15
626.365	36488.09
626.72	36521.77
627.075	36618.03
627.43	36573.74
627.785	36657.81
628.14	36833.85
628.495	36818.71
628.85	36787.75
629.205	36700.74
629.559	37035.65
629.914	36981.41
630.269	36919.5
630.623	36954.52
630.978	36960.17
631.332	37153.39
631.687	37191.13
632.041	37098.7
632.396	37201.52
632.75	37040.62
633.104	37175.08
633.459	37150
633.813	37193.16
634.167	37199.49
634.521	37302.08
634.875	37263.44
635.229	37257.34
635.583	37092.6
635.937	37219.83
636.291	37263.44
636.645	37342.76
636.999	37260.05
637.352	37372.36
637.706	37147.51
638.06	37386.83
638.413	37182.77
638.767	37117.46
639.121	37131.69
639.474	37092.37
639.828	37219.37
640.181	37255.08
640.534	37255.31
640.888	36987.29
641.241	37006.27
641.594	37160.17
641.947	37226.38
642.301	37157.91
642.654	37257.79
643.007	37330.78
643.36	37227.96
643.713	37237.91
644.066	37187.28
644.419	37118.59
644.771	36814.19
645.124	36630.24
645.477	36404.25
645.83	36220.53
646.182	36054.21
646.535	36069.12
646.888	36267.99
647.24	36028.67
647.593	36289.23
647.945	36137.14
648.298	35931.27
648.65	35964.27
649.002	35830.03
649.355	36013.98
649.707	35930.59
650.059	36203.36
650.411	36561.99
650.763	36563.8
651.115	36927.18
651.467	36813.28
651.819	36853.73
652.171	36835.88
652.523	36663.46
652.875	36889.89
653.227	36558.15
653.578	36807.18
653.93	36825.71
654.282	36652.61
654.633	36524.03
654.985	36592.05
655.337	36665.04
655.688	36680.63
656.039	36893.06
656.391	36563.8
656.742	36546.4
657.094	36553.4
657.445	36726.73
657.796	36663.68
658.147	36581.2
658.498	36547.98
658.849	36710.91
659.2	36499.62
659.551	36449.68
659.902	36758.6
660.253	36437.47
660.604	36641.99
660.955	36470.02
661.306	36591.37
661.656	36485.61
662.007	36606.28
662.358	36616.45
662.708	36511.82
663.059	36655.32
663.409	36392.73
663.76	36692.61
664.11	36631.59
664.461	36505.04
664.811	36548.21
665.161	36411.26
665.511	36333.52
665.862	36317.25
666.212	36552.73
666.562	36529.68
666.912	36437.93
667.262	36458.26
667.612	36442.45
667.962	36389.11
668.312	36416.68
668.662	36536.45
669.011	36447.42
669.361	36406.97
669.711	36387.76
670.06	36303.69
670.41	36425.95
670.76	36295.1
671.109	36365.39
671.459	36324.71
671.808	36329.91
672.157	36338.04
672.507	36253.52
672.856	36131.04
673.205	36252.17
673.554	36383.01
673.904	36200.87
674.253	36333.75
674.602	36242
674.951	35757.04
675.3	35723.14
675.649	36298.49
675.998	36186.41
676.346	36199.97
676.695	36268.21
677.044	35969.69
677.393	36058.95
677.741	36164.71
678.09	36000.65
678.438	35901.22
678.787	35990.48
679.135	35889.01
679.484	35752.97
679.832	35901.89
680.181	35584.62
680.529	35666.19
680.877	35591.17
681.225	35585.97
681.573	35815.12
681.922	35487.44
682.27	35447.44
682.618	35427.11
682.966	35463.71
683.314	35430.72
683.661	35357.95
684.009	35137.4
684.357	35209.26
684.705	34984.86
685.053	35166.32
685.4	35124.74
685.748	35069.37
686.095	35049.26
686.443	34820.34
686.79	34770.4
687.138	34842.26
687.485	34737.86
687.832	34704.19
688.18	34722.49
688.527	34532.44
688.874	34647.92
689.221	34400.92
689.568	34313.69
689.915	34351.65
690.262	34228.72
690.609	34161.83
690.956	34029.63
691.303	34030.08
691.65	33919.8
691.997	33845.68
692.344	33736.98
692.69	33678.45
693.037	33699.24
693.383	33394.16
693.73	33622.41
694.077	33390.77
694.423	33328.86
694.769	33168.63
695.116	33128.63
695.462	33191.91
695.808	33044.34
696.155	33025.13
696.501	32862.43
696.847	32827.63
697.193	32591.47
697.539	32652.26
697.885	32517.35
698.231	32433.29
698.577	32404.59
698.923	32294.31
699.269	32213.86
699.614	31940.64
699.96	32011.38
700.306	31968.21
700.651	31921.21
700.997	31878.95
701.342	31713.76
701.688	31746.98
702.033	31486.19
702.379	31566.87
702.724	31378.85
703.069	31569.13
703.415	31187.22
703.76	31161
704.105	31143.38
704.45	31067.67
704.795	30920.78
705.14	30880.33
705.485	30863.38
705.83	30807.11
706.175	30864.97
706.52	30573.67
706.865	30378.88
707.209	30367.13
707.554	30401.7
707.899	30495.03
708.243	30257.52
708.588	30214.59
708.932	30112.89
709.277	30118.54
709.621	30067.7
709.966	29845.78
710.31	29907.02
710.654	29675.62
710.998	29691.21
711.342	29739.12
711.687	29665.9
712.031	29530.09
712.375	29447.38
712.719	29447.6
713.063	29366.7
713.407	29476.3
713.75	29177.33
714.094	29200.83
714.438	29050.55
714.782	29066.82
715.125	29016.65
715.469	29139.36
715.812	28859.82
716.156	28733.04
716.499	28852.14
716.843	28799.71
717.186	28554.07
717.53	28673.84
717.873	28581.64
718.216	28606.72
718.559	28587.51
718.902	28403.34
719.246	28376.22
719.589	28368.53
719.932	28160.63
720.275	28329.89
720.617	28187.75
720.96	28135.55
721.303	28162.21
721.646	28079.05
721.989	27943.91
722.331	28034.08
722.674	27954.53
723.016	27951.82
723.359	27787.98
723.701	28006.51
724.044	27710.02
724.386	27602.68
724.729	27684.94
725.071	27544.15
725.413	27629.57
725.755	27447.43
726.097	27495.11
726.439	27356.13
726.782	27445.39
727.124	27531.95
727.465	27357.71
727.807	27313.65
728.149	27259.18
728.491	27255.34
728.833	27214.44
729.175	27039.3
729.516	27045.4
729.858	27050.15
730.199	27118.4
730.541	27066.42
730.882	26991.85
731.224	27138.96
731.565	26723.15
731.906	26886.76
732.248	26899.19
732.589	26649.03
732.93	26733.32
733.271	26704.4
733.612	26677.73
733.953	26726.77
734.294	26581.91
734.635	26524.97
734.976	26538.07
735.317	26380.79
735.658	26423.27
735.999	26543.5
736.339	26440.9
736.68	26460.79
737.021	26409.26
737.361	26225.77
737.702	26440.67
738.042	26234.8
738.383	26173.11
738.723	26250.17
739.063	26179.66
739.404	26217.63
739.744	26137.18
740.084	26127.46
740.424	26124.07
740.764	25919.56
741.104	26155.71
741.444	25872.78
741.784	25860.35
742.124	25882.95
742.464	25791.43
742.804	25670.53
743.143	25739.68
743.483	25798.88
743.823	25689.51
744.162	25561.15
744.502	25710.3
744.841	25595.5
745.181	25746.68
745.52	25514.15
745.86	25665.78
746.199	25550.08
746.538	25508.27
746.877	25539.23
747.216	25475.73
747.556	25372
747.895	25606.35
748.234	25379.69
748.573	25256.75
748.911	25328.84
749.25	25299.01
749.589	25189.41
749.928	25236.64
750.267	25400.25
750.605	25193.7
750.944	25340.82
751.283	25081.16
751.621	25049.07
751.96	25034.16
752.298	24959.58
752.636	24955.74
752.975	24827.16
753.313	24797.1
753.651	24823.54
753.989	24738.57
754.327	24807.27
754.666	24631.68
755.004	24827.84
755.342	24795.29
755.679	24779.93
756.017	24644.56
756.355	24647.28
756.693	24504.68
757.031	24691.12
757.368	24391.01
757.706	24428.52
758.044	24309.88
758.381	24412.93
758.719	24342.2
759.056	24255.87
759.394	24192.37
759.731	24013.17
760.068	24008.87
760.405	24014.07
760.743	24009.33
761.08	23929.78
761.417	23937.24
761.754	23829.44
762.091	23845.71
762.428	23734.98
762.765	23579.06
763.102	23613.63
763.438	23510.81
763.775	23444.37
764.112	23521.43
764.449	23570.69
764.785	23370.47
765.122	23248.22
765.458	23213.87
765.795	23227.88
766.131	23102.01
766.467	23046.64
766.804	23006.64
767.14	22809.13
767.476	22860.43
767.812	22695.46
768.148	22803.93
768.485	22643.71
768.821	22549.7
769.157	22465.64
769.492	22382.93
769.828	22487.56
770.164	22259.09
770.5	22236.72
770.836	22124.86
771.171	22091.86
771.507	22003.28
771.842	21854.35
772.178	21820.46
772.513	21790.63
772.849	21712.89
773.184	21645.09
773.519	21646
773.855	21544.53
774.19	21418.21
774.525	21386.34
774.86	21555.83
775.195	21378.89
775.53	21185.45
775.865	20982.06
776.2	21045.79
776.535	20853.25
776.87	20793.82
777.205	20683.31
777.539	20604.44
777.874	20650.32
778.209	20457.33
778.543	20449.87
778.878	20374.17
779.212	20423.43
779.547	20310.44
779.881	20343.43
780.215	20143.89
780.55	20171.01
780.884	19971.69
781.218	19935.31
781.552	19963.56
781.886	19892.82
782.22	19719.04
782.554	19661.64
782.888	19433.63
783.222	19330.58
783.556	19353.4
783.889	19330.81
784.223	19200.87
784.557	19215.1
784.89	19257.81
785.224	19045.39
785.557	18963.36
785.891	18955.67
786.224	18901.89
786.558	18817.82
786.891	18696.92
787.224	18605.85
787.557	18517.04
787.891	18645.4
788.224	18452.86
788.557	18393.2
788.89	18365.41
789.223	18393.2
789.556	18220.1
789.888	18218.07
790.221	18108.69
790.554	17865.31
790.887	18058.07
791.219	17968.36
791.552	17884.97
791.884	17801.81
792.217	17777.63
792.549	17676.16
792.882	17533.34
793.214	17558.87
793.546	17498.76
793.879	17486.33
794.211	17416.51
794.543	17425.32
794.875	17314.36
795.207	17360.69
795.539	17251.54
795.871	17186.68
796.203	17056.29
796.535	17014.93
796.867	16875.28
797.198	16955.27
797.53	16868.72
797.862	16746.01
798.193	16707.15
798.525	16576.75
798.856	16673.02
799.188	16463.54
799.519	16435.97
799.85	16360.49
800.182	16416.08
800.513	16355.06
800.844	16210.66
801.175	16254.73
801.506	16242.07
801.837	16257.67
802.168	16089.99
802.499	16040.72
802.83	16045.69
803.161	15860.84
803.491	15935.41
803.822	15891.57
804.153	15845.7
804.483	15712.14
804.814	15713.95
805.145	15653.61
805.475	15598.02
805.805	15555.09
806.136	15521.41
806.466	15535.65
806.796	15380.4
807.126	15364.58
807.457	15312.38
807.787	15314.19
808.117	15220.4
808.447	15133.85
808.777	15240.07
809.107	15151.48
809.436	15109.67
809.766	15020.64
810.096	14948.1
810.426	14926.4
810.755	14921.43
811.085	14914.2
811.414	14995.33
811.744	14869
812.073	14864.03
812.403	14765.5
812.732	14652.28
813.061	14687.54
813.39	14564.15
813.719	14588.33
814.049	14609.35
814.378	14554.89
814.707	14432.85
815.036	14514.43
815.365	14421.1
815.693	14279.19
816.022	14298.62
816.351	14241.45
816.68	14236.48
817.008	14244.61
817.337	14115.58
817.665	14105.86
817.994	14075.58
818.322	14057.72
818.651	13972.98
818.979	13984.05
819.307	13990.83
819.636	13925.98
819.964	13827
820.292	13949.03
820.62	13917.84
820.948	13875.36
821.276	13887.78
821.604	13803.04
821.932	13835.81
822.259	13881.91
822.587	13757.62
822.915	13758.07
823.243	13764.17
823.57	13756.94
823.898	13794.91
824.225	13672.87
824.553	13764.17
824.88	13744.06
825.207	13762.14
825.535	13739.54
825.862	13825.87
826.189	13725.3
826.516	13705.19
826.843	13859.31
827.17	13796.71
827.497	13789.48
827.824	13787.9
828.151	13839.42
828.478	13709.48
828.805	13819.09
829.131	13748.35
829.458	13659.54
829.785	13729.37
830.111	13659.09
830.438	13782.7
830.764	13715.81
831.09	13746.09
831.417	13702.03
831.743	13694.8
832.069	13728.01
832.395	13679.2
832.722	13638.53
833.048	13667.23
833.374	13572.09
833.7	13602.14
834.026	13528.47
834.351	13645.08
834.677	13593.78
835.003	13596.72
835.329	13600.56
835.654	13547.91
835.98	13425.88
836.306	13499.77
836.631	13381.81
836.956	13442.37
837.282	13503.84
837.607	13445.99
837.932	13425.42
838.258	13389.49
838.583	13356.5
838.908	13253.9
839.233	13332.32
839.558	13271.98
839.883	13229.95
840.208	13243.51
840.533	13156.5
840.858	13164.87
841.182	13222.94
841.507	13050.97
841.832	13061.82
842.156	13081.03
842.481	13084.42
842.805	13026.56
843.13	13009.16
843.454	12915.15
843.778	12908.6
844.103	12866.57
844.427	12876.29
844.751	12781.37
845.075	12804.2
845.399	12814.82
845.723	12626.8
846.047	12687.14
846.371	12657.76
846.695	12593.81
847.019	12472.23
847.343	12400.59
847.666	12312.46
847.99	12266.13
848.313	12313.81
848.637	12267.71
848.96	12138.68
849.284	12152.24
849.607	12031.11
849.931	12070.43
850.254	11975.07
850.577	11927.84
850.9	11848.06
851.223	11823.43
851.546	11750.89
851.869	11737.11
852.192	11802.87
852.515	11683.1
852.838	11542.08
853.161	11555.64
853.483	11539.6
853.806	11522.65
854.129	11541.41
854.451	11460.28
854.774	11384.12
855.096	11416.44
855.419	11379.38
855.741	11303.9
856.063	11233.39
856.385	11202.88
856.708	11211.02
857.03	11153.85
857.352	11167.4
857.674	11068.65
857.996	11078.37
858.318	11030.23
858.64	11006.73
858.961	10998.14
859.283	10947.52
859.605	10834.31
859.926	10891.93
860.248	10961.76
860.57	10796.57
860.891	10787.3
861.212	10816
861.534	10728.32
861.855	10645.61
862.176	10753.63
862.498	10704.59
862.819	10682.22
863.14	10673.86
863.461	10606.29
863.782	10597.7
864.103	10613.75
864.424	10574.2
864.745	10514.77
865.065	10478.16
865.386	10499.17
865.707	10532.39
866.027	10515.44
866.348	10446.07
866.668	10423.69
866.989	10432.51
867.309	10388.89
867.63	10365.39
867.95	10307.54
868.27	10244.26
868.59	10329.91
868.91	10243.81
869.23	10257.6
869.55	10260.08
869.87	10273.87
870.19	10162.91
870.51	10241.55
870.83	10227.77
871.15	10149.58
871.469	10131.5
871.789	10146.64
872.109	10158.17
872.428	10050.15
872.748	10165.4
873.067	10069.35
873.386	10070.71
873.706	10042.69
874.025	10010.15
874.344	10038.62
874.663	9988.23
874.982	10006.53
875.301	10030.71
875.62	9922.92
875.939	9874.33
876.258	9971.28
876.577	9895.8
876.896	9901.67
877.214	9926.53
877.533	9875.69
877.852	9868
878.17	9810.38
878.489	9824.84
878.807	9814.45
879.125	9774.9
879.444	9707.56
879.762	9732.64
880.08	9717.72
880.398	9685.18
880.716	9687.89
881.034	9606.77
881.352	9656.48
881.67	9599.76
881.988	9595.47
882.306	9519.31
882.624	9517.05
882.941	9510.72
883.259	9489.48
883.577	9402.03
883.894	9427.56
884.212	9441.35
884.529	9472.31
884.846	9348.47
885.164	9375.81
885.481	9308.7
885.798	9396.83
886.115	9262.14
886.432	9308.7
886.75	9247.45
887.067	9241.35
887.383	9136.5
887.7	9216.27
888.017	9162.26
888.334	9215.59
888.651	9159.77
888.967	9112.77
889.284	9006.78
889.6	8981.25
889.917	8986.44
890.233	9061.24
890.55	8958.42
890.866	8920.23
891.182	8943.96
891.498	8886.11
891.815	8820.8
892.131	8844.75
892.447	8796.39
892.763	8756.17
893.079	8823.28
893.395	8713.68
893.71	8730.63
894.026	8609.73
894.342	8687.92
894.657	8534.25
894.973	8544.65
895.289	8555.5
895.604	8574.03
895.92	8473.46
896.235	8408.15
896.55	8456.51
896.865	8460.36
897.181	8330.64
897.496	8364.99
897.811	8339.68
898.126	8332.9
898.441	8282.06
898.756	8257.2
899.071	8267.82
899.386	8244.32
899.7	8108.05
900.015	8169.29
900.33	8062.85
900.644	8093.36
900.959	8122.74
901.273	8059.69
901.588	7986.24
901.902	7993.25
902.216	7946.7
902.531	7918.68
902.845	7830.77
903.159	7878.9
903.473	7823.31
903.787	7767.72
904.101	7694.73
904.415	7713.26
904.729	7700.83
905.042	7684.56
905.356	7670.32
905.67	7659.02
905.984	7572.92
906.297	7538.35
906.611	7435.52
906.924	7531.34
907.237	7469.65
907.551	7462.87
907.864	7471.68
908.177	7401.18
908.491	7398.01
908.804	7297.9
909.117	7269.2
909.43	7269.43
909.743	7300.16
910.056	7256.55
910.368	7175.64
910.681	7218.36
910.994	7156.89
911.307	7064.24
911.619	7087.96
911.932	7093.16
912.244	6988.08
912.557	7005.48
912.869	6943.33
913.181	6913.96
913.494	6915.54
913.806	6901.75
914.118	6818.59
914.43	6787.18
914.742	6858.82
915.054	6724.36
915.366	6685.94
915.678	6702.66
915.99	6649.56
916.302	6638.48
916.613	6597.58
916.925	6580.86
917.236	6621.76
917.548	6509
917.859	6534.08
918.171	6498.37
918.482	6458.6
918.794	6425.38
919.105	6389.45
919.416	6357.81
919.727	6351.94
920.038	6323.24
920.349	6268.1
920.66	6274.88
920.971	6243.24
921.282	6198.04
921.593	6146.07
921.903	6143.13
922.214	6121.66
922.525	6103.36
922.835	6017.03
923.146	6032.62
923.456	6023.81
923.767	6019.06
924.077	6013.19
924.387	5953.08
924.697	5948.78
925.008	5923.7
925.318	5878.73
925.628	5877.37
925.938	5830.14
926.248	5774.55
926.558	5786.98
926.867	5760.77
927.177	5713.31
927.487	5721.45
927.796	5656.59
928.106	5686.87
928.416	5632.63
928.725	5641.9
929.034	5609.58
929.344	5560.09
929.653	5509.25
929.962	5500.21
930.271	5488.46
930.581	5478.74
930.89	5469.93
931.199	5390.15
931.508	5418.63
931.817	5425.18
932.125	5346.77
932.434	5327.11
932.743	5292.76
933.051	5264.96
933.36	5234
933.669	5231.51
933.977	5267.67
934.286	5200.1
934.594	5188.13
934.902	5137.96
935.21	5162.82
935.519	5126.21
935.827	5126.88
936.135	5083.72
936.443	4996.49
936.751	5054.57
937.059	4976.15
937.367	4981.13
937.674	4935.7
937.982	4942.26
938.29	4932.54
938.597	4949.26
938.905	4857.06
939.213	4837.85
939.52	4767.57
939.827	4859.32
940.135	4833.56
940.442	4791.3
940.749	4773.9
941.056	4790.17
941.363	4730.06
941.67	4680.34
941.977	4630.85
942.284	4660
942.591	4658.42
942.898	4602.6
943.205	4616.16
943.511	4560.57
943.818	4570.97
944.125	4495.04
944.431	4551.53
944.738	4514.02
945.044	4476.28
945.35	4433.12
945.657	4420.69
945.963	4388.6
946.269	4365.78
946.575	4400.58
946.881	4331.65
947.187	4348.83
947.493	4308.38
947.799	4304.31
948.105	4253.91
948.41	4245.1
948.716	4235.38
949.022	4215.72
949.327	4253.91
949.633	4161.26
949.938	4161.94
950.244	4173.46
950.549	4169.17
950.854	4100.02
951.16	4052.56
951.465	4038.1
951.77	4031.55
952.075	4066.57
952.38	4026.57
952.685	3979.34
952.99	4019.12
953.294	3985.9
953.599	3975.28
953.904	3932.57
954.209	3902.96
954.513	3936.63
954.818	3882.17
955.122	3857.77
955.426	3855.73
955.731	3816.86
956.035	3820.93
956.339	3776.41
956.643	3772.8
956.948	3774.15
957.252	3738.67
957.556	3710.43
957.86	3759.01
958.163	3751.1
958.467	3702.52
958.771	3696.41
959.075	3665.91
959.378	3661.39
959.682	3674.27
959.985	3602.41
960.289	3603.31
960.592	3584.1
960.896	3594.04
961.199	3583.65
961.502	3566.93
961.805	3538.23
962.108	3507.94
962.411	3494.16
962.714	3484.67
963.017	3466.59
963.32	3468.85
963.623	3421.39
963.926	3398.79
964.228	3435.18
964.531	3417.33
964.833	3370.32
965.136	3377.55
965.438	3381.17
965.741	3280.83
966.043	3272.92
966.345	3298.68
966.648	3291.23
966.95	3253.26
967.252	3221.62
967.554	3224.34
967.856	3236.99
968.158	3201.96
968.46	3219.82
968.761	3166.48
969.063	3164
969.365	3177.78
969.666	3128.52
969.968	3113.83
970.269	3115.19
970.571	3107.96
970.872	3098.69
971.174	3048.3
971.475	3076.32
971.776	3040.84
972.077	3080.84
972.378	3037
972.679	2996.55
972.98	2960.84
973.281	2986.38
973.582	2963.1
973.883	2958.13
974.183	2970.11
974.484	2973.27
974.785	2931.91
975.085	2901.86
975.386	2908.64
975.686	2874.74
975.986	2854.85
976.287	2869.32
976.587	2869.77
976.887	2844.23
977.187	2847.4
977.487	2820.28
977.787	2788.87
978.087	2763.56
978.387	2746.38
978.687	2734.18
978.987	2734.63
979.286	2705.71
979.586	2696.44
979.885	2713.84
980.185	2711.13
980.484	2679.94
980.784	2674.07
981.083	2663.9
981.382	2653.28
981.682	2634.75
981.981	2640.17
982.28	2605.14
982.579	2593.62
982.878	2581.87
983.177	2591.81
983.475	2584.8
983.774	2581.64
984.073	2543.68
984.372	2544.13
984.67	2562.66
984.969	2536.9
985.267	2501.87
985.566	2452.61
985.864	2444.92
986.162	2472.72
986.461	2454.86
986.759	2448.54
987.057	2450.57
987.355	2417.8
987.653	2448.76
987.951	2415.54
988.249	2416.9
988.547	2360.63
988.844	2337.58
989.142	2396.11
989.44	2368.54
989.737	2319.5
990.035	2329.9
990.332	2286.51
990.63	2278.37
990.927	2259.16
991.224	2259.62
991.521	2282.21
991.819	2256.68
992.116	2238.15
992.413	2207.41
992.71	2171.71
993.006	2243.8
993.303	2214.87
993.6	2220.75
993.897	2187.75
994.193	2201.54
994.49	2178.94
994.787	2159.73
995.083	2124.03
995.379	2133.29
995.676	2127.19
995.972	2129.68
996.268	2103.69
996.565	2074.99
996.861	2030.24
997.157	2067.98
997.453	2046.06
997.749	2057.36
998.044	2069.56
998.34	2023.92
998.636	2023.46
998.932	2049.23
999.227	1991.6
999.523	1991.83
999.818	1974.2
1000.114	2004.48
1000.409	1924.71
1000.704	1932.62
1001	1952.51
1001.295	1912.96
1001.59	1902.34
1001.885	1920.19
1002.18	1902.56
1002.475	1874.77
1002.77	1854.88
1003.065	1871.15
1003.359	1841.1
1003.654	1883.13
1003.949	1832.06
1004.243	1803.58
1004.538	1790.25
1004.832	1839.29
1005.127	1801.32
1005.421	1786.86
1005.715	1800.64
1006.009	1767.88
1006.304	1755.67
1006.598	1753.19
1006.892	1731.49
1007.186	1743.47
1007.48	1729.91
1007.773	1705.96
1008.067	1694.21
1008.361	1698.5
1008.655	1679.74
1008.948	1667.09
1009.242	1657.82
1009.535	1663.7
1009.829	1661.89
1010.122	1623.02
1010.415	1606.3
1010.708	1591.61
1011.001	1607.2
1011.295	1579.86
1011.588	1591.16
1011.881	1552.97
1012.173	1577.37
1012.466	1607.88
1012.759	1591.61
1013.052	1568.56
1013.344	1548.9
1013.637	1548.22
1013.93	1526.75
1014.222	1515
1014.514	1503.93
1014.807	1490.14
1015.099	1495.34
1015.391	1485.85
1015.683	1464.16
1015.976	1459.86
1016.268	1463.93
1016.56	1459.64
1016.851	1419.41
1017.143	1432.74
1017.435	1403.59
1017.727	1407.43
1018.018	1423.03
1018.31	1383.71
1018.602	1384.38
1018.893	1376.93
1019.185	1358.62
1019.476	1336.02
1019.767	1351.84
1020.058	1324.95
1020.35	1307.55
1020.641	1328.11
1020.932	1312.75
1021.223	1310.49
1021.514	1308
1021.804	1306.42
1022.095	1276.82
1022.386	1264.16
1022.677	1261.45
1022.967	1283.82
1023.258	1227.1
1023.548	1229.13
1023.839	1239.53
1024.129	1253.31
1024.419	1235.69
1024.709	1188.91
1025	1188.91
1025.29	1179.87
1025.58	1205.86
1025.87	1167.22
1026.16	1174.22
1026.449	1164.28
1026.739	1167.22
1027.029	1138.06
1027.319	1143.71
1027.608	1134
1027.898	1131.74
1028.187	1148.23
1028.477	1136.26
1028.766	1107.1
1029.055	1093.77
1029.344	1104.62
1029.634	1081.79
1029.923	1077.5
1030.212	1074.11
1030.501	1092.64
1030.79	1048.57
1031.078	1032.08
1031.367	1059.87
1031.656	1027.33
1031.945	1026.88
1032.233	1019.87
1032.522	1004.73
1032.81	1019.42
1033.099	1001.34
1033.387	1003.15
1033.675	975.36
1033.963	980.78
1034.251	1000.44
1034.54	990.95
1034.828	971.97
1035.116	972.19
1035.403	930.16
1035.691	964.28
1035.979	946.2
1036.267	927.67
1036.554	921.57
1036.842	901.46
1037.129	913.21
1037.417	915.92
1037.704	906.66
1037.992	891.52
1038.279	890.84
1038.566	904.4
1038.853	904.4
1039.14	904.4
