Data from hue_320_FLMS001491_91.txt Node
Date: Mon Feb 06 15:47:58 GMT 2017
User: dcchb
Spectrometer: FLMS00149
Trigger mode: 0
Integration Time (sec): 2.000000E-2
Scans to average: 10
Electric dark correction enabled: true
Nonlinearity correction enabled: false
Boxcar width: 0
XAxis mode: Wavelengths
Number of Pixels in Spectrum: 2048
>>>>>Begin Spectral Data<<<<<
341.393	-12.71
341.776	-12.71
342.16	-12.71
342.543	-52.26
342.927	-70.56
343.31	-58.36
343.693	-89.77
344.077	-68.76
344.46	-52.71
344.843	-48.87
345.226	-43.45
345.61	-26.72
345.993	-19.49
346.376	-21.3
346.759	3.33
347.142	39.26
347.525	41.52
347.908	60.28
348.291	63.67
348.674	99.15
349.057	122.2
349.44	121.52
349.823	157.91
350.206	165.81
350.588	189.09
350.971	191.35
351.354	233.84
351.737	232.03
352.119	246.72
352.502	267.51
352.884	256.89
353.267	295.75
353.65	273.38
354.032	293.04
354.414	321.29
354.797	322.65
355.179	325.58
355.562	308.64
355.944	343.44
356.326	339.82
356.709	314.51
357.091	337.79
357.473	349.76
357.855	348.86
358.238	336.21
358.62	356.32
359.002	338.69
359.384	331.23
359.766	341.86
360.148	355.19
360.53	368.97
360.912	336.88
361.294	341.18
361.676	351.8
362.057	349.31
362.439	341.63
362.821	301.18
363.203	314.06
363.584	337.11
363.966	309.54
364.348	326.26
364.729	338.69
365.111	313.61
365.493	312.93
365.874	307.73
366.256	321.29
366.637	310.22
367.019	339.14
367.4	317
367.781	341.18
368.163	305.47
368.544	314.74
368.925	315.64
369.306	336.21
369.688	319.94
370.069	285.13
370.45	317.9
370.831	304.12
371.212	301.86
371.593	318.13
371.974	328.52
372.355	326.94
372.736	326.26
373.117	322.42
373.498	304.12
373.879	309.77
374.26	325.13
374.641	317.22
375.021	297.34
375.402	333.72
375.783	330.56
376.163	329.2
376.544	328.75
376.925	333.49
377.305	328.75
377.686	319.03
378.066	329.65
378.447	327.39
378.827	326.94
379.208	328.07
379.588	324.91
379.968	332.82
380.349	338.47
380.729	339.14
381.109	333.49
381.489	342.76
381.87	335.08
382.25	330.1
382.63	341.18
383.01	356.09
383.39	342.31
383.77	331.69
384.15	341.4
384.53	340.5
384.91	346.6
385.29	334.17
385.67	354.28
386.049	348.63
386.429	346.38
386.809	342.99
387.189	346.38
387.568	347.28
387.948	354.06
388.328	356.54
388.707	353.38
389.087	342.76
389.466	346.83
389.846	333.27
390.225	341.18
390.605	347.28
390.984	341.86
391.363	366.26
391.743	354.74
392.122	366.04
392.501	355.41
392.881	385.47
393.26	377.79
393.639	377.33
394.018	369.43
394.397	373.04
394.776	358.35
395.155	368.75
395.534	378.69
395.913	381.85
396.292	382.98
396.671	377.11
397.05	376.2
397.429	380.95
397.808	379.37
398.186	384.79
398.565	383.44
398.944	382.31
399.323	392.7
399.701	379.82
400.08	427.28
400.458	409.2
400.837	379.14
401.215	410.33
401.594	423.89
401.972	402.42
402.351	415.98
402.729	401.51
403.107	409.42
403.486	402.87
403.864	430.89
404.242	418.92
404.62	430.44
404.999	417.33
405.377	420.05
405.755	432.7
406.133	451.91
406.511	451.91
406.889	432.25
407.267	449.42
407.645	446.26
408.023	437.45
408.401	435.41
408.779	460.27
409.156	476.99
409.534	467.05
409.912	467.05
410.29	476.54
410.667	480.16
411.045	465.24
411.422	485.13
411.8	473.15
412.178	511.57
412.555	493.04
412.933	491.23
413.31	516.99
413.687	510.44
414.065	498.01
414.442	532.13
414.819	540.27
415.197	517.44
415.574	541.17
415.951	556.09
416.328	553.83
416.705	576.2
417.082	559.93
417.46	585.01
417.837	562.19
418.214	579.36
418.591	585.69
418.967	602.41
419.344	603.32
419.721	601.96
420.098	599.48
420.475	624.33
420.852	633.83
421.228	623.66
421.605	651.68
421.982	658.23
422.358	654.39
422.735	665.91
423.111	675.63
423.488	686.03
423.864	674.28
424.241	690.55
424.617	700.72
424.994	697.55
425.37	679.93
425.746	710.89
426.123	719.92
426.499	722.64
426.875	724.67
427.251	712.24
427.627	736.2
428.003	756.99
428.379	790.66
428.756	740.49
429.132	764.44
429.507	769.87
429.883	802.41
430.259	768.74
430.635	786.36
431.011	822.29
431.387	822.29
431.763	827.04
432.138	830.43
432.514	851.45
432.89	849.41
433.265	848.51
433.641	890.54
434.016	891.45
434.392	894.61
434.767	887.38
435.143	909.07
435.518	933.7
435.894	930.09
436.269	931.22
436.644	956.08
437.02	935.29
437.395	968.28
437.77	962.18
438.145	956.75
438.52	967.38
438.895	985.91
439.271	1014.15
439.646	1015.74
440.021	1010.09
440.395	1013.25
440.77	1010.76
441.145	1028.84
441.52	1049.41
441.895	1033.36
442.27	1031.78
442.645	1047.15
443.019	1063.87
443.394	1076.53
443.769	1095.28
444.143	1045.11
444.518	1059.35
444.892	1114.26
445.267	1082.63
445.641	1097.77
446.016	1075.85
446.39	1111.55
446.764	1106.81
447.139	1100.71
447.513	1105.9
447.887	1133.47
448.262	1119.24
448.636	1152.46
449.01	1124.89
449.384	1136.86
449.758	1137.09
450.132	1140.25
450.506	1150.87
450.88	1192.68
451.254	1163.53
451.628	1155.17
452.002	1199.23
452.376	1190.65
452.75	1212.12
453.123	1181.38
453.497	1175.05
453.871	1204.43
454.244	1224.32
454.618	1234.71
454.992	1227.93
455.365	1226.13
455.739	1262.06
456.112	1247.37
456.486	1274.03
456.859	1274.03
457.232	1305.67
457.606	1282.17
457.979	1289.4
458.352	1303.86
458.725	1354.03
459.099	1360.81
459.472	1380.47
459.845	1376.86
460.218	1363.75
460.591	1375.27
460.964	1375.73
461.337	1358.78
461.71	1406.69
462.083	1441.26
462.456	1412.79
462.829	1432.22
463.201	1453.01
463.574	1438.55
463.947	1455.5
464.32	1472
464.692	1469.28
465.065	1479
465.438	1508.6
465.81	1535.72
466.183	1529.85
466.555	1579.11
466.928	1556.96
467.3	1583.18
467.672	1593.8
468.045	1618.66
468.417	1608.26
468.789	1624.53
469.161	1604.65
469.534	1647.36
469.906	1672.44
470.278	1668.15
470.65	1678.77
471.022	1695.94
471.394	1727.36
471.766	1753.12
472.138	1772.78
472.51	1789.27
472.882	1803.29
473.253	1832.21
473.625	1844.87
473.997	1881.02
474.369	1851.87
474.74	1906.33
475.112	1885.09
475.484	1970.51
475.855	1980.68
476.227	2009.61
476.598	2060.68
476.97	2051.41
477.341	2075.82
477.713	2078.76
478.084	2087.57
478.455	2124.86
478.827	2153.33
479.198	2166.21
479.569	2171.64
479.94	2227
480.311	2248.02
480.682	2272.88
481.053	2336.61
481.424	2343.61
481.795	2372.76
482.166	2391.75
482.537	2415.02
482.908	2440.56
483.279	2430.16
483.65	2479.2
484.021	2545.19
484.391	2557.39
484.762	2577.28
485.133	2587.22
485.503	2620.21
485.874	2672.42
486.244	2652.98
486.615	2670.83
486.985	2737.95
487.356	2762.36
487.726	2805.52
488.097	2850.49
488.467	2824.73
488.837	2911.05
489.207	2900.88
489.578	2922.58
489.948	2946.31
490.318	2996.47
490.688	3034.89
491.058	3033.08
491.428	3085.06
491.798	3056.13
492.168	3148.56
492.538	3172.52
492.908	3189.01
493.278	3212.06
493.648	3207.54
494.017	3249.35
494.387	3276.92
494.757	3297.48
495.126	3269.01
495.496	3335.45
495.866	3324.6
496.235	3327.77
496.605	3344.49
496.974	3409.8
497.344	3436.46
497.713	3444.6
498.082	3460.64
498.452	3493.86
498.821	3487.54
499.19	3490.93
499.559	3527.08
499.928	3535.67
500.298	3600.98
500.667	3595.56
501.036	3571.83
501.405	3624.93
501.774	3621.77
502.143	3643.46
502.512	3603.69
502.88	3687.08
503.249	3694.08
503.618	3671.94
503.987	3723.69
504.356	3697.47
504.724	3747.64
505.093	3735.66
505.462	3735.66
505.83	3761.88
506.199	3815.21
506.567	3802.78
506.936	3810.92
507.304	3838.03
507.672	3869.9
508.041	3857.24
508.409	3887.52
508.777	3907.86
509.145	3903.12
509.514	3885.94
509.882	3933.85
510.25	3943.57
510.618	3981.76
510.986	3924.13
511.354	3953.29
511.722	4004.36
512.09	4057.69
512.458	4010.01
512.826	4050.68
513.193	4046.16
513.561	4048.42
513.929	4088.65
514.297	4112.83
514.664	4133.39
515.032	4069.22
515.4	4177.69
515.767	4155.09
516.135	4170.46
516.502	4141.98
516.869	4199.61
517.237	4205.26
517.604	4174.97
517.972	4190.79
518.339	4252.71
518.706	4252.94
519.073	4219.72
519.44	4240.06
519.808	4312.6
520.175	4217.46
520.542	4285.25
520.909	4298.36
521.276	4323.22
521.643	4318.47
522.009	4374.07
522.376	4368.87
522.743	4402.99
523.11	4416.55
523.477	4428.08
523.843	4422.43
524.21	4472.14
524.577	4506.49
524.943	4498.58
525.31	4529.54
525.676	4562.99
526.043	4546.94
526.409	4602.31
526.776	4667.62
527.142	4627.17
527.508	4641.63
527.874	4661.52
528.241	4705.36
528.607	4704
528.973	4787.84
529.339	4773.15
529.705	4801.85
530.071	4805.92
530.437	4815.64
530.803	4844.56
531.169	4839.14
531.535	4882.08
531.901	4873.49
532.267	4935.41
532.632	4959.59
532.998	4953.26
533.364	5003.65
533.73	4970.66
534.095	5014.05
534.461	5109.87
534.826	5115.52
535.192	5115.52
535.557	5141.5
535.923	5158.9
536.288	5145.12
536.653	5141.05
537.019	5146.7
537.384	5226.47
537.749	5248.85
538.114	5237.32
538.479	5261.73
538.845	5287.71
539.21	5327.04
539.575	5320.93
539.94	5310.09
540.305	5360.71
540.67	5339.69
541.034	5386.24
541.399	5459.69
541.764	5487.93
542.129	5454.94
542.494	5506.24
542.858	5524.54
543.223	5526.35
543.587	5567.25
543.952	5547.82
544.316	5567.03
544.681	5585.79
545.045	5565.9
545.41	5631.43
545.774	5690.42
546.138	5678.21
546.503	5731.77
546.867	5721.83
547.231	5794.82
547.595	5746.69
547.959	5802.5
548.324	5807.93
548.688	5811.99
549.052	5874.82
549.416	5843.86
549.779	5898.09
550.143	5916.62
550.507	5909.39
550.871	5983.06
551.235	5929.28
551.599	6006.57
551.962	6031.65
552.326	6023.29
552.689	6025.55
553.053	6094.25
553.417	6072.33
553.78	6163.62
554.143	6131.08
554.507	6114.58
554.87	6167.69
555.234	6214.47
555.597	6213.57
555.96	6206.56
556.323	6191.87
556.686	6244.98
557.05	6264.64
557.413	6319.55
557.776	6333.11
558.139	6309.16
558.502	6421.47
558.865	6399.32
559.228	6399.78
559.59	6375.82
559.953	6477.29
560.316	6474.8
560.679	6454.92
561.041	6516.61
561.404	6522.94
561.767	6554.57
562.129	6575.36
562.492	6583.5
562.854	6548.47
563.217	6591.18
563.579	6593.67
563.941	6679.99
564.304	6626.21
564.666	6696.04
565.028	6724.96
565.39	6702.82
565.753	6774
566.115	6799.99
566.477	6810.39
566.839	6806.77
567.201	6865.53
567.563	6894.23
567.925	6867.33
568.287	6869.37
568.648	6918.63
569.01	7040.66
569.372	7022.36
569.734	6961.79
570.095	7042.92
570.457	7107.55
570.819	7134.45
571.18	7127.44
571.542	7209.02
571.903	7237.27
572.265	7237.04
572.626	7276.36
572.987	7334.67
573.349	7356.81
573.71	7429.13
574.071	7464.15
574.432	7518.39
574.794	7599.52
575.155	7606.98
575.516	7593.19
575.877	7697.37
576.238	7796.57
576.599	7855.56
576.96	7923.13
577.32	8009.45
577.681	8068.21
578.042	8110.46
578.403	8228.65
578.763	8252.38
579.124	8394.3
579.485	8428.42
579.845	8595.2
580.206	8678.81
580.566	8705.7
580.927	8858.69
581.287	8988.18
581.648	9061.4
582.008	9262.75
582.368	9392.46
582.728	9401.73
583.089	9634.04
583.449	9823.19
583.809	9920.36
584.169	10075.84
584.529	10221.82
584.889	10456.39
585.249	10645.09
585.609	10778.64
585.969	11041.69
586.329	11268.35
586.688	11395.12
587.048	11609.13
587.408	11814.32
587.768	12031.49
588.127	12247.08
588.487	12497.02
588.846	12809.55
589.206	12932.26
589.565	13148.98
589.925	13466.26
590.284	13698.34
590.643	13973.36
591.003	14196.86
591.362	14546.91
591.721	14754.58
592.08	14935.37
592.44	15343.27
592.799	15566.09
593.158	15843.82
593.517	16110.71
593.876	16490.36
594.235	16773.29
594.593	16949.1
594.952	17277.46
595.311	17423.21
595.67	17804.22
596.029	18179.58
596.387	18410.53
596.746	18763.07
597.104	19005.09
597.463	19296.84
597.822	19597.17
598.18	19811.4
598.538	20091.62
598.897	20453.42
599.255	20536.13
599.613	21129.56
599.972	21294.3
600.33	21669.43
600.688	21796.21
601.046	22147.16
601.404	22573.81
601.762	22756.86
602.12	23137.19
602.478	23243.63
602.836	23559.32
603.194	23686.55
603.552	24035.47
603.91	24131.74
604.268	24466.87
604.625	24668
604.983	25035.44
605.341	25080.87
605.698	25539.38
606.056	25830.22
606.413	26062.76
606.771	26138.24
607.128	26517.89
607.485	26659.81
607.843	26881.27
608.2	27109.51
608.557	27502.05
608.914	27485.77
609.272	27954.91
609.629	28129.6
609.986	28460.89
610.343	28472.87
610.7	28830.6
611.057	28947.66
611.414	29146.3
611.771	29380.64
612.127	29787.41
612.484	29693.85
612.841	30007.97
613.198	30123.22
613.554	30254.52
613.911	30431.91
614.267	30710.77
614.624	30838.45
614.98	31028.96
615.337	31192.8
615.693	31382.17
616.05	31449.96
616.406	31781.03
616.762	31804.53
617.118	31884.53
617.475	32021.47
617.831	32351.41
618.187	32291.52
618.543	32591.63
618.899	32751.17
619.255	32825.3
619.611	32927.44
619.967	33147.09
620.323	33324.04
620.678	33353.64
621.034	33287.2
621.39	33380.08
621.746	33547.54
622.101	33889.22
622.457	33768.1
622.812	33886.96
623.168	33994.76
623.523	34096.67
623.879	34249.66
624.234	34114.53
624.589	34394.75
624.945	34576.44
625.3	34644.91
625.655	34540.5
626.01	34741.85
626.365	34815.07
626.72	34856.65
627.075	34831.57
627.43	35001.96
627.785	34958.57
628.14	35167.15
628.495	35201.73
628.85	35174.16
629.205	35095.07
629.559	35285.8
629.914	35266.36
630.269	35317.66
630.623	35252.35
630.978	35272.91
631.332	35408.73
631.687	35790.41
632.041	35504.09
632.396	35516.07
632.75	35333.25
633.104	35544.55
633.459	35474.04
633.813	35510.87
634.167	35626.8
634.521	35601.95
634.875	35696.41
635.229	35630.87
635.583	35519.69
635.937	35563.98
636.291	35535.73
636.645	35642.85
636.999	35542.74
637.352	35737.31
637.706	35511.78
638.06	35697.76
638.413	35626.58
638.767	35495.28
639.121	35577.54
639.474	35372.35
639.828	35519.24
640.181	35575.73
640.534	35628.16
640.888	35557.65
641.241	35401.05
641.594	35343.65
641.947	35573.25
642.301	35472.91
642.654	35523.3
643.007	35469.75
643.36	35543.42
643.713	35373.48
644.066	35649.85
644.419	35383.19
644.771	35175.52
645.124	34817.11
645.477	34881.74
645.83	34644.46
646.182	34525.59
646.535	34395.65
646.888	34427.96
647.24	34299.83
647.593	34465.48
647.945	34338.93
648.298	34318.14
648.65	34290.12
649.002	34053.96
649.355	34348.19
649.707	34351.36
650.059	34505.25
650.411	34889.65
650.763	34912.02
651.115	35332.8
651.467	35161.73
651.819	35077.67
652.171	35039.25
652.523	34990.66
652.875	35136.87
653.227	34995.86
653.578	35049.87
653.93	35030.43
654.282	34779.82
654.633	34857.33
654.985	34971.91
655.337	34893.26
655.688	34876.31
656.039	35058.23
656.391	34769.65
656.742	34713.83
657.094	34808.29
657.445	34873.83
657.796	34898.69
658.147	34793.6
658.498	34910.44
658.849	34889.42
659.2	34797.22
659.551	34771.68
659.902	34899.14
660.253	34856.65
660.604	34818.01
660.955	34681.52
661.306	34804.45
661.656	34754.96
662.007	34730.78
662.358	34669.31
662.708	34678.13
663.059	34691.91
663.409	34485.82
663.76	34946.82
664.11	34664.57
664.461	34795.19
664.811	34789.99
665.161	34760.39
665.511	34558.13
665.862	34779.82
666.212	34664.79
666.562	34759.93
666.912	34762.87
667.262	34641.29
667.612	34648.3
667.962	34715.19
668.312	34616.21
668.662	34835.86
669.011	34557.9
669.361	34541.18
669.711	34511.58
670.06	34519.26
670.41	34501.18
670.76	34431.58
671.109	34550.9
671.459	34479.26
671.808	34451.24
672.157	34501.41
672.507	34278.82
672.856	34352.49
673.205	34478.81
673.554	34533.5
673.904	34320.17
674.253	34589.99
674.602	34251.92
674.951	33909.11
675.3	33854.42
675.649	34235.65
675.998	34283.11
676.346	34172.15
676.695	34437
677.044	34194.75
677.393	34141.19
677.741	34358.59
678.09	34150.68
678.438	34103.91
678.787	34237.24
679.135	34307.97
679.484	33933.29
679.832	34035.88
680.181	33848.32
680.529	34079.27
680.877	33964.25
681.225	33821.65
681.573	34061.65
681.922	33781.65
682.27	33718.83
682.618	33745.72
682.966	33644.48
683.314	33729.68
683.661	33671.6
684.009	33481.55
684.357	33460.08
684.705	33498.05
685.053	33444.26
685.4	33291.5
685.748	33221.44
686.095	33216.47
686.443	33032.07
686.79	33021
687.138	33108.45
687.485	33100.32
687.832	32959.53
688.18	33068
688.527	32796.6
688.874	32894.45
689.221	32815.35
689.568	32661.23
689.915	32537.17
690.262	32585.75
690.609	32471.63
690.956	32356.15
691.303	32275.25
691.65	32233.45
691.997	32275.48
692.344	31997.75
692.69	31997.97
693.037	32048.37
693.383	31774.48
693.73	31867.58
694.077	31662.39
694.423	31572.22
694.769	31507.36
695.116	31448.16
695.462	31478.44
695.808	31368.38
696.155	31513.24
696.501	31253.36
696.847	31167.94
697.193	30958.9
697.539	31090.43
697.885	30899.92
698.231	30807.95
698.577	30786.25
698.923	30697.89
699.269	30569.99
699.614	30458.13
699.96	30441.63
700.306	30407.73
700.651	30210
700.997	30120.73
701.342	30113.28
701.688	30097.23
702.033	29953.73
702.379	29995.99
702.724	29911.93
703.069	30026.95
703.415	29656.79
703.76	29737.92
704.105	29723
704.45	29439.85
704.795	29424.48
705.14	29339.96
705.485	29292.73
705.83	29241.66
706.175	29189.23
706.52	29124.15
706.865	29099.07
707.209	28976.81
707.554	28965.51
707.899	28994.89
708.243	28671.28
708.588	28800.99
708.932	28581.56
709.277	28561.68
709.621	28606.87
709.966	28332.53
710.31	28531.62
710.654	28222.48
710.998	28314
711.342	28357.62
711.687	28206.89
712.031	28012.77
712.375	27980.45
712.719	28097.96
713.063	27946.55
713.407	28002.15
713.75	27753.56
714.094	27823.39
714.438	27669.5
714.782	27732.55
715.125	27620.46
715.469	27615.26
715.812	27530.97
716.156	27271.54
716.499	27390.64
716.843	27430.86
717.186	27312.45
717.53	27376.85
717.873	27434.02
718.216	27106.8
718.559	27167.14
718.902	26957.43
719.246	27079.23
719.589	27000.14
719.932	26783.19
720.275	26801.95
720.617	26727.6
720.96	26893.7
721.303	26711.11
721.646	26684.21
721.989	26561.5
722.331	26595.18
722.674	26566.02
723.016	26623.88
723.359	26565.57
723.701	26591.79
724.044	26342.75
724.386	26254.39
724.729	26420.72
725.071	26315.86
725.413	26246.03
725.755	26240.16
726.097	26091.01
726.439	26063.21
726.782	26000.16
727.124	26256.65
727.465	25786.61
727.807	25943.89
728.149	25887.17
728.491	25831.81
728.833	25928.75
729.175	25757.01
729.516	25772.37
729.858	25745.48
730.199	25678.59
730.541	25719.04
730.882	25635.65
731.224	25697.8
731.565	25472.72
731.906	25504.13
732.248	25546.16
732.589	25279.5
732.93	25363.57
733.271	25297.13
733.612	25458.48
733.953	25363.57
734.294	25229.11
734.635	25246.51
734.976	25219.17
735.317	25020.53
735.658	24948.67
735.999	25033.41
736.339	25011.94
736.68	25030.7
737.021	24986.63
737.361	24846.97
737.702	24871.83
738.042	24799.74
738.383	24837.26
738.723	24738.95
739.063	24741.44
739.404	24775.79
739.744	24587.55
740.084	24621.44
740.424	24678.62
740.764	24470.71
741.104	24619.86
741.444	24421.9
741.784	24451.05
742.124	24452.18
742.464	24439.3
742.804	24278.4
743.143	24298.97
743.483	24350.04
743.823	24221.23
744.162	24258.06
744.502	24258.97
744.841	24072.08
745.181	24237.27
745.52	24139.65
745.86	24079.54
746.199	24051.74
746.538	24040.89
746.877	23954.12
747.216	24087.9
747.556	23991.86
747.895	23955.92
748.234	23825.08
748.573	23755.48
748.911	23821.69
749.25	23686.78
749.589	23682.94
749.928	23692.65
750.267	23702.82
750.605	23588.48
750.944	23554.35
751.283	23362.72
751.621	23588.25
751.96	23237.52
752.298	23316.39
752.636	23334.02
752.975	23215.6
753.313	23085.66
753.651	23224.87
753.989	23019.23
754.327	23084.31
754.666	22871.21
755.004	22974.48
755.342	22953.01
755.679	22894.48
756.017	22757.76
756.355	22782.62
756.693	22609.97
757.031	22677.99
757.368	22606.58
757.706	22522.52
758.044	22539.92
758.381	22497.43
758.719	22362.97
759.056	22364.78
759.394	22325.23
759.731	22207.04
760.068	22102.19
760.405	22029.87
760.743	22025.35
761.08	22109.42
761.417	21798.92
761.754	21875.53
762.091	21839.14
762.428	21780.61
762.765	21673.27
763.102	21644.8
763.438	21489.32
763.775	21383.34
764.112	21368.2
764.449	21443.22
764.785	21399.83
765.122	21255.2
765.458	21171.59
765.795	21064.02
766.131	21075.55
766.467	21017.92
766.804	20949.45
767.14	20821.09
767.476	20848.21
767.812	20711.94
768.148	20668.33
768.485	20631.72
768.821	20509.23
769.157	20552.85
769.492	20427.88
769.828	20289.81
770.164	20201.67
770.5	20139.53
770.836	20099.53
771.171	19975.69
771.507	20050.04
771.842	19836.26
772.178	19888.46
772.513	19793.32
772.849	19661.8
773.184	19775.24
773.519	19550.84
773.855	19584.51
774.19	19501.13
774.525	19403.73
774.86	19399.43
775.195	19331.64
775.53	19304.75
775.865	19100.46
776.2	19082.61
776.535	18914.02
776.87	18932.33
777.205	18913.12
777.539	18896.17
777.874	18794.03
778.209	18683.29
778.543	18580.7
778.878	18446.46
779.212	18476.97
779.547	18306.81
779.881	18356.07
780.215	18207.83
780.55	18231.1
780.884	18161.5
781.218	18049.19
781.552	18048.96
781.886	17941.84
782.22	17902.07
782.554	17833.15
782.888	17746.37
783.222	17599.25
783.556	17488.75
783.889	17523.32
784.223	17456.21
784.557	17278.13
784.89	17426.6
785.224	17249.21
785.557	17239.49
785.891	17157.01
786.224	17168.76
786.558	17048.76
786.891	16979.84
787.224	16914.3
787.557	16842.21
787.891	16836.79
788.224	16751.37
788.557	16753.85
788.89	16673.86
789.223	16687.41
789.556	16417.36
789.888	16515.89
790.221	16406.07
790.554	16263.02
790.887	16316.8
791.219	16203.59
791.552	16200.42
791.884	16124.27
792.217	16067.77
792.549	15973.31
792.882	15918.4
793.214	15839.75
793.546	15907.77
793.879	15685.86
794.211	15638.85
794.543	15729.7
794.875	15689.47
795.207	15665.75
795.539	15535.13
795.871	15518.41
796.203	15321.8
796.535	15362.03
796.867	15234.12
797.198	15146.89
797.53	15213.33
797.862	15162.71
798.193	15187.57
798.525	15099.21
798.856	15084.97
799.188	14961.81
799.519	14914.13
799.85	14722.04
800.182	14812.89
800.513	14794.36
800.844	14662.16
801.175	14725.66
801.506	14744.19
801.837	14602.95
802.168	14598.43
802.499	14535.38
802.83	14489.28
803.161	14371.32
803.491	14401.37
803.822	14421.71
804.153	14405.44
804.483	14215.16
804.814	14227.37
805.145	14199.34
805.475	14201.6
805.805	14153.47
806.136	14100.82
806.466	14099.23
806.796	13963.19
807.126	13945.79
807.457	13958.67
807.787	13852.23
808.117	13829.86
808.447	13717.55
808.777	13772.24
809.107	13800.71
809.436	13708.28
809.766	13720.71
810.096	13655.4
810.426	13550.55
810.755	13565.91
811.085	13561.85
811.414	13471.91
811.744	13428.29
812.073	13404.34
812.403	13284.11
812.732	13266.94
813.061	13277.56
813.39	13240.73
813.719	13156.89
814.049	13289.09
814.378	13140.39
814.707	13092.03
815.036	13123.44
815.365	13023.56
815.693	12928.19
816.022	12907.17
816.351	12937.23
816.68	12829.66
817.008	12858.36
817.337	12807.52
817.665	12782.88
817.994	12812.94
818.322	12739.5
818.651	12705.6
818.979	12681.87
819.307	12760.51
819.636	12666.96
819.964	12554.64
820.292	12601.42
820.62	12580.4
820.948	12512.83
821.276	12602.78
821.604	12516.22
821.932	12506.51
822.259	12582.44
822.587	12564.36
822.915	12384.93
823.243	12514.19
823.57	12460.18
823.898	12417.7
824.225	12385.61
824.553	12388.32
824.88	12439.16
825.207	12480.75
825.535	12436.9
825.862	12419.05
826.189	12354.42
826.516	12472.16
826.843	12442.78
827.17	12387.19
827.497	12402.78
827.824	12415.21
828.151	12407.53
828.478	12424.48
828.805	12446.17
829.131	12401.88
829.458	12344.48
829.785	12266.97
830.111	12385.15
830.438	12434.42
830.764	12394.87
831.09	12405.27
831.417	12339.28
831.743	12413.63
832.069	12325.27
832.395	12332.95
832.722	12317.13
833.048	12314.87
833.374	12369.11
833.7	12344.03
834.026	12293.18
834.351	12314.42
834.677	12209.11
835.003	12287.08
835.329	12287.98
835.654	12202.56
835.98	12160.3
836.306	12244.37
836.631	12119.85
836.956	12176.57
837.282	12156.01
837.607	12090.93
837.932	12099.51
838.258	12106.97
838.583	12075.78
838.908	11993.53
839.233	12015.45
839.558	11951.72
839.883	11964.15
840.208	11898.84
840.533	11885.28
840.858	11932.51
841.182	11895.68
841.507	11853.19
841.832	11862.46
842.156	11833.08
842.481	11798.28
842.805	11782.01
843.13	11693.87
843.454	11685.74
843.778	11652.07
844.103	11631.28
844.427	11684.83
844.751	11641.22
845.075	11593.09
845.399	11555.57
845.723	11462.92
846.047	11452.07
846.371	11354
846.695	11441.22
847.019	11279.65
847.343	11227.22
847.666	11214.11
847.99	11121.91
848.313	11219.08
848.637	11109.26
848.96	11135.02
849.284	11097.73
849.607	11035.36
849.931	10948.81
850.254	10904.06
850.577	10849.38
850.9	10803.05
851.223	10740.23
851.546	10671.3
851.869	10645.54
852.192	10680.57
852.515	10576.84
852.838	10485.32
853.161	10503.17
853.483	10410.52
853.806	10436.28
854.129	10397.64
854.451	10384.08
854.774	10289.16
855.096	10252.78
855.419	10248.71
855.741	10230.18
856.063	10149.73
856.385	10155.83
856.708	10107.02
857.03	10063.86
857.352	10099.79
857.674	10042.84
857.996	9995.84
858.318	9937.54
858.64	9949.51
858.961	9890.98
859.283	9891.21
859.605	9825.67
859.926	9826.35
860.248	9770.76
860.57	9819.8
860.891	9761.27
861.212	9687.6
861.534	9695.73
861.855	9697.09
862.176	9700.71
862.498	9672.68
862.819	9661.84
863.14	9611.89
863.461	9599.92
863.782	9585.91
864.103	9664.32
864.424	9484.44
864.745	9538.22
865.065	9530.77
865.386	9531.44
865.707	9446.7
866.027	9439.24
866.348	9498.68
866.668	9481.73
866.989	9382.75
867.309	9348.62
867.63	9356.53
867.95	9338.91
868.27	9316.76
868.59	9319.7
868.91	9279.7
869.23	9304.11
869.55	9286.03
869.87	9311.79
870.19	9287.16
870.51	9158.57
870.83	9297.33
871.15	9137.78
871.469	9138.91
871.789	9234.73
872.109	9149.76
872.428	9146.82
872.748	9126.26
873.067	9147.95
873.386	9130.32
873.706	9115.86
874.025	9027.95
874.344	8981.4
874.663	9034.73
874.982	9000.38
875.301	9033.6
875.62	8957.22
875.939	8941.63
876.258	8940.73
876.577	8990.67
876.896	8929.88
877.214	8907.05
877.533	8862.08
877.852	8892.37
878.17	8873.61
878.489	8846.04
878.807	8863.21
879.125	8821.18
879.444	8772.37
879.762	8812.37
880.08	8839.03
880.398	8770.56
880.716	8742.76
881.034	8725.82
881.352	8734.4
881.67	8710
881.988	8689.88
882.306	8694.63
882.624	8637.68
882.941	8603.11
883.259	8603.33
883.577	8652.37
883.894	8619.38
884.212	8534.18
884.529	8525.14
884.846	8469.33
885.164	8455.77
885.481	8456.44
885.798	8437.91
886.115	8418.71
886.432	8360.4
886.75	8395.88
887.067	8372.38
887.383	8346.39
887.7	8346.39
888.017	8309.56
888.334	8354.53
888.651	8286.05
888.967	8268.88
889.284	8188.2
889.6	8185.94
889.917	8133.06
890.233	8182.78
890.55	8192.95
890.866	8094.65
891.182	8072.05
891.498	8034.31
891.815	8026.85
892.131	8069.56
892.447	8014.65
892.763	7975.55
893.079	7951.82
893.395	7940.3
893.71	7872.28
894.026	7916.35
894.342	7861.88
894.657	7786.63
894.973	7746.18
895.289	7768.78
895.604	7784.37
895.92	7710.02
896.235	7710.48
896.55	7691.72
896.865	7609.46
897.181	7599.29
897.496	7610.36
897.811	7617.82
898.126	7568.56
898.441	7517.94
898.756	7497.15
899.071	7408.79
899.386	7487.43
899.7	7382.12
900.015	7350.03
900.33	7350.94
900.644	7298.06
900.959	7318.85
901.273	7300.77
901.588	7295.34
901.902	7174.67
902.216	7168.12
902.531	7156.37
902.845	7164.5
903.159	7076.82
903.473	7074.56
903.787	7064.39
904.101	7045.63
904.415	7014.45
904.729	7024.62
905.042	6941.23
905.356	6960.89
905.67	6884.73
905.984	6921.57
906.297	6865.07
906.611	6835.7
906.924	6828.24
907.237	6773.1
907.551	6781.23
907.864	6656.04
908.177	6738.3
908.491	6691.74
908.804	6636.61
909.117	6581.69
909.43	6601.58
909.743	6572.65
910.056	6576.04
910.368	6523.16
910.681	6476.84
910.994	6506.44
911.307	6435.93
911.619	6420.57
911.932	6374.92
912.244	6408.59
912.557	6343.05
912.869	6301.47
913.181	6254.69
913.494	6258.54
913.806	6183.96
914.118	6254.92
914.43	6179.44
914.742	6162.49
915.054	6159.33
915.366	6167.01
915.678	6055.83
915.99	6033.91
916.302	6044.3
916.613	6048.82
916.925	6009.95
917.236	5985.1
917.548	5941.48
917.859	5966.34
918.171	5880.01
918.482	5871.65
918.794	5805.44
919.105	5824.2
919.416	5809.73
919.727	5767.7
920.038	5765.44
920.349	5723.18
920.66	5714.6
920.971	5716.18
921.282	5660.81
921.593	5585.11
921.903	5606.35
922.214	5557.54
922.525	5637.31
922.835	5545.33
923.146	5494.71
923.456	5482.96
923.767	5508.5
924.077	5500.82
924.387	5487.93
924.697	5444.09
925.008	5407.03
925.318	5408.84
925.628	5340.82
925.938	5344.66
926.248	5293.82
926.558	5259.69
926.867	5284.78
927.177	5212.69
927.487	5209.52
927.796	5116.19
928.106	5146.93
928.416	5158.9
928.725	5114.84
929.034	5103.76
929.344	5112.35
929.653	5111.22
929.962	5025.8
930.271	5017.89
930.581	4975.86
930.89	4972.24
931.199	4951.23
931.508	4966.82
931.817	4915.29
932.125	4916.88
932.434	4879.14
932.743	4858.12
933.051	4838.91
933.36	4828.52
933.669	4782.42
933.977	4776.54
934.286	4688.63
934.594	4710.33
934.902	4710.1
935.21	4679.59
935.519	4679.14
935.827	4678.01
936.135	4633.04
936.443	4566.6
936.751	4589.88
937.059	4515.98
937.367	4556.89
937.674	4557.34
937.982	4489.99
938.29	4481.18
938.597	4505.14
938.905	4456.32
939.213	4454.52
939.52	4438.47
939.827	4433.5
940.135	4380.85
940.442	4351.69
940.749	4355.99
941.056	4363.9
941.363	4220.17
941.67	4318.02
941.977	4286.84
942.284	4227.18
942.591	4273.73
942.898	4233.05
943.205	4215.88
943.511	4208.19
943.818	4166.16
944.125	4140.17
944.431	4107.41
944.738	4121.19
945.044	4090.91
945.35	4054.3
945.657	4080.51
945.963	4015.66
946.269	4061.08
946.575	4028.54
946.881	3974.08
947.187	3983.12
947.493	3981.08
947.799	3915.55
948.105	3958.26
948.41	3918.94
948.716	3920.97
949.022	3912.83
949.327	3833.97
949.633	3857.92
949.938	3854.31
950.244	3774.31
950.549	3786.06
950.854	3762.33
951.16	3770.24
951.465	3773.63
951.77	3733.18
952.075	3683.69
952.38	3700.19
952.685	3709.45
952.99	3665.84
953.294	3652.28
953.599	3666.29
953.904	3613.63
954.209	3605.27
954.513	3603.24
954.818	3585.84
955.122	3547.65
955.426	3553.75
955.731	3500.64
956.035	3504.03
956.339	3497.48
956.643	3494.31
956.948	3466.97
957.252	3404.15
957.556	3477.59
957.86	3443.47
958.163	3421.55
958.467	3363.24
958.771	3315.34
959.075	3369.12
959.378	3365.96
959.682	3359.63
959.985	3324.15
960.289	3304.49
960.592	3290.48
960.896	3287.09
961.199	3219.97
961.502	3276.02
961.805	3230.37
962.108	3215.45
962.411	3233.98
962.714	3186.98
963.017	3226.75
963.32	3179.97
963.623	3155.11
963.926	3160.76
964.228	3119.41
964.531	3140.65
964.833	3111.05
965.136	3095
965.438	3080.31
965.741	3044.84
966.043	3054.33
966.345	3043.93
966.648	3059.98
966.95	3022.24
967.252	2977.49
967.554	2968.45
967.856	2972.07
968.158	2934.1
968.46	2981.79
968.761	2923.26
969.063	2925.06
969.365	2882.13
969.666	2890.71
969.968	2886.87
970.269	2879.19
970.571	2864.5
970.872	2869.47
971.174	2839.64
971.475	2853.2
971.776	2830.6
972.077	2803.26
972.378	2785.63
972.679	2775.92
972.98	2755.8
973.281	2771.62
973.582	2763.71
973.883	2743.37
974.183	2733.66
974.484	2697.27
974.785	2699.99
975.085	2696.6
975.386	2674.68
975.686	2703.15
975.986	2671.29
976.287	2624.96
976.587	2638.74
976.887	2631.06
977.187	2615.02
977.487	2597.16
977.787	2581.8
978.087	2574.79
978.387	2598.75
978.687	2573.21
978.987	2525.3
979.286	2534.57
979.586	2501.12
979.885	2507.45
980.185	2472.19
980.484	2498.63
980.784	2470.39
981.083	2452.76
981.382	2474
981.682	2467.22
981.981	2419.31
982.28	2369.15
982.579	2385.42
982.878	2393.55
983.177	2421.35
983.475	2391.29
983.774	2366.89
984.073	2338.41
984.372	2375.93
984.67	2364.63
984.969	2353.1
985.267	2295.02
985.566	2329.6
985.864	2305.42
986.162	2288.47
986.461	2290.73
986.759	2267.45
987.057	2216.16
987.355	2245.31
987.653	2249.38
987.951	2213.44
988.249	2224.52
988.547	2207.34
988.844	2207.8
989.142	2201.47
989.44	2177.51
989.737	2160.56
990.035	2142.26
990.332	2145.88
990.63	2152.43
990.927	2137.29
991.224	2132.77
991.521	2112.66
991.819	2095.26
992.116	2111.75
992.413	2084.18
992.71	2066.56
993.006	2090.74
993.303	2039.21
993.6	2072.21
993.897	2027.69
994.193	2036.95
994.49	1975.94
994.787	2036.95
995.083	2006.67
995.379	1982.04
995.676	2003.96
995.972	1961.02
996.268	1954.92
996.565	1958.76
996.861	1942.94
997.157	1942.04
997.453	1960.12
997.749	1925.32
998.044	1910.4
998.34	1892.32
998.636	1883.51
998.932	1887.8
999.227	1869.05
999.523	1868.59
999.818	1824.75
1000.114	1846.45
1000.409	1813
1000.704	1836.73
1001	1790.63
1001.295	1809.84
1001.59	1791.53
1001.885	1799.9
1002.18	1770.29
1002.475	1770.29
1002.77	1775.72
1003.065	1727.81
1003.359	1779.78
1003.654	1723.97
1003.949	1730.52
1004.243	1751.76
1004.538	1709.28
1004.832	1683.06
1005.127	1671.54
1005.421	1659.56
1005.715	1705.89
1006.009	1694.36
1006.304	1653.91
1006.598	1646
1006.892	1600.81
1007.186	1636.74
1007.48	1633.12
1007.773	1608.04
1008.067	1622.5
1008.361	1575.72
1008.655	1563.97
1008.948	1571.88
1009.242	1558.55
1009.535	1533.01
1009.829	1538.89
1010.122	1542.28
1010.415	1554.25
1010.708	1527.59
1011.001	1529.62
1011.295	1515.38
1011.588	1499.34
1011.881	1492.79
1012.173	1487.14
1012.466	1464.99
1012.759	1461.83
1013.052	1446.46
1013.344	1429.51
1013.637	1433.13
1013.93	1434.26
1014.222	1429.06
1014.514	1423.41
1014.807	1427.25
1015.099	1367.82
1015.391	1424.54
1015.683	1413.24
1015.976	1377.76
1016.268	1371.66
1016.56	1390.64
1016.851	1359.46
1017.143	1372.11
1017.435	1331.43
1017.727	1325.11
1018.018	1306.35
1018.31	1319.91
1018.602	1316.75
1018.893	1308.84
1019.185	1296.41
1019.476	1308.38
1019.767	1283.75
1020.058	1243.53
1020.35	1267.25
1020.641	1251.44
1020.932	1245.33
1021.223	1254.83
1021.514	1232.68
1021.804	1234.04
1022.095	1210.31
1022.386	1183.19
1022.677	1175.96
1022.967	1215.28
1023.258	1169.86
1023.548	1188.16
1023.839	1169.18
1024.129	1143.87
1024.419	1157.65
1024.709	1154.04
1025	1135.51
1025.29	1135.96
1025.58	1146.58
1025.87	1115.62
1026.16	1122.85
1026.449	1116.3
1026.739	1105
1027.029	1101.61
1027.319	1092.34
1027.608	1068.16
1027.898	1050.09
1028.187	1070.2
1028.477	1060.48
1028.766	1088.5
1029.055	1069.07
1029.344	1050.31
1029.634	1043.31
1029.923	1044.89
1030.212	1010.09
1030.501	1011.22
1030.79	1018.9
1031.078	992.69
1031.367	974.16
1031.656	1006.47
1031.945	981.39
1032.233	981.16
1032.522	966.7
1032.81	954.49
1033.099	952.46
1033.387	939.13
1033.675	945
1033.963	957.88
1034.251	953.59
1034.54	945.46
1034.828	920.15
1035.116	914.72
1035.403	905.91
1035.691	908.62
1035.979	919.69
1036.267	901.84
1036.554	903.42
1036.842	872.24
1037.129	866.59
1037.417	872.46
1037.704	867.27
1037.992	865.23
1038.279	851.9
1038.566	842.18
1038.853	842.18
1039.14	842.18
