Data from hue_320_FLMS001491_2.txt Node
Date: Mon Feb 06 15:46:36 GMT 2017
User: dcchb
Spectrometer: FLMS00149
Trigger mode: 0
Integration Time (sec): 2.000000E-2
Scans to average: 10
Electric dark correction enabled: true
Nonlinearity correction enabled: false
Boxcar width: 0
XAxis mode: Wavelengths
Number of Pixels in Spectrum: 2048
>>>>>Begin Spectral Data<<<<<
341.393	-18.8
341.776	-18.8
342.16	-18.8
342.543	-57.67
342.927	-77.33
343.31	-75.07
343.693	-73.49
344.077	-33.94
344.46	-65.35
344.843	-66.93
345.226	-26.93
345.61	-25.58
345.993	-16.54
346.376	-0.04
346.759	2.44
347.142	42.89
347.525	32.95
347.908	58.71
348.291	76.34
348.674	80.63
349.057	89.9
349.44	125.15
349.823	137.81
350.206	146.85
350.588	199.73
350.971	213.29
351.354	237.24
351.737	245.83
352.119	256.22
352.502	271.14
352.884	279.5
353.267	275.88
353.65	297.58
354.032	292.83
354.414	300.29
354.797	335.09
355.179	322.21
355.562	330.57
355.944	325.82
356.326	337.35
356.709	328.08
357.091	352.72
357.473	350.23
357.855	332.6
358.238	354.52
358.62	325.37
359.002	336.67
359.384	332.6
359.766	350.68
360.148	343.45
360.53	360.17
360.912	352.04
361.294	343.68
361.676	345.94
362.057	335.09
362.439	330.57
362.821	314.07
363.203	318.59
363.584	302.77
363.966	332.15
364.348	329.67
364.729	344.13
365.111	303.45
365.493	326.95
365.874	334.64
366.256	311.81
366.637	318.59
367.019	302.32
367.4	331.25
367.781	309.78
368.163	306.39
368.544	323.56
368.925	312.72
369.306	324.02
369.688	309.78
370.069	299.38
370.45	309.78
370.831	316.33
371.212	325.15
371.593	304.36
371.974	312.04
372.355	311.36
372.736	335.99
373.117	300.74
373.498	314.75
373.879	328.54
374.26	313.62
374.641	308.42
375.021	317.01
375.402	313.85
375.783	329.89
376.163	333.73
376.544	329.44
376.925	332.15
377.305	308.88
377.686	331.7
378.066	338.71
378.447	322.89
378.827	348.2
379.208	332.83
379.588	355.2
379.968	338.93
380.349	337.8
380.729	319.72
381.109	331.25
381.489	336.22
381.87	357.69
382.25	355.88
382.63	342.32
383.01	357.91
383.39	362.66
383.77	339.61
384.15	352.26
384.53	332.15
384.91	331.93
385.29	331.7
385.67	340.74
386.049	358.37
386.429	344.13
386.809	361.08
387.189	336.45
387.568	365.6
387.948	383.9
388.328	369.44
388.707	361.98
389.087	368.54
389.466	380.96
389.846	352.72
390.225	357.91
390.605	362.21
390.984	372.6
391.363	378.48
391.743	365.15
392.122	369.21
392.501	375.77
392.881	372.15
393.26	376.9
393.639	361.3
394.018	375.09
394.397	378.93
394.776	388.87
395.155	385.03
395.534	389.33
395.913	389.78
396.292	402.88
396.671	400.85
397.05	396.33
397.429	381.87
397.808	387.52
398.186	401.08
398.565	419.61
398.944	410.12
399.323	394.98
399.701	390.23
400.08	402.43
400.458	415.09
400.837	411.7
401.215	414.64
401.594	398.59
401.972	427.52
402.351	430
402.729	401.98
403.107	422.09
403.486	455.09
403.864	426.61
404.242	427.97
404.62	439.04
404.999	432.26
405.377	427.29
405.755	446.27
406.133	458.02
406.511	467.06
406.889	452.15
407.267	455.09
407.645	459.83
408.023	490.79
408.401	470
408.779	478.36
409.156	469.78
409.534	474.52
409.912	490.57
410.29	503
410.667	507.06
411.045	516.33
411.422	520.17
411.8	509.1
412.178	529.44
412.555	545.03
412.933	512.71
413.31	546.16
413.687	547.06
414.065	540.51
414.442	538.25
414.819	571.24
415.197	554.52
415.574	574.18
415.951	573.05
416.328	580.06
416.705	610.11
417.082	633.16
417.46	624.35
417.837	641.3
418.214	640.84
418.591	640.17
418.967	635.42
419.344	626.38
419.721	634.97
420.098	642.43
420.475	681.07
420.852	671.58
421.228	679.71
421.605	669.77
421.982	693.95
422.358	698.47
422.735	707.06
423.111	721.07
423.488	714.97
423.864	711.13
424.241	728.53
424.617	731.46
424.994	752.71
425.37	766.94
425.746	742.99
426.123	769.65
426.499	779.15
426.875	769.2
427.251	778.24
427.627	794.06
428.003	795.19
428.379	801.97
428.756	811.24
429.132	840.61
429.507	876.09
429.883	845.59
430.259	854.4
430.635	876.54
431.011	859.37
431.387	879.93
431.763	902.76
432.138	890.33
432.514	892.36
432.89	916.77
433.265	965.36
433.641	946.37
434.016	972.81
434.392	975.53
434.767	979.37
435.143	994.73
435.518	981.63
435.894	990.67
436.269	1003.1
436.644	1032.02
437.02	1020.5
437.395	1042.42
437.77	1046.71
438.145	1049.87
438.52	1058.23
438.895	1104.56
439.271	1090.32
439.646	1112.47
440.021	1115.86
440.395	1114.73
440.77	1098.46
441.145	1094.17
441.52	1134.39
441.895	1128.29
442.27	1146.14
442.645	1163.09
443.019	1146.14
443.394	1135.07
443.769	1157.67
444.143	1162.41
444.518	1171.68
444.892	1169.42
445.267	1189.98
445.641	1196.76
446.016	1183.43
446.39	1223.43
446.764	1209.87
447.139	1203.09
447.513	1205.58
447.887	1237.89
448.262	1230.66
448.636	1220.26
449.01	1223.43
449.384	1222.07
449.758	1234.95
450.132	1252.81
450.506	1276.31
450.88	1267.49
451.254	1234.05
451.628	1278.34
452.002	1257.33
452.376	1287.61
452.75	1275.4
453.123	1310.66
453.497	1328.74
453.871	1310.88
454.244	1331
454.618	1331.9
454.992	1372.12
455.365	1362.86
455.739	1372.35
456.112	1384.33
456.486	1373.48
456.859	1408.96
457.232	1410.09
457.606	1407.38
457.979	1438.34
458.352	1436.3
458.725	1453.03
459.099	1461.16
459.472	1484.44
459.845	1490.31
460.218	1539.58
460.591	1520.14
460.964	1534.15
461.337	1535.28
461.71	1564.66
462.083	1564.89
462.456	1574.15
462.829	1568.28
463.201	1601.05
463.574	1607.37
463.947	1617.32
464.32	1611.21
464.692	1657.99
465.065	1642.4
465.438	1645.56
465.81	1699.35
466.183	1710.2
466.555	1728.73
466.928	1750.42
467.3	1725.79
467.672	1736.64
468.045	1814.83
468.417	1793.13
468.789	1789.74
469.161	1813.24
469.534	1861.38
469.906	1849.63
470.278	1869.74
470.65	1890.53
471.022	1906.8
471.394	1928.95
471.766	1929.62
472.138	1956.74
472.51	1970.3
472.882	1998.55
473.253	2039.9
473.625	2062.28
473.997	2079.22
474.369	2068.15
474.74	2083.97
475.112	2138.21
475.484	2148.83
475.855	2174.59
476.227	2159.22
476.598	2255.27
476.97	2241.03
477.341	2316.05
477.713	2340.24
478.084	2310.63
478.455	2389.5
478.827	2420.91
479.198	2421.36
479.569	2410.74
479.94	2514.02
480.311	2490.51
480.682	2537.97
481.053	2589.04
481.424	2608.25
481.795	2616.16
482.166	2670.4
482.537	2680.34
482.908	2737.96
483.279	2768.02
483.65	2791.52
484.021	2814.57
484.391	2862.48
484.762	2883.27
485.133	2877.62
485.503	2897.51
485.874	2923.27
486.244	2992.87
486.615	3032.87
486.985	3035.58
487.356	3139.76
487.726	3119.88
488.097	3184.05
488.467	3154.68
488.837	3223.15
489.207	3256.37
489.578	3253.43
489.948	3306.54
490.318	3328.68
490.688	3381.34
491.058	3368.68
491.428	3398.29
491.798	3437.61
492.168	3473.99
492.538	3513.99
492.908	3569.13
493.278	3548.11
493.648	3578.85
494.017	3639.41
494.387	3627.88
494.757	3652.52
495.126	3693.65
495.496	3688.9
495.866	3746.98
496.235	3732.06
496.605	3753.08
496.974	3788.11
497.344	3849.35
497.713	3832.4
498.082	3875.34
498.452	3866.52
498.821	3917.59
499.19	3895.22
499.559	3942
499.928	3941.77
500.298	3960.98
500.667	4018.84
501.036	4030.13
501.405	4038.27
501.774	3995.56
502.143	4055.22
502.512	4107.19
502.88	4096.57
503.249	4065.39
503.618	4141.77
503.987	4147.65
504.356	4144.03
504.724	4178.38
505.093	4199.62
505.462	4214.31
505.83	4215.21
506.199	4245.72
506.567	4278.26
506.936	4268.09
507.304	4344.25
507.672	4300.41
508.041	4324.14
508.409	4343.57
508.777	4371.37
509.145	4405.04
509.514	4407.98
509.882	4388.32
510.25	4416.79
510.618	4436.68
510.986	4401.88
511.354	4446.62
511.722	4479.16
512.09	4546.73
512.458	4526.84
512.826	4526.84
513.193	4546.73
513.561	4564.58
513.929	4542.89
514.297	4558.48
514.664	4606.62
515.032	4610.91
515.4	4591.02
515.767	4650.23
516.135	4687.29
516.502	4605.26
516.869	4688.2
517.237	4718.93
517.604	4678.93
517.972	4725.03
518.339	4727.52
518.706	4715.09
519.073	4758.7
519.44	4745.14
519.808	4804.8
520.175	4774.3
520.542	4844.8
520.909	4853.84
521.276	4840.06
521.643	4867.4
522.009	4922.99
522.376	4925.93
522.743	4937.23
523.11	4954.63
523.477	5061.97
523.843	5014.29
524.21	5039.37
524.577	5055.42
524.943	5079.6
525.31	5157.34
525.676	5144.23
526.043	5169.77
526.409	5209.31
526.776	5200.27
527.142	5216.77
527.508	5283.43
527.874	5280.04
528.241	5295.41
528.607	5345.58
528.973	5404.34
529.339	5360.49
529.705	5424.45
530.071	5442.07
530.437	5457.44
530.803	5497.44
531.169	5507.16
531.535	5497.67
531.901	5557.55
532.267	5512.81
532.632	5591.9
532.998	5637.1
533.364	5659.92
533.73	5659.7
534.095	5657.89
534.461	5696.08
534.826	5757.55
535.192	5772.91
535.557	5854.27
535.923	5795.74
536.288	5859.24
536.653	5846.81
537.019	5864.21
537.384	5876.41
537.749	5925.45
538.114	5893.81
538.479	5915.06
538.845	5981.04
539.21	5962.29
539.575	5974.04
539.94	6028.27
540.305	6085.45
540.67	6041.61
541.034	6106.46
541.399	6200.7
541.764	6158.89
542.129	6178.78
542.494	6219
542.858	6242.73
543.223	6259
543.587	6322.96
543.952	6242.73
544.316	6343.75
544.681	6293.8
545.045	6390.52
545.41	6402.95
545.774	6392.11
546.138	6393.24
546.503	6441.14
546.867	6416.96
547.231	6507.58
547.595	6508.94
547.959	6580.8
548.324	6514.36
548.688	6580.35
549.052	6675.04
549.416	6680.01
549.779	6629.16
550.143	6656.96
550.507	6766.56
550.871	6733.57
551.235	6757.52
551.599	6758.2
551.962	6822.83
552.326	6837.52
552.689	6914.35
553.053	6879.32
553.417	6857.18
553.78	6977.18
554.143	6907.8
554.507	6945.99
554.87	6882.94
555.234	7023.5
555.597	6991.86
555.96	7014.69
556.323	7048.81
556.686	7080.9
557.05	7089.26
557.413	7113.22
557.776	7156.38
558.139	7135.59
558.502	7194.57
558.865	7183.05
559.228	7232.08
559.59	7237.06
559.953	7262.82
560.316	7306.43
560.679	7287.68
561.041	7359.76
561.404	7366.77
561.767	7395.47
562.129	7442.02
562.492	7519.53
562.854	7445.41
563.217	7435.69
563.579	7528.57
563.941	7525.41
564.304	7559.08
564.666	7580.32
565.028	7697.83
565.39	7710.72
565.753	7699.64
566.115	7677.27
566.477	7673.88
566.839	7701
567.201	7767.66
567.563	7821.67
567.925	7866.19
568.287	7849.47
568.648	7808.57
569.01	7907.77
569.372	7980.09
569.734	7961.56
570.095	7998.84
570.457	8039.97
570.819	8125.17
571.18	8135.79
571.542	8139.4
571.903	8185.05
572.265	8249.68
572.626	8237.26
572.987	8328.1
573.349	8369.68
573.71	8466.18
574.071	8504.37
574.432	8519.28
574.794	8651.93
575.155	8662.78
575.516	8649.22
575.877	8757.47
576.238	8788.88
576.599	8859.84
576.96	8924.92
577.32	9010.34
577.681	9083.33
578.042	9168.76
578.403	9275.42
578.763	9324.46
579.124	9398.58
579.485	9591.12
579.845	9661.4
580.206	9733.04
580.566	9828.63
580.927	9964.22
581.287	10178
581.648	10210.99
582.008	10477.87
582.368	10497.31
582.728	10725.1
583.089	10857.3
583.449	10990.63
583.809	11250.96
584.169	11389.04
584.529	11584.29
584.889	11801.46
585.249	12055.69
585.609	12067.66
585.969	12413.42
586.329	12577.93
586.688	12815.21
587.048	13095.88
587.408	13257.24
587.768	13554.18
588.127	13787.17
588.487	14063.54
588.846	14306.47
589.206	14550.31
589.565	14801.83
589.925	15187.13
590.284	15444.75
590.643	15725.87
591.003	15931.52
591.362	16345.06
591.721	16676.81
592.08	17000.41
592.44	17247.64
592.799	17579.16
593.158	17887.85
593.517	18159.25
593.876	18493.03
594.235	18769.86
594.593	19078.33
594.952	19471.54
595.311	19675.37
595.67	20182.03
596.029	20527.55
596.387	20771.84
596.746	21264.71
597.104	21431.03
597.463	21676.9
597.822	22140.17
598.18	22341.52
598.538	22574.51
598.897	23151.89
599.255	23247.71
599.613	23780.12
599.972	24067.57
600.33	24381.24
600.688	24524.28
601.046	24966.31
601.404	25330.37
601.762	25691.03
602.12	25942.55
602.478	26413.05
602.836	26677.67
603.194	26783.66
603.552	27093.03
603.91	27414.15
604.268	27772.33
604.625	27926.23
604.983	28315.6
605.341	28512.43
605.698	28867.45
606.056	29222.47
606.413	29522.8
606.771	29842.56
607.128	30091.37
607.485	30241.2
607.843	30520.74
608.2	30739.49
608.557	31119.37
608.914	31295.63
609.272	31790.31
609.629	31901.72
609.986	32294.25
610.343	32289.5
610.7	32762.03
611.057	32875.93
611.414	33024.85
611.771	33273.88
612.127	33494.9
612.484	33719.52
612.841	34023.7
613.198	34123.58
613.554	34281.77
613.911	34645.15
614.267	34703.45
614.624	34903.67
614.98	35106.61
615.337	35479.02
615.693	35456.43
616.05	35636.53
616.406	35947.04
616.762	35947.71
617.118	36208.27
617.475	36357.87
617.831	36493.24
618.187	36665.89
618.543	36870.17
618.899	37186.32
619.255	37202.14
619.611	37290.05
619.967	37476.71
620.323	37780.66
620.678	37777.5
621.034	37733.2
621.39	37900.43
621.746	37930.71
622.101	38491.15
622.457	38151.72
622.812	38464.48
623.168	38620.41
623.523	38713.06
623.879	39076.22
624.234	38852.5
624.589	38900.63
624.945	39126.61
625.3	39290.22
625.655	39180.85
626.01	39356.89
626.365	39589.2
626.72	39497
627.075	39480.73
627.43	39567.28
627.785	39656.09
628.14	39858.34
628.495	39963.88
628.85	39915.52
629.205	39804.11
629.559	40037.77
629.914	39983.99
630.269	40067.6
630.623	40072.58
630.978	40004.78
631.332	40256.07
631.687	40313.25
632.041	40180.82
632.396	40404.77
632.75	40216.98
633.104	40227.37
633.459	40063.54
633.813	40113.48
634.167	40239.13
634.521	40218.34
634.875	40321.16
635.229	40342.17
635.583	40196.41
635.937	40202.06
636.291	40279.8
636.645	40326.13
636.999	40259.69
637.352	40255.4
637.706	40189.86
638.06	40273.7
638.413	40247.03
638.767	40208.17
639.121	40332.46
639.474	40249.97
639.828	40275.73
640.181	40318.45
640.534	40296.3
640.888	40191.44
641.241	40055.85
641.594	40233.48
641.947	40244.78
642.301	40130.2
642.654	40240.03
643.007	40197.32
643.36	40099.47
643.713	40219.69
644.066	40213.14
644.419	40061.28
644.771	39752.81
645.124	39437.11
645.477	39396.66
645.83	39204.35
646.182	39087.07
646.535	39015.65
646.888	39055.2
647.24	38859.73
647.593	39173.84
647.945	39020.4
648.298	38901.31
648.65	38870.12
649.002	38820.63
649.355	38925.49
649.707	38929.56
650.059	39086.16
650.411	39524.57
650.763	39470.11
651.115	39974.95
651.467	39750.78
651.819	39724.56
652.171	39758.23
652.523	39662.19
652.875	39527.05
653.227	39542.19
653.578	39835.52
653.93	39727.05
654.282	39524.79
654.633	39476.43
654.985	39511.24
655.337	39654.96
655.688	39628.29
656.039	39746.26
656.391	39248.64
656.742	39534.74
657.094	39484.34
657.445	39552.59
657.796	39426.94
658.147	39397.57
658.498	39458.81
658.849	39367.28
659.2	39448.64
659.551	39348.53
659.902	39417
660.253	39399.15
660.604	39456.1
660.955	39350.34
661.306	39272.82
661.656	39340.17
662.007	39278.25
662.358	39210.45
662.708	39397.57
663.059	39184.92
663.409	39047.97
663.76	39302.88
664.11	39234.18
664.461	39273.05
664.811	39327.96
665.161	39253.84
665.511	39220.85
665.862	39217.91
666.212	39347.4
666.562	39372.03
666.912	39236.89
667.262	39170.91
667.612	39297
667.962	39460.84
668.312	39212.94
668.662	39323.9
669.011	39372.71
669.361	39285.93
669.711	39068.99
670.06	39107.18
670.41	39139.72
670.76	39031.02
671.109	39256.1
671.459	39121.41
671.808	39005.49
672.157	39212.03
672.507	38961.87
672.856	39010.23
673.205	38895.43
673.554	39062.21
673.904	38948.99
674.253	39120.96
674.602	38947.63
674.951	38527.98
675.3	38264.26
675.649	38871.93
675.998	38751.93
676.346	38872.38
676.695	38860.86
677.044	38510.81
677.393	38712.61
677.741	38824.02
678.09	38716.45
678.438	38635.78
678.787	38731.37
679.135	38764.36
679.484	38452.96
679.832	38595.33
680.181	38420.64
680.529	38424.48
680.877	38442.56
681.225	38253.87
681.573	38621.99
681.922	38220.87
682.27	38136.58
682.618	38192.17
682.966	38097.26
683.314	37993.76
683.661	38088.67
684.009	37784.5
684.357	37700.44
684.705	37771.85
685.053	37896.59
685.4	37835.57
685.748	37617.05
686.095	37567.78
686.443	37503.6
686.79	37440.78
687.138	37540.89
687.485	37542.93
687.832	37290.05
688.18	37452.98
688.527	37073.33
688.874	37192.2
689.221	37042.15
689.568	37047.8
689.915	36921.7
690.262	36883.51
690.609	36833.11
690.956	36644.87
691.303	36617.3
691.65	36385.89
691.997	36488.04
692.344	36290.53
692.69	36087.14
693.037	36350.19
693.383	35982.97
693.73	36240.13
694.077	36057.54
694.423	35970.99
694.769	35755.63
695.116	35659.13
695.462	35729.41
695.808	35475.41
696.155	35573.71
696.501	35304.57
696.847	35378.91
697.193	35000.39
697.539	35336.66
697.885	35096.89
698.231	34907.06
698.577	34975.54
698.923	34872.71
699.269	34764.47
699.614	34543.23
699.96	34456
700.306	34459.62
700.651	34186.63
700.997	34305.72
701.342	34246.06
701.688	34112.73
702.033	34058.05
702.379	34046.97
702.724	33861.89
703.069	33957.26
703.415	33596.36
703.76	33603.59
704.105	33577.83
704.45	33437.04
704.795	33319.99
705.14	33217.62
705.485	33204.06
705.83	32986.89
706.175	33196.82
706.52	33018.3
706.865	32822.37
707.209	32853.56
707.554	32774.69
707.899	32823.28
708.243	32649.49
708.588	32552.1
708.932	32427.35
709.277	32342.84
709.621	32428.94
709.966	32077.53
710.31	32259
710.654	32019
710.998	32042.5
711.342	32060.81
711.687	31932.45
712.031	31862.85
712.375	31812.23
712.719	31701.72
713.063	31726.81
713.407	31848.61
713.75	31701.27
714.094	31595.96
714.438	31481.16
714.782	31489.53
715.125	31271.45
715.469	31416.53
715.812	31150.55
716.156	31095.86
716.499	31080.72
716.843	31127.5
717.186	30969.76
717.53	30941.52
717.873	30990.56
718.216	30880.5
718.559	30720.28
718.902	30737
719.246	30608.64
719.589	30582.43
719.932	30483.22
720.275	30518.7
720.617	30381.53
720.96	30293.17
721.303	30319.61
721.646	30383.11
721.989	30019.06
722.331	30300.4
722.674	30214.76
723.016	30200.29
723.359	29988.77
723.701	30018.38
724.044	29859.06
724.386	29724.37
724.729	29818.38
725.071	29763.69
725.413	29720.31
725.755	29755.33
726.097	29678.95
726.439	29425.62
726.782	29475.57
727.124	29640.76
727.465	29452.97
727.807	29374.55
728.149	29400.09
728.491	29319.64
728.833	29271.73
729.175	29197.61
729.516	29131.62
729.858	29166.87
730.199	29006.88
730.541	29081.68
730.882	29073.32
731.224	28986.99
731.565	28869.26
731.906	28789.26
732.248	28784.96
732.589	28688.47
732.93	28763.5
733.271	28745.19
733.612	28662.03
733.953	28527.12
734.294	28517.17
734.635	28473.56
734.976	28594.23
735.317	28357.86
735.658	28448.25
735.999	28392.43
736.339	28296.84
736.68	28335.48
737.021	28256.39
737.361	28160.57
737.702	28368.93
738.042	28120.12
738.383	28105.43
738.723	28260.46
739.063	28036.73
739.404	28071.76
739.744	27925.55
740.084	27866.34
740.424	27926
740.764	27865.44
741.104	27877.87
741.444	27774.14
741.784	27665.44
742.124	27803.52
742.464	27650.53
742.804	27581.38
743.143	27556.75
743.483	27652.79
743.823	27365.11
744.162	27447.15
744.502	27472.23
744.841	27331.44
745.181	27437.43
745.52	27245.57
745.86	27274.72
746.199	27043.31
746.538	27167.38
746.877	27196.76
747.216	27137.78
747.556	27060.04
747.895	27086.48
748.234	26833.6
748.573	26902.08
748.911	26835.41
749.25	26927.84
749.589	26731.68
749.928	26802.64
750.267	26718.8
750.605	26616.66
750.944	26579.15
751.283	26539.6
751.621	26636.32
751.96	26424.35
752.298	26440.62
752.636	26444.23
752.975	26235.88
753.313	26053.28
753.651	26296.22
753.989	26118.14
754.327	26107.52
754.666	26006.05
755.004	25996.34
755.342	26013.28
755.679	25952.27
756.017	25811.93
756.355	25878.37
756.693	25806.51
757.031	25779.17
757.368	25656.91
757.706	25542.56
758.044	25548.89
758.381	25608.55
758.719	25348.67
759.056	25443.13
759.394	25279.52
759.731	25084.95
760.068	25092.63
760.405	25062.8
760.743	24845.41
761.08	24990.26
761.417	24790.94
761.754	24841.79
762.091	24727.44
762.428	24646.77
762.765	24540.56
763.102	24538.52
763.438	24541.23
763.775	24401.8
764.112	24385.98
764.449	24416.26
764.785	24182.37
765.122	24139.89
765.458	24007.69
765.795	23996.16
766.131	23964.98
766.467	23794.59
766.804	23650.41
767.14	23539.45
767.476	23596.4
767.812	23594.14
768.148	23569.96
768.485	23487.02
768.821	23203.19
769.157	23283.41
769.492	23129.52
769.828	23076.86
770.164	22946.47
770.5	22818.34
770.836	22859.7
771.171	22746.48
771.507	22733.6
771.842	22470.55
772.178	22527.05
772.513	22342.65
772.849	22379.48
773.184	22234.85
773.519	22343.78
773.855	22181.75
774.19	22111.92
774.525	21948.99
774.86	21924.58
775.195	21919.61
775.53	21719.39
775.865	21619.28
776.2	21492.73
776.535	21453.86
776.87	21452.5
777.205	21375.44
777.539	21389
777.874	21243.47
778.209	21085.73
778.543	21064.49
778.878	20904.94
779.212	20881.22
779.547	20669.47
779.881	20866.75
780.215	20623.82
780.55	20694.33
780.884	20607.1
781.218	20392.42
781.552	20449.14
781.886	20291.63
782.22	20191.52
782.554	20188.13
782.888	19951.98
783.222	19930.51
783.556	19862.26
783.889	19825.65
784.223	19723.73
784.557	19624.53
784.89	19674.69
785.224	19565.32
785.557	19367.58
785.891	19474.7
786.224	19308.83
786.558	19280.13
786.891	19092.79
787.224	19154.48
787.557	19044.2
787.891	18993.36
788.224	18964.2
788.557	18959.91
788.89	18899.57
789.223	18861.83
789.556	18636.08
789.888	18651.44
790.221	18582.29
790.554	18513.6
790.887	18462.75
791.219	18359.02
791.552	18382.98
791.884	18283.32
792.217	18207.39
792.549	18122.64
792.882	18005.59
793.214	17931.92
793.546	17950.9
793.879	17824.8
794.211	17726.05
794.543	17888.07
794.875	17717.01
795.207	17781.19
795.539	17571.92
795.871	17622.32
796.203	17451.93
796.535	17307.75
796.867	17338.94
797.198	17363.57
797.53	17345.26
797.862	17202.67
798.193	17168.09
798.525	17179.62
798.856	17112.73
799.188	16898.95
799.519	16879.74
799.85	16851.04
800.182	16778.5
800.513	16708.44
800.844	16661.67
801.175	16696.92
801.506	16617.6
801.837	16539.18
802.168	16548.9
802.499	16516.59
802.83	16442.69
803.161	16397.94
803.491	16353.65
803.822	16352.75
804.153	16259.42
804.483	16016.03
804.814	16055.13
805.145	16109.14
805.475	16029.14
805.805	15928.35
806.136	15923.15
806.466	15876.38
806.796	15832.99
807.126	15680
807.457	15727.68
807.787	15729.26
808.117	15630.73
808.447	15567.23
808.777	15563.84
809.107	15461.7
809.436	15444.75
809.766	15457.86
810.096	15379.21
810.426	15352.32
810.755	15376.95
811.085	15261.48
811.414	15251.76
811.744	15106.91
812.073	15070.52
812.403	15086.79
812.732	14975.84
813.061	15097.64
813.39	14937.64
813.719	14920.7
814.049	14947.36
814.378	14870.53
814.707	14824.43
815.036	14769.96
815.365	14750.3
815.693	14640.93
816.022	14616.52
816.351	14560.93
816.68	14512.57
817.008	14653.81
817.337	14469.41
817.665	14466.24
817.994	14454.27
818.322	14392.12
818.651	14285.46
818.979	14282.75
819.307	14405.23
819.636	14287.94
819.964	14203.88
820.292	14251.33
820.62	14227.83
820.948	14188.96
821.276	14188.29
821.604	14087.95
821.932	14181.28
822.259	14162.52
822.587	14176.76
822.915	14131.11
823.243	14093.82
823.57	14115.74
823.898	14136.99
824.225	14020.61
824.553	14072.58
824.88	14109.64
825.207	14129.98
825.535	14018.57
825.862	14085.46
826.189	14011.57
826.516	14047.5
826.843	14067.61
827.17	14104.22
827.497	14077.55
827.824	14108.51
828.151	14062.41
828.478	13994.39
828.805	14049.98
829.131	14012.7
829.458	14029.42
829.785	13854.73
830.111	14013.6
830.438	14043.43
830.764	13970.66
831.09	13991.45
831.417	13907.39
831.743	13839.82
832.069	13940.61
832.395	13927.73
832.722	14071.23
833.048	13922.98
833.374	13997.78
833.7	13819.26
834.026	13927.95
834.351	13875.75
834.677	13894.96
835.003	13875.07
835.329	13897.22
835.654	13794.4
835.98	13762.53
836.306	13815.64
836.631	13701.52
836.956	13785.81
837.282	13785.36
837.607	13735.19
837.932	13581.3
838.258	13644.34
838.583	13646.6
838.908	13575.87
839.233	13580.39
839.558	13534.07
839.883	13522.77
840.208	13560.28
840.533	13414.29
840.858	13529.32
841.182	13510.56
841.507	13456.78
841.832	13312.38
842.156	13304.92
842.481	13329.55
842.805	13316.9
843.13	13412.49
843.454	13277.57
843.778	13168.2
844.103	13178.59
844.427	13102.89
844.751	13206.16
845.075	13088.65
845.399	12995.32
845.723	13007.53
846.047	13047.75
846.371	12945.83
846.695	12910.8
847.019	12800.3
847.343	12757.36
847.666	12666.29
847.99	12586.52
848.313	12585.84
848.637	12533.41
848.96	12447.54
849.284	12460.65
849.607	12439.18
849.931	12392.85
850.254	12307.88
850.577	12221.56
850.9	12181.78
851.223	12124.61
851.546	12099.3
851.869	11964.84
852.192	12055.69
852.515	11941.34
852.838	11896.82
853.161	11928.91
853.483	11833.54
853.806	11793.55
854.129	11741.8
854.451	11721.68
854.774	11622.25
855.096	11595.13
855.419	11597.17
855.741	11567.11
856.063	11467.45
856.385	11463.61
856.708	11458.41
857.03	11379.55
857.352	11338.42
857.674	11371.18
857.996	11224.07
858.318	11367.12
858.64	11182.26
858.961	11226.33
859.283	11159.21
859.605	11104.98
859.926	11154.69
860.248	11053
860.57	11086.9
860.891	11057.52
861.212	11017.97
861.534	10973.45
861.855	10938.88
862.176	10938.65
862.498	11001.93
862.819	10888.71
863.14	10857.3
863.461	10905.21
863.782	10785.44
864.103	10825.66
864.424	10757.64
864.745	10854.36
865.065	10783.4
865.386	10745.21
865.707	10751.77
866.027	10716.06
866.348	10682.16
866.668	10681.71
866.989	10680.58
867.309	10520.81
867.63	10573.69
867.95	10681.26
868.27	10492.11
868.59	10494.14
868.91	10484.43
869.23	10540.92
869.55	10411.44
869.87	10529.4
870.19	10418.67
870.51	10451.21
870.83	10494.37
871.15	10428.61
871.469	10419.8
871.789	10393.13
872.109	10418.44
872.428	10325.79
872.748	10298.9
873.067	10325.56
873.386	10261.61
873.706	10246.47
874.025	10229.52
874.344	10180.48
874.663	10212.57
874.982	10165.79
875.301	10181.16
875.62	10058.45
875.939	10137.32
876.258	10105
876.577	10065.23
876.896	10089.41
877.214	10012.58
877.533	10034.04
877.852	10059.13
878.17	10025.46
878.489	9998.56
878.807	9964.89
879.125	9943.42
879.444	9929.19
879.762	9961.96
880.08	9866.59
880.398	9843.77
880.716	9854.61
881.034	9897.32
881.352	9800.6
881.67	9774.62
881.988	9798.12
882.306	9801.06
882.624	9739.36
882.941	9710.44
883.259	9685.8
883.577	9669.76
883.894	9608.29
884.212	9619.82
884.529	9660.72
884.846	9563.1
885.164	9569.65
885.481	9533.49
885.798	9527.16
886.115	9452.14
886.432	9467.51
886.75	9467.96
887.067	9450.1
887.383	9422.08
887.7	9393.38
888.017	9395.42
888.334	9373.04
888.651	9325.36
888.967	9264.12
889.284	9276.55
889.6	9258.47
889.917	9211.47
890.233	9148.19
890.55	9159.49
890.866	9163.56
891.182	9168.53
891.498	9067.29
891.815	8993.62
892.131	9037.91
892.447	8997.91
892.763	8964.47
893.079	8972.38
893.395	8958.82
893.71	8910.91
894.026	8917.01
894.342	8861.87
894.657	8769.44
894.973	8772.61
895.289	8851.93
895.604	8686.06
895.92	8722.67
896.235	8685.6
896.55	8599.51
896.865	8670.24
897.181	8613.52
897.496	8651.03
897.811	8579.62
898.126	8466.18
898.441	8497.36
898.756	8477.47
899.071	8396.57
899.386	8421.21
899.7	8306.41
900.015	8324.26
900.33	8298.72
900.644	8297.82
900.959	8247.2
901.273	8229.57
901.588	8147.99
901.902	8152.29
902.216	8120.42
902.531	8142.34
902.845	8075
903.159	7988
903.473	8027.09
903.787	7993.42
904.101	7892.41
904.415	7949.13
904.729	7879.3
905.042	7821.22
905.356	7841.11
905.67	7812.18
905.984	7838.85
906.297	7662.81
906.611	7693.99
906.924	7758.4
907.237	7689.7
907.551	7618.29
907.864	7646.08
908.177	7597.5
908.491	7563.37
908.804	7502.59
909.117	7472.98
909.43	7406.54
909.743	7338.07
910.056	7333.55
910.368	7418.52
910.681	7291.74
910.994	7333.78
911.307	7269.6
911.619	7161.13
911.932	7218.98
912.244	7137.4
912.557	7194.57
912.869	7136.04
913.181	7087
913.494	7117.74
913.806	7000.45
914.118	7018.76
914.43	6996.61
914.742	6938.31
915.054	6907.35
915.366	6890.85
915.678	6837.52
915.99	6848.82
916.302	6809.72
916.613	6746.45
916.925	6765.2
917.236	6737.18
917.548	6686.56
917.859	6710.06
918.171	6657.18
918.482	6623.96
918.794	6607.69
919.105	6600.69
919.416	6520.46
919.727	6501.26
920.038	6486.34
920.349	6414.7
920.66	6430.97
920.971	6389.39
921.282	6369.51
921.593	6346.23
921.903	6274.37
922.214	6279.11
922.525	6250.64
922.835	6296.52
923.146	6239.57
923.456	6215.16
923.767	6175.61
924.077	6093.58
924.387	6133.36
924.697	6063.98
925.008	6054.04
925.318	6006.81
925.628	6006.35
925.938	5982.17
926.248	5890.42
926.558	5927.71
926.867	5924.77
927.177	5866.47
927.487	5827.83
927.796	5815.17
928.106	5805.91
928.416	5798.9
928.725	5798.9
929.034	5737.21
929.344	5720.26
929.653	5690.2
929.962	5647.04
930.271	5638
930.581	5624.44
930.89	5569.53
931.199	5540.15
931.508	5532.47
931.817	5492.47
932.125	5469.64
932.434	5469.42
932.743	5406.37
933.051	5385.35
933.36	5353.04
933.669	5358.46
933.977	5341.29
934.286	5334.96
934.594	5269.65
934.902	5265.81
935.21	5267.16
935.519	5244.11
935.827	5214.74
936.135	5185.81
936.443	5171.57
936.751	5138.58
937.059	5083.67
937.367	5134.06
937.674	5079.37
937.982	5087.51
938.29	4985.36
938.597	5039.15
938.905	5005.02
939.213	5003.44
939.52	4957.79
939.827	4953.73
940.135	4896.33
940.442	4907.85
940.749	4867.85
941.056	4874.41
941.363	4788.31
941.67	4825.14
941.977	4741.98
942.284	4726.84
942.591	4753.28
942.898	4750.12
943.205	4689.33
943.511	4729.1
943.818	4741.08
944.125	4589.67
944.431	4588.76
944.738	4628.76
945.044	4585.6
945.35	4550.35
945.657	4552.83
945.963	4516
946.269	4521.87
946.575	4514.87
946.881	4492.04
947.187	4437.13
947.493	4406.62
947.799	4456.56
948.105	4409.56
948.41	4424.02
948.716	4422.89
949.022	4360.52
949.327	4344.25
949.633	4278.72
949.938	4347.87
950.244	4292.5
950.549	4202.33
950.854	4221.54
951.16	4192.16
951.465	4193.97
951.77	4230.81
952.075	4163.46
952.38	4156.23
952.685	4144.03
952.99	4085.73
953.294	4086.18
953.599	4093.41
953.904	4073.75
954.209	4025.84
954.513	4043.02
954.818	4009.34
955.122	3972.51
955.426	3926.41
955.731	3945.39
956.035	3943.13
956.339	3919.85
956.643	3879.63
956.948	3888.44
957.252	3869.23
957.556	3833.76
957.86	3808.22
958.163	3786.75
958.467	3765.06
958.771	3804.38
959.075	3817.03
959.378	3762.12
959.682	3725.06
959.985	3728.22
960.289	3673.99
960.592	3694.1
960.896	3647.09
961.199	3621.78
961.502	3666.53
961.805	3637.83
962.108	3589.92
962.411	3600.54
962.714	3560.99
963.017	3525.51
963.32	3556.25
963.623	3550.15
963.926	3513.99
964.228	3528.23
964.531	3455.91
964.833	3436.48
965.136	3401.9
965.438	3441.9
965.741	3446.19
966.043	3396.7
966.345	3364.16
966.648	3368.68
966.95	3352.19
967.252	3365.52
967.554	3360.55
967.856	3327.1
968.158	3287.1
968.46	3266.54
968.761	3283.26
969.063	3242.36
969.365	3236.48
969.666	3235.8
969.968	3238.74
970.269	3254.11
970.571	3171.17
970.872	3161.91
971.174	3128.24
971.475	3139.99
971.776	3115.58
972.077	3125.75
972.378	3144.96
972.679	3098.86
972.98	3105.86
973.281	3070.84
973.582	3041.46
973.883	3045.3
974.183	3018.64
974.484	3045.98
974.785	2986.32
975.085	2995.59
975.386	2980.22
975.686	2964.4
975.986	2925.3
976.287	2933.67
976.587	2936.83
976.887	2893.89
977.187	2921.01
977.487	2903.38
977.787	2859.77
978.087	2838.3
978.387	2833.56
978.687	2817.28
978.987	2810.28
979.286	2809.83
979.586	2816.61
979.885	2789.04
980.185	2745.65
980.484	2728.93
980.784	2768.02
981.083	2756.5
981.382	2677.63
981.682	2716.27
981.981	2721.92
982.28	2705.65
982.579	2637.4
982.878	2671.98
983.177	2661.58
983.475	2624.3
983.774	2625.43
984.073	2607.8
984.372	2627.91
984.67	2604.63
984.969	2548.82
985.267	2592.88
985.566	2564.86
985.864	2558.76
986.162	2547.46
986.461	2526.44
986.759	2490.74
987.057	2491.64
987.355	2499.1
987.653	2496.16
987.951	2486.45
988.249	2446.67
988.547	2469.72
988.844	2427.46
989.142	2421.81
989.44	2417.3
989.737	2371.65
990.035	2422.94
990.332	2415.26
990.63	2374.58
990.927	2348.37
991.224	2376.84
991.521	2348.6
991.819	2307.92
992.116	2296.85
992.413	2322.16
992.71	2288.94
993.006	2286.9
993.303	2246.9
993.6	2236.51
993.897	2249.62
994.193	2254.81
994.49	2249.62
994.787	2217.75
995.083	2210.29
995.379	2213.01
995.676	2191.99
995.972	2186.11
996.268	2158.32
996.565	2149.73
996.861	2125.33
997.157	2142.5
997.453	2153.57
997.749	2137.75
998.044	2138.43
998.34	2079.68
998.636	2107.47
998.932	2048.04
999.227	2069.51
999.523	2087.13
999.818	2033.12
1000.114	2015.27
1000.409	2002.39
1000.704	2018.21
1001	1976.4
1001.295	1992.9
1001.59	1956.29
1001.885	1960.13
1002.18	1953.8
1002.475	1956.29
1002.77	1925.78
1003.065	1940.02
1003.359	1915.16
1003.654	1930.3
1003.949	1906.57
1004.243	1874.03
1004.538	1906.8
1004.832	1862.28
1005.127	1860.25
1005.421	1823.64
1005.715	1862.28
1006.009	1830.42
1006.304	1814.6
1006.598	1822.73
1006.892	1802.17
1007.186	1787.93
1007.48	1805.56
1007.773	1777.54
1008.067	1775.28
1008.361	1753.13
1008.655	1735.28
1008.948	1741.83
1009.242	1735.51
1009.535	1719.91
1009.829	1673.13
1010.122	1708.39
1010.415	1665.9
1010.708	1664.55
1011.001	1669.07
1011.295	1668.61
1011.588	1633.59
1011.881	1646.47
1012.173	1662.74
1012.466	1613.47
1012.759	1633.81
1013.052	1572.57
1013.344	1574.38
1013.637	1585.45
1013.93	1574.61
1014.222	1543.65
1014.514	1548.39
1014.807	1566.47
1015.099	1543.65
1015.391	1549.3
1015.683	1527.6
1015.976	1493.7
1016.268	1514.49
1016.56	1484.21
1016.851	1495.29
1017.143	1471.56
1017.435	1467.04
1017.727	1471.56
1018.018	1455.51
1018.31	1466.13
1018.602	1441.73
1018.893	1420.26
1019.185	1410.54
1019.476	1435.63
1019.767	1413.93
1020.058	1374.38
1020.35	1390.43
1020.641	1355.85
1020.932	1357.66
1021.223	1360.37
1021.514	1327.38
1021.804	1331
1022.095	1320.6
1022.386	1337.55
1022.677	1299.36
1022.967	1308.4
1023.258	1283.77
1023.548	1295.74
1023.839	1255.97
1024.129	1266.59
1024.419	1263.43
1024.709	1264.11
1025	1227.5
1025.29	1247.38
1025.58	1222.07
1025.87	1216.87
1026.16	1213.03
1026.449	1187.72
1026.739	1190.43
1027.029	1225.91
1027.319	1203.09
1027.608	1177.1
1027.898	1170.1
1028.187	1160.61
1028.477	1165.12
1028.766	1128.29
1029.055	1142.98
1029.344	1127.16
1029.634	1138.46
1029.923	1111.34
1030.212	1108.63
1030.501	1119.93
1030.79	1074.51
1031.078	1096.43
1031.367	1052.36
1031.656	1084.45
1031.945	1067.05
1032.233	1064.56
1032.522	1060.72
1032.81	1063.43
1033.099	1021.17
1033.387	1048.29
1033.675	1041.74
1033.963	1049.65
1034.251	1022.08
1034.54	999.25
1034.828	1004
1035.116	1001.74
1035.403	994.73
1035.691	992.93
1035.979	1011.23
1036.267	964.9
1036.554	974.85
1036.842	978.46
1037.129	977.79
1037.417	959.48
1037.704	933.49
1037.992	943.21
1038.279	930.1
1038.566	935.07
1038.853	935.07
1039.14	935.07
