Data from hue_190_FLMS001491_00005.txt Node
Date: Tue Feb 07 16:44:42 GMT 2017
User: dcchb
Spectrometer: FLMS00149
Trigger mode: 0
Integration Time (sec): 2.000000E-2
Scans to average: 10
Electric dark correction enabled: true
Nonlinearity correction enabled: false
Boxcar width: 0
XAxis mode: Wavelengths
Number of Pixels in Spectrum: 2048
>>>>>Begin Spectral Data<<<<<
341.393	-17.43
341.776	-17.43
342.16	-17.43
342.543	-74.15
342.927	-59.24
343.31	-76.86
343.693	-78.22
344.077	-58.56
344.46	-54.94
344.843	-39.58
345.226	-63.3
345.61	-35.51
345.993	-19.01
346.376	2.01
346.759	-2.29
347.142	12.85
347.525	41.1
347.908	52.85
348.291	91.04
348.674	91.95
349.057	136.47
349.44	123.36
349.823	141.21
350.206	157.26
350.588	202
350.971	214.2
351.354	207.2
351.737	230.47
352.119	277.7
352.502	253.98
352.884	263.92
353.267	272.96
353.65	289.23
354.032	295.78
354.414	302.79
354.797	307.76
355.179	311.83
355.562	334.43
355.944	319.96
356.326	331.94
356.709	319.74
357.091	331.26
357.473	343.24
357.855	347.08
358.238	358.15
358.62	336.46
359.002	313.41
359.384	332.17
359.766	331.71
360.148	326.52
360.53	335.78
360.912	338.95
361.294	340.08
361.676	320.42
362.057	335.56
362.439	342.56
362.821	330.58
363.203	323.35
363.584	337.14
363.966	349.12
364.348	323.81
364.729	324.48
365.111	325.39
365.493	335.1
365.874	305.73
366.256	324.03
366.637	318.16
367.019	311.6
367.4	316.8
367.781	322.22
368.163	323.58
368.544	319.74
368.925	307.08
369.306	321.09
369.688	298.95
370.069	324.26
370.45	319.51
370.831	290.13
371.212	303.69
371.593	294.88
371.974	296.24
372.355	338.27
372.736	320.19
373.117	309.34
373.498	319.06
373.879	310.25
374.26	315.9
374.641	303.92
375.021	318.16
375.402	324.26
375.783	313.86
376.163	303.92
376.544	333.97
376.925	321.77
377.305	333.52
377.686	314.99
378.066	310.7
378.447	327.87
378.827	311.83
379.208	325.84
379.588	325.39
379.968	333.97
380.349	304.14
380.729	340.75
381.109	306.63
381.489	336.91
381.87	317.7
382.25	336.01
382.63	337.59
383.01	343.92
383.39	292.85
383.77	342.56
384.15	329.23
384.53	346.18
384.91	338.49
385.29	333.07
385.67	350.7
386.049	365.39
386.429	336.69
386.809	338.49
387.189	341.88
387.568	355.22
387.948	331.71
388.328	349.57
388.707	341.88
389.087	348.66
389.466	355.22
389.846	324.93
390.225	340.53
390.605	350.92
390.984	359.28
391.363	364.48
391.743	366.97
392.122	386.63
392.501	368.32
392.881	365.39
393.26	366.74
393.639	359.28
394.018	358.15
394.397	370.58
394.776	372.62
395.155	366.29
395.534	372.17
395.913	370.36
396.292	389.34
396.671	381.66
397.05	383.24
397.429	394.54
397.808	384.59
398.186	382.79
398.565	392.05
398.944	389.57
399.323	377.59
399.701	385.27
400.08	416.68
400.458	404.03
400.837	409.9
401.215	404.48
401.594	427.76
401.972	411.03
402.351	422.33
402.729	404.93
403.107	423.01
403.486	406.06
403.864	440.64
404.242	428.66
404.62	418.27
404.999	436.8
405.377	423.46
405.755	449.68
406.133	453.75
406.511	449
406.889	458.72
407.267	461.2
407.645	480.86
408.023	474.76
408.401	496
408.779	455.55
409.156	483.12
409.534	498.26
409.912	506.17
410.29	508.88
410.667	509.79
411.045	526.51
411.422	516.12
411.8	543.01
412.178	524.48
412.555	536.91
412.933	538.49
413.31	567.19
413.687	577.13
414.065	553.63
414.442	580.75
414.819	607.87
415.197	596.79
415.574	620.52
415.951	624.59
416.328	631.37
416.705	635.21
417.082	665.94
417.46	648.09
417.837	643.8
418.214	660.07
418.591	682.21
418.967	670.69
419.344	685.38
419.721	685.38
420.098	724.92
420.475	705.49
420.852	728.31
421.228	754.98
421.605	733.96
421.982	754.08
422.358	780.52
422.735	820.06
423.111	820.52
423.488	832.49
423.864	839.95
424.241	821.87
424.617	856.9
424.994	870.01
425.37	860.97
425.746	888.31
426.123	897.35
426.499	916.78
426.875	914.3
427.251	936.44
427.627	933.96
428.003	941.19
428.379	965.6
428.756	1014.18
429.132	1046.05
429.507	1029.1
429.883	1023.9
430.259	1042.43
430.635	1062.54
431.011	1023.67
431.387	1084.46
431.763	1086.72
432.138	1097.12
432.514	1119.26
432.89	1148.19
433.265	1173.27
433.641	1170.56
434.016	1198.58
434.392	1218.02
434.767	1233.39
435.143	1255.08
435.518	1278.58
435.894	1305.02
436.269	1355.42
436.644	1367.17
437.02	1396.09
437.395	1407.17
437.77	1379.37
438.145	1443.55
438.52	1469.54
438.895	1484.45
439.271	1487.39
439.646	1549.54
440.021	1567.39
440.395	1568.74
440.77	1561.74
441.145	1603.32
441.52	1599.48
441.895	1649.19
442.27	1679.93
442.645	1678.8
443.019	1707.72
443.394	1704.56
443.769	1742.07
444.143	1710.66
444.518	1733.03
444.892	1740.72
445.267	1772.58
445.641	1820.04
446.016	1828.4
446.39	1870.43
446.764	1876.76
447.139	1820.04
447.513	1893.03
447.887	1875.85
448.262	1919.92
448.636	1926.47
449.01	1948.17
449.384	1936.19
449.758	1994.72
450.132	2012.57
450.506	2035.62
450.88	2021.61
451.254	2017.09
451.628	2042.4
452.002	2084.66
452.376	2079.92
452.75	2133.02
453.123	2145.23
453.497	2164.21
453.871	2156.75
454.244	2221.16
454.618	2254.38
454.992	2290.08
455.365	2301.38
455.739	2325.56
456.112	2345.45
456.486	2376.63
456.859	2398.33
457.232	2453.92
457.606	2441.72
457.979	2478.32
458.352	2509.28
458.725	2544.31
459.099	2572.11
459.472	2627.93
459.845	2615.72
460.218	2667.92
460.591	2679
460.964	2693.23
461.337	2761.71
461.71	2822.5
462.083	2860.01
462.456	2870.18
462.829	2880.35
463.201	2933.91
463.574	2930.97
463.947	2977.97
464.32	3005.54
464.692	3087.8
465.065	3098.42
465.438	3177.97
465.81	3186.1
466.183	3245.76
466.555	3340
466.928	3320.34
467.3	3321.92
467.672	3379.77
468.045	3471.74
468.417	3474
468.789	3493.89
469.161	3522.14
469.534	3603.04
469.906	3676.26
470.278	3698.63
470.65	3773.21
471.022	3843.26
471.394	3903.6
471.766	3951.05
472.138	4000.54
472.51	4064.05
472.882	4104.95
473.253	4187.88
473.625	4210.48
473.997	4336.58
474.369	4355.79
474.74	4406.64
475.112	4483.7
475.484	4588.33
475.855	4657.7
476.227	4684.82
476.598	4813.86
476.97	4877.58
477.341	4953.97
477.713	5073.74
478.084	5065.6
478.455	5266.73
478.827	5257.69
479.198	5446.61
479.569	5494.52
479.94	5607.06
480.311	5602.76
480.682	5736.54
481.053	5850.21
481.424	5958.69
481.795	5991.9
482.166	6167.04
482.537	6250.2
482.908	6354.38
483.279	6424.21
483.65	6512.79
484.021	6666.01
484.391	6748.04
484.762	6761.6
485.133	6873.46
485.503	6959.79
485.874	7057.19
486.244	7167.01
486.615	7309.84
486.985	7393.9
487.356	7583.73
487.726	7571.07
488.097	7743.27
488.467	7769.26
488.837	7972.19
489.207	8019.87
489.578	8123.6
489.948	8157.72
490.318	8346.19
490.688	8355.23
491.058	8395.91
491.428	8544.61
491.798	8669.8
492.168	8824.6
492.538	8824.15
492.908	8923.58
493.278	9027.31
493.648	9079.96
494.017	9146.17
494.387	9214.64
494.757	9237.24
495.126	9355.88
495.496	9445.83
495.866	9477.01
496.235	9562.88
496.605	9613.28
496.974	9722.2
497.344	9784.8
497.713	9788.87
498.082	9890.79
498.452	9875.64
498.821	9956.32
499.19	9963.78
499.559	10004.91
499.928	10057.33
500.298	10195.41
500.667	10176.88
501.036	10142.98
501.405	10267.72
501.774	10241.74
502.143	10332.36
502.512	10406.03
502.88	10412.58
503.249	10332.58
503.618	10444.44
503.987	10474.27
504.356	10471.33
504.724	10577.32
505.093	10568.28
505.462	10592.01
505.83	10665.45
506.199	10639.01
506.567	10752.01
506.936	10693.48
507.304	10805.11
507.672	10801.72
508.041	10799.24
508.409	10909.97
508.777	10942.51
509.145	10979.57
509.514	10908.84
509.882	10961.94
510.25	10951.32
510.618	11042.17
510.986	11076.97
511.354	11044.65
511.722	11097.31
512.09	11210.98
512.458	11096.4
512.826	11170.07
513.193	11190.86
513.561	11184.54
513.929	11231.99
514.297	11328.04
514.664	11272.67
515.032	11263.18
515.4	11315.83
515.767	11282.16
516.135	11349.5
516.502	11159.23
516.869	11354.7
517.237	11336.85
517.604	11236.74
517.972	11323.74
518.339	11358.77
518.706	11329.17
519.073	11346.57
519.44	11318.09
519.808	11401.03
520.175	11307.7
520.542	11439.22
520.909	11395.6
521.276	11363.74
521.643	11370.75
522.009	11481.93
522.376	11415.26
522.743	11455.26
523.11	11538.43
523.477	11485.09
523.843	11448.94
524.21	11566
524.577	11506.56
524.943	11526.9
525.31	11510.4
525.676	11587.92
526.043	11513.34
526.409	11536.84
526.776	11581.59
527.142	11469.05
527.508	11445.77
527.874	11538.43
528.241	11523.06
528.607	11440.8
528.973	11511.31
529.339	11406.9
529.705	11514.7
530.071	11492.78
530.437	11383.85
530.803	11438.99
531.169	11391.08
531.535	11323.97
531.901	11306.12
532.267	11339.11
532.632	11284.65
532.998	11204.2
533.364	11250.07
533.73	11167.81
534.095	11161.49
534.461	11093.92
534.826	11140.24
535.192	11050.75
535.557	11048.27
535.923	11040.13
536.288	10984.09
536.653	10961.27
537.019	10756.07
537.384	10813.92
537.749	10708.84
538.114	10678.79
538.479	10647.15
538.845	10654.61
539.21	10564.44
539.575	10504.1
539.94	10521.5
540.305	10462.3
540.67	10367.38
541.034	10435.86
541.399	10291.45
541.764	10313.37
542.129	10255.97
542.494	10236.99
542.858	10113.83
543.223	10084.9
543.587	10023.89
543.952	9885.81
544.316	9966.72
544.681	9869.09
545.045	9825.7
545.41	9836.1
545.774	9790
546.138	9680.85
546.503	9702.99
546.867	9556.1
547.231	9627.97
547.595	9505.26
547.959	9498.48
548.324	9397.46
548.688	9372.38
549.052	9351.59
549.416	9327.41
549.779	9182.1
550.143	9169.22
550.507	9162.22
550.871	9097.13
551.235	9081.31
551.599	9028.89
551.962	9008.55
552.326	8881.09
552.689	8946.18
553.053	8819.4
553.417	8793.64
553.78	8871.38
554.143	8759.06
554.507	8784.37
554.87	8702.57
555.234	8720.87
555.597	8626.19
555.96	8576.92
556.323	8531.05
556.686	8570.82
557.05	8592.06
557.413	8515.68
557.776	8432.97
558.139	8437.72
558.502	8448.56
558.865	8325.4
559.228	8392.52
559.59	8475.91
559.953	8357.94
560.316	8333.09
560.679	8312.3
561.041	8328.79
561.404	8317.04
561.767	8307.55
562.129	8198.63
562.492	8232.98
562.854	8232.52
563.217	8217.61
563.579	8229.13
563.941	8255.35
564.304	8131.51
564.666	8261.9
565.028	8153.43
565.39	8188.46
565.753	8195.24
566.115	8081.57
566.477	8167.44
566.839	8163.15
567.201	8164.05
567.563	8124.05
567.925	8162.69
568.287	8139.87
568.648	8136.93
569.01	8156.59
569.372	8140.32
569.734	8131.74
570.095	8135.13
570.457	8114.33
570.819	8076.37
571.18	8136.48
571.542	8132.19
571.903	8119.98
572.265	8105.97
572.626	8105.52
572.987	8110.49
573.349	8057.39
573.71	8071.17
574.071	8079.53
574.432	8099.19
574.794	8112.07
575.155	8106.43
575.516	8038.86
575.877	8121.57
576.238	8074.34
576.599	8095.58
576.96	8107.33
577.32	8105.3
577.681	8157.05
578.042	8039.99
578.403	8088.35
578.763	8051.29
579.124	8054.68
579.485	8084.73
579.845	8114.56
580.206	8050.83
580.566	8049.25
580.927	7987.33
581.287	8030.95
581.648	8011.29
582.008	8025.07
582.368	8013.77
582.728	8044.05
583.089	8010.61
583.449	7960.89
583.809	8043.38
584.169	7950.27
584.529	7931.51
584.889	7983.49
585.249	7958.18
585.609	7984.17
585.969	7973.32
586.329	7945.98
586.688	7946.66
587.048	7884.51
587.408	7909.14
587.768	7899.65
588.127	7866.88
588.487	7865.98
588.846	7866.43
589.206	7821.01
589.565	7836.83
589.925	7836.6
590.284	7816.04
590.643	7878.18
591.003	7824.62
591.362	7872.08
591.721	7834.34
592.08	7833.89
592.44	7805.19
592.799	7792.76
593.158	7828.47
593.517	7757.96
593.876	7762.48
594.235	7766.77
594.593	7707.11
594.952	7757.51
595.311	7708.24
595.67	7749.6
596.029	7711.63
596.387	7710.5
596.746	7776.04
597.104	7671.18
597.463	7686.1
597.822	7636.61
598.18	7697.62
598.538	7706.44
598.897	7710.96
599.255	7628.02
599.613	7659.66
599.972	7665.76
600.33	7629.38
600.688	7631.18
601.046	7649.26
601.404	7682.03
601.762	7612.2
602.12	7598.87
602.478	7619.21
602.836	7665.98
603.194	7601.13
603.552	7636.16
603.91	7530.17
604.268	7567.91
604.625	7630.96
604.983	7632.77
605.341	7571.98
605.698	7578.53
606.056	7606.1
606.413	7593.67
606.771	7589.38
607.128	7600.45
607.485	7572.2
607.843	7617.62
608.2	7590.05
608.557	7628.47
608.914	7620.11
609.272	7662.6
609.629	7647.91
609.986	7592.09
610.343	7544.41
610.7	7650.62
611.057	7593.22
611.414	7674.8
611.771	7598.87
612.127	7672.99
612.484	7639.54
612.841	7705.31
613.198	7685.87
613.554	7615.36
613.911	7706.66
614.267	7646.55
614.624	7665.08
614.98	7664.85
615.337	7674.35
615.693	7708.7
616.05	7674.12
616.406	7728.58
616.762	7717.28
617.118	7717.73
617.475	7692.2
617.831	7713.89
618.187	7721.35
618.543	7691.29
618.899	7743.5
619.255	7736.72
619.611	7730.84
619.967	7696.49
620.323	7723.84
620.678	7762.03
621.034	7718.64
621.39	7705.98
621.746	7731.97
622.101	7805.19
622.457	7738.75
622.812	7743.95
623.168	7763.38
623.523	7694.23
623.879	7730.39
624.234	7686.78
624.589	7771.29
624.945	7729.03
625.3	7752.99
625.655	7707.79
626.01	7702.14
626.365	7722.03
626.72	7689.26
627.075	7759.54
627.43	7718.64
627.785	7685.87
628.14	7710.05
628.495	7740.56
628.85	7619.43
629.205	7658.08
629.559	7692.88
629.914	7706.44
630.269	7614.69
630.623	7660.34
630.978	7632.77
631.332	7628.7
631.687	7657.85
632.041	7613.33
632.396	7693.78
632.75	7583.28
633.104	7644.06
633.459	7550.51
633.813	7581.24
634.167	7583.5
634.521	7563.39
634.875	7607.23
635.229	7581.24
635.583	7422.6
635.937	7530.62
636.291	7511.64
636.645	7486.1
636.999	7433.22
637.352	7508.47
637.706	7441.13
638.06	7437.74
638.413	7449.49
638.767	7407.46
639.121	7513.67
639.474	7433
639.828	7463.96
640.181	7411.08
640.534	7485.65
640.888	7397.52
641.241	7386.22
641.594	7397.74
641.947	7371.76
642.301	7375.15
642.654	7382.38
643.007	7359.55
643.36	7353.9
643.713	7301.93
644.066	7382.6
644.419	7333.56
644.771	7284.75
645.124	7223.06
645.477	7178.99
645.83	7192.78
646.182	7140.57
646.535	7141.93
646.888	7118.2
647.24	7079.56
647.593	7131.76
647.945	7166.56
648.298	7043.4
648.65	7052.67
649.002	7094.7
649.355	7095.83
649.707	7123.17
650.059	7180.8
650.411	7183.29
650.763	7275.49
651.115	7276.39
651.467	7326.56
651.819	7249.27
652.171	7252.44
652.523	7194.13
652.875	7269.61
653.227	7216.28
653.578	7251.76
653.93	7262.61
654.282	7275.49
654.633	7331.98
654.985	7219.89
655.337	7240.46
655.688	7235.26
656.039	7339.21
656.391	7322.04
656.742	7297.18
657.094	7293.11
657.445	7299.44
657.796	7342.6
658.147	7346.67
658.498	7341.93
658.849	7329.04
659.2	7272.77
659.551	7299.44
659.902	7355.03
660.253	7356.39
660.604	7322.04
660.955	7325.65
661.306	7389.61
661.656	7354.81
662.007	7379.44
662.358	7356.61
662.708	7292.89
663.059	7408.59
663.409	7315.26
663.76	7429.61
664.11	7352.09
664.461	7403.39
664.811	7416.05
665.161	7289.95
665.511	7362.49
665.862	7337.18
666.212	7337.41
666.562	7379.44
666.912	7391.42
667.262	7369.95
667.612	7392.77
667.962	7347.35
668.312	7374.47
668.662	7362.26
669.011	7390.06
669.361	7363.85
669.711	7339.21
670.06	7336.95
670.41	7368.14
670.76	7383.73
671.109	7362.94
671.459	7349.83
671.808	7298.08
672.157	7354.13
672.507	7266
672.856	7288.37
673.205	7347.12
673.554	7311.87
673.904	7338.76
674.253	7339.89
674.602	7308.93
674.951	7222.15
675.3	7213.34
675.649	7314.58
675.998	7314.81
676.346	7221.02
676.695	7318.65
677.044	7238.2
677.393	7331.98
677.741	7262.61
678.09	7208.37
678.438	7189.39
678.787	7284.3
679.135	7206.56
679.484	7218.76
679.832	7122.5
680.181	7159.11
680.529	7145.55
680.877	7135.15
681.225	7132.89
681.573	7114.36
681.922	7132.21
682.27	7066.9
682.618	7096.51
682.966	7084.31
683.314	7133.8
683.661	7024.65
684.009	7003.86
684.357	6948.26
684.705	7035.27
685.053	7066.45
685.4	6995.27
685.748	6936.06
686.095	6912.78
686.443	6912.11
686.79	6851.09
687.138	6906.23
687.485	6924.31
687.832	6826.68
688.18	6844.31
688.527	6819.45
688.874	6807.25
689.221	6757.53
689.568	6818.78
689.915	6766.12
690.262	6725.22
690.609	6688.38
690.956	6723.18
691.303	6741.26
691.65	6673.92
691.997	6617.2
692.344	6548.5
692.69	6610.87
693.037	6605.67
693.383	6528.16
693.73	6549.63
694.077	6435.28
694.423	6500.82
694.769	6397.09
695.116	6408.16
695.462	6465.56
695.808	6363.42
696.155	6407.71
696.501	6357.09
696.847	6299.69
697.193	6317.55
697.539	6318.68
697.885	6266.47
698.231	6198.68
698.577	6180.37
698.923	6164.78
699.269	6162.3
699.614	6071.22
699.96	6086.59
700.306	6058.57
700.651	6059.02
700.997	6023.99
701.342	5986.71
701.688	5965.69
702.033	6014.28
702.379	5960.04
702.724	5918.23
703.069	5955.75
703.415	5960.94
703.76	5868.07
704.105	5857.22
704.45	5855.41
704.795	5805.02
705.14	5801.63
705.485	5765.7
705.83	5771.8
706.175	5773.15
706.52	5795.3
706.865	5753.49
707.209	5708.75
707.554	5664.68
707.899	5645.02
708.243	5643.89
708.588	5648.64
708.932	5609.99
709.277	5595.3
709.621	5612.48
709.966	5536.78
710.31	5513.27
710.654	5529.32
710.998	5556.66
711.342	5533.16
711.687	5515.53
712.031	5479.15
712.375	5450.22
712.719	5478.02
713.063	5444.35
713.407	5453.39
713.75	5435.08
714.094	5449.32
714.438	5392.82
714.782	5410.9
715.125	5405.71
715.469	5425.59
715.812	5351.7
716.156	5344.46
716.499	5334.07
716.843	5337.68
717.186	5286.84
717.53	5325.26
717.873	5336.78
718.216	5327.52
718.559	5289.55
718.902	5290
719.246	5278.93
719.589	5252.71
719.932	5257.23
720.275	5316.22
720.617	5218.14
720.96	5191.02
721.303	5245.26
721.646	5248.42
721.989	5199.61
722.331	5292.49
722.674	5284.8
723.016	5219.27
723.359	5177.01
723.701	5263.56
724.044	5155.54
724.386	5128.2
724.729	5218.37
725.071	5200.74
725.413	5211.81
725.755	5173.85
726.097	5146.73
726.439	5146.96
726.782	5164.13
727.124	5186.28
727.465	5177.24
727.807	5201.64
728.149	5153.28
728.491	5184.47
728.833	5177.91
729.175	5162.55
729.516	5122.32
729.858	5159.61
730.199	5129.33
730.541	5108.99
730.882	5132.94
731.224	5169.33
731.565	5141.31
731.906	5145.37
732.248	5212.26
732.589	5191.47
732.93	5138.14
733.271	5106.73
733.612	5137.46
733.953	5136.11
734.294	5194.41
734.635	5134.3
734.976	5154.86
735.317	5192.83
735.658	5176.11
735.999	5191.93
736.339	5189.89
736.68	5198.48
737.021	5200.29
737.361	5192.15
737.702	5228.76
738.042	5193.96
738.383	5210.46
738.723	5215.2
739.063	5235.99
739.404	5236.44
739.744	5281.87
740.084	5247.97
740.424	5287.74
740.764	5260.4
741.104	5274.41
741.444	5309.66
741.784	5294.07
742.124	5308.53
742.464	5321.87
742.804	5410
743.143	5383.33
743.483	5404.35
743.823	5433.05
744.162	5402.77
744.502	5476.89
744.841	5481.64
745.181	5560.73
745.52	5581.52
745.86	5580.84
746.199	5613.61
746.538	5675.53
746.877	5725.92
747.216	5781.51
747.556	5792.36
747.895	5852.02
748.234	5826.26
748.573	5867.84
748.911	6009.31
749.25	6033.71
749.589	6037.78
749.928	6117.55
750.267	6181.05
750.605	6296.76
750.944	6359.58
751.283	6378.79
751.621	6503.53
751.96	6534.04
752.298	6645.67
752.636	6701.72
752.975	6808.38
753.313	6877.53
753.651	7039.11
753.989	7124.98
754.327	7222.15
754.666	7237.3
755.004	7457.4
755.342	7636.16
755.679	7717.51
756.017	7802.93
756.355	7940.78
756.693	8089.93
757.031	8236.37
757.368	8325.63
757.706	8471.84
758.044	8662.57
758.381	8801.1
758.719	8956.57
759.056	9147.3
759.394	9312.04
759.731	9453.28
760.068	9626.39
760.405	9713.39
760.743	9878.81
761.08	10044.91
761.417	10246.48
761.754	10438.57
762.091	10679.92
762.428	10770.76
762.765	10984.77
763.102	11179.79
763.438	11273.35
763.775	11438.54
764.112	11622.04
764.449	11889.6
764.785	12052.08
765.122	12175.24
765.458	12262.02
765.795	12516.93
766.131	12718.73
766.467	12866.98
766.804	12992.62
767.14	13108.55
767.476	13283.46
767.812	13422.67
768.148	13636.68
768.485	13745.83
768.821	13833.73
769.157	13981.53
769.492	14147.62
769.828	14250.22
770.164	14338.58
770.5	14467.61
770.836	14680.49
771.171	14777.66
771.507	14913.03
771.842	14919.81
772.178	15056.3
772.513	15181.27
772.849	15240.47
773.184	15317.99
773.519	15538.09
773.855	15566.57
774.19	15651.99
774.525	15777.18
774.86	15885.2
775.195	15943.96
775.53	15993.22
775.865	16041.81
776.2	16034.35
776.535	16015.14
776.87	16056.27
777.205	16169.94
777.539	16236.61
777.874	16308.47
778.209	16304.4
778.543	16389.6
778.878	16347.56
779.212	16416.72
779.547	16407.68
779.881	16551.4
780.215	16504.85
780.55	16654.68
780.884	16596.6
781.218	16599.76
781.552	16624.39
781.886	16625.75
782.22	16678.63
782.554	16632.08
782.888	16624.85
783.222	16601.12
783.556	16662.81
783.889	16676.6
784.223	16598.63
784.557	16689.93
784.89	16712.07
785.224	16639.76
785.557	16609.25
785.891	16569.48
786.224	16549.59
786.558	16618.29
786.891	16572.87
787.224	16566.09
787.557	16557.05
787.891	16544.17
788.224	16529.48
788.557	16599.08
788.89	16590.5
789.223	16518.86
789.556	16494
789.888	16477.5
790.221	16482.93
790.554	16385.08
790.887	16425.08
791.219	16433.44
791.552	16335.81
791.884	16371.74
792.217	16390.95
792.549	16277.74
792.882	16129.72
793.214	16107.57
793.546	16246.78
793.879	16237.51
794.211	16116.61
794.543	16179.89
794.875	16180.34
795.207	16114.35
795.539	16166.1
795.871	16118.64
796.203	15985.09
796.535	15938.08
796.867	15938.08
797.198	15907.58
797.53	15912.32
797.862	15799.56
798.193	15880.01
798.525	15809.73
798.856	15887.24
799.188	15594.82
799.519	15577.64
799.85	15574.25
800.182	15623.97
800.513	15567.7
800.844	15426.46
801.175	15553.91
801.506	15484.08
801.837	15456.97
802.168	15421.94
802.499	15325.9
802.83	15343.75
803.161	15239.8
803.491	15395.95
803.822	15297.65
804.153	15266.91
804.483	15163.87
804.814	15145.56
805.145	15107.37
805.475	15070.54
805.805	15081.84
806.136	15120.25
806.466	15000.93
806.796	14982.63
807.126	14906.7
807.457	14857.89
807.787	14955.28
808.117	14896.98
808.447	14807.04
808.777	14916.87
809.107	14800.03
809.436	14740.15
809.766	14678.23
810.096	14663.99
810.426	14583.32
810.755	14593.26
811.085	14659.7
811.414	14544.45
811.744	14554.17
812.073	14499.93
812.403	14559.81
812.732	14361.18
813.061	14408.86
813.39	14369.31
813.719	14351.46
814.049	14418.58
814.378	14363.44
814.707	14287.51
815.036	14240.05
815.365	14239.15
815.693	14122.99
816.022	14059.04
816.351	14082.77
816.68	14090.67
817.008	14076.66
817.337	13973.62
817.665	13924.35
817.994	14022.88
818.322	14033.5
818.651	14003.45
818.979	13811.59
819.307	13952.15
819.636	13930.68
819.964	13769.78
820.292	13928.19
820.62	13827.4
820.948	13837.8
821.276	13788.99
821.604	13809.1
821.932	13872.6
822.259	13857.46
822.587	13792.83
822.915	13795.99
823.243	13792.15
823.57	13779.72
823.898	13779.95
824.225	13694.3
824.553	13746.5
824.88	13752.6
825.207	13797.8
825.535	13814.3
825.862	13877.35
826.189	13762.32
826.516	13881.87
826.843	13860.62
827.17	13869.44
827.497	13834.86
827.824	13772.72
828.151	13948.08
828.478	13876.9
828.805	13916.89
829.131	13860.62
829.458	13817.46
829.785	13809.55
830.111	13816.11
830.438	13886.61
830.764	13904.01
831.09	13912.37
831.417	13775.43
831.743	13870.79
832.069	13820.63
832.395	13775.65
832.722	13836.67
833.048	13727.29
833.374	13721.64
833.7	13700.85
834.026	13741.31
834.351	13770.23
834.677	13767.52
835.003	13797.12
835.329	13770.23
835.654	13694.3
835.98	13628.77
836.306	13718.48
836.631	13573.85
836.956	13743.34
837.282	13776.33
837.607	13593.96
837.932	13565.94
838.258	13534.76
838.583	13583.12
838.908	13574.3
839.233	13541.99
839.558	13388.09
839.883	13427.42
840.208	13379.05
840.533	13417.92
840.858	13464.02
841.182	13419.96
841.507	13389.45
841.832	13306.74
842.156	13294.09
842.481	13292.5
842.805	13205.27
843.13	13237.59
843.454	13212.28
843.778	13195.11
844.103	13106.07
844.427	13159.17
844.751	13146.74
845.075	13095.22
845.399	13039.63
845.723	13080.53
846.047	12996.69
846.371	12851.39
846.695	12882.34
847.019	12817.94
847.343	12750.37
847.666	12626.31
847.99	12592.41
848.313	12693.88
848.637	12579.75
848.96	12593.76
849.284	12450.72
849.607	12374.34
849.931	12387.44
850.254	12288.24
850.577	12202.59
850.9	12081.91
851.223	12077.62
851.546	12070.16
851.869	12039.66
852.192	12023.38
852.515	11929.6
852.838	11857.29
853.161	11932.99
853.483	11865.42
853.806	11797.63
854.129	11723.96
854.451	11693.68
854.774	11723.51
855.096	11609.38
855.419	11563.28
855.741	11596.73
856.063	11520.35
856.385	11484.64
856.708	11439.22
857.03	11394.47
857.352	11340.24
857.674	11396.06
857.996	11230.18
858.318	11227.47
858.64	11199.9
858.961	11330.75
859.283	11172.33
859.605	11163.29
859.926	11176.63
860.248	11051.21
860.57	11090.53
860.891	11038.1
861.212	10999.46
861.534	10998.78
861.855	10959.91
862.176	10969.17
862.498	10982.73
862.819	10894.6
863.14	10934.6
863.461	10830.2
863.782	10822.74
864.103	10939.8
864.424	10748.62
864.745	10853.92
865.065	10755.85
865.386	10763.53
865.707	10776.86
866.027	10724.21
866.348	10708.16
866.668	10682.85
866.989	10676.08
867.309	10640.82
867.63	10633.59
867.95	10560.6
868.27	10593.14
868.59	10524.21
868.91	10547.72
869.23	10565.8
869.55	10467.95
869.87	10517.21
870.19	10475.18
870.51	10536.64
870.83	10476.31
871.15	10435.86
871.469	10446.7
871.789	10413.94
872.109	10451.45
872.428	10295.07
872.748	10354.05
873.067	10394.5
873.386	10380.26
873.706	10331.23
874.025	10242.87
874.344	10237.67
874.663	10271.11
874.982	10194.51
875.301	10292.13
875.62	10259.81
875.939	10199.48
876.258	10162.42
876.577	10152.47
876.896	10079.25
877.214	10131.23
877.533	10129.65
877.852	9999.71
878.17	10148.63
878.489	10075.41
878.807	10128.74
879.125	10038.13
879.444	10006.94
879.762	10006.49
880.08	9999.48
880.398	9964
880.716	10017.79
881.034	9934.63
881.352	9950.44
881.67	9864.8
881.988	9915.42
882.306	9806.27
882.624	9871.58
882.941	9795.19
883.259	9771.24
883.577	9716.33
883.894	9720.17
884.212	9728.3
884.529	9694.63
884.846	9713.84
885.164	9657.57
885.481	9595.43
885.798	9616.44
886.115	9574.41
886.432	9522.89
886.75	9548.2
887.067	9537.35
887.383	9519.95
887.7	9463.9
888.017	9473.62
888.334	9423.68
888.651	9406.73
888.967	9361.99
889.284	9371.7
889.6	9347.3
889.917	9241.08
890.233	9259.39
890.55	9202.89
890.866	9195.44
891.182	9194.98
891.498	9139.39
891.815	9104.14
892.131	9119.73
892.447	9113.86
892.763	9077.25
893.079	9017.36
893.395	8938.95
893.71	8984.37
894.026	8948.66
894.342	8935.78
894.657	8893.3
894.973	8829.8
895.289	8868.67
895.604	8792.06
895.92	8785.5
896.235	8710.93
896.55	8687.2
896.865	8656.02
897.181	8641.55
897.496	8634.32
897.811	8592.06
898.126	8542.12
898.441	8488.34
898.756	8516.13
899.071	8469.81
899.386	8446.3
899.7	8378.96
900.015	8366.76
900.33	8302.8
900.644	8300.77
900.959	8307.78
901.273	8250.38
901.588	8141.68
901.902	8182.13
902.216	8135.35
902.531	8183.94
902.845	8151.4
903.159	8050.61
903.473	7987.33
903.787	7964.51
904.101	7948.24
904.415	7971.51
904.729	7954.11
905.042	7836.38
905.356	7850.84
905.67	7890.16
905.984	7817.39
906.297	7784.85
906.611	7755.7
906.924	7741.92
907.237	7688.81
907.551	7650.62
907.864	7618.3
908.177	7579.21
908.491	7559.77
908.804	7483.39
909.117	7508.02
909.43	7394.13
909.743	7388.03
910.056	7376.5
910.368	7354.58
910.681	7283.4
910.994	7287.46
911.307	7269.61
911.619	7243.4
911.932	7234.13
912.244	7157.98
912.557	7159.11
912.869	7105.1
913.181	7079.33
913.494	7091.76
913.806	6989.39
914.118	6970.18
914.43	6917.76
914.742	6974.25
915.054	6933.57
915.366	6857.42
915.678	6856.74
915.99	6868.49
916.302	6774.48
916.613	6754.82
916.925	6795.05
917.236	6741.94
917.548	6667.37
917.859	6637.31
918.171	6632.79
918.482	6643.86
918.794	6569.06
919.105	6590.31
919.416	6487.94
919.727	6499.69
920.038	6524.77
920.349	6458.33
920.66	6418.11
920.971	6461.27
921.282	6445.23
921.593	6300.82
921.903	6382.4
922.214	6305.79
922.525	6287.04
922.835	6216.98
923.146	6214.95
923.456	6214.5
923.767	6189.64
924.077	6160.04
924.387	6117.33
924.697	6074.61
925.008	6044.11
925.318	6070.55
925.628	6071.45
925.938	6013.6
926.248	5960.27
926.558	5921.17
926.867	5943.54
927.177	5912.58
927.487	5870.55
927.796	5851.12
928.106	5823.77
928.416	5765.7
928.725	5824
929.034	5725.47
929.344	5761.63
929.653	5733.38
929.962	5645.7
930.271	5651.35
930.581	5692.03
930.89	5616.1
931.199	5535.87
931.508	5578.58
931.817	5594.4
932.125	5564.57
932.434	5506.04
932.743	5508.98
933.051	5489.32
933.36	5433.05
933.669	5442.77
933.977	5400.96
934.286	5412.94
934.594	5395.08
934.902	5273.51
935.21	5280.96
935.519	5285.03
935.827	5258.14
936.135	5259.72
936.443	5221.08
936.751	5186.28
937.059	5211.81
937.367	5177.69
937.674	5133.85
937.982	5157.8
938.29	5157.58
938.597	5113.74
938.905	5029.44
939.213	5059.27
939.52	4991.25
939.827	5014.08
940.135	5050.69
940.442	4907.41
940.749	4933.18
941.056	5007.3
941.363	4907.41
941.67	4843.46
941.977	4858.38
942.284	4783.12
942.591	4796
942.898	4744.48
943.205	4778.15
943.511	4703.35
943.818	4763.46
944.125	4710.58
944.431	4689.34
944.738	4650.7
945.044	4643.01
945.35	4632.62
945.657	4601.66
945.963	4582.45
946.269	4583.58
946.575	4510.81
946.881	4506.75
947.187	4502.45
947.493	4481.89
947.799	4476.46
948.105	4448.44
948.41	4460.87
948.716	4439.18
949.022	4415.9
949.327	4379.74
949.633	4320.08
949.938	4334.55
950.244	4355.79
950.549	4276.7
950.854	4257.49
951.16	4267.2
951.465	4262.91
951.77	4232.18
952.075	4179.3
952.38	4192.86
952.685	4226.53
952.99	4172.07
953.294	4148.34
953.599	4116.47
953.904	4091.62
954.209	4082.35
954.513	4066.53
954.818	3982.24
955.122	4009.81
955.426	3993.09
955.731	3991.05
956.035	4019.75
956.339	3958.74
956.643	3915.12
956.948	3930.94
957.252	3923.26
957.556	3915.35
957.86	3897.5
958.163	3864.28
958.467	3839.19
958.771	3840.77
959.075	3807.1
959.378	3789.7
959.682	3809.82
959.985	3758.52
960.289	3776.6
960.592	3751.96
960.896	3732.98
961.199	3721.91
961.502	3657.95
961.805	3657.73
962.108	3645.53
962.411	3616.6
962.714	3645.3
963.017	3616.37
963.32	3653.89
963.623	3581.35
963.926	3544.29
964.228	3528.92
964.531	3531.86
964.833	3522.59
965.136	3484.17
965.438	3506.32
965.741	3480.56
966.043	3468.36
966.345	3476.49
966.648	3441.69
966.95	3452.31
967.252	3421.58
967.554	3391.07
967.856	3371.86
968.158	3317.62
968.46	3352.2
968.761	3320.34
969.063	3309.26
969.365	3329.15
969.666	3276.27
969.968	3284.86
970.269	3266.78
970.571	3231.53
970.872	3231.53
971.174	3222.94
971.475	3226.33
971.776	3179.78
972.077	3144.75
972.378	3212.32
972.679	3151.75
972.98	3137.29
973.281	3076.73
973.582	3116.27
973.883	3063.39
974.183	3118.76
974.484	3081.25
974.785	3025.65
975.085	3079.44
975.386	3102.04
975.686	2962.15
975.986	2986.79
976.287	3013.68
976.587	2981.81
976.887	2954.24
977.187	2940.69
977.487	2915.83
977.787	2925.77
978.087	2912.44
978.387	2912.44
978.687	2873.34
978.987	2876.51
979.286	2875.6
979.586	2861.37
979.885	2847.13
980.185	2840.58
980.484	2823.85
980.784	2772.1
981.083	2769.62
981.382	2743.4
981.682	2744.98
981.981	2735.04
982.28	2729.39
982.579	2725.55
982.878	2703.63
983.177	2679.22
983.475	2682.16
983.774	2679.68
984.073	2675.83
984.372	2641.03
984.67	2673.8
984.969	2615.5
985.267	2628.83
985.566	2615.5
985.864	2591.99
986.162	2581.6
986.461	2575.05
986.759	2567.59
987.057	2540.7
987.355	2499.12
987.653	2540.24
987.951	2526.23
988.249	2486.01
988.547	2504.76
988.844	2453.01
989.142	2484.2
989.44	2458.21
989.737	2437.2
990.035	2426.8
990.332	2434.94
990.63	2404.88
990.927	2430.87
991.224	2396.07
991.521	2361.49
991.819	2363.98
992.116	2361.72
992.413	2315.62
992.71	2333.02
993.006	2317.2
993.303	2308.39
993.6	2309.06
993.897	2302.06
994.193	2282.4
994.49	2294.83
994.787	2260.03
995.083	2283.75
995.379	2225.22
995.676	2201.27
995.972	2217.54
996.268	2187.71
996.565	2201.72
996.861	2209.63
997.157	2179.8
997.453	2169.63
997.749	2155.17
998.044	2126.7
998.34	2133.93
998.636	2110.42
998.932	2140.93
999.227	2099.8
999.523	2086.24
999.818	2062.97
1000.114	2054.38
1000.409	2089.86
1000.704	2028.84
1001	2078.56
1001.295	2017.77
1001.59	2003.31
1001.885	2018.22
1002.18	2010.09
1002.475	1952.46
1002.77	1966.25
1003.065	1952.24
1003.359	1954.27
1003.654	1911.79
1003.949	1934.61
1004.243	1907.27
1004.538	1879.24
1004.832	1869.08
1005.127	1900.71
1005.421	1853.93
1005.715	1852.13
1006.009	1848.06
1006.304	1843.54
1006.598	1832.24
1006.892	1807.61
1007.186	1839.92
1007.48	1794.73
1007.773	1791.56
1008.067	1773.94
1008.361	1793.82
1008.655	1772.35
1008.948	1740.49
1009.242	1739.81
1009.535	1744.78
1009.829	1709.08
1010.122	1749.98
1010.415	1705.01
1010.708	1687.39
1011.001	1672.02
1011.295	1665.24
1011.588	1688.06
1011.881	1652.58
1012.173	1651
1012.466	1630.21
1012.759	1599.25
1013.052	1611
1013.344	1592.25
1013.637	1575.3
1013.93	1596.09
1014.222	1550.67
1014.514	1565.35
1014.807	1546.37
1015.099	1562.87
1015.391	1537.78
1015.683	1500.5
1015.976	1526.03
1016.268	1507.73
1016.56	1494.62
1016.851	1497.11
1017.143	1469.99
1017.435	1465.24
1017.727	1487.62
1018.018	1453.49
1018.31	1441.52
1018.602	1441.29
1018.893	1446.49
1019.185	1414.4
1019.476	1441.29
1019.767	1401.29
1020.058	1400.39
1020.35	1386.38
1020.641	1380.5
1020.932	1346.6
1021.223	1347.05
1021.514	1371.01
1021.804	1337.11
1022.095	1361.29
1022.386	1358.58
1022.677	1299.82
1022.967	1309.09
1023.258	1311.35
1023.548	1281.75
1023.839	1281.97
1024.129	1268.41
1024.419	1274.97
1024.709	1252.37
1025	1254.18
1025.29	1232.93
1025.58	1253.05
1025.87	1241.3
1026.16	1219.6
1026.449	1227.28
1026.739	1212.14
1027.029	1208.3
1027.319	1194.29
1027.608	1175.76
1027.898	1161.75
1028.187	1137.79
1028.477	1168.75
1028.766	1161.07
1029.055	1163.33
1029.344	1130.79
1029.634	1117.23
1029.923	1137.79
1030.212	1137.79
1030.501	1112.48
1030.79	1094.41
1031.078	1098.7
1031.367	1076.55
1031.656	1084.46
1031.945	1048.98
1032.233	1056.67
1032.522	1043.56
1032.81	1057.35
1033.099	1048.53
1033.387	1045.14
1033.675	1028.87
1033.963	1032.26
1034.251	1020.28
1034.54	997.23
1034.828	1031.81
1035.116	997.46
1035.403	997.46
1035.691	996.78
1035.979	990.45
1036.267	966.73
1036.554	984.35
1036.842	977.57
1037.129	954.3
1037.417	955.88
1037.704	944.13
1037.992	939.38
1038.279	926.73
1038.566	940.29
1038.853	940.29
1039.14	940.29
