Data from hue_280_FLMS001491_00082.txt Node
Date: Tue Feb 07 15:55:54 GMT 2017
User: dcchb
Spectrometer: FLMS00149
Trigger mode: 0
Integration Time (sec): 2.000000E-2
Scans to average: 10
Electric dark correction enabled: true
Nonlinearity correction enabled: false
Boxcar width: 0
XAxis mode: Wavelengths
Number of Pixels in Spectrum: 2048
>>>>>Begin Spectral Data<<<<<
341.393	12.47
341.776	12.47
342.16	12.47
342.543	-56.91
342.927	-78.37
343.31	-66.4
343.693	-57.58
344.077	-45.61
344.46	-58.26
344.843	-55.55
345.226	-31.6
345.61	-39.96
345.993	-41.54
346.376	-1.99
346.759	2.08
347.142	45.24
347.525	44.56
347.908	44.11
348.291	70.77
348.674	77.78
349.057	113.94
349.44	123.88
349.823	137.89
350.206	165.69
350.588	193.48
350.971	193.71
351.354	216.99
351.737	205.91
352.119	262.41
352.502	259.24
352.884	279.36
353.267	280.04
353.65	285.68
354.032	287.72
354.414	295.63
354.797	286.81
355.179	335.4
355.562	316.42
355.944	313.71
356.326	320.49
356.709	326.14
357.091	342.86
357.473	322.07
357.855	322.07
358.238	323.2
358.62	333.37
359.002	325.91
359.384	342.41
359.766	344.21
360.148	356.42
360.53	344.89
360.912	343.31
361.294	332.01
361.676	316.87
362.057	337.89
362.439	322.97
362.821	326.59
363.203	336.08
363.584	323.42
363.966	326.81
364.348	335.63
364.729	317.77
365.111	308.51
365.493	318.9
365.874	314.38
366.256	292.92
366.637	309.86
367.019	314.61
367.4	311.22
367.781	303.09
368.163	306.02
368.544	318
368.925	316.64
369.306	327.27
369.688	294.72
370.069	301.5
370.45	295.63
370.831	312.8
371.212	321.62
371.593	290.2
371.974	301.05
372.355	294.5
372.736	327.72
373.117	305.35
373.498	321.62
373.879	292.46
374.26	298.11
374.641	306.25
375.021	311.9
375.402	303.54
375.783	332.01
376.163	301.96
376.544	315.97
376.925	334.5
377.305	320.03
377.686	325.46
378.066	341.5
378.447	327.94
378.827	349.41
379.208	321.39
379.588	319.36
379.968	321.84
380.349	318.23
380.729	324.55
381.109	338.11
381.489	330.2
381.87	330.43
382.25	328.17
382.63	321.39
383.01	348.51
383.39	320.49
383.77	355.29
384.15	334.04
384.53	358
384.91	313.03
385.29	348.73
385.67	359.35
386.049	348.06
386.429	348.28
386.809	355.97
387.189	338.56
387.568	354.16
387.948	337.21
388.328	341.28
388.707	382.41
389.087	373.14
389.466	353.48
389.846	352.35
390.225	367.94
390.605	358.9
390.984	353.25
391.363	360.26
391.743	366.13
392.122	381.95
392.501	349.41
392.881	382.41
393.26	386.25
393.639	380.37
394.018	368.39
394.397	379.92
394.776	366.59
395.155	371.33
395.534	371.11
395.913	384.67
396.292	361.39
396.671	370.65
397.05	383.54
397.429	399.81
397.808	373.82
398.186	402.07
398.565	404.78
398.944	421.27
399.323	415.4
399.701	408.62
400.08	420.82
400.458	422.86
400.837	404.1
401.215	421.73
401.594	421.05
401.972	405.23
402.351	398.68
402.729	404.55
403.107	431.44
403.486	437.77
403.864	435.51
404.242	435.74
404.62	446.13
404.999	427.15
405.377	434.61
405.755	451.1
406.133	432.12
406.511	435.74
406.889	450.2
407.267	466.02
407.645	468.5
408.023	483.87
408.401	483.65
408.779	485.23
409.156	479.13
409.534	503.98
409.912	490.88
410.29	489.3
410.667	504.44
411.045	497.88
411.422	509.86
411.8	529.52
412.178	545.34
412.555	547.6
412.933	531.78
413.31	533.14
413.687	581.04
414.065	544.21
414.442	515.28
414.819	578.78
415.197	551.44
415.574	583.98
415.951	579.69
416.328	595.96
416.705	583.08
417.082	594.38
417.46	605.45
417.837	633.25
418.214	639.8
418.591	631.21
418.967	649.52
419.344	640.7
419.721	670.53
420.098	668.73
420.475	660.36
420.852	671.44
421.228	694.71
421.605	682.96
421.982	705.56
422.358	701.27
422.735	706.69
423.111	722.74
423.488	741.27
423.864	717.31
424.241	738.55
424.617	742.85
424.994	754.82
425.37	783.07
425.746	763.41
426.123	783.3
426.499	812.45
426.875	786.01
427.251	817.65
427.627	821.72
428.003	823.98
428.379	859
428.756	831.43
429.132	859.23
429.507	853.13
429.883	880.02
430.259	881.15
430.635	877.53
431.011	910.98
431.387	927.02
431.763	945.33
432.138	952.11
432.514	958.66
432.89	1008.15
433.265	985.33
433.641	995.04
434.016	990.52
434.392	1035.04
434.767	1040.92
435.143	1054.03
435.518	1056.74
435.894	1074.14
436.269	1084.76
436.644	1092.67
437.02	1116.62
437.395	1142.61
437.77	1148.49
438.145	1141.93
438.52	1158.66
438.895	1187.81
439.271	1173.57
439.646	1212.89
440.021	1222.16
440.395	1223.96
440.77	1223.96
441.145	1230.29
441.52	1256.73
441.895	1256.73
442.27	1279.1
442.645	1250.63
443.019	1282.04
443.394	1296.96
443.769	1312.55
444.143	1314.13
444.518	1325.21
444.892	1320.46
445.267	1324.75
445.641	1322.95
446.016	1339.89
446.39	1364.07
446.764	1371.53
447.139	1367.69
447.513	1355.94
447.887	1365.88
448.262	1373.57
448.636	1400.46
449.01	1399.1
449.384	1422.38
449.758	1416.73
450.132	1437.97
450.506	1428.71
450.88	1459.67
451.254	1433.23
451.628	1456.05
452.002	1487.46
452.376	1500.12
452.75	1509.83
453.123	1517.06
453.497	1521.13
453.871	1529.04
454.244	1558.42
454.618	1582.37
454.992	1588.93
455.365	1597.06
455.739	1631.64
456.112	1616.5
456.486	1618.08
456.859	1645.42
457.232	1650.39
457.606	1663.28
457.979	1675.93
458.352	1707.12
458.725	1697.62
459.099	1726.55
459.472	1719.55
459.845	1762.93
460.218	1741.24
460.591	1742.37
460.964	1783.5
461.337	1821.69
461.71	1832.54
462.083	1864.17
462.456	1851.52
462.829	1851.07
463.201	1874.12
463.574	1890.39
463.947	1926.77
464.32	1963.83
464.692	1937.39
465.065	1974
465.438	1963.38
465.81	2033.89
466.183	2044.06
466.555	2055.36
466.928	2038.41
467.3	2023.04
467.672	2109.59
468.045	2124.05
468.417	2118.63
468.789	2134
469.161	2151.62
469.534	2190.27
469.906	2202.24
470.278	2208.12
470.65	2235.92
471.022	2256.71
471.394	2295.58
471.766	2290.6
472.138	2331.96
472.51	2383.03
472.882	2417.15
473.253	2413.31
473.625	2411.28
473.997	2477.49
474.369	2504.84
474.74	2515
475.112	2559.52
475.484	2582.35
475.855	2603.36
476.227	2630.71
476.598	2651.5
476.97	2686.98
477.341	2743.93
477.713	2748.22
478.084	2794.55
478.455	2831.15
478.827	2866.86
479.198	2927.2
479.569	2938.5
479.94	2978.04
480.311	2981.43
480.682	3025.73
481.053	3124.03
481.424	3081.09
481.795	3131.49
482.166	3178.04
482.537	3191.14
482.908	3237.25
483.279	3261.65
483.65	3308.66
484.021	3371.93
484.391	3382.33
484.762	3384.81
485.133	3383
485.503	3468.65
485.874	3524.92
486.244	3550.68
486.615	3581.87
486.985	3622.32
487.356	3645.37
487.726	3691.02
488.097	3742.77
488.467	3738.7
488.837	3803.78
489.207	3842.2
489.578	3863.67
489.948	3898.7
490.318	3950
490.688	3941.86
491.058	3991.8
491.428	4031.57
491.798	4093.49
492.168	4120.61
492.538	4093.95
492.908	4181.85
493.278	4199.48
493.648	4172.59
494.017	4265.24
494.387	4261.63
494.757	4349.08
495.126	4358.12
495.496	4357.22
495.866	4376.65
496.235	4382.98
496.605	4408.74
496.974	4404.22
497.344	4443.77
497.713	4462.07
498.082	4516.53
498.452	4544.33
498.821	4555.85
499.19	4549.08
499.559	4626.59
499.928	4626.14
500.298	4629.98
500.667	4639.47
501.036	4650.54
501.405	4685.79
501.774	4713.59
502.143	4700.26
502.512	4727.83
502.88	4774.38
503.249	4749.07
503.618	4787.49
503.987	4807.15
504.356	4799.01
504.724	4810.76
505.093	4807.6
505.462	4857.99
505.83	4901.16
506.199	4888.73
506.567	4953.81
506.936	4959.69
507.304	5010.08
507.672	5015.05
508.041	5004.43
508.409	5011.89
508.777	5039.23
509.145	5082.85
509.514	5025.67
509.882	5048.95
510.25	5109.06
510.618	5092.34
510.986	5090.3
511.354	5095.05
511.722	5136.63
512.09	5234.93
512.458	5182.96
512.826	5228.15
513.193	5200.81
513.561	5232.22
513.929	5269.96
514.297	5260.7
514.664	5296.17
515.032	5321.71
515.4	5314.48
515.767	5393.57
516.135	5277.64
516.502	5304.76
516.869	5417.53
517.237	5394.02
517.604	5399
517.972	5389.05
518.339	5447.58
518.706	5453.23
519.073	5424.76
519.44	5468.37
519.808	5451.65
520.175	5494.14
520.542	5500.24
520.909	5516.06
521.276	5486.23
521.643	5583.62
522.009	5528.71
522.376	5585.21
522.743	5647.13
523.11	5639.44
523.477	5680.8
523.843	5701.81
524.21	5720.8
524.577	5765.54
524.943	5768.93
525.31	5711.3
525.676	5787.23
526.043	5805.99
526.409	5871.3
526.776	5914.92
527.142	5880.57
527.508	5867.91
527.874	5981.58
528.241	5945.87
528.607	5943.16
528.973	5987.46
529.339	6005.99
529.705	6033.1
530.071	6049.6
530.437	6045.53
530.803	6091.86
531.169	6077.17
531.535	6090.05
531.901	6154.46
532.267	6162.14
532.632	6140.22
532.998	6172.31
533.364	6193.33
533.73	6184.29
534.095	6275.58
534.461	6224.06
534.826	6238.75
535.192	6251.63
535.557	6271.29
535.923	6255.92
536.288	6322.36
536.653	6288.46
537.019	6269.71
537.384	6314
537.749	6362.36
538.114	6345.86
538.479	6379.76
538.845	6407.11
539.21	6401.23
539.575	6454.34
539.94	6428.57
540.305	6450.04
540.67	6389.93
541.034	6479.19
541.399	6484.84
541.764	6484.62
542.129	6506.31
542.494	6513.77
542.858	6578.17
543.223	6544.96
543.587	6546.99
543.952	6536.37
544.316	6580.89
544.681	6558.06
545.045	6556.48
545.41	6613.88
545.774	6672.18
546.138	6614.33
546.503	6661.34
546.867	6636.7
547.231	6732.29
547.595	6704.5
547.959	6734.1
548.324	6700.43
548.688	6739.07
549.052	6723.03
549.416	6765.51
549.779	6758.06
550.143	6821.56
550.507	6826.53
550.871	6843.7
551.235	6779.3
551.599	6823.14
551.962	6866.08
552.326	6843.03
552.689	6931.16
553.053	6860.2
553.417	6820.2
553.78	6941.1
554.143	6898.39
554.507	6935.45
554.87	6909.47
555.234	6992.4
555.597	6960.09
555.96	6964.61
556.323	7008.9
556.686	6986.75
557.05	7030.14
557.413	7024.49
557.776	7069.69
558.139	7092.29
558.502	7124.83
558.865	7123.24
559.228	7176.12
559.59	7201.89
559.953	7115.56
560.316	7203.92
560.679	7266.74
561.041	7233.3
561.404	7278.72
561.767	7305.16
562.129	7256.57
562.492	7340.87
562.854	7371.15
563.217	7364.82
563.579	7309.45
563.941	7450.69
564.304	7432.39
564.666	7510.81
565.028	7447.98
565.39	7509.68
565.753	7537.7
566.115	7569.33
566.477	7617.92
566.839	7606.4
567.201	7697.69
567.563	7708.09
567.925	7698.37
568.287	7716.22
568.648	7736.56
569.01	7752.38
569.372	7813.4
569.734	7774.75
570.095	7907.86
570.457	7935.43
570.819	7891.81
571.18	7940.4
571.542	7975.65
571.903	7993.96
572.265	8019.94
572.626	8057.91
572.987	8067.63
573.349	8125.48
573.71	8117.12
574.071	8151.92
574.432	8272.59
574.794	8248.41
575.155	8253.84
575.516	8228.75
575.877	8365.25
576.238	8328.86
576.599	8367.73
576.96	8408.18
577.32	8477.56
577.681	8510.33
578.042	8536.32
578.403	8449.09
578.763	8585.58
579.124	8675.97
579.485	8694.5
579.845	8714.84
580.206	8713.49
580.566	8768.63
580.927	8807.95
581.287	8831.22
581.648	8931.33
582.008	8979.02
582.368	9035.96
582.728	9102.4
583.089	9089.29
583.449	9113.48
583.809	9198.22
584.169	9229.63
584.529	9296.3
584.889	9364.32
585.249	9361.15
585.609	9388.95
585.969	9546.68
586.329	9550.07
586.688	9582.39
587.048	9616.51
587.408	9713.69
587.768	9776.96
588.127	9787.81
588.487	9811.31
588.846	9958.65
589.206	9943.96
589.565	10030.51
589.925	10140.11
590.284	10179.66
590.643	10230.51
591.003	10396.15
591.362	10404.06
591.721	10462.14
592.08	10474.12
592.44	10577.62
592.799	10641.34
593.158	10730.16
593.517	10797.5
593.876	10863.71
594.235	10741.45
594.593	10871.17
594.952	10980.77
595.311	11070.49
595.67	11113.2
596.029	11237.71
596.387	11280.2
596.746	11303.25
597.104	11406.97
597.463	11452.85
597.822	11546.63
598.18	11454.88
598.538	11541.66
598.897	11674.54
599.255	11588.66
599.613	11933.51
599.972	11760.41
600.33	11839.73
600.688	11863.91
601.046	11913.63
601.404	12020.74
601.762	12097.35
602.12	12191.36
602.478	12127.18
602.836	12203.56
603.194	12196.33
603.552	12246.73
603.91	12263.9
604.268	12373.05
604.625	12348.42
604.983	12497.57
605.341	12422.31
605.698	12494.4
606.056	12581.41
606.413	12641.74
606.771	12736.43
607.128	12677.22
607.485	12693.04
607.843	12715.19
608.2	12752.48
608.557	12840.83
608.914	12870.66
609.272	12959.02
609.629	12988.85
609.986	12969.87
610.343	12995.63
610.7	13136.42
611.057	13085.35
611.414	13100.49
611.771	13187.72
612.127	13195.18
612.484	13200.6
612.841	13323.99
613.198	13260.26
613.554	13321.27
613.911	13332.8
614.267	13329.64
614.624	13331.44
614.98	13417.99
615.337	13456.19
615.693	13427.03
616.05	13487.37
616.406	13534.6
616.762	13537.31
617.118	13517.43
617.475	13590.87
617.831	13561.95
618.187	13613.24
618.543	13693.92
618.899	13821.37
619.255	13765.56
619.611	13696.18
619.967	13768.72
620.323	13838.1
620.678	13775.73
621.034	13789.06
621.39	13753.35
621.746	13716.07
622.101	13975.04
622.457	13896.85
622.812	13945.21
623.168	13928.26
623.523	13900.47
623.879	13940.24
624.234	13840.36
624.589	13960.81
624.945	13927.59
625.3	13974.14
625.655	13999
626.01	13921.48
626.365	13994.7
626.72	13932.78
627.075	13973.46
627.43	13990.63
627.785	13978.21
628.14	13986.79
628.495	13931.88
628.85	13992.44
629.205	13954.25
629.559	13975.72
629.914	13898.66
630.269	14017.98
630.623	13881.71
630.978	13938.43
631.332	13931.43
631.687	14004.65
632.041	13892.33
632.396	13997.19
632.75	13894.37
633.104	13953.57
633.459	13925.33
633.813	13909.51
634.167	13784.31
634.521	13831.32
634.875	13801.71
635.229	13780.02
635.583	13769.85
635.937	13812.33
636.291	13755.61
636.645	13779.34
636.999	13676.07
637.352	13695.95
637.706	13619.8
638.06	13718.55
638.413	13726.69
638.767	13694.6
639.121	13651.89
639.474	13654.82
639.828	13634.49
640.181	13674.49
640.534	13688.72
640.888	13556.97
641.241	13623.19
641.594	13650.08
641.947	13644.2
642.301	13558.1
642.654	13595.39
643.007	13683.52
643.36	13615.96
643.713	13588.16
644.066	13619.57
644.419	13506.13
644.771	13434.94
645.124	13322.18
645.477	13354.72
645.83	13243.08
646.182	13172.13
646.535	13135.29
646.888	13226.59
647.24	13127.38
647.593	13172.13
647.945	13131
648.298	13142.75
648.65	13138
649.002	13013.71
649.355	13169.64
649.707	13088.96
650.059	13162.63
650.411	13422.51
650.763	13382.74
651.115	13474.04
651.467	13398.11
651.819	13490.99
652.171	13506.13
652.523	13475.85
652.875	13438.79
653.227	13398.11
653.578	13455.28
653.93	13487.6
654.282	13343.65
654.633	13343.19
654.985	13408.05
655.337	13478.33
655.688	13421.38
656.039	13518.33
656.391	13417.77
656.742	13463.42
657.094	13483.3
657.445	13518.56
657.796	13507.26
658.147	13438.11
658.498	13505.68
658.849	13526.47
659.2	13466.81
659.551	13406.02
659.902	13441.04
660.253	13511.55
660.604	13514.49
660.955	13441.5
661.306	13506.35
661.656	13414.38
662.007	13518.11
662.358	13526.92
662.708	13457.32
663.059	13480.37
663.409	13408.96
663.76	13556.75
664.11	13596.97
664.461	13570.31
664.811	13500.03
665.161	13593.36
665.511	13507.48
665.862	13498.44
666.212	13662.73
666.562	13582.28
666.912	13577.76
667.262	13545.67
667.612	13605.11
667.962	13530.53
668.312	13515.17
668.662	13594.71
669.011	13596.75
669.361	13546.58
669.711	13519.01
670.06	13555.62
670.41	13456.41
670.76	13557.43
671.109	13605.11
671.459	13558.56
671.808	13545.9
672.157	13500.25
672.507	13373.48
672.856	13525.56
673.205	13493.47
673.554	13520.36
673.904	13394.72
674.253	13562.85
674.602	13394.72
674.951	13272.01
675.3	13226.14
675.649	13333.7
675.998	13426.81
676.346	13427.49
676.695	13397.88
677.044	13320.14
677.393	13363.98
677.741	13382.29
678.09	13310.2
678.438	13209.19
678.787	13341.84
679.135	13323.99
679.484	13205.34
679.832	13225.01
680.181	13196.31
680.529	13248.51
680.877	13204.67
681.225	13171.22
681.573	13255.97
681.922	13118.12
682.27	12988.63
682.618	13033.6
682.966	13102.52
683.314	13008.97
683.661	13036.31
684.009	12992.92
684.357	12998.12
684.705	12894.62
685.053	12930.1
685.4	12935.07
685.748	12879.25
686.095	12757
686.443	12788.63
686.79	12738.92
687.138	12790.44
687.485	12808.07
687.832	12754.28
688.18	12699.6
688.527	12595.87
688.874	12630.9
689.221	12599.71
689.568	12558.13
689.915	12527.62
690.262	12476.1
690.609	12432.94
690.956	12387.51
691.303	12397.46
691.65	12419.83
691.997	12325.59
692.344	12257.57
692.69	12177.8
693.037	12220.96
693.383	12054.87
693.73	12160.17
694.077	11969.9
694.423	11945.72
694.769	11968.99
695.116	11921.08
695.462	11913.4
695.808	11868.66
696.155	11865.72
696.501	11830.69
696.847	11804.93
697.193	11608.55
697.539	11737.81
697.885	11604.93
698.231	11599.29
698.577	11599.74
698.923	11555.9
699.269	11482.23
699.614	11404.94
699.96	11392.96
700.306	11410.59
700.651	11319.74
700.997	11358.61
701.342	11239.52
701.688	11225.74
702.033	11183.7
702.379	11147.32
702.724	11123.37
703.069	11142.57
703.415	10921.79
703.76	11013.76
704.105	11007.66
704.45	10950.26
704.795	10873.88
705.14	10871.39
705.485	10814.9
705.83	10755.69
706.175	10796.82
706.52	10733.55
706.865	10692.64
707.209	10690.83
707.554	10645.41
707.899	10643.6
708.243	10616.94
708.588	10570.16
708.932	10520.22
709.277	10518.64
709.621	10429.15
709.966	10360
710.31	10414.91
710.654	10342.82
710.998	10360
711.342	10309.15
711.687	10367.45
712.031	10297.62
712.375	10236.84
712.719	10259.43
713.063	10247.68
713.407	10268.47
713.75	10118.65
714.094	10214.46
714.438	10131.53
714.782	10173.11
715.125	10112.77
715.469	10067.8
715.812	10061.92
716.156	10005.43
716.499	10050.85
716.843	10002.72
717.186	9945.09
717.53	10009.04
717.873	9994.58
718.216	9994.81
718.559	9887.24
718.902	9853.34
719.246	9857.18
719.589	9929.27
719.932	9807.24
720.275	9779.67
720.617	9804.76
720.96	9843.85
721.303	9862.61
721.646	9855.83
721.989	9700.58
722.331	9773.57
722.674	9755.72
723.016	9812.21
723.359	9692.89
723.701	9797.98
724.044	9695.83
724.386	9689.73
724.729	9717.08
725.071	9698.09
725.413	9696.96
725.755	9608.83
726.097	9591.88
726.439	9558.44
726.782	9603.18
727.124	9641.82
727.465	9546.01
727.807	9537.19
728.149	9585.1
728.491	9601.6
728.833	9586.46
729.175	9561.82
729.516	9509.85
729.858	9562.73
730.199	9593.24
730.541	9521.6
730.882	9539.9
731.224	9554.82
731.565	9492.9
731.906	9497.65
732.248	9502.62
732.589	9456.52
732.93	9471.43
733.271	9461.26
733.612	9517.08
733.953	9502.39
734.294	9510.53
734.635	9485.67
734.976	9458.55
735.317	9514.82
735.658	9453.58
735.999	9489.06
736.339	9503.52
736.68	9541.26
737.021	9516.63
737.361	9477.99
737.702	9620.81
738.042	9499
738.383	9562.5
738.723	9628.72
739.063	9572.9
739.404	9636.17
739.744	9631.2
740.084	9618.55
740.424	9573.12
740.764	9565.21
741.104	9729.96
741.444	9606.8
741.784	9520.7
742.124	9652.9
742.464	9686.57
742.804	9686.34
743.143	9710.07
743.483	9778.09
743.823	9676.62
744.162	9698.32
744.502	9788.71
744.841	9714.36
745.181	9862.38
745.52	9869.61
745.86	9896.28
746.199	9946.22
746.538	9992.77
746.877	10047.24
747.216	10082.26
747.556	10149.38
747.895	10154.58
748.234	10136.27
748.573	10229.6
748.911	10296.95
749.25	10349.37
749.589	10407.68
749.928	10485.87
750.267	10600.22
750.605	10691.96
750.944	10681.57
751.283	10750.72
751.621	10830.04
751.96	10853.32
752.298	11028.23
752.636	11079.53
752.975	11213.31
753.313	11246.98
753.651	11372.17
753.989	11483.81
754.327	11588.44
754.666	11570.81
755.004	11848.09
755.342	11982.33
755.679	12080.4
756.017	12057.8
756.355	12323.79
756.693	12343.45
757.031	12547.51
757.368	12605.36
757.706	12719.71
758.044	12856.2
758.381	13050.55
758.719	13136.42
759.056	13354.04
759.394	13492.57
759.731	13525.56
760.068	13739.34
760.405	13838.1
760.743	13982.5
761.08	14201.93
761.417	14216.84
761.754	14475.82
762.091	14503.39
762.428	14689.83
762.765	14735.7
763.102	14952.19
763.438	15092.98
763.775	15071.06
764.112	15298.17
764.449	15495
764.785	15559.41
765.122	15593.98
765.458	15758.72
765.795	15966.18
766.131	16138.83
766.467	16239.39
766.804	16244.59
767.14	16414.07
767.476	16550.79
767.812	16488.87
768.148	16704.69
768.485	16758.25
768.821	16860.62
769.157	16965.7
769.492	17072.14
769.828	17143.77
770.164	17165.69
770.5	17230.78
770.836	17433.71
771.171	17389.42
771.507	17474.16
771.842	17507.15
772.178	17510.32
772.513	17581.28
772.849	17663.08
773.184	17701.27
773.519	17830.76
773.855	17770.65
774.19	17793.47
774.525	17914.15
774.86	17973.36
775.195	18040.02
775.53	17918.67
775.865	17873.02
776.2	17964.54
776.535	17970.87
776.87	18099.68
777.205	17971.32
777.539	17983.98
777.874	18131.54
778.209	18075.27
778.543	17993.24
778.878	17942.85
779.212	18029.62
779.547	18142.62
779.881	18163.63
780.215	18042.05
780.55	18125.89
780.884	18042.05
781.218	18052
781.552	18147.81
781.886	17943.75
782.22	17990.76
782.554	17913.47
782.888	17812
783.222	17915.5
783.556	17829.63
783.889	17827.6
784.223	17712.35
784.557	17786.69
784.89	17844.54
785.224	17847.03
785.557	17659.24
785.891	17754.38
786.224	17599.81
786.558	17629.86
786.891	17566.36
787.224	17545.57
787.557	17499.92
787.891	17588.28
788.224	17542.63
788.557	17567.49
788.89	17560.48
789.223	17515.74
789.556	17369.3
789.888	17355.29
790.221	17325.46
790.554	17223.77
790.887	17220.15
791.219	17173.6
791.552	17220.61
791.884	17106.49
792.217	17033.04
792.549	16989.43
792.882	16919.37
793.214	16942.65
793.546	16904
793.879	16819.49
794.211	16637.35
794.543	16736.78
794.875	16798.92
795.207	16791.24
795.539	16692.26
795.871	16740.17
796.203	16664.69
796.535	16491.59
796.867	16505.6
797.198	16546.5
797.53	16421.31
797.862	16296.56
798.193	16296.11
798.525	16319.61
798.856	16284.81
799.188	16189.67
799.519	16120.75
799.85	16115.1
800.182	16129.34
800.513	16113.52
800.844	16008.21
801.175	16061.54
801.506	16076.23
801.837	15909.68
802.168	15874.2
802.499	15804.6
802.83	15827.65
803.161	15721.21
803.491	15712.17
803.822	15794.43
804.153	15699.97
804.483	15504.49
804.814	15544.72
805.145	15535.23
805.475	15526.87
805.805	15433.31
806.136	15474.89
806.466	15486.87
806.796	15294.56
807.126	15221.11
807.457	15281.67
807.787	15259.75
808.117	15295.69
808.447	15236.25
808.777	15193.09
809.107	15163.49
809.436	15020.89
809.766	15010.72
810.096	15068.8
810.426	14984.73
810.755	15029.48
811.085	14925.98
811.414	14910.84
811.744	14776.83
812.073	14690.96
812.403	14756.04
812.732	14663.84
813.061	14715.36
813.39	14625.87
813.719	14557.17
814.049	14638.75
814.378	14539.55
814.707	14543.39
815.036	14431.75
815.365	14471.53
815.693	14348.82
816.022	14446.89
816.351	14343.85
816.68	14298.2
817.008	14318.99
817.337	14156.28
817.665	14279.44
817.994	14179.33
818.322	14187.24
818.651	14065.89
818.979	14058.88
819.307	14212.55
819.636	14040.13
819.964	14019.11
820.292	14091.42
820.62	14061.14
820.948	13959
821.276	14096.17
821.604	14001.93
821.932	14025.21
822.259	14020.46
822.587	14055.94
822.915	13961.94
823.243	14069.5
823.57	13910.86
823.898	13913.8
824.225	13892.56
824.553	13904.31
824.88	13947.02
825.207	13996.06
825.535	13937.53
825.862	14004.87
826.189	13945.21
826.516	14010.97
826.843	14027.24
827.17	14033.57
827.497	14045.32
827.824	13990.86
828.151	14072.89
828.478	14045.55
828.805	14083.29
829.131	13987.7
829.458	13969.62
829.785	13947.02
830.111	14013.69
830.438	14032.44
830.764	14021.82
831.09	13984.08
831.417	13827.25
831.743	13945.21
832.069	13925.33
832.395	13850.53
832.722	13927.13
833.048	13850.07
833.374	13834.48
833.7	13921.71
834.026	13848.04
834.351	13940.69
834.677	13829.28
835.003	13846.68
835.329	13851.43
835.654	13841.26
835.98	13744.99
836.306	13754.93
836.631	13737.53
836.956	13768.04
837.282	13734.6
837.607	13717.2
837.932	13689.85
838.258	13686.69
838.583	13674.26
838.908	13641.04
839.233	13631.32
839.558	13628.38
839.883	13531.44
840.208	13549.29
840.533	13415.06
840.858	13459.12
841.182	13547.03
841.507	13473.59
841.832	13386.13
842.156	13385.91
842.481	13367.15
842.805	13374.38
843.13	13206.02
843.454	13152.01
843.778	13224.33
844.103	13203.76
844.427	13158.11
844.751	13209.64
845.075	13086.25
845.399	13076.76
845.723	12957.89
846.047	13022.52
846.371	12924.22
846.695	12881.29
847.019	12710.44
847.343	12742.53
847.666	12669.54
847.99	12580.95
848.313	12714.28
848.637	12558.58
848.96	12525.59
849.284	12474.97
849.607	12431.58
849.931	12399.72
850.254	12295.31
850.577	12313.84
850.9	12166.95
851.223	12134.86
851.546	12122.44
851.869	12024.81
852.192	12075.66
852.515	11950.01
852.838	11999.73
853.161	11952.72
853.483	11832.27
853.806	11812.39
854.129	11761.32
854.451	11712.73
854.774	11662.79
855.096	11647.87
855.419	11648.78
855.741	11578.27
856.063	11553.41
856.385	11540.3
856.708	11413.53
857.03	11395.22
857.352	11496.92
857.674	11430.02
857.996	11285.62
858.318	11339.41
858.64	11277.71
858.961	11235.68
859.283	11261.22
859.605	11175.57
859.926	11219.41
860.248	11190.71
860.57	11139.41
860.891	11148
861.212	11040.43
861.534	11002.92
861.855	10990.49
862.176	10980.54
862.498	11028.68
862.819	11010.37
863.14	10949.36
863.461	10926.76
863.782	10880.89
864.103	10891.06
864.424	10919.08
864.745	10833.43
865.065	10804.5
865.386	10714.11
865.707	10671.85
866.027	10743.94
866.348	10763.15
866.668	10717.5
866.989	10673.21
867.309	10594.57
867.63	10655.13
867.95	10613.55
868.27	10614.23
868.59	10624.85
868.91	10530.16
869.23	10563.61
869.55	10483.38
869.87	10543.04
870.19	10470.73
870.51	10471.86
870.83	10516.6
871.15	10405.64
871.469	10412.88
871.789	10471.63
872.109	10369.26
872.428	10423.05
872.748	10397.74
873.067	10318.87
873.386	10338.53
873.706	10346.44
874.025	10217.85
874.344	10280
874.663	10314.8
874.982	10217.17
875.301	10251.75
875.62	10161.58
875.939	10201.58
876.258	10193.67
876.577	10164.75
876.896	10154.58
877.214	10170.4
877.533	10152.32
877.852	10133.34
878.17	10089.27
878.489	10081.36
878.807	10096.73
879.125	10056.95
879.444	10043.39
879.762	10014.47
880.08	9992.32
880.398	9868.71
880.716	9910.06
881.034	9950.74
881.352	9912.32
881.67	9883.17
881.988	9839.56
882.306	9854.47
882.624	9838.43
882.941	9725.21
883.259	9744.19
883.577	9735.38
883.894	9683.86
884.212	9666
884.529	9691.31
884.846	9704.19
885.164	9610.41
885.481	9625.1
885.798	9585.33
886.115	9512.33
886.432	9515.27
886.75	9523.41
887.067	9526.57
887.383	9441.83
887.7	9506.23
888.017	9444.31
888.334	9408.38
888.651	9344.2
888.967	9403.18
889.284	9312.79
889.6	9317.76
889.917	9236.41
890.233	9311.89
890.55	9220.59
890.866	9245.67
891.182	9156.86
891.498	9120.48
891.815	9118.45
892.131	9060.14
892.447	9052.23
892.763	9089.97
893.079	8998.68
893.395	8929.07
893.71	8942.63
894.026	8909.86
894.342	8851.56
894.657	8885.68
894.973	8836.42
895.289	8830.09
895.604	8811.34
895.92	8728.85
896.235	8737.67
896.55	8734.5
896.865	8685.92
897.181	8656.54
897.496	8597.33
897.811	8614.73
898.126	8582.87
898.441	8536.54
898.756	8499.03
899.071	8495.64
899.386	8478.01
899.7	8383.55
900.015	8374.51
900.33	8310.56
900.644	8293.16
900.959	8268.07
901.273	8268.07
901.588	8257.9
901.902	8215.19
902.216	8141.07
902.531	8159.15
902.845	8107.4
903.159	8045.25
903.473	7973.62
903.787	7997.57
904.101	7953.51
904.415	7962.54
904.729	7886.16
905.042	7891.36
905.356	7863.56
905.67	7837.58
905.984	7815.43
906.297	7758.71
906.611	7684.59
906.924	7768.43
907.237	7653.4
907.551	7657.24
907.864	7614.53
908.177	7672.61
908.491	7556.45
908.804	7507.19
909.117	7508.09
909.43	7469
909.743	7420.64
910.056	7356.69
910.368	7342.45
910.681	7320.08
910.994	7268.55
911.307	7304.94
911.619	7217.71
911.932	7279.62
912.244	7165.5
912.557	7177.93
912.869	7127.09
913.181	7079.63
913.494	7087.99
913.806	7032.17
914.118	7011.84
914.43	6993.98
914.742	6922.12
915.054	6862.46
915.366	6964.83
915.678	6831.73
915.99	6890.26
916.302	6806.87
916.613	6739.53
916.925	6763.71
917.236	6743.82
917.548	6695.23
917.859	6647.55
918.171	6628.57
918.482	6587.21
918.794	6600.32
919.105	6615.69
919.416	6537.27
919.727	6519.42
920.038	6483.49
920.349	6468.12
920.66	6397.61
920.971	6463.6
921.282	6351.97
921.593	6367.11
921.903	6310.16
922.214	6321.91
922.525	6246.21
922.835	6269.48
923.146	6193.55
923.456	6188.81
923.767	6160.33
924.077	6149.26
924.387	6097.96
924.697	6084.85
925.008	6066.78
925.318	6089.83
925.628	6052.09
925.938	6040.34
926.248	5993.33
926.558	5929.83
926.867	5958.98
927.177	5916.27
927.487	5860.45
927.796	5836.27
928.106	5828.59
928.416	5808.03
928.725	5805.31
929.034	5767.35
929.344	5704.07
929.653	5800.12
929.962	5687.58
930.271	5658.65
930.581	5613.23
930.89	5605.77
931.199	5580.91
931.508	5581.82
931.817	5554.92
932.125	5512.21
932.434	5502.5
932.743	5441.48
933.051	5464.98
933.36	5440.58
933.669	5370.75
933.977	5394.02
934.286	5362.84
934.594	5364.65
934.902	5350.86
935.21	5314.25
935.519	5314.93
935.827	5239.45
936.135	5232.45
936.443	5180.25
936.751	5175.27
937.059	5174.37
937.367	5175.27
937.674	5132.56
937.982	5104.09
938.29	5080.81
938.597	5146.35
938.905	5003.3
939.213	4988.61
939.52	4996.07
939.827	4996.3
940.135	4955.84
940.442	4942.96
940.749	4918.33
941.056	4897.99
941.363	4862.51
941.67	4863.87
941.977	4811.44
942.284	4754.72
942.591	4804.21
942.898	4781.39
943.205	4800.37
943.511	4702.29
943.818	4678.11
944.125	4655.29
944.431	4678.11
944.738	4648.28
945.044	4597.89
945.35	4615.74
945.657	4577.1
945.963	4558.11
946.269	4494.16
946.575	4535.29
946.881	4561.05
947.187	4478.34
947.493	4448.06
947.799	4429.76
948.105	4454.16
948.41	4388.85
948.716	4466.14
949.022	4427.72
949.327	4386.37
949.633	4288.07
949.938	4318.12
950.244	4340.04
950.549	4296.65
950.854	4256.2
951.16	4242.87
951.465	4207.84
951.77	4174.4
952.075	4166.26
952.38	4186.82
952.685	4121.52
952.99	4085.36
953.294	4099.6
953.599	4025.93
953.904	4044.23
954.209	4074.96
954.513	4058.47
954.818	4057.11
955.122	3993.16
955.426	4018.69
955.731	3945.02
956.035	3947.28
956.339	3965.59
956.643	3961.29
956.948	3931.01
957.252	3885.14
957.556	3908.64
957.86	3885.14
958.163	3877.68
958.467	3818.25
958.771	3837.91
959.075	3805.37
959.378	3768.98
959.682	3801.52
959.985	3747.74
960.289	3733.5
960.592	3714.75
960.896	3706.84
961.199	3650.12
961.502	3700.96
961.805	3674.52
962.108	3630.23
962.411	3615.77
962.714	3599.27
963.017	3606.05
963.32	3601.76
963.623	3524.02
963.926	3563.34
964.228	3569.44
964.531	3484.02
964.833	3488.09
965.136	3455.77
965.438	3426.17
965.741	3446.73
966.043	3412.83
966.345	3385.94
966.648	3380.97
966.95	3391.82
967.252	3393.85
967.554	3357.47
967.856	3314.53
968.158	3310.46
968.46	3315.89
968.761	3326.51
969.063	3317.24
969.365	3272.95
969.666	3284.7
969.968	3236.12
970.269	3249.9
970.571	3207.87
970.872	3175.33
971.174	3153.18
971.475	3180.3
971.776	3121.54
972.077	3112.28
972.378	3166.74
972.679	3107.31
972.98	3143.01
973.281	3102.11
973.582	3093.07
973.883	3053.3
974.183	3055.78
974.484	3028.21
974.785	3063.69
975.085	3024.14
975.386	2997.7
975.686	3019.17
975.986	2983.01
976.287	2975.56
976.587	2944.82
976.887	2922.45
977.187	2917.03
977.487	2925.84
977.787	2898.5
978.087	2863.24
978.387	2846.97
978.687	2838.61
978.987	2832.06
979.286	2868.44
979.586	2818.5
979.885	2748.44
980.185	2822.34
980.484	2771.72
980.784	2768.56
981.083	2749.12
981.382	2703.7
981.682	2716.36
981.981	2719.74
982.28	2710.71
982.579	2708.67
982.878	2691.05
983.177	2660.09
983.475	2674.32
983.774	2641.55
984.073	2622.8
984.372	2596.58
984.67	2611.05
984.969	2611.27
985.267	2590.03
985.566	2554.1
985.864	2559.75
986.162	2538.05
986.461	2512.52
986.759	2514.33
987.057	2522.69
987.355	2507.32
987.653	2481.79
987.951	2471.16
988.249	2482.91
988.547	2452.41
988.844	2454.44
989.142	2447.44
989.44	2385.29
989.737	2423.93
990.035	2365.63
990.332	2408.79
990.63	2414.22
990.927	2371.96
991.224	2389.36
991.521	2348.23
991.819	2341.9
992.116	2306.42
992.413	2317.72
992.71	2322.69
993.006	2291.06
993.303	2287.67
993.6	2263.03
993.897	2259.19
994.193	2265.75
994.49	2251.73
994.787	2224.62
995.083	2186.2
995.379	2204.28
995.676	2209.93
995.972	2177.39
996.268	2217.61
996.565	2169.48
996.861	2132.42
997.157	2120.44
997.453	2106.2
997.749	2126.54
998.044	2079.54
998.34	2119.08
998.636	2091.06
998.932	2065.75
999.227	2068.46
999.523	2045.19
999.818	2022.81
1000.114	2054.23
1000.409	2017.39
1000.704	2031.4
1001	2030.72
1001.295	2005.64
1001.59	1984.62
1001.885	1976.94
1002.18	1962.25
1002.475	1936.04
1002.77	1922.48
1003.065	1912.99
1003.359	1926.09
1003.654	1907.34
1003.949	1886.09
1004.243	1881.57
1004.538	1889.03
1004.832	1895.36
1005.127	1852.42
1005.421	1866.89
1005.715	1793.44
1006.009	1837.96
1006.304	1849.03
1006.598	1828.02
1006.892	1801.35
1007.186	1780.79
1007.48	1771.3
1007.773	1742.37
1008.067	1772.88
1008.361	1757.28
1008.655	1698.08
1008.948	1727.68
1009.242	1715.48
1009.535	1704.86
1009.829	1682.71
1010.122	1725.87
1010.415	1678.42
1010.708	1669.83
1011.001	1702.37
1011.295	1654.46
1011.588	1649.49
1011.881	1614.92
1012.173	1639.55
1012.466	1625.31
1012.759	1616.05
1013.052	1615.59
1013.344	1616.27
1013.637	1607.23
1013.93	1546.89
1014.222	1563.17
1014.514	1569.49
1014.807	1540.34
1015.099	1512.77
1015.391	1522.26
1015.683	1524.3
1015.976	1516.84
1016.268	1501.7
1016.56	1496.95
1016.851	1483.62
1017.143	1465.09
1017.435	1445.43
1017.727	1425.09
1018.018	1442.72
1018.31	1452.89
1018.602	1414.24
1018.893	1423.06
1019.185	1362.94
1019.476	1426.45
1019.767	1401.14
1020.058	1371.53
1020.35	1405.66
1020.641	1372.44
1020.932	1374.24
1021.223	1317.75
1021.514	1337.18
1021.804	1317.75
1022.095	1313.23
1022.386	1289.5
1022.677	1315.49
1022.967	1316.39
1023.258	1285.66
1023.548	1269.16
1023.839	1272.33
1024.129	1256.73
1024.419	1260.8
1024.709	1235.04
1025	1227.58
1025.29	1198.43
1025.58	1218.09
1025.87	1207.24
1026.16	1183.06
1026.449	1200.01
1026.739	1184.19
1027.029	1186.23
1027.319	1151.2
1027.608	1155.94
1027.898	1158.43
1028.187	1147.13
1028.477	1133.57
1028.766	1141.03
1029.055	1139.45
1029.344	1131.31
1029.634	1098.54
1029.923	1123.4
1030.212	1099.45
1030.501	1088.38
1030.79	1068.71
1031.078	1095.83
1031.367	1085.89
1031.656	1081.6
1031.945	1054.7
1032.233	1081.6
1032.522	1040.47
1032.81	1042.73
1033.099	1022.39
1033.387	1008.83
1033.675	1027.81
1033.963	1019.45
1034.251	1001.82
1034.54	1014.25
1034.828	1001.37
1035.116	964.76
1035.403	969.06
1035.691	975.84
1035.979	976.29
1036.267	967.02
1036.554	951.2
1036.842	946.23
1037.129	943.29
1037.417	927.93
1037.704	924.54
1037.992	927.25
1038.279	936.97
1038.566	915.05
1038.853	915.05
1039.14	915.05
