Data from hue_20_FLMS001491_65.txt Node
Date: Mon Feb 06 15:34:28 GMT 2017
User: dcchb
Spectrometer: FLMS00149
Trigger mode: 0
Integration Time (sec): 2.000000E-2
Scans to average: 10
Electric dark correction enabled: true
Nonlinearity correction enabled: false
Boxcar width: 0
XAxis mode: Wavelengths
Number of Pixels in Spectrum: 2048
>>>>>Begin Spectral Data<<<<<
341.393	2.37
341.776	2.37
342.16	2.37
342.543	-81.01
342.927	-81.92
343.31	-52.09
343.693	-53.22
344.077	-65.2
344.46	-59.09
344.843	-68.81
345.226	-57.29
345.61	-44.63
345.993	-18.42
346.376	-3.95
346.759	21.13
347.142	36.72
347.525	31.52
347.908	57.29
348.291	79.88
348.674	78.75
349.057	117.4
349.44	131.86
349.823	159.88
350.206	163.05
350.588	194.91
350.971	208.02
351.354	238.52
351.737	219.54
352.119	238.3
352.502	259.77
352.884	274.46
353.267	302.93
353.65	283.04
354.032	304.51
354.414	322.36
354.797	300.9
355.179	326.88
355.562	333.89
355.944	329.6
356.326	310.84
356.709	324.62
357.091	334.57
357.473	342.93
357.855	331.63
358.238	338.64
358.62	315.36
359.002	330.05
359.384	338.18
359.766	332.53
360.148	342.25
360.53	328.47
360.912	327.11
361.294	341.35
361.676	325.75
362.057	341.8
362.439	329.14
362.821	331.18
363.203	338.18
363.584	313.78
363.966	311.07
364.348	307.9
364.729	320.1
365.111	328.24
365.493	295.02
365.874	327.56
366.256	316.94
366.637	319.43
367.019	312.65
367.4	294.79
367.781	309.03
368.163	316.26
368.544	308.58
368.925	306.09
369.306	313.55
369.688	304.96
370.069	314.91
370.45	307
370.831	304.51
371.212	291.86
371.593	312.65
371.974	303.16
372.355	308.81
372.736	321.69
373.117	311.29
373.498	315.36
373.879	313.78
374.26	302.93
374.641	306.32
375.021	299.09
375.402	315.81
375.783	304.06
376.163	304.51
376.544	335.7
376.925	306.55
377.305	320.1
377.686	332.53
378.066	322.59
378.447	297.96
378.827	308.35
379.208	333.89
379.588	285.98
379.968	316.04
380.349	321.23
380.729	314.68
381.109	316.71
381.489	332.99
381.87	320.56
382.25	339.54
382.63	319.65
383.01	352.87
383.39	350.39
383.77	341.35
384.15	328.01
384.53	339.31
384.91	325.3
385.29	351.29
385.67	346.32
386.049	335.25
386.429	337.28
386.809	355.13
387.189	350.39
387.568	343.38
387.948	340.89
388.328	342.02
388.707	365.08
389.087	373.89
389.466	349.03
389.846	353.32
390.225	330.73
390.605	356.26
390.984	367.56
391.363	362.14
391.743	363.72
392.122	390.39
392.501	365.08
392.881	346.77
393.26	365.75
393.639	365.3
394.018	379.31
394.397	360.56
394.776	373.66
395.155	375.24
395.534	374.34
395.913	386.09
396.292	374.79
396.671	386.09
397.05	361.01
397.429	362.36
397.808	375.24
398.186	362.82
398.565	365.75
398.944	365.53
399.323	372.98
399.701	384.74
400.08	384.28
400.458	401.46
400.837	405.07
401.215	399.65
401.594	417.28
401.972	396.94
402.351	399.42
402.729	396.03
403.107	407.79
403.486	402.59
403.864	394.23
404.242	398.29
404.62	392.65
404.999	409.37
405.377	402.36
405.755	420.89
406.133	381.8
406.511	413.89
406.889	433.55
407.267	434.9
407.645	450.27
408.023	438.29
408.401	418.63
408.779	423.38
409.156	460.89
409.534	431.51
409.912	440.1
410.29	439.65
410.667	434.9
411.045	442.36
411.422	428.35
411.8	426.09
412.178	446.43
412.555	469.03
412.933	455.02
413.31	450.27
413.687	471.29
414.065	459.31
414.442	461.8
414.819	447.56
415.197	465.41
415.574	459.31
415.951	483.26
416.328	476.03
416.705	475.81
417.082	465.64
417.46	469.93
417.837	473.32
418.214	483.49
418.591	479.87
418.967	489.59
419.344	493.43
419.721	503.83
420.098	501.34
420.475	489.37
420.852	492.98
421.228	497.05
421.605	489.59
421.982	514.68
422.358	493.21
422.735	528.46
423.111	512.19
423.488	543.38
423.864	528.46
424.241	520.55
424.617	518.52
424.994	512.19
425.37	535.92
425.746	535.69
426.123	553.77
426.499	531.62
426.875	530.95
427.251	570.72
427.627	558.97
428.003	549.48
428.379	580.21
428.756	573.43
429.132	568.01
429.507	581.34
429.883	588.12
430.259	580.21
430.635	603.49
431.011	582.47
431.387	574.11
431.763	583.83
432.138	591.06
432.514	583.6
432.89	619.98
433.265	627.67
433.641	618.63
434.016	622.24
434.392	638.06
434.767	655.91
435.143	613.88
435.518	622.02
435.894	642.81
436.269	664.28
436.644	648.46
437.02	659.3
437.395	658.4
437.77	662.24
438.145	648.68
438.52	685.97
438.895	699.08
439.271	668.57
439.646	681.68
440.021	666.31
440.395	691.39
440.77	693.65
441.145	705.86
441.52	736.59
441.895	705.18
442.27	697.27
442.645	709.47
443.019	719.64
443.394	719.64
443.769	708.34
444.143	726.65
444.518	734.1
444.892	727.78
445.267	735.01
445.641	728.46
446.016	738.62
446.39	751.28
446.764	745.63
447.139	737.72
447.513	773.65
447.887	771.17
448.262	764.39
448.636	788.34
449.01	776.14
449.384	789.7
449.758	793.99
450.132	798.28
450.506	780.43
450.88	792.18
451.254	785.4
451.628	791.05
452.002	834.89
452.376	815.91
452.75	819.3
453.123	857.27
453.497	839.86
453.871	826.31
454.244	851.39
454.618	861.79
454.992	873.99
455.365	870.82
455.739	884.16
456.112	887.77
456.486	887.1
456.859	904.04
457.232	923.7
457.606	917.83
457.979	961.44
458.352	917.38
458.725	936.59
459.099	944.49
459.472	981.33
459.845	972.74
460.218	984.04
460.591	1004.38
460.964	985.4
461.337	1001.67
461.71	1004.15
462.083	1040.09
462.456	1031.72
462.829	1038.28
463.201	1025.17
463.574	1076.02
463.947	1077.15
464.32	1091.61
464.692	1095.9
465.065	1112.17
465.438	1112.4
465.81	1137.03
466.183	1140.2
466.555	1151.5
466.928	1168.44
467.3	1151.27
467.672	1181.1
468.045	1185.39
468.417	1226.3
468.789	1240.53
469.161	1232.4
469.534	1242.34
469.906	1299.51
470.278	1287.99
470.65	1303.58
471.022	1320.3
471.394	1333.64
471.766	1336.35
472.138	1370.7
472.51	1419.51
472.882	1408.66
473.253	1405.73
473.625	1458.83
473.997	1464.71
474.369	1495.89
474.74	1507.42
475.112	1528.21
475.484	1569.79
475.855	1600.07
476.227	1610.47
476.598	1630.58
476.97	1655.66
477.341	1696.11
477.713	1727.07
478.084	1737.02
478.455	1796.45
478.827	1793.96
479.198	1877.35
479.569	1858.82
479.94	1881.65
480.311	1917.35
480.682	1946.95
481.053	2016.56
481.424	2062.43
481.795	2102.88
482.166	2086.16
482.537	2121.19
482.908	2174.52
483.279	2190.79
483.65	2244.57
484.021	2285.02
484.391	2323.89
484.762	2353.95
485.133	2369.54
485.503	2438.01
485.874	2476.88
486.244	2487.05
486.615	2547.16
486.985	2604.56
487.356	2612.02
487.726	2613.6
488.097	2705.35
488.467	2713.71
488.837	2817.89
489.207	2792.81
489.578	2866.7
489.948	2890.66
490.318	2998.23
490.688	2940.37
491.058	3047.72
491.428	3079.81
491.798	3111.22
492.168	3133.14
492.538	3182.85
492.908	3218.79
493.278	3259.01
493.648	3272.8
494.017	3320.48
494.387	3337.65
494.757	3369.97
495.126	3402.06
495.496	3449.06
495.866	3480.93
496.235	3485.45
496.605	3579
496.974	3575.39
497.344	3621.71
497.713	3630.75
498.082	3677.98
498.452	3712.56
498.821	3736.29
499.19	3734.25
499.559	3788.94
499.928	3824.42
500.298	3820.35
500.667	3861.03
501.036	3873.68
501.405	3905.55
501.774	3902.61
502.143	3955.49
502.512	3947.81
502.88	3999.78
503.249	3964.75
503.618	4082.72
503.987	4096.73
504.356	4091.76
504.724	4098.08
505.093	4146.67
505.462	4127.01
505.83	4145.09
506.199	4182.38
506.567	4204.97
506.936	4233.22
507.304	4289.27
507.672	4223.5
508.041	4312.99
508.409	4368.36
508.777	4380.56
509.145	4372.2
509.514	4416.72
509.882	4424.18
510.25	4451.3
510.618	4459.66
510.986	4506.44
511.354	4533.33
511.722	4563.16
512.09	4566.32
512.458	4559.77
512.826	4603.61
513.193	4619.65
513.561	4623.04
513.929	4667.33
514.297	4694
514.664	4706.88
515.032	4707.56
515.4	4782.36
515.767	4764.96
516.135	4737.16
516.502	4767.67
516.869	4860.1
517.237	4838.18
517.604	4880.66
517.972	4893.54
518.339	4899.65
518.706	4938.06
519.073	4914.56
519.44	4924.73
519.808	5011.73
520.175	4964.05
520.542	5031.85
520.909	5092.86
521.276	5062.8
521.643	5123.82
522.009	5086.31
522.376	5170.6
522.743	5215.8
523.11	5217.83
523.477	5210.82
523.843	5247.88
524.21	5322.46
524.577	5362.68
524.943	5393.42
525.31	5350.48
525.676	5432.51
526.043	5496.24
526.409	5508.89
526.776	5503.92
527.142	5564.26
527.508	5570.59
527.874	5619.63
528.241	5670.92
528.607	5660.3
528.973	5685.84
529.339	5699.85
529.705	5711.15
530.071	5811.49
530.437	5839.51
530.803	5859.39
531.169	5883.12
531.535	5856
531.901	5898.04
532.267	5891.94
532.632	5976.68
532.998	5957.7
533.364	6016.9
533.73	6008.99
534.095	6079.95
534.461	6084.92
534.826	6140.29
535.192	6162.21
535.557	6196.56
535.923	6196.79
536.288	6267.29
536.653	6223.68
537.019	6241.76
537.384	6297.12
537.749	6285.15
538.114	6391.13
538.479	6305.26
538.845	6416.89
539.21	6375.54
539.575	6444.69
539.94	6440.62
540.305	6518.81
540.67	6501.41
541.034	6552.03
541.399	6531.01
541.764	6561.75
542.129	6607.4
542.494	6586.15
542.858	6601.97
543.223	6679.49
543.587	6739.6
543.952	6723.33
544.316	6772.36
544.681	6717
545.045	6803.1
545.41	6812.82
545.774	6859.82
546.138	6872.25
546.503	6890.1
546.867	6862.76
547.231	6947.27
547.595	6957.22
547.959	7029.53
548.324	6987.73
548.688	7005.58
549.052	7011.45
549.416	7068.18
549.779	7120.83
550.143	7058.01
550.507	7176.65
550.871	7176.65
551.235	7225.23
551.599	7211.22
551.962	7208.51
552.326	7284.44
552.689	7317.66
553.053	7270.43
553.417	7304.33
553.78	7394.04
554.143	7364.21
554.507	7449.63
554.87	7462.97
555.234	7541.84
555.597	7406.47
555.96	7524.21
556.323	7544.77
556.686	7622.74
557.05	7640.36
557.413	7642.62
557.776	7598.78
558.139	7720.81
558.502	7702.74
558.865	7705.22
559.228	7728.5
559.59	7781.15
559.953	7766.69
560.316	7860.47
560.679	7917.64
561.041	7887.14
561.404	7925.55
561.767	7995.16
562.129	7997.19
562.492	8068.6
562.854	8023.86
563.217	8083.74
563.579	8097.53
563.941	8125.55
564.304	8121.48
564.666	8198.32
565.028	8236.96
565.39	8243.51
565.753	8282.61
566.115	8271.31
566.477	8338.2
566.839	8333
567.201	8452.09
567.563	8407.58
567.925	8508.59
568.287	8500.91
568.648	8543.39
569.01	8557.63
569.372	8599.89
569.734	8559.44
570.095	8629.04
570.457	8656.61
570.819	8695.03
571.18	8742.93
571.542	8811.86
571.903	8810.95
572.265	8839.65
572.626	8881.91
572.987	8910.61
573.349	8979.09
573.71	8991.06
574.071	9117.39
574.432	9156.48
574.794	9247.33
575.155	9213.66
575.516	9214.79
575.877	9344.95
576.238	9363.26
576.599	9461.56
576.96	9457.49
577.32	9513.76
577.681	9593.99
578.042	9688.22
578.403	9767.54
578.763	9780.42
579.124	9934.99
579.485	10017.48
579.845	10070.81
580.206	10091.83
580.566	10160.07
580.927	10303.12
581.287	10449.56
581.648	10537.69
582.008	10745.59
582.368	10870.34
582.728	10979.94
583.089	11047.28
583.449	11161.63
583.809	11350.1
584.169	11469.42
584.529	11598.68
584.889	11839.12
585.249	11900.59
585.609	11994.6
585.969	12293.12
586.329	12470.75
586.688	12740.57
587.048	12842.49
587.408	13064.85
587.768	13202.03
588.127	13405.64
588.487	13588.91
588.846	13959.29
589.206	14063.47
589.565	14240.64
589.925	14518.83
590.284	14732.16
590.643	14935.77
591.003	15216.44
591.362	15520.16
591.721	15706.14
592.08	15957.43
592.44	16224.55
592.799	16455.5
593.158	16685.55
593.517	17010.51
593.876	17337.96
594.235	17535.47
594.593	17778.18
594.952	18080.54
595.311	18298.39
595.67	18676.91
596.029	19039.39
596.387	19380.39
596.746	19566.15
597.104	19835.07
597.463	20123.2
597.822	20466.69
598.18	20650.87
598.538	20889.73
598.897	21241.59
599.255	21435.48
599.613	21955.69
599.972	22130.6
600.33	22395
600.688	22711.61
601.046	22991.82
601.404	23341.65
601.762	23530.34
602.12	23989.54
602.478	24196.99
602.836	24372.13
603.194	24570.99
603.552	24911.1
603.91	25099.11
604.268	25476.73
604.625	25643.28
604.983	26025.64
605.341	26144.96
605.698	26438.74
606.056	26739.97
606.413	27034.2
606.771	27360.3
607.128	27531.82
607.485	27672.15
607.843	27981.98
608.2	28255.42
608.557	28481.62
608.914	28745.57
609.272	28960.26
609.629	29212.45
609.986	29555.04
610.343	29578.09
610.7	29942.83
611.057	30276.38
611.414	30284.74
611.771	30403.83
612.127	30898.06
612.484	30944.61
612.841	31315.67
613.198	31208.78
613.554	31475.67
613.911	31822.55
614.267	31903.91
614.624	32037.01
614.98	32215.54
615.337	32616.2
615.693	32614.85
616.05	32713.15
616.406	33012.35
616.762	33004.89
617.118	33229.97
617.475	33323.76
617.831	33475.62
618.187	33699.34
618.543	33755.38
618.899	34201.02
619.255	34245.09
619.611	34439.66
619.967	34429.49
620.323	34634.46
620.678	34809.14
621.034	34717.39
621.39	34875.35
621.746	34873.77
622.101	35396.92
622.457	35145.63
622.812	35312.63
623.168	35496.35
623.523	35553.98
623.879	35833.07
624.234	35614.09
624.589	35816.35
624.945	36075.1
625.3	36127.3
625.655	36153.74
626.01	36200.29
626.365	36418.36
626.72	36250.23
627.075	36427.18
627.43	36423.34
627.785	36565.03
628.14	36654.52
628.495	36757.11
628.85	36604.57
629.205	36710.79
629.559	36939.48
629.914	36845.25
630.269	36880.73
630.623	36727.96
630.978	36903.78
631.332	37083.43
631.687	37120.49
632.041	36995.75
632.396	37008.41
632.75	37137.22
633.104	37043.21
633.459	36990.33
633.813	37000.04
634.167	36940.38
634.521	37131.34
634.875	37074.17
635.229	37076.88
635.583	37036.43
635.937	37078.69
636.291	37091.12
636.645	37093.83
636.999	37073.94
637.352	37308.51
637.706	37045.92
638.06	37179.02
638.413	37059.7
638.767	36970.44
639.121	37222.19
639.474	36955.98
639.828	37143.54
640.181	36989.65
640.534	37025.35
640.888	36865.36
641.241	36914.17
641.594	36963.21
641.947	37119.59
642.301	37049.31
642.654	37062.87
643.007	36942.64
643.36	37189.87
643.713	36899.71
644.066	37139.48
644.419	36721.63
644.771	36605.7
645.124	36366.39
645.477	36355.99
645.83	36123.91
646.182	36075.1
646.535	35830.36
646.888	36104.02
647.24	35890.24
647.593	35970.92
647.945	35927.76
648.298	35734.31
648.65	35688.67
649.002	35674.43
649.355	35838.27
649.707	35831.49
650.059	35922.11
650.411	36456.56
650.763	36463.34
651.115	36647.06
651.467	36643.9
651.819	36575.87
652.171	36718.92
652.523	36452.49
652.875	36477.8
653.227	36296.33
653.578	36652.03
653.93	36607.06
654.282	36469.89
654.633	36329.78
654.985	36318.48
655.337	36509.66
655.688	36501.53
656.039	36598.7
656.391	36322.77
656.742	36325.03
657.094	36458.14
657.445	36555.31
657.796	36334.75
658.147	36237.13
658.498	36344.69
658.849	36370.46
659.2	36363.9
659.551	36274.64
659.902	36493.84
660.253	36293.4
660.604	36351.93
660.955	36177.92
661.306	36335.88
661.656	36383.56
662.007	36236.22
662.358	36170.69
662.708	36319.61
663.059	36229.44
663.409	35937.93
663.76	36252.49
664.11	36214.75
664.461	36212.49
664.811	36309.44
665.161	36286.62
665.511	36066.51
665.862	36181.53
666.212	36263.79
666.562	36197.81
666.912	36226.96
667.262	36279.16
667.612	35985.83
667.962	36292.72
668.312	36201.42
668.662	36335.2
669.011	36186.05
669.361	36040.97
669.711	36203.68
670.06	36136.56
670.41	35939.51
670.76	35985.38
671.109	36100.18
671.459	36099.5
671.808	36023.57
672.157	36073.29
672.507	35876.91
672.856	36040.07
673.205	35914.87
673.554	36045.94
673.904	35822.45
674.253	36047.07
674.602	35912.39
674.951	35474.66
675.3	35239.64
675.649	35854.09
675.998	35775.67
676.346	35620.65
676.695	35864.71
677.044	35711.04
677.393	35787.87
677.741	35755.56
678.09	35636.69
678.438	35570.48
678.787	35684.15
679.135	35674.88
679.484	35360.09
679.832	35499.29
680.181	35373.65
680.529	35535
680.877	35439.18
681.225	35354.44
681.573	35579.29
681.922	35144.95
682.27	35249.36
682.618	35151.73
682.966	35153.09
683.314	35225.18
683.661	35103.6
684.009	34840.55
684.357	34830.38
684.705	34869.48
685.053	34863.15
685.4	34818.18
685.748	34661.35
686.095	34693.21
686.443	34511.07
686.79	34408.7
687.138	34572.76
687.485	34464.52
687.832	34344.97
688.18	34372.32
688.527	34173.45
688.874	34231.53
689.221	34190.63
689.568	34171.19
689.915	34110.85
690.262	34197.86
690.609	33952.89
690.956	33811.2
691.303	33879.45
691.65	33654.82
691.997	33672.9
692.344	33370.76
692.69	33292.57
693.037	33386.13
693.383	33098.45
693.73	33157.89
694.077	33005.35
694.423	32999.25
694.769	32905.01
695.116	32839.7
695.462	32834.28
695.808	32738.24
696.155	32799.93
696.501	32406.72
696.847	32499.82
697.193	32333.05
697.539	32348.41
697.885	32121.98
698.231	31983.23
698.577	32128.76
698.923	32052.15
699.269	31872.72
699.614	31649.68
699.96	31673.4
700.306	31693.29
700.651	31511.6
700.997	31519.28
701.342	31434.99
701.688	31511.15
702.033	31283.81
702.379	31332.17
702.724	31089.47
703.069	31304.83
703.415	30903.03
703.76	30980.77
704.105	30889.02
704.45	30938.96
704.795	30646.31
705.14	30569.48
705.485	30537.84
705.83	30449.71
706.175	30461.46
706.52	30337.85
706.865	30157.96
707.209	30166.33
707.554	30225.53
707.899	30178.98
708.243	30032.32
708.588	30015.37
708.932	29787.8
709.277	29701.7
709.621	29639.79
709.966	29536.51
710.31	29703.96
710.654	29341.71
710.998	29470.98
711.342	29376.52
711.687	29347.82
712.031	29159.12
712.375	29088.39
712.719	29213.58
713.063	29084.09
713.407	29255.61
713.75	29079.8
714.094	29033.93
714.438	29012.23
714.782	28850.2
715.125	28735.63
715.469	28759.58
715.812	28648.4
716.156	28633.26
716.499	28618.57
716.843	28638
717.186	28376.09
717.53	28560.04
717.873	28427.61
718.216	28421.51
718.559	28316.88
718.902	28122.76
719.246	28276.88
719.589	28137
719.932	28001.18
720.275	27897.01
720.617	27904.24
720.96	27835.09
721.303	27923.67
721.646	27944.01
721.989	27751.7
722.331	27788.99
722.674	27692.72
723.016	27711.7
723.359	27756.22
723.701	27568.65
724.044	27544.93
724.386	27410.69
724.729	27520.07
725.071	27414.53
725.413	27424.93
725.755	27365.27
726.097	27268.32
726.439	27098.16
726.782	27177.93
727.124	27266.97
727.465	27037.37
727.807	26998.73
728.149	27010.25
728.491	26950.82
728.833	27033.75
729.175	26852.97
729.516	26713.99
729.858	26771.16
730.199	26782.46
730.541	26659.3
730.882	26698.17
731.224	26699.07
731.565	26579.53
731.906	26551.28
732.248	26599.19
732.589	26352.41
732.93	26337.5
733.271	26311.29
733.612	26330.27
733.953	26478.74
734.294	26303.15
734.635	26258.18
734.976	26224.51
735.317	26171.18
735.658	26100.44
735.999	26282.36
736.339	26085.3
736.68	26075.59
737.021	26001.01
737.361	25944.97
737.702	25969.83
738.042	25863.16
738.383	25926.66
738.723	26047.79
739.063	25784.75
739.404	25858.64
739.744	25749.72
740.084	25646.44
740.424	25628.14
740.764	25558.54
741.104	25733
741.444	25510.85
741.784	25451.42
742.124	25561.47
742.464	25435.38
742.804	25467.24
743.143	25358.77
743.483	25339.33
743.823	25307.7
744.162	25273.35
744.502	25363.06
744.841	25302.95
745.181	25222.73
745.52	25110.64
745.86	25304.31
746.199	25129.85
746.538	25095.95
746.877	25162.84
747.216	25208.04
747.556	25072.22
747.895	25067.25
748.234	24890.53
748.573	24945.9
748.911	24915.16
749.25	24855.73
749.589	24660.71
749.928	24727.37
750.267	24686.7
750.605	24717.66
750.944	24729.41
751.283	24479.24
751.621	24652.8
751.96	24483.54
752.298	24455.97
752.636	24387.95
752.975	24338.91
753.313	24255.97
753.651	24366.93
753.989	24254.84
754.327	24204
754.666	24068.86
755.004	24223.2
755.342	24259.36
755.679	24112.47
756.017	23976.88
756.355	23996.77
756.693	23920.16
757.031	23915.19
757.368	23808.75
757.706	23737.12
758.044	23684.69
758.381	23653.73
758.719	23689.21
759.056	23658.7
759.394	23531.02
759.731	23461.19
760.068	23387.75
760.405	23243.12
760.743	23138.94
761.08	23241.08
761.417	23186.62
761.754	23131.93
762.091	23005.61
762.428	22891.49
762.765	22870.02
763.102	22839.74
763.438	22806.07
763.775	22609.91
764.112	22696.47
764.449	22661.21
764.785	22539.86
765.122	22388.45
765.458	22342.35
765.795	22303.93
766.131	22284.05
766.467	22132.86
766.804	22183.94
767.14	22005.86
767.476	21979.65
767.812	21891.74
768.148	21956.82
768.485	21732.87
768.821	21667.11
769.157	21712.54
769.492	21560.9
769.828	21569.94
770.164	21362.26
770.5	21374.69
770.836	21240.46
771.171	21224.41
771.507	21140.12
771.842	20875.95
772.178	20971.09
772.513	20957.3
772.849	20823.52
773.184	20712.11
773.519	20751.88
773.855	20681.15
774.19	20540.59
774.525	20372.46
774.86	20582.85
775.195	20472.8
775.53	20299.69
775.865	20223.08
776.2	20112.8
776.535	20001.39
776.87	20117.1
777.205	19960.04
777.539	19840.27
777.874	19961.85
778.209	19696.09
778.543	19627.85
778.878	19449.77
779.212	19572.48
779.547	19433.27
779.881	19526.38
780.215	19368.42
780.55	19340.4
780.884	19037.35
781.218	19112.15
781.552	19192.38
781.886	19013.85
782.22	19026.96
782.554	18839.62
782.888	18761.88
783.222	18662.45
783.556	18544.26
783.889	18506.52
784.223	18396.92
784.557	18336.58
784.89	18333.19
785.224	18285.73
785.557	18153.99
785.891	18096.59
786.224	17967.32
786.558	18062.01
786.891	17930.49
787.224	17854.56
787.557	17830.15
787.891	17775.46
788.224	17672.64
788.557	17741.34
788.89	17663.83
789.223	17621.57
789.556	17409.37
789.888	17385.42
790.221	17370.05
790.554	17283.27
790.887	17268.81
791.219	17193.11
791.552	17203.73
791.884	17080.79
792.217	16966.45
792.549	17071.98
792.882	16826.56
793.214	16767.58
793.546	16748.6
793.879	16693.46
794.211	16603.52
794.543	16657.75
794.875	16639.9
795.207	16568.94
795.539	16432.22
795.871	16429.06
796.203	16347.93
796.535	16331.66
796.867	16185
797.198	16181.61
797.53	16133.47
797.862	16035.17
798.193	16021.61
798.525	15950.43
798.856	16025.68
799.188	15794.73
799.519	15766.48
799.85	15717.67
800.182	15686.93
800.513	15723.32
800.844	15555.86
801.175	15695.97
801.506	15635.18
801.837	15478.35
802.168	15414.85
802.499	15449.65
802.83	15221.18
803.161	15231.8
803.491	15297.56
803.822	15236.32
804.153	15176.44
804.483	15021.86
804.814	14930.79
805.145	15008.08
805.475	15034.52
805.805	14833.4
806.136	14932.38
806.466	14879.5
806.796	14891.7
807.126	14735.54
807.457	14690.35
807.787	14706.17
808.117	14629.11
808.447	14656.68
808.777	14561.76
809.107	14490.13
809.436	14491.26
809.766	14454.87
810.096	14488.09
810.426	14323.58
810.755	14354.99
811.085	14338.72
811.414	14269.57
811.744	14080.87
812.073	14191.15
812.403	14123.13
812.732	13975.11
813.061	14005.62
813.39	13951.84
813.719	14010.82
814.049	13955.23
814.378	13891.27
814.707	13857.38
815.036	13794.55
815.365	13768.79
815.693	13681.56
816.022	13692.41
816.351	13642.24
816.68	13588.68
817.008	13615.12
817.337	13470.49
817.665	13497.39
817.994	13466.2
818.322	13516.59
818.651	13360.67
818.979	13338.07
819.307	13416.71
819.636	13334.23
819.964	13283.61
820.292	13391.85
820.62	13272.76
820.948	13249.26
821.276	13200.67
821.604	13210.84
821.932	13240.44
822.259	13252.19
822.587	13239.76
822.915	13153.89
823.243	13314.79
823.57	13261.01
823.898	13206.09
824.225	13191.86
824.553	13181.46
824.88	13233.89
825.207	13200.67
825.535	13160.67
825.862	13193.89
826.189	13085.87
826.516	13174.68
826.843	13202.93
827.17	13120.22
827.497	13170.16
827.824	13165.64
828.151	13218.97
828.478	13151.18
828.805	13210.84
829.131	13144.17
829.458	13095.14
829.785	13048.58
830.111	13127.45
830.438	13188.92
830.764	13171.07
831.09	13134.23
831.417	13150.28
831.743	13185.08
832.069	13051.97
832.395	13048.36
832.722	13068.02
833.048	13018.08
833.374	13061.24
833.7	13040
834.026	13028.25
834.351	13009.71
834.677	12990.28
835.003	13054.23
835.329	13023.95
835.654	12912.99
835.98	12884.97
836.306	12852.2
836.631	12774.69
836.956	12958.19
837.282	12919.77
837.607	12754.58
837.932	12820.34
838.258	12794.13
838.583	12784.41
838.908	12764.75
839.233	12795.93
839.558	12713.9
839.883	12690.17
840.208	12621.93
840.533	12633.45
840.858	12608.82
841.182	12619.89
841.507	12579.44
841.832	12538.77
842.156	12512.78
842.481	12458.09
842.805	12571.76
843.13	12401.59
843.454	12448.37
843.778	12316.4
844.103	12309.62
844.427	12313.46
844.751	12304.87
845.075	12291.54
845.399	12228.72
845.723	12235.95
846.047	12176.74
846.371	12060.59
846.695	12047.48
847.019	11965.22
847.343	11936.3
847.666	11834.6
847.99	11800.25
848.313	11799.58
848.637	11691.56
848.96	11666.02
849.284	11712.12
849.607	11655.4
849.931	11513.26
850.254	11471.22
850.577	11488.62
850.9	11294.96
851.223	11404.11
851.546	11324.11
851.869	11187.62
852.192	11339.25
852.515	11114.85
852.838	11136.09
853.161	11099.71
853.483	11024.23
853.806	11062.65
854.129	11036.88
854.451	10965.02
854.774	10890.45
855.096	10875.99
855.419	10856.78
855.741	10816.55
856.063	10793.28
856.385	10746.05
856.708	10689.78
857.03	10621.08
857.352	10636.44
857.674	10590.34
857.996	10602.55
858.318	10630.79
858.64	10582.66
858.961	10481.19
859.283	10471.7
859.605	10449.33
859.926	10365.26
860.248	10435.77
860.57	10345.6
860.891	10365.04
861.212	10255.44
861.534	10228.32
861.855	10210.69
862.176	10301.99
862.498	10215.44
862.819	10247.53
863.14	10213.86
863.461	10157.81
863.782	10086.18
864.103	10081.88
864.424	10034.2
864.745	10052.05
865.065	10061.09
865.386	9996.23
865.707	10021.32
866.027	10044.59
866.348	10019.51
866.668	9996.91
866.989	9968.66
867.309	9879.63
867.63	9901.32
867.95	9912.62
868.27	9851.83
868.59	9838.5
868.91	9839.4
869.23	9810.25
869.55	9844.83
869.87	9845.28
870.19	9812.96
870.51	9801.89
870.83	9783.13
871.15	9675.56
871.469	9753.08
871.789	9759.4
872.109	9690.03
872.428	9675.56
872.748	9707.65
873.067	9624.27
873.386	9679.86
873.706	9641.67
874.025	9516.02
874.344	9521.67
874.663	9609.35
874.982	9544.95
875.301	9540.65
875.62	9506.08
875.939	9478.51
876.258	9417.94
876.577	9392.63
876.896	9442.35
877.214	9398.51
877.533	9397.61
877.852	9401.45
878.17	9338.85
878.489	9349.25
878.807	9386.53
879.125	9351.05
879.444	9306.53
879.762	9257.72
880.08	9251.85
880.398	9197.16
880.716	9278.74
881.034	9226.54
881.352	9243.49
881.67	9218.85
881.988	9140.44
882.306	9102.47
882.624	9169.14
882.941	9102.92
883.259	9063.38
883.577	9043.27
883.894	8970.5
884.212	9038.29
884.529	9002.14
884.846	8986.09
885.164	8875.13
885.481	8952.87
885.798	8945.64
886.115	8886.43
886.432	8902.48
886.75	8911.29
887.067	8842.37
887.383	8808.69
887.7	8806.66
888.017	8784.74
888.334	8690.51
888.651	8714.01
888.967	8729.83
889.284	8654.12
889.6	8661.35
889.917	8588.59
890.233	8634.91
890.55	8592.88
890.866	8558.76
891.182	8554.01
891.498	8580
891.815	8498.42
892.131	8514.01
892.447	8468.36
892.763	8387.24
893.079	8412.32
893.395	8382.72
893.71	8311.53
894.026	8332.1
894.342	8309.05
894.657	8263.4
894.973	8240.8
895.289	8225.43
895.604	8209.39
895.92	8126.9
896.235	8103.4
896.55	8147.7
896.865	8083.52
897.181	8086.23
897.496	8054.14
897.811	7988.83
898.126	8001.48
898.441	8011.2
898.756	7889.17
899.071	7867.02
899.386	7895.72
899.7	7793.58
900.015	7802.17
900.33	7789.74
900.644	7763.98
900.959	7748.16
901.273	7645.79
901.588	7646.92
901.902	7620.93
902.216	7600.59
902.531	7537.99
902.845	7564.89
903.159	7528.73
903.473	7503.19
903.787	7445.57
904.101	7399.47
904.415	7398.56
904.729	7381.61
905.042	7262.29
905.356	7242.18
905.67	7318.79
905.984	7311.11
906.297	7288.51
906.611	7160.6
906.924	7195.4
907.237	7171
907.551	7197.66
907.864	7096.88
908.177	7056.2
908.491	7087.61
908.804	7012.81
909.117	6959.7
909.43	6934.39
909.743	6952.02
910.056	6940.72
910.368	6898.69
910.681	6900.5
910.994	6849.88
911.307	6757.45
911.619	6795.41
911.932	6792.25
912.244	6719.71
912.557	6699.37
912.869	6670.45
913.181	6651.24
913.494	6621.63
913.806	6558.36
914.118	6575.53
914.43	6558.81
914.742	6562.88
915.054	6465.25
915.366	6450.11
915.678	6472.03
915.99	6408.53
916.302	6346.39
916.613	6334.86
916.925	6376.22
917.236	6299.38
917.548	6305.26
917.859	6251.93
918.171	6243.56
918.482	6215.54
918.794	6223.68
919.105	6220.97
919.416	6163.57
919.727	6089.9
920.038	6090.8
920.349	6022.78
920.66	6014.19
920.971	6009.45
921.282	5986.17
921.593	5937.36
921.903	5911.14
922.214	5905.95
922.525	5922.9
922.835	5856.23
923.146	5826.4
923.456	5815.1
923.767	5711.15
924.077	5762.9
924.387	5720.19
924.697	5700.53
925.008	5714.31
925.318	5672.73
925.628	5638.83
925.938	5613.75
926.248	5551.83
926.558	5578.05
926.867	5537.82
927.177	5559.74
927.487	5446.3
927.796	5405.39
928.106	5456.01
928.416	5465.05
928.725	5433.64
929.034	5395.68
929.344	5359.29
929.653	5381.67
929.962	5326.75
930.271	5307.09
930.581	5252.63
930.89	5223.48
931.199	5225.06
931.508	5225.29
931.817	5167.43
932.125	5232.29
932.434	5148.9
932.743	5104.16
933.051	5064.84
933.36	5095.12
933.669	5003.15
933.977	4996.59
934.286	5052.18
934.594	5007.66
934.902	4932.86
935.21	4997.04
935.519	4946.88
935.827	4871.85
936.135	4839.99
936.443	4858.97
936.751	4885.86
937.059	4797.27
937.367	4787.78
937.674	4832.53
937.982	4787.33
938.29	4775.58
938.597	4763.6
938.905	4664.17
939.213	4654.68
939.52	4689.03
939.827	4668.92
940.135	4686.77
940.442	4615.58
940.749	4563.38
941.056	4553.89
941.363	4549.82
941.67	4517.73
941.977	4493.78
942.284	4477.28
942.591	4455.36
942.898	4435.25
943.205	4452.43
943.511	4463.05
943.818	4450.62
944.125	4383.73
944.431	4339.21
944.738	4322.94
945.044	4335.14
945.35	4249.94
945.657	4287.91
945.963	4280.23
946.269	4240.23
946.575	4215.14
946.881	4195.03
947.187	4245.43
947.493	4217.4
947.799	4173.79
948.105	4138.76
948.41	4129.95
948.716	4097.86
949.022	4042.94
949.327	4092.43
949.633	4019.44
949.938	4027.8
950.244	4020.57
950.549	3964.98
950.854	3964.53
951.16	3914.81
951.465	3928.6
951.77	3919.56
952.075	3905.1
952.38	3903.74
952.685	3913.23
952.99	3871.2
953.294	3851.99
953.599	3800.69
953.904	3770.86
954.209	3785.1
954.513	3794.59
954.818	3772.44
955.122	3769.51
955.426	3703.29
955.731	3722.73
956.035	3707.36
956.339	3683.63
956.643	3710.75
956.948	3660.36
957.252	3676.85
957.556	3608.83
957.86	3607.02
958.163	3585.56
958.467	3581.04
958.771	3545.78
959.075	3527.93
959.378	3540.58
959.682	3507.59
959.985	3494.26
960.289	3483.19
960.592	3458.78
960.896	3452
961.199	3462.62
961.502	3427.82
961.805	3442.28
962.108	3396.86
962.411	3396.41
962.714	3375.84
963.017	3342.85
963.32	3369.52
963.623	3297.43
963.926	3297.43
964.228	3296.75
964.531	3270.31
964.833	3257.2
965.136	3239.35
965.438	3227.15
965.741	3197.77
966.043	3204.55
966.345	3167.94
966.648	3196.87
966.95	3171.33
967.252	3168.62
967.554	3137.66
967.856	3129.97
968.158	3100.14
968.46	3137.21
968.761	3130.43
969.063	3088.39
969.365	3051.11
969.666	3045.91
969.968	3008.4
970.269	3032.35
970.571	3006.14
970.872	2999.58
971.174	2987.83
971.475	2977.89
971.776	2947.61
972.077	2932.47
972.378	2939.24
972.679	2927.72
972.98	2892.47
973.281	2875.74
973.582	2849.3
973.883	2870.55
974.183	2854.95
974.484	2832.13
974.785	2912.13
975.085	2811.11
975.386	2819.25
975.686	2807.95
975.986	2799.14
976.287	2785.8
976.587	2728.4
976.887	2739.48
977.187	2709.87
977.487	2749.42
977.787	2727.72
978.087	2712.81
978.387	2674.62
978.687	2706.93
978.987	2651.79
979.286	2619.48
979.586	2646.82
979.885	2625.13
980.185	2618.35
980.484	2630.1
980.784	2574.28
981.083	2573.83
981.382	2577.45
981.682	2567.5
981.981	2535.64
982.28	2523.44
982.579	2507.62
982.878	2539.93
983.177	2544.9
983.475	2526.37
983.774	2507.39
984.073	2436.21
984.372	2447.28
984.67	2449.31
984.969	2463.78
985.267	2439.14
985.566	2451.8
985.864	2424.23
986.162	2388.98
986.461	2384.91
986.759	2394.63
987.057	2380.39
987.355	2317.79
987.653	2320.5
987.951	2330.9
988.249	2336.1
988.547	2328.19
988.844	2321.86
989.142	2315.08
989.44	2270.34
989.737	2261.75
990.035	2283.89
990.332	2224.91
990.63	2233.73
990.927	2230.34
991.224	2227.4
991.521	2200.96
991.819	2182.88
992.116	2210.22
992.413	2208.87
992.71	2186.04
993.006	2155.76
993.303	2165.93
993.6	2129.55
993.897	2113.05
994.193	2107.85
994.49	2082.32
994.787	2112.6
995.083	2074.86
995.379	2095.2
995.676	2050.68
995.972	2089.32
996.268	2074.86
996.565	2043.22
996.861	2067.86
997.157	2060.4
997.453	2031.25
997.749	2033.05
998.044	1985.6
998.34	1970.91
998.636	1986.73
998.932	1973.85
999.227	1949.67
999.523	1980.63
999.818	1946.5
1000.114	1924.36
1000.409	1912.38
1000.704	1915.99
1001	1906.05
1001.295	1913.06
1001.59	1864.24
1001.885	1850.01
1002.18	1866.5
1002.475	1861.98
1002.77	1845.71
1003.065	1866.73
1003.359	1844.58
1003.654	1801.42
1003.949	1797.58
1004.243	1783.34
1004.538	1791.25
1004.832	1765.04
1005.127	1790.35
1005.421	1753.97
1005.715	1751.25
1006.009	1735.66
1006.304	1726.17
1006.598	1748.99
1006.892	1718.26
1007.186	1682.33
1007.48	1700.86
1007.773	1691.82
1008.067	1669.67
1008.361	1648.21
1008.655	1650.92
1008.948	1656.34
1009.242	1646.62
1009.535	1638.04
1009.829	1618.15
1010.122	1619.28
1010.415	1600.75
1010.708	1599.62
1011.001	1588.77
1011.295	1557.81
1011.588	1590.58
1011.881	1562.56
1012.173	1514.2
1012.466	1545.61
1012.759	1504.71
1013.052	1534.76
1013.344	1521.43
1013.637	1500.41
1013.93	1506.06
1014.222	1493.41
1014.514	1464.26
1014.807	1483.46
1015.099	1453.18
1015.391	1446.4
1015.683	1435.56
1015.976	1433.75
1016.268	1432.39
1016.56	1427.42
1016.851	1428.78
1017.143	1417.7
1017.435	1419.28
1017.727	1362.56
1018.018	1365.73
1018.31	1359.4
1018.602	1378.61
1018.893	1344.26
1019.185	1349
1019.476	1347.87
1019.767	1331.6
1020.058	1315.78
1020.35	1309.91
1020.641	1314.2
1020.932	1277.14
1021.223	1327.31
1021.514	1271.72
1021.804	1306.29
1022.095	1272.62
1022.386	1268.55
1022.677	1219.74
1022.967	1240.53
1023.258	1230.59
1023.548	1232.17
1023.839	1235.11
1024.129	1233.98
1024.419	1193.08
1024.709	1168.9
1025	1156.69
1025.29	1175.22
1025.58	1176.81
1025.87	1168.67
1026.16	1182.68
1026.449	1177.03
1026.739	1141.55
1027.029	1162.57
1027.319	1117.37
1027.608	1119.63
1027.898	1100.42
1028.187	1114.66
1028.477	1099.52
1028.766	1092.74
1029.055	1085.73
1029.344	1105.85
1029.634	1079.18
1029.923	1064.94
1030.212	1056.58
1030.501	1050.48
1030.79	1026.07
1031.078	1064.04
1031.367	1019.52
1031.656	1034.66
1031.945	1031.5
1032.233	992.63
1032.522	1012.06
1032.81	1020.2
1033.099	1022.23
1033.387	974.55
1033.675	975.68
1033.963	964.16
1034.251	986.3
1034.54	980.65
1034.828	966.42
1035.116	944.49
1035.403	936.81
1035.691	932.29
1035.979	950.82
1036.267	938.17
1036.554	939.98
1036.842	918.96
1037.129	932.74
1037.417	909.92
1037.704	913.99
1037.992	873.08
1038.279	889.81
1038.566	873.31
1038.853	873.31
1039.14	873.31
