Data from hue_22_FLMS001491_00025.txt Node
Date: Tue Feb 07 17:09:52 GMT 2017
User: dcchb
Spectrometer: FLMS00149
Trigger mode: 0
Integration Time (sec): 2.000000E-2
Scans to average: 10
Electric dark correction enabled: true
Nonlinearity correction enabled: false
Boxcar width: 0
XAxis mode: Wavelengths
Number of Pixels in Spectrum: 2048
>>>>>Begin Spectral Data<<<<<
341.393	-12.63
341.776	-12.63
342.16	-12.63
342.543	-59.41
342.927	-61.67
343.31	-63.47
343.693	-79.74
344.077	-58.73
344.46	-59.63
344.843	-42.46
345.226	-60.99
345.61	-25.06
345.993	-7.2
346.376	5.45
346.759	0.03
347.142	15.85
347.525	39.12
347.908	54.94
348.291	73.7
348.674	84.77
349.057	123.41
349.44	127.48
349.823	151.66
350.206	182.85
350.588	216.52
350.971	206.58
351.354	225.79
351.737	244.54
352.119	253.81
352.502	255.84
352.884	283.86
353.267	299.68
353.65	306.69
354.032	307.36
354.414	324.31
354.797	335.16
355.179	333.58
355.562	357.76
355.944	335.84
356.326	336.74
356.709	342.84
357.091	352.34
357.473	345.33
357.855	326.57
358.238	327.48
358.62	348.49
359.002	332.45
359.384	334.48
359.766	358.21
360.148	365.44
360.53	356.18
360.912	343.52
361.294	358.21
361.676	349.85
362.057	335.39
362.439	314.82
362.821	323.18
363.203	331.09
363.584	313.47
363.966	327.93
364.348	321.83
364.729	354.6
365.111	346.46
365.493	340.81
365.874	328.83
366.256	328.83
366.637	336.97
367.019	305.33
367.4	307.14
367.781	330.87
368.163	308.72
368.544	290.87
368.925	321.15
369.306	334.48
369.688	299.46
370.069	329.74
370.45	311.66
370.831	312.11
371.212	302.62
371.593	328.16
371.974	319.79
372.355	340.81
372.736	321.83
373.117	330.19
373.498	316.18
373.879	335.16
374.26	314.37
374.641	329.74
375.021	330.42
375.402	331.09
375.783	319.79
376.163	319.57
376.544	327.7
376.925	346.01
377.305	329.96
377.686	355.05
378.066	327.03
378.447	340.13
378.827	331.32
379.208	358.66
379.588	337.42
379.968	340.81
380.349	327.03
380.729	340.81
381.109	334.71
381.489	350.98
381.87	329.96
382.25	335.39
382.63	339.68
383.01	332.9
383.39	364.31
383.77	344.2
384.15	347.36
384.53	336.06
384.91	357.08
385.29	360.92
385.67	338.32
386.049	374.71
386.429	358.66
386.809	352.11
387.189	358.44
387.568	375.39
387.948	363.18
388.328	354.14
388.707	365.89
389.087	372.45
389.466	378.32
389.846	355.05
390.225	384.88
390.605	367.93
390.984	373.58
391.363	362.05
391.743	412.9
392.122	390.3
392.501	394.37
392.881	375.61
393.26	370.19
393.639	393.92
394.018	365.89
394.397	387.14
394.776	361.83
395.155	395.5
395.534	373.13
395.913	388.94
396.292	370.19
396.671	415.38
397.05	383.52
397.429	383.3
397.808	400.47
398.186	400.7
398.565	397.76
398.944	420.58
399.323	377.19
399.701	411.32
400.08	390.07
400.458	414.71
400.837	393.69
401.215	408.15
401.594	396.4
401.972	413.8
402.351	410.86
402.729	399.11
403.107	397.53
403.486	416.29
403.864	426.91
404.242	414.25
404.62	424.2
404.999	431.66
405.377	426.46
405.755	439.11
406.133	408.83
406.511	429.17
406.889	426.91
407.267	437.53
407.645	441.37
408.023	445.44
408.401	442.5
408.779	451.77
409.156	449.06
409.534	452.22
409.912	461.03
410.29	469.62
410.667	446.34
411.045	458.1
411.422	469.39
411.8	454.03
412.178	483.63
412.555	474.37
412.933	447.93
413.31	472.78
413.687	483.41
414.065	476.63
414.442	508.04
414.819	493.35
415.197	482.5
415.574	501.26
415.951	498.77
416.328	520.01
416.705	495.61
417.082	512.78
417.46	523.63
417.837	512.11
418.214	517.98
418.591	523.86
418.967	532.22
419.344	523.86
419.721	528.83
420.098	533.12
420.475	531.54
420.852	514.14
421.228	549.17
421.605	520.47
421.982	531.31
422.358	555.04
422.735	549.39
423.111	562.05
423.488	539
423.864	566.57
424.241	569.73
424.617	571.09
424.994	576.74
425.37	571.99
425.746	590.52
426.123	575.83
426.499	587.58
426.875	579.9
427.251	607.02
427.627	579.67
428.003	597.3
428.379	598.2
428.756	601.37
429.132	589.84
429.507	605.66
429.883	622.84
430.259	639.79
430.635	628.49
431.011	624.87
431.387	637.07
431.763	657.19
432.138	636.17
432.514	665.55
432.89	655.6
433.265	691.99
433.641	665.1
434.016	656.96
434.392	681.82
434.767	683.4
435.143	672.1
435.518	711.2
435.894	704.19
436.269	693.34
436.644	715.04
437.02	711.2
437.395	733.57
437.77	705.09
438.145	742.61
438.52	724.98
438.895	729.05
439.271	758.43
439.646	761.82
440.021	743.51
440.395	749.61
440.77	759.1
441.145	759.78
441.52	758.43
441.895	789.39
442.27	782.61
442.645	776.05
443.019	774.7
443.394	814.02
443.769	804.75
444.143	778.99
444.518	816.5
444.892	786.9
445.267	793.68
445.641	807.46
446.016	810.18
446.39	844.3
446.764	842.72
447.139	811.98
447.513	822.83
447.887	844.75
448.262	852.66
448.636	829.84
449.01	834.58
449.384	874.81
449.758	858.76
450.132	854.47
450.506	871.87
450.88	878.88
451.254	875.94
451.628	877.29
452.002	879.1
452.376	894.02
452.75	891.76
453.123	902.15
453.497	907.58
453.871	928.59
454.244	929.27
454.618	938.99
454.992	952.55
455.365	954.81
455.739	978.53
456.112	983.51
456.486	984.64
456.859	1008.36
457.232	983.51
457.606	1006.33
457.979	1014.46
458.352	1042.49
458.725	1070.73
459.099	1065.76
459.472	1065.31
459.845	1063.73
460.218	1089.72
460.591	1120.68
460.964	1117.51
461.337	1143.73
461.71	1145.53
462.083	1153.44
462.456	1175.36
462.829	1156.16
463.201	1187.12
463.574	1201.35
463.947	1195.03
464.32	1230.28
464.692	1232.76
465.065	1258.98
465.438	1244.52
465.81	1279.77
466.183	1265.08
466.555	1292.2
466.928	1296.72
467.3	1305.76
467.672	1340.56
468.045	1386.66
468.417	1338.07
468.789	1383.49
469.161	1379.2
469.534	1408.35
469.906	1421.23
470.278	1450.39
470.65	1470.05
471.022	1521.8
471.394	1529.48
471.766	1524.06
472.138	1550.95
472.51	1607.22
472.882	1593.21
473.253	1614
473.625	1641.12
473.997	1649.02
474.369	1688.12
474.74	1757.72
475.112	1735.58
475.484	1766.99
475.855	1806.31
476.227	1851.05
476.598	1867.1
476.97	1870.94
477.341	1919.53
477.713	1966.53
478.084	2002.69
478.455	2028.9
478.827	2038.84
479.198	2100.76
479.569	2145.73
479.94	2188.45
480.311	2204.72
480.682	2253.3
481.053	2298.5
481.424	2355.22
481.795	2364.94
482.166	2447.42
482.537	2437.25
482.908	2503.24
483.279	2522.45
483.65	2542.33
484.021	2633.63
484.391	2660.75
484.762	2723.12
485.133	2719.28
485.503	2802.67
485.874	2850.35
486.244	2906.17
486.615	2938.48
486.985	2971.93
487.356	3037.91
487.726	3062.09
488.097	3154.97
488.467	3122.43
488.837	3236.33
489.207	3279.49
489.578	3331.24
489.948	3356.1
490.318	3431.8
490.688	3461.63
491.058	3504.79
491.428	3563.55
491.798	3609.42
492.168	3656.88
492.538	3691
492.908	3749.31
493.278	3787.05
493.648	3803.09
494.017	3822.75
494.387	3885.58
494.757	3935.74
495.126	3979.36
495.496	3970.09
495.866	4055.97
496.235	4066.59
496.605	4077.89
496.974	4157.66
497.344	4201.05
497.713	4222.97
498.082	4220.71
498.452	4273.59
498.821	4314.04
499.19	4379.35
499.559	4384.55
499.928	4414.6
500.298	4474.03
500.667	4554.71
501.036	4499.8
501.405	4554.26
501.774	4568.27
502.143	4575.28
502.512	4567.37
502.88	4606.91
503.249	4655.73
503.618	4674.03
503.987	4706.12
504.356	4736.4
504.724	4735.72
505.093	4789.28
505.462	4779.11
505.83	4819.56
506.199	4854.59
506.567	4932.33
506.936	4944.08
507.304	5017.98
507.672	5002.83
508.041	4982.95
508.409	5036.73
508.777	5079.67
509.145	5081.48
509.514	5114.92
509.882	5192.43
510.25	5147.69
510.618	5195.15
510.986	5209.83
511.354	5248.93
511.722	5279.66
512.09	5352.66
512.458	5297.52
512.826	5293.45
513.193	5400.34
513.561	5391.07
513.929	5417.74
514.297	5484.63
514.664	5454.57
515.032	5486.89
515.4	5551.07
515.767	5523.72
516.135	5572.99
516.502	5517.17
516.869	5629.48
517.237	5655.25
517.604	5622.71
517.972	5708.35
518.339	5745.87
518.706	5674
519.073	5710.16
519.44	5722.59
519.808	5802.14
520.175	5849.59
520.542	5897.27
520.909	5903.15
521.276	5888.69
521.643	5953.54
522.009	5957.16
522.376	6012.07
522.743	5978.63
523.11	6111.73
523.477	6122.13
523.843	6119.42
524.21	6177.94
524.577	6195.8
524.943	6290.26
525.31	6289.35
525.676	6309.01
526.043	6467.65
526.409	6414.77
526.776	6451.38
527.142	6460.65
527.508	6489.8
527.874	6543.59
528.241	6541.33
528.607	6582.45
528.973	6645.28
529.339	6643.92
529.705	6689.57
530.071	6736.12
530.437	6789.23
530.803	6820.19
531.169	6815.89
531.535	6769.57
531.901	6897.93
532.267	6943.12
532.632	6941.54
532.998	7011.6
533.364	7050.24
533.73	6978.38
534.095	7079.62
534.461	7105.83
534.826	7142.21
535.192	7159.16
535.557	7214.08
535.923	7233.96
536.288	7211.14
536.653	7245.71
537.019	7290.46
537.384	7348.31
537.749	7320.29
538.114	7388.08
538.479	7333.17
538.845	7363.22
539.21	7425.37
539.575	7444.35
539.94	7544.01
540.305	7527.51
540.67	7533.84
541.034	7585.37
541.399	7594.63
541.764	7616.1
542.129	7720.96
542.494	7682.76
542.858	7761.18
543.223	7828.3
543.587	7830.33
543.952	7785.36
544.316	7901.52
544.681	7900.16
545.045	7950.33
545.41	7984.9
545.774	7981.06
546.138	8094.96
546.503	8045.92
546.867	8011.34
547.231	8174.28
547.595	8150.55
547.959	8195.29
548.324	8225.57
548.688	8235.97
549.052	8255.18
549.416	8251.56
549.779	8324.1
550.143	8324.56
550.507	8380.6
550.871	8386.02
551.235	8368.17
551.599	8479.35
551.962	8431.9
552.326	8494.04
552.689	8473.93
553.053	8539.24
553.417	8542.63
553.78	8713.7
554.143	8637.77
554.507	8674.38
554.87	8725.45
555.234	8830.53
555.597	8720.25
555.96	8731.78
556.323	8799.8
556.686	8855.16
557.05	8906.46
557.413	8873.92
557.776	8878.66
558.139	9017.19
558.502	8997.31
558.865	9039.11
559.228	9103.52
559.59	9141.48
559.953	9057.87
560.316	9182.61
560.679	9177.41
561.041	9274.81
561.404	9258.09
561.767	9303.74
562.129	9310.29
562.492	9375.6
562.854	9362.72
563.217	9343.96
563.579	9455.15
563.941	9509.16
564.304	9451.31
564.666	9509.83
565.028	9630.96
565.39	9601.36
565.753	9734.69
566.115	9733.33
566.477	9702.6
566.839	9750.96
567.201	9755.93
567.563	9783.5
567.925	9915.25
568.287	9977.39
568.648	9966.77
569.01	10016.26
569.372	10083.6
569.734	10034.11
570.095	10159.31
570.457	10175.35
570.819	10176.94
571.18	10183.26
571.542	10238.63
571.903	10353.88
572.265	10348.68
572.626	10444.73
572.987	10425.97
573.349	10471.84
573.71	10588.68
574.071	10604.95
574.432	10640.88
574.794	10779.63
575.155	10783.25
575.516	10781.44
575.877	10921.32
576.238	10948.21
576.599	11013.52
576.96	11086.74
577.32	11191.37
577.681	11244.25
578.042	11367.41
578.403	11437.69
578.763	11547.07
579.124	11599.05
579.485	11763.11
579.845	11798.59
580.206	11933.05
580.566	12018.47
580.927	12108.64
581.287	12282.64
581.648	12353.15
582.008	12550.43
582.368	12615.06
582.728	12808.28
583.089	12887.82
583.449	13090.98
583.809	13287.36
584.169	13475.15
584.529	13513.8
584.889	13870.62
585.249	13992.2
585.609	14059.32
585.969	14365.07
586.329	14486.2
586.688	14687.33
587.048	14965.06
587.408	15193.53
587.768	15398.49
588.127	15654.98
588.487	15786.96
588.846	16137.68
589.206	16321.86
589.565	16561.4
589.925	16936.98
590.284	17099.24
590.643	17455.61
591.003	17717.53
591.362	18053.11
591.721	18140.79
592.08	18510.28
592.44	18944.16
592.799	19134.44
593.158	19365.17
593.517	19742.56
593.876	20016
594.235	20301.64
594.593	20618.24
594.952	20819.82
595.311	21155.86
595.67	21470.2
596.029	21932.56
596.387	22230.18
596.746	22526.44
597.104	22775.47
597.463	23102.7
597.822	23466.53
598.18	23766.86
598.538	24046.85
598.897	24561.87
599.255	24557.57
599.613	25351
599.972	25410.21
600.33	25742.18
600.688	26004.77
601.046	26385.32
601.404	26789.83
601.762	27054.68
602.12	27430.49
602.478	27691.96
602.836	27974.43
603.194	28225.5
603.552	28604.25
603.91	28602.44
604.268	29162.43
604.625	29353.61
604.983	29658.23
605.341	29787.72
605.698	30182.96
606.056	30608.49
606.413	30756.96
606.771	30989.04
607.128	31342.03
607.485	31555.36
607.843	31723.26
608.2	32138.17
608.557	32646.4
608.914	32689.79
609.272	32924.13
609.629	33323.22
609.986	33624.91
610.343	33680.27
610.7	34053.14
611.057	34227.6
611.414	34419.91
611.771	34541.04
612.127	34849.96
612.484	35199.33
612.841	35446.1
613.198	35440
613.554	35701.46
613.911	35952.08
614.267	36142.81
614.624	36250.37
614.98	36611.72
615.337	36886.29
615.693	36931.94
616.05	37122.67
616.406	37498.48
616.762	37556.55
617.118	37625.48
617.475	37836.32
617.831	38092.81
618.187	38175.97
618.543	38395.63
618.899	38726.24
619.255	38672.91
619.611	38817.09
619.967	39164.87
620.323	39270.86
620.678	39315.15
621.034	39427.69
621.39	39481.25
621.746	39557.41
622.101	40087.34
622.457	39716.05
622.812	40023.83
623.168	40248.69
623.523	40260.89
623.879	40532.75
624.234	40517.38
624.589	40546.53
624.945	40608.68
625.3	40703.59
625.655	40881.21
626.01	40965.05
626.365	41108.55
626.72	41048.44
627.075	41071.04
627.43	41225.16
627.785	41196.69
628.14	41418.37
628.495	41464.02
628.85	41391.93
629.205	41396.45
629.559	41745.15
629.914	41458.37
630.269	41733.62
630.623	41509.22
630.978	41710.8
631.332	41807.74
631.687	41940.85
632.041	41866.95
632.396	41869.89
632.75	41892.03
633.104	42002.31
633.459	41840.28
633.813	41899.49
634.167	41943.56
634.521	41920.51
634.875	42033.73
635.229	42062.43
635.583	42010.45
635.937	41947.85
636.291	42027.4
636.645	41949.43
636.999	42020.17
637.352	42102.65
637.706	41921.41
638.06	42149.65
638.413	41998.25
638.767	41862.43
639.121	41966.61
639.474	41810.68
639.828	41839.38
640.181	41877.35
640.534	42124.8
640.888	41895.88
641.241	41723.22
641.594	41857.46
641.947	41910.56
642.301	41806.84
642.654	41969.32
643.007	41929.1
643.36	41919.6
643.713	41913.28
644.066	41963.22
644.419	41678.71
644.771	41624.02
645.124	41147.87
645.477	40994.43
645.83	40919.18
646.182	40792.85
646.535	40845.96
646.888	40826.75
647.24	40664.04
647.593	40899.52
647.945	40801.67
648.298	40678.51
648.65	40493.65
649.002	40480.09
649.355	40565.29
649.707	40675.12
650.059	40741.33
650.411	41196.69
650.763	41230.36
651.115	41640.52
651.467	41468.09
651.819	41349.45
652.171	41400.3
652.523	41236.68
652.875	41394.87
653.227	41229.9
653.578	41484.59
653.93	41451.59
654.282	41255.89
654.633	41376.57
654.985	41219.96
655.337	41302.45
655.688	41299.73
656.039	41440.97
656.391	41245.27
656.742	41267.64
657.094	41274.88
657.445	41401.88
657.796	41331.6
658.147	41195.1
658.498	41204.82
658.849	41294.31
659.2	41279.85
659.551	41070.59
659.902	41251.82
660.253	41295.89
660.604	41338.6
660.955	40942.91
661.306	41137.93
661.656	41300.64
662.007	41231.94
662.358	41090.25
662.708	41188.55
663.059	41256.12
663.409	40909.91
663.76	41314.42
664.11	41109.91
664.461	41257.93
664.811	41227.42
665.161	41123.92
665.511	41054.77
665.862	41105.84
666.212	41182.45
666.562	41101.32
666.912	41004.6
667.262	41083.47
667.612	41099.29
667.962	41097.25
668.312	40954.21
668.662	41165.05
669.011	41074.65
669.361	41050.47
669.711	40979.29
670.06	40948.1
670.41	40901.33
670.76	40803.48
671.109	40971.38
671.459	40858.61
671.808	40894.77
672.157	41118.72
672.507	40685.06
672.856	40681.22
673.205	40879.86
673.554	40889.12
673.904	40738.84
674.253	41011.61
674.602	40921.21
674.951	40389.25
675.3	40149.48
675.649	40686.19
675.998	40772.97
676.346	40684.16
676.695	40745.85
677.044	40525.74
677.393	40534.78
677.741	40571.84
678.09	40593.54
678.438	40430.38
678.787	40518.74
679.135	40562.13
679.484	40349.02
679.832	40469.25
680.181	40180.44
680.529	40407.55
680.877	40260.66
681.225	40160.78
681.573	40441
681.922	40215.02
682.27	40030.84
682.618	40112.42
682.966	39965.53
683.314	40098.18
683.661	39753.33
684.009	39722.6
684.357	39676.05
684.705	39626.78
685.053	39670.85
685.4	39628.59
685.748	39314.02
686.095	39454.13
686.443	39279.9
686.79	39309.73
687.138	39299.11
687.485	39284.87
687.832	39258.21
688.18	39223.86
688.527	38950.87
688.874	38991.09
689.221	38863.87
689.568	38780.25
689.915	38679.24
690.262	38781.16
690.609	38628.84
690.956	38448.51
691.303	38521.5
691.65	38395.85
691.997	38168.29
692.344	38078.35
692.69	37987.28
693.037	38065.24
693.383	37784.12
693.73	38039.71
694.077	37735.99
694.423	37778.02
694.769	37534.63
695.116	37490.79
695.462	37415.77
695.808	37343.68
696.155	37422.1
696.501	37203.34
696.847	37141.2
697.193	36790.93
697.539	37055.1
697.885	36764.03
698.231	36733.75
698.577	36663.47
698.923	36683.81
699.269	36345.74
699.614	36203.14
699.96	36422.12
700.306	36346.87
700.651	36022.81
700.997	36111.85
701.342	35957.27
701.688	35776.71
702.033	35712.99
702.379	35724.29
702.724	35581.47
703.069	35748.24
703.415	35385.31
703.76	35330.4
704.105	35315.94
704.45	35276.61
704.795	35173.34
705.14	35004.98
705.485	34933.35
705.83	34922.05
706.175	34880.02
706.52	34769.74
706.865	34557.76
707.209	34553.24
707.554	34442.29
707.899	34496.3
708.243	34294.04
708.588	34264.44
708.932	34140.37
709.277	34115.74
709.621	34134.72
709.966	33920.04
710.31	33872.81
710.654	33612.93
710.998	33717.79
711.342	33744.23
711.687	33624
712.031	33482.09
712.375	33275.09
712.719	33541.97
713.063	33349.66
713.407	33353.5
713.75	33242.09
714.094	33245.48
714.438	33049.33
714.782	33110.8
715.125	33012.04
715.469	33054.75
715.812	32887.3
716.156	32656.8
716.499	32784.25
716.843	32742.67
717.186	32620.41
717.53	32786.51
717.873	32704.71
718.216	32617.93
718.559	32476.46
718.902	32235.56
719.246	32324.15
719.589	32222.01
719.932	32098.39
720.275	32170.48
720.617	31991.28
720.96	32083.7
721.303	31999.19
721.646	31996.93
721.989	31913.99
722.331	31871.73
722.674	31650.72
723.016	31808.23
723.359	31511.97
723.701	31779.31
724.044	31542.25
724.386	31330.5
724.729	31506.54
725.071	31264.97
725.413	31398.75
725.755	31407.56
726.097	31255.48
726.439	31055.26
726.782	31117.18
727.124	31218.87
727.465	30984.98
727.807	31069.72
728.149	30891.87
728.491	30869.73
728.833	30928.71
729.175	30857.52
729.516	30716.96
729.858	30752.44
730.199	30680.13
730.541	30697.3
730.882	30588.83
731.224	30767.58
731.565	30448.95
731.906	30454.82
732.248	30507.25
732.589	30283.53
732.93	30268.84
733.271	30281.49
733.612	30239.01
733.953	30375.5
734.294	30149.74
734.635	30125.56
734.976	30171.89
735.317	30005.34
735.658	29996.53
735.999	30023.87
736.339	29829.07
736.68	30044.66
737.021	29914.5
737.361	29747.27
737.702	30035.85
738.042	29845.57
738.383	29646.93
738.723	29743.43
739.063	29700.04
739.404	29599.7
739.744	29620.27
740.084	29635.18
740.424	29470.44
740.764	29460.04
741.104	29430.21
741.444	29359.93
741.784	29241.29
742.124	29489.65
742.464	29399.48
742.804	29218.24
743.143	29229.99
743.483	29184.35
743.823	28959.94
744.162	29106.16
744.502	29008.76
744.841	28987.06
745.181	29040.17
745.52	28925.82
745.86	28950.91
746.199	28864.58
746.538	28723.57
746.877	28896.44
747.216	28791.59
747.556	28719.73
747.895	28643.12
748.234	28660.97
748.573	28620.29
748.911	28577.36
749.25	28479.05
749.589	28314.76
749.928	28439.05
750.267	28500.75
750.605	28405.16
750.944	28223.24
751.283	28160.19
751.621	28325.84
751.96	28075.67
752.298	28053.3
752.636	28113.41
752.975	28003.36
753.313	27887.43
753.651	28039.97
753.989	27680.2
754.327	27736.25
754.666	27618.74
755.004	27691.5
755.342	27704.16
755.679	27720.66
756.017	27477.5
756.355	27434.79
756.693	27442.02
757.031	27399.76
757.368	27212.19
757.706	27117.73
758.044	27058.98
758.381	27223.72
758.719	27113.44
759.056	27109.37
759.394	26989.6
759.731	26780.79
760.068	26723.17
760.405	26644.98
760.743	26619.67
761.08	26686.33
761.417	26438.43
761.754	26472.1
762.091	26559.1
762.428	26367.47
762.765	26114.82
763.102	26249.73
763.438	26092.45
763.775	25972
764.112	25950.98
764.449	26016.29
764.785	25895.84
765.122	25736.75
765.458	25682.29
765.795	25534.72
766.131	25542.86
766.467	25259.03
766.804	25295.41
767.14	25189.65
767.476	25237.78
767.812	25049.77
768.148	25091.35
768.485	24985.13
768.821	24871.92
769.157	24711.69
769.492	24713.05
769.828	24772.48
770.164	24515.54
770.5	24366.39
770.836	24504.69
771.171	24230.13
771.507	24295.21
771.842	24131.37
772.178	24089.34
772.513	24039.85
772.849	23909.23
773.184	23831.49
773.519	23866.29
773.855	23671.27
774.19	23562.8
774.525	23498.62
774.86	23502.91
775.195	23459.75
775.53	23315.57
775.865	23191.51
776.2	23001.46
776.535	22895.92
776.87	22880.56
777.205	22857.05
777.539	22711.97
777.874	22729.15
778.209	22577.51
778.543	22550.85
778.878	22294.13
779.212	22357.63
779.547	22238.99
779.881	22292.1
780.215	22082.61
780.55	22239.44
780.884	21944.99
781.218	21952.45
781.552	21899.11
781.886	21819.57
782.22	21702.96
782.554	21595.17
782.888	21379.58
783.222	21458.67
783.556	21294.16
783.889	21222.97
784.223	21051
784.557	21050.77
784.89	21077.21
785.224	20895.52
785.557	20820.27
785.891	20789.99
786.224	20799.03
786.558	20691.46
786.891	20466.61
787.224	20425.25
787.557	20421.19
787.891	20462.09
788.224	20301.64
788.557	20343.22
788.89	20247.86
789.223	20219.16
789.556	20038.6
789.888	20028.88
790.221	19874.76
790.554	19656.91
790.887	19782.33
791.219	19605.84
791.552	19621.43
791.884	19537.14
792.217	19565.16
792.549	19432.06
792.882	19306.41
793.214	19274.1
793.546	19343.7
793.879	19191.16
794.211	19108.68
794.543	19135.57
794.875	19009.92
795.207	19077.72
795.539	18881.79
795.871	18925.18
796.203	18788.01
796.535	18566.77
796.867	18567
797.198	18539.65
797.53	18556.15
797.862	18456.49
798.193	18413.1
798.525	18353.67
798.856	18326.33
799.188	18153.22
799.519	18040.46
799.85	17982.15
800.182	17957.07
800.513	17960.01
800.844	17796.17
801.175	18037.75
801.506	17953.68
801.837	17781.71
802.168	17761.14
802.499	17640.69
802.83	17567.48
803.161	17491.55
803.491	17497.65
803.822	17462.85
804.153	17346.46
804.483	17321.61
804.814	17197.77
805.145	17203.19
805.475	17237.32
805.805	17130.2
806.136	17154.15
806.466	17015.85
806.796	17085
807.126	16918
807.457	16913.26
807.787	16924.55
808.117	16819.02
808.447	16623.32
808.777	16760.94
809.107	16623.09
809.436	16605.47
809.766	16421.29
810.096	16398.47
810.426	16401.4
810.755	16430.33
811.085	16362.54
811.414	16341.52
811.744	16221.97
812.073	16182.2
812.403	16302.65
812.732	16094.97
813.061	16036.67
813.39	16085.03
813.719	16028.76
814.049	16121.41
814.378	15976.56
814.707	15883.23
815.036	15975.88
815.365	15790.12
815.693	15727.52
816.022	15647.3
816.351	15641.65
816.68	15590.13
817.008	15639.84
817.337	15538.83
817.665	15518.72
817.994	15488.21
818.322	15518.72
818.651	15341.55
818.979	15305.16
819.307	15438.49
819.636	15342.68
819.964	15188.56
820.292	15259.97
820.62	15206.86
820.948	15215
821.276	15317.59
821.604	15222.9
821.932	15214.32
822.259	15202.57
822.587	15176.58
822.915	15127.31
823.243	15138.39
823.57	15132.74
823.898	15066.07
824.225	15036.92
824.553	15069.91
824.88	15087.77
825.207	15261.55
825.535	15061.33
825.862	15117.14
826.189	15072.4
826.516	15119.18
826.843	15185.17
827.17	15105.39
827.497	15072.4
827.824	15151.72
828.151	15177.03
828.478	15125.05
828.805	15179.74
829.131	15120.08
829.458	15186.07
829.785	14974.55
830.111	15070.37
830.438	15149.23
830.764	15088.67
831.09	15044.6
831.417	15021.55
831.743	15070.59
832.069	15080.08
832.395	14995.11
832.722	15001.89
833.048	14907.43
833.374	15020.2
833.7	14843.25
834.026	14869.69
834.351	14923.25
834.677	14928
835.003	14883.48
835.329	14898.62
835.654	14825.4
835.98	14808
836.306	14754.22
836.631	14750.6
836.956	14844.61
837.282	14805.74
837.607	14662.69
837.932	14622.47
838.258	14650.26
838.583	14659.08
838.908	14535.92
839.233	14588.57
839.558	14597.61
839.883	14586.09
840.208	14544.05
840.533	14506.77
840.858	14478.52
841.182	14460.66
841.507	14466.09
841.832	14350.84
842.156	14330.95
842.481	14305.19
842.805	14344.74
843.13	14261.12
843.454	14191.29
843.778	14234.23
844.103	14163.05
844.427	14138.19
844.751	14142.48
845.075	14026.78
845.399	13951.07
845.723	14001.24
846.047	13894.35
846.371	13859.1
846.695	13777.97
847.019	13666.34
847.343	13673.34
847.666	13614.81
847.99	13573.23
848.313	13560.8
848.637	13406.46
848.96	13425.66
849.284	13321.94
849.607	13303.41
849.931	13272.9
850.254	13173.92
850.577	13115.84
850.9	13062.74
851.223	13006.47
851.546	12939.8
851.869	12919.69
852.192	13001.27
852.515	12753.37
852.838	12772.57
853.161	12643.54
853.483	12623.88
853.806	12643.54
854.129	12608.96
854.451	12652.58
854.774	12503.88
855.096	12435.63
855.419	12465.01
855.741	12439.25
856.063	12338.69
856.385	12367.61
856.708	12309.08
857.03	12215.53
857.352	12253.27
857.674	12167.62
857.996	12170.78
858.318	12101.86
858.64	12081.52
858.961	12022.76
859.283	11967.62
859.605	11945.93
859.926	11903.44
860.248	11879.49
860.57	11874.07
860.891	11855.54
861.212	11783.67
861.534	11766.05
861.855	11745.48
862.176	11823.45
862.498	11674.52
862.819	11688.08
863.14	11656.67
863.461	11628.2
863.782	11601.76
864.103	11601.08
864.424	11629.78
864.745	11625.71
865.065	11504.58
865.386	11443.57
865.707	11511.14
866.027	11384.14
866.348	11456.68
866.668	11421.42
866.989	11426.39
867.309	11354.08
867.63	11387.98
867.95	11346.85
868.27	11259.62
868.59	11292.61
868.91	11286.51
869.23	11278.6
869.55	11200.19
869.87	11299.39
870.19	11189.11
870.51	11166.29
870.83	11202.22
871.15	11136.23
871.469	11103.47
871.789	11153.86
872.109	11156.35
872.428	11010.59
872.748	11046.52
873.067	11017.14
873.386	11033.18
873.706	10990.47
874.025	10963.36
874.344	10948.21
874.663	10947.31
874.982	10943.7
875.301	10948.21
875.62	10938.72
875.939	10945.73
876.258	10882.68
876.577	10832.74
876.896	10852.62
877.214	10775.56
877.533	10811.72
877.852	10788.67
878.17	10853.3
878.489	10761.55
878.807	10715
879.125	10642.46
879.444	10715.23
879.762	10623.03
880.08	10653.08
880.398	10612.86
880.716	10648.56
881.034	10569.02
881.352	10592.52
881.67	10524.95
881.988	10562.46
882.306	10459.64
882.624	10534.67
882.941	10402.01
883.259	10414.9
883.577	10311.62
883.894	10326.76
884.212	10384.16
884.529	10391.62
884.846	10328.8
885.164	10304.62
885.481	10330.83
885.798	10303.71
886.115	10165.64
886.432	10222.58
886.75	10152.08
887.067	10147.56
887.383	10119.54
887.7	10099.65
888.017	10088.58
888.334	10114.34
888.651	10043.61
888.967	10034.11
889.284	9943.95
889.6	9894.46
889.917	9847.68
890.233	9911.86
890.55	9838.41
890.866	9851.07
891.182	9789.38
891.498	9711.19
891.815	9755.25
892.131	9692.2
892.447	9694.69
892.763	9642.26
893.079	9609.27
893.395	9591.64
893.71	9583.05
894.026	9568.82
894.342	9474.36
894.657	9420.57
894.973	9511.19
895.289	9451.53
895.604	9385.77
895.92	9299.22
896.235	9358.2
896.55	9302.61
896.865	9266.23
897.181	9240.69
897.496	9266
897.811	9192.1
898.126	9195.04
898.441	9099
898.756	9105.55
899.071	8986.68
899.386	9069.17
899.7	8996.63
900.015	8902.39
900.33	8832.11
900.644	8871.89
900.959	8815.62
901.273	8881.15
901.588	8765
901.902	8797.99
902.216	8722.96
902.531	8637.77
902.845	8696.52
903.159	8600.48
903.473	8573.14
903.787	8549.18
904.101	8543.76
904.415	8607.49
904.729	8513.02
905.042	8395.97
905.356	8389.41
905.67	8435.06
905.984	8364.78
906.297	8357.1
906.611	8258.57
906.924	8248.85
907.237	8253.82
907.551	8196.2
907.864	8193.03
908.177	8160.27
908.491	8165.69
908.804	8095.86
909.117	8078.69
909.43	7966.37
909.743	7983.55
910.056	7972.47
910.368	7939.48
910.681	7882.53
910.994	7862.87
911.307	7822.87
911.619	7770.9
911.932	7750.56
912.244	7692.93
912.557	7678.02
912.869	7618.13
913.181	7601.64
913.494	7585.82
913.806	7532.49
914.118	7483.67
914.43	7516.89
914.742	7475.54
915.054	7397.12
915.366	7385.6
915.678	7376.33
915.99	7331.36
916.302	7322.55
916.613	7301.53
916.925	7239.39
917.236	7271.25
917.548	7145.6
917.859	7255.43
918.171	7126.85
918.482	7087.98
918.794	7104.93
919.105	7064.7
919.416	7051.59
919.727	7017.47
920.038	6967.3
920.349	6962.33
920.66	6883.92
920.971	6883.69
921.282	6860.86
921.593	6856.12
921.903	6762.34
922.214	6748.33
922.525	6812.05
922.835	6701.77
923.146	6647.09
923.456	6661.1
923.767	6586.07
924.077	6619.52
924.387	6508.11
924.697	6522.34
925.008	6468.56
925.318	6426.98
925.628	6479.18
925.938	6446.41
926.248	6397.6
926.558	6389.92
926.867	6346.53
927.177	6245.29
927.487	6275.12
927.796	6228.79
928.106	6229.02
928.416	6209.13
928.725	6201
929.034	6131.17
929.344	6091.17
929.653	6085.52
929.962	6052.07
930.271	6048
930.581	6019.08
930.89	5950.83
931.199	5930.27
931.508	5959.87
931.817	5902.02
932.125	5899.53
932.434	5871.51
932.743	5812.98
933.051	5817.95
933.36	5794.68
933.669	5714
933.977	5749.71
934.286	5759.65
934.594	5711.52
934.902	5647.11
935.21	5647.11
935.519	5642.82
935.827	5636.94
936.135	5570.73
936.443	5517.17
936.751	5527.34
937.059	5471.52
937.367	5510.62
937.674	5455.03
937.982	5432.2
938.29	5408.93
938.597	5444.18
938.905	5375.48
939.213	5312.43
939.52	5314.01
939.827	5291.64
940.135	5262.94
940.442	5285.54
940.749	5201.47
941.056	5209.38
941.363	5128.93
941.67	5156.28
941.977	5089.84
942.284	5102.49
942.591	5081.93
942.898	5066.79
943.205	5074.47
943.511	5001.48
943.818	5014.59
944.125	4936.4
944.431	4952.44
944.738	4900.46
945.044	4944.31
945.35	4911.76
945.657	4902.05
945.963	4830.18
946.269	4834.03
946.575	4833.35
946.881	4790.86
947.187	4801.48
947.493	4738.43
947.799	4722.16
948.105	4694.59
948.41	4636.06
948.716	4681.49
949.022	4632.22
949.327	4650.3
949.633	4612.56
949.938	4583.64
950.244	4599.46
950.549	4517.88
950.854	4531.89
951.16	4533.24
951.465	4462.28
951.77	4421.61
952.075	4461.15
952.38	4426.13
952.685	4417.54
952.99	4410.53
953.294	4366.24
953.599	4368.05
953.904	4314.72
954.209	4301.61
954.513	4301.61
954.818	4277.88
955.122	4243.08
955.426	4227.49
955.731	4221.16
956.035	4197.43
956.339	4173.48
956.643	4212.35
956.948	4124.21
957.252	4130.09
957.556	4117.89
957.86	4102.97
958.163	4023.65
958.467	4072.92
958.771	4055.06
959.075	4057.55
959.378	3972.13
959.682	4014.61
959.985	3947.95
960.289	3943.43
960.592	3957.21
960.896	3906.14
961.199	3971.68
961.502	3894.62
961.805	3902.3
962.108	3873.6
962.411	3862.07
962.714	3807.61
963.017	3786.14
963.32	3800.15
963.623	3763.77
963.926	3760.16
964.228	3725.81
964.531	3724.9
964.833	3705.24
965.136	3717.44
965.438	3684.68
965.741	3672.93
966.043	3680.16
966.345	3610.33
966.648	3572.36
966.95	3632.48
967.252	3569.43
967.554	3543.44
967.856	3549.31
968.158	3533.95
968.46	3517.68
968.761	3511.12
969.063	3461.41
969.365	3481.07
969.666	3426.83
969.968	3431.58
970.269	3458.69
970.571	3444.91
970.872	3368.53
971.174	3338.92
971.475	3364.91
971.776	3361.75
972.077	3373.27
972.378	3314.74
972.679	3312.03
972.98	3282.2
973.281	3303.44
973.582	3277.68
973.883	3300.73
974.183	3229.55
974.484	3207.4
974.785	3204.01
975.085	3194.75
975.386	3206.27
975.686	3166.5
975.986	3187.97
976.287	3175.54
976.587	3115.2
976.887	3103.22
977.187	3117.91
977.487	3081.98
977.787	3057.8
978.087	3075.43
978.387	3026.62
978.687	3019.84
978.987	3008.54
979.286	2999.5
979.586	2992.49
979.885	2979.16
980.185	2974.19
980.484	2918.14
980.784	2959.5
981.083	2949.56
981.382	2955.66
981.682	2897.81
981.981	2880.4
982.28	2895.55
982.579	2858.03
982.878	2859.39
983.177	2824.81
983.475	2850.57
983.774	2856.9
984.073	2825.26
984.372	2790.01
984.67	2749.56
984.969	2766.06
985.267	2787.07
985.566	2749.11
985.864	2753.63
986.162	2743.01
986.461	2707.53
986.759	2688.55
987.057	2632.28
987.355	2677.02
987.653	2649
987.951	2634.76
988.249	2634.99
988.547	2615.78
988.844	2590.92
989.142	2585.05
989.44	2585.27
989.737	2569
990.035	2581.2
990.332	2511.6
990.63	2526.74
990.927	2493.3
991.224	2512.5
991.521	2500.98
991.819	2499.4
992.116	2495.56
992.413	2460.53
992.71	2437.93
993.006	2428.66
993.303	2439.96
993.6	2438.61
993.897	2412.62
994.193	2399.97
994.49	2391.83
994.787	2397.48
995.083	2391.38
995.379	2339.63
995.676	2334.88
995.972	2358.84
996.268	2311.83
996.565	2289.23
996.861	2279.06
997.157	2310.48
997.453	2286.52
997.749	2280.42
998.044	2204.94
998.34	2267.99
998.636	2229.12
998.932	2215.11
999.227	2186.86
999.523	2206.3
999.818	2187.09
1000.114	2161.33
1000.409	2168.11
1000.704	2163.14
1001	2136.47
1001.295	2105.74
1001.59	2133.53
1001.885	2098.96
1002.18	2060.99
1002.475	2079.75
1002.77	2070.03
1003.065	2047.21
1003.359	2045.62
1003.654	2043.59
1003.949	2053.08
1004.243	2020.99
1004.538	1977.38
1004.832	1976.7
1005.127	2004.04
1005.421	1943.48
1005.715	1965.17
1006.009	1964.27
1006.304	1940.09
1006.598	1914.55
1006.892	1943.03
1007.186	1895.8
1007.48	1896.25
1007.773	1899.87
1008.067	1884.27
1008.361	1836.14
1008.655	1863.26
1008.948	1847.89
1009.242	1844.73
1009.535	1831.39
1009.829	1822.81
1010.122	1790.72
1010.415	1803.6
1010.708	1778.51
1011.001	1767.21
1011.295	1770.15
1011.588	1753.65
1011.881	1762.02
1012.173	1720.66
1012.466	1716.82
1012.759	1680.44
1013.052	1665.3
1013.344	1711.85
1013.637	1713.2
1013.93	1690.83
1014.222	1673.2
1014.514	1642.02
1014.807	1663.49
1015.099	1649.02
1015.391	1654.22
1015.683	1629.14
1015.976	1618.06
1016.268	1611.29
1016.56	1579.65
1016.851	1602.25
1017.143	1570.38
1017.435	1581.23
1017.727	1545.07
1018.018	1533.77
1018.31	1550.72
1018.602	1522.25
1018.893	1500.55
1019.185	1478.41
1019.476	1503.27
1019.767	1479.54
1020.058	1440.44
1020.35	1444.96
1020.641	1455.81
1020.932	1427.79
1021.223	1429.14
1021.514	1423.27
1021.804	1415.36
1022.095	1399.09
1022.386	1408.8
1022.677	1406.77
1022.967	1393.44
1023.258	1399.09
1023.548	1350.05
1023.839	1390.73
1024.129	1354.12
1024.419	1339.43
1024.709	1303.95
1025	1294.91
1025.29	1300.33
1025.58	1309.6
1025.87	1314.12
1026.16	1266.89
1026.449	1293.78
1026.739	1265.76
1027.029	1264.18
1027.319	1259.88
1027.608	1270.28
1027.898	1224.63
1028.187	1242.03
1028.477	1208.58
1028.766	1233.67
1029.055	1210.17
1029.344	1212.65
1029.634	1208.58
1029.923	1182.37
1030.212	1196.61
1030.501	1181.92
1030.79	1165.65
1031.078	1135.14
1031.367	1131.52
1031.656	1144.86
1031.945	1138.08
1032.233	1115.48
1032.522	1130.62
1032.81	1134.24
1033.099	1091.3
1033.387	1100.79
1033.675	1073.67
1033.963	1076.84
1034.251	1066.21
1034.54	1079.77
1034.828	1064.41
1035.116	1071.86
1035.403	1056.27
1035.691	1027.12
1035.979	1033.67
1036.267	1024.18
1036.554	1006.1
1036.842	1003.62
1037.129	1023.05
1037.417	993.22
1037.704	986.67
1037.992	972.43
1038.279	983.05
1038.566	1008.82
1038.853	1008.82
1039.14	1008.82
