Data from hue_32_FLMS001491_00044.txt Node
Date: Tue Feb 07 17:23:26 GMT 2017
User: dcchb
Spectrometer: FLMS00149
Trigger mode: 0
Integration Time (sec): 2.000000E-2
Scans to average: 10
Electric dark correction enabled: true
Nonlinearity correction enabled: false
Boxcar width: 0
XAxis mode: Wavelengths
Number of Pixels in Spectrum: 2048
>>>>>Begin Spectral Data<<<<<
341.393	-35.21
341.776	-35.21
342.16	-35.21
342.543	-62.33
342.927	-64.59
343.31	-68.43
343.693	-77.02
344.077	-49.45
344.46	-58.49
344.843	-53.52
345.226	-39.96
345.61	-18.49
345.993	-32.27
346.376	-22.78
346.759	-1.54
347.142	32.36
347.525	38.23
347.908	68.52
348.291	77.1
348.674	107.38
349.057	98.34
349.44	133.82
349.823	145.58
350.206	169.53
350.588	215.4
350.971	214.5
351.354	217.44
351.737	259.24
352.119	252.24
352.502	287.04
352.884	263.31
353.267	275.06
353.65	296.31
354.032	281.62
354.414	299.47
354.797	313.03
355.179	320.49
355.562	305.8
355.944	334.27
356.326	324.33
356.709	345.12
357.091	349.19
357.473	332.01
357.855	348.96
358.238	343.08
358.62	336.76
359.002	347.6
359.384	339.92
359.766	356.42
360.148	341.95
360.53	338.56
360.912	341.95
361.294	350.09
361.676	336.76
362.057	355.29
362.439	332.24
362.821	354.61
363.203	355.06
363.584	314.38
363.966	336.98
364.348	330.2
364.729	323.65
365.111	340.15
365.493	324.78
365.874	332.91
366.256	325.46
366.637	331.33
367.019	314.16
367.4	324.33
367.781	333.82
368.163	327.27
368.544	301.5
368.925	325.23
369.306	312.58
369.688	341.05
370.069	306.25
370.45	323.2
370.831	339.92
371.212	336.3
371.593	334.04
371.974	306.02
372.355	326.14
372.736	299.92
373.117	328.62
373.498	322.97
373.879	312.12
374.26	332.69
374.641	323.65
375.021	308.73
375.402	317.32
375.783	326.81
376.163	317.32
376.544	328.85
376.925	334.95
377.305	342.41
377.686	329.53
378.066	343.08
378.447	345.12
378.827	371.56
379.208	343.08
379.588	316.42
379.968	343.31
380.349	331.56
380.729	355.74
381.109	337.21
381.489	365
381.87	354.16
382.25	326.14
382.63	349.19
383.01	347.6
383.39	375.17
383.77	374.5
384.15	360.03
384.53	361.84
384.91	344.44
385.29	364.1
385.67	369.3
386.049	355.29
386.429	355.51
386.809	351.45
387.189	346.47
387.568	381.73
387.948	375.63
388.328	360.71
388.707	374.27
389.087	358.68
389.466	373.37
389.846	346.93
390.225	381.95
390.605	375.17
390.984	355.97
391.363	365.68
391.743	388.28
392.122	370.88
392.501	367.04
392.881	382.86
393.26	367.94
393.639	382.18
394.018	381.05
394.397	398.45
394.776	373.59
395.155	404.1
395.534	399.13
395.913	376.3
396.292	415.4
396.671	390.09
397.05	376.98
397.429	412.69
397.808	377.66
398.186	393.25
398.565	405.46
398.944	404.78
399.323	411.56
399.701	417.43
400.08	398.9
400.458	413.82
400.837	417.88
401.215	400.71
401.594	434.83
401.972	408.62
402.351	408.39
402.729	434.83
403.107	434.16
403.486	435.96
403.864	394.61
404.242	436.87
404.62	429.64
404.999	434.16
405.377	440.71
405.755	423.31
406.133	447.49
406.511	448.17
406.889	455.85
407.267	436.87
407.645	454.27
408.023	461.5
408.401	466.24
408.779	451.78
409.156	456.75
409.534	454.49
409.912	449.3
410.29	478.67
410.667	471.67
411.045	466.7
411.422	461.5
411.8	476.19
412.178	489.3
412.555	509.63
412.933	487.49
413.31	466.92
413.687	475.96
414.065	506.02
414.442	492.23
414.819	508.05
415.197	510.99
415.574	511.67
415.951	508.05
416.328	503.08
416.705	498.33
417.082	492.23
417.46	518.45
417.837	545.79
418.214	510.76
418.591	501.27
418.967	523.19
419.344	562.29
419.721	559.35
420.098	544.89
420.475	541.27
420.852	554.15
421.228	551.67
421.605	582.17
421.982	565.9
422.358	561.61
422.735	569.74
423.111	563.42
423.488	559.35
423.864	567.03
424.241	582.4
424.617	567.71
424.994	589.86
425.37	572.46
425.746	572.91
426.123	601.83
426.499	581.5
426.875	589.18
427.251	625.79
427.627	626.24
428.003	619.69
428.379	600.48
428.756	622.4
429.132	623.3
429.507	630.76
429.883	652.23
430.259	642.06
430.635	636.18
431.011	656.75
431.387	664.43
431.763	671.44
432.138	669.63
432.514	674.6
432.89	663.08
433.265	700.14
433.641	704.88
434.016	690.19
434.392	706.46
434.767	715.73
435.143	725.22
435.518	699.01
435.894	725.67
436.269	739.01
436.644	732.45
437.02	751.21
437.395	766.35
437.77	734.26
438.145	757.31
438.52	750.76
438.895	760.93
439.271	785.33
439.646	777.88
440.021	824.65
440.395	797.31
440.77	790.98
441.145	787.37
441.52	799.12
441.895	792.56
442.27	811.09
442.645	825.56
443.019	825.11
443.394	823.52
443.769	826.69
444.143	831.43
444.518	848.83
444.892	849.51
445.267	837.99
445.641	875.95
446.016	838.21
446.39	868.72
446.764	882.73
447.139	880.25
447.513	878.89
447.887	884.76
448.262	851.32
448.636	897.65
449.01	896.52
449.384	894.93
449.758	915.5
450.132	910.75
450.506	903.52
450.88	901.26
451.254	926.8
451.628	941.94
452.002	967.25
452.376	935.39
452.75	979.68
453.123	985.78
453.497	983.97
453.871	973.35
454.244	962.95
454.618	1014.93
454.992	1014.93
455.365	1025.78
455.739	1021.94
456.112	1041.37
456.486	1069.17
456.859	1054.93
457.232	1037.98
457.606	1094.25
457.979	1065.78
458.352	1120.46
458.725	1080.47
459.099	1119.11
459.472	1119.11
459.845	1131.99
460.218	1142.39
460.591	1152.33
460.964	1171.54
461.337	1193.01
461.71	1196.4
462.083	1223.29
462.456	1222.16
462.829	1243.85
463.201	1260.35
463.574	1285.66
463.947	1269.61
464.32	1262.83
464.692	1308.26
465.065	1331.76
465.438	1300.35
465.81	1343.28
466.183	1374.24
466.555	1412.89
466.928	1409.72
467.3	1422.15
467.672	1447.01
468.045	1489.95
468.417	1466.67
468.789	1477.07
469.161	1528.59
469.534	1547.8
469.906	1567.91
470.278	1568.36
470.65	1618.08
471.022	1634.12
471.394	1645.42
471.766	1697.62
472.138	1695.14
472.51	1765.87
472.882	1780.11
473.253	1817.85
473.625	1854.68
473.997	1900.11
474.369	1898.07
474.74	1963.61
475.112	1981.69
475.484	1989.37
475.855	2098.52
476.227	2109.37
476.598	2138.29
476.97	2171.74
477.341	2251.73
477.713	2274.33
478.084	2300.77
478.455	2378.96
478.827	2408.11
479.198	2512.07
479.569	2517.49
479.94	2595.91
480.311	2633.87
480.682	2708.22
481.053	2784.15
481.424	2832.51
481.795	2907.08
482.166	2993.41
482.537	3021.43
482.908	3114.76
483.279	3198.15
483.65	3266.17
484.021	3327.86
484.391	3397.02
484.762	3449.44
485.133	3548.65
485.503	3587.97
485.874	3716.78
486.244	3798.36
486.615	3861.64
486.985	3931.01
487.356	4026.6
487.726	4081.29
488.097	4235.41
488.467	4247.16
488.837	4423.65
489.207	4489.87
489.578	4544.1
489.948	4632.91
490.318	4734.16
490.688	4780.71
491.058	4888.95
491.428	5010.31
491.798	5113.58
492.168	5237.87
492.538	5294.59
492.908	5342.27
493.278	5439
493.648	5547.92
494.017	5634.7
494.387	5736.39
494.757	5800.57
495.126	5839.21
495.496	5965.76
495.866	5943.16
496.235	6125.53
496.605	6164.17
496.974	6298.18
497.344	6328.69
497.713	6427.67
498.082	6547.44
498.452	6600.55
498.821	6615.01
499.19	6690.04
499.559	6805.97
499.928	6865.4
500.298	6954.66
500.667	7024.26
501.036	7016.58
501.405	7138.61
501.774	7168.67
502.143	7266.52
502.512	7255.22
502.88	7372.28
503.249	7409.11
503.618	7502.67
503.987	7577.24
504.356	7582.22
504.724	7712.61
505.093	7735.88
505.462	7721.42
505.83	7815.2
506.199	7966.39
506.567	8012.94
506.936	8036.89
507.304	8218.58
507.672	8165.7
508.041	8344.91
508.409	8276.89
508.777	8424.45
509.145	8434.17
509.514	8517.56
509.882	8490.67
510.25	8594.39
510.618	8593.94
510.986	8729.76
511.354	8751.45
511.722	8835.52
512.09	8981.95
512.458	8875.97
512.826	9025.34
513.193	9055.4
513.561	9031.44
513.929	9143.53
514.297	9247.93
514.664	9280.48
515.032	9321.83
515.4	9339.68
515.767	9453.58
516.135	9488.61
516.502	9409.29
516.869	9650.41
517.237	9651.77
517.604	9595.27
517.972	9726.34
518.339	9764.31
518.706	9754.14
519.073	9897.86
519.44	9923.85
519.808	9924.3
520.175	9974.7
520.542	10084.3
520.909	10198.87
521.276	10134.92
521.643	10313.67
522.009	10328.36
522.376	10371.07
522.743	10461.46
523.11	10540.78
523.477	10616.94
523.843	10664.85
524.21	10755.69
524.577	10815.8
524.943	10840.44
525.31	10929.25
525.676	10979.64
526.043	11044.95
526.409	11046.76
526.776	11124.27
527.142	11150.94
527.508	11334.66
527.874	11338.95
528.241	11404.26
528.607	11445.39
528.973	11523.81
529.339	11560.42
529.705	11629.12
530.071	11817.13
530.437	11757.02
530.803	11878.37
531.169	11934.87
531.535	11970.12
531.901	11921.76
532.267	12019.61
532.632	12121.08
532.998	12112.27
533.364	12283.34
533.73	12262.32
534.095	12388.87
534.461	12402.65
534.826	12589.32
535.192	12557
535.557	12547.74
535.923	12554.06
536.288	12658.24
536.653	12742.98
537.019	12675.64
537.384	12789.31
537.749	12806.03
538.114	12907.5
538.479	12883.55
538.845	13021.62
539.21	13021.62
539.575	13095.29
539.94	13113.6
540.305	13283.31
540.67	13215.74
541.034	13265.23
541.399	13325.34
541.764	13385
542.129	13456.64
542.494	13447.6
542.858	13539.57
543.223	13550.19
543.587	13695.28
543.952	13653.69
544.316	13789.74
544.681	13792.9
545.045	13738.66
545.41	13880.13
545.774	13940.92
546.138	14017.98
546.503	14014.59
546.867	14056.85
547.231	14150.18
547.595	14225.66
547.959	14239.22
548.324	14262.94
548.688	14280.8
549.052	14395.14
549.416	14438.76
549.779	14443.05
550.143	14454.8
550.507	14612.99
550.871	14569.38
551.235	14624.06
551.599	14795.36
551.962	14732.31
552.326	14758.3
552.689	14868.58
553.053	14735.7
553.417	14947.67
553.78	15149.02
554.143	15080.1
554.507	15092.07
554.87	15123.26
555.234	15313.54
555.597	15302.46
555.96	15265.18
556.323	15379.98
556.686	15349.47
557.05	15449.81
557.413	15465.17
557.776	15525.74
558.139	15597.15
558.502	15638.95
558.865	15658.39
559.228	15836.91
559.59	15726.63
559.953	15867.2
560.316	15958.72
560.679	16016.12
561.041	16044.37
561.404	16145.83
561.767	16234.64
562.129	16247.98
562.492	16382.89
562.854	16345.15
563.217	16375.66
563.579	16421.31
563.941	16599.61
564.304	16587.85
564.666	16682.77
565.028	16644.12
565.39	16664.91
565.753	16839.6
566.115	16782.2
566.477	17035.07
566.839	16937.9
567.201	17128.63
567.563	17156.88
567.925	17223.77
568.287	17233.94
568.648	17309.87
569.01	17529.75
569.372	17562.29
569.734	17543.08
570.095	17616.3
570.457	17605
570.819	17802.06
571.18	17749.63
571.542	17949.63
571.903	18011.09
572.265	18097.19
572.626	18092.67
572.987	18150.07
573.349	18221.03
573.71	18396.17
574.071	18428.03
574.432	18470.74
574.794	18728.59
575.155	18748.02
575.516	18870.51
575.877	18883.61
576.238	19035.25
576.599	19127.22
576.96	19211.51
577.32	19338.74
577.681	19433.43
578.042	19662.35
578.403	19631.62
578.763	19782.35
579.124	19913.42
579.485	20066.86
579.845	20291.03
580.206	20404.25
580.566	20512.95
580.927	20621.87
581.287	20934.41
581.648	21012.37
582.008	21251.24
582.368	21503.21
582.728	21662.75
583.089	21780.94
583.449	21924.89
583.809	22147.48
584.169	22391.32
584.529	22604.87
584.889	23065.2
585.249	23157.85
585.609	23204.4
585.969	23517.62
586.329	23680.55
586.688	24000.09
587.048	24201.89
587.408	24443.02
587.768	24611.37
588.127	24822.67
588.487	24901.76
588.846	25411.13
589.206	25377.23
589.565	25835.07
589.925	26129.07
590.284	26289.07
590.643	26542.4
591.003	26861.93
591.362	27228.93
591.721	27475.48
592.08	27602.93
592.44	27997.05
592.799	28223.03
593.158	28411.72
593.517	28737.82
593.876	28966.29
594.235	29220.52
594.593	29426.61
594.952	29802.42
595.311	29932.14
595.67	30283.09
596.029	30624.77
596.387	30874.03
596.746	31288.26
597.104	31374.81
597.463	31577.74
597.822	32056.15
598.18	32109.03
598.538	32397.61
598.897	32786.52
599.255	32792.4
599.613	33424.25
599.972	33361.43
600.33	33812.49
600.688	33796.44
601.046	34204.79
601.404	34526.37
601.762	34601.17
602.12	35003.42
602.478	35147.37
602.836	35342.16
603.194	35459.45
603.552	35721.81
603.91	35753.23
604.268	36054.91
604.625	36264.17
604.983	36530.16
605.341	36557.5
605.698	36894.67
606.056	37316.58
606.413	37182.12
606.771	37473.18
607.128	37737.13
607.485	37823.23
607.843	37942.77
608.2	38388.41
608.557	38503.89
608.914	38509.54
609.272	38728.52
609.629	39003.76
609.986	39220.93
610.343	39178
610.7	39680.35
611.057	39692.78
611.414	39893.91
611.771	39976.39
612.127	40155.37
612.484	40284.86
612.841	40522.59
613.198	40504.06
613.554	40664.06
613.911	40938.4
614.267	41084.84
614.624	41115.57
614.98	41152.41
615.337	41580.87
615.693	41628.55
616.05	41718.95
616.406	41928.66
616.762	41902.44
617.118	42073.96
617.475	42045.72
617.831	42292.94
618.187	42457.68
618.543	42534.74
618.899	42769.77
619.255	42763.89
619.611	42847.05
619.967	43054.73
620.323	43071.68
620.678	43028.06
621.034	43103.09
621.39	43086.59
621.746	43188.74
622.101	43796.63
622.457	43504.21
622.812	43607.94
623.168	43762.06
623.523	43862.17
623.879	44026
624.234	43570.42
624.589	43967.47
624.945	43970.41
625.3	44124.76
625.655	44138.32
626.01	44099.45
626.365	44352.55
626.72	44174.93
627.075	44323.4
627.43	44226.9
627.785	44227.13
628.14	44403.62
628.495	44309.39
628.85	44489.49
629.205	44211.08
629.559	44602.71
629.914	44321.59
630.269	44539.21
630.623	44342.83
630.978	44374.47
631.332	44686.1
631.687	44759.32
632.041	44594.35
632.396	44667.12
632.75	44412.66
633.104	44443.17
633.459	44433
633.813	44528.14
634.167	44480
634.521	44479.1
634.875	44667.79
635.229	44454.24
635.583	44331.08
635.937	44554.8
636.291	44543.05
636.645	44520.45
636.999	44358.88
637.352	44543.28
637.706	44308.48
638.06	44479.55
638.413	44433.9
638.767	44263.06
639.121	44404.52
639.474	44239.33
639.828	44170.18
640.181	44404.52
640.534	44258.54
640.888	44163.85
641.241	44059.22
641.594	44160.69
641.947	44328.82
642.301	44056.51
642.654	44156.85
643.007	44191.2
643.36	44151.2
643.713	44032.56
644.066	44332.89
644.419	44063.74
644.771	43718.67
645.124	43467.83
645.477	43320.71
645.83	42891.34
646.182	42871.01
646.535	42716.66
646.888	42955.07
647.24	42619.94
647.593	42969.76
647.945	42778.8
648.298	42722.99
648.65	42584.46
649.002	42508.08
649.355	42667.4
649.707	42641.41
650.059	42814.06
650.411	43304.67
650.763	43343.08
651.115	43697.88
651.467	43528.62
651.819	43609.74
652.171	43576.75
652.523	43348.96
652.875	43619.91
653.227	43240.26
653.578	43445.23
653.93	43506.7
654.282	43222.41
654.633	43158.91
654.985	43349.86
655.337	43426.47
655.688	43354.16
656.039	43459.46
656.391	43169.98
656.742	43185.12
657.094	43261.96
657.445	43369.07
657.796	43260.6
658.147	43245.23
658.498	43058.35
658.849	43310.54
659.2	43163.2
659.551	43054.05
659.902	43106.03
660.253	43084.56
660.604	43206.59
660.955	42960.27
661.306	43187.83
661.656	43015.41
662.007	43067.84
662.358	43002.75
662.708	43136.31
663.059	43017.67
663.409	42780.61
663.76	43077.78
664.11	43020.38
664.461	43231.67
664.811	43198.23
665.161	43056.99
665.511	42920.72
665.862	43031.91
666.212	43106.71
666.562	43125.69
666.912	42986.93
667.262	42834.62
667.612	43005.92
667.962	43005.69
668.312	43034.39
668.662	43082.75
669.011	43018.12
669.361	42933.83
669.711	42917.11
670.06	42866.26
670.41	42670.56
670.76	42583.1
671.109	42921.85
671.459	42774.96
671.808	42833.49
672.157	42762.53
672.507	42492.94
672.856	42586.72
673.205	42703.33
673.554	42743.55
673.904	42591.69
674.253	42838.69
674.602	42600.96
674.951	42079.16
675.3	41933.18
675.649	42584.69
675.998	42490
676.346	42523.9
676.695	42743.33
677.044	42309.89
677.393	42572.03
677.741	42541.07
678.09	42291.81
678.438	42234.64
678.787	42420.4
679.135	42463.33
679.484	42090.46
679.832	42198.25
680.181	42020.41
680.529	42202.1
680.877	42072.83
681.225	41940.63
681.573	42128.88
681.922	41960.07
682.27	41932.95
682.618	41954.87
682.966	41856.12
683.314	41835.1
683.661	41633.98
684.009	41619.96
684.357	41588.33
684.705	41509.46
685.053	41453.42
685.4	41399.18
685.748	41144.95
686.095	40996.93
686.443	41097.49
686.79	41089.13
687.138	41130.03
687.485	41125.29
687.832	40894.11
688.18	40938.85
688.527	40835.13
688.874	40646.66
689.221	40721.91
689.568	40506.55
689.915	40406.44
690.262	40476.04
690.609	40257.74
690.956	40351.07
691.303	40390.62
691.65	39960.57
691.997	40012.78
692.344	39706.12
692.69	39654.14
693.037	39860.24
693.383	39389.29
693.73	39629.51
694.077	39409.63
694.423	39314.26
694.769	39254.15
695.116	39110.43
695.462	39051.22
695.808	38992.69
696.155	39019.81
696.501	38646.26
696.847	38781.17
697.193	38445.36
697.539	38542.31
697.885	38491.01
698.231	38373.27
698.577	38266.15
698.923	38144.8
699.269	37997.24
699.614	37870.69
699.96	37727.41
700.306	37805.83
700.651	37784.36
700.997	37627.75
701.342	37563.35
701.688	37447.42
702.033	37382.34
702.379	37322
702.724	37206.97
703.069	37260.31
703.415	36962.23
703.76	36837.94
704.105	36897.38
704.45	36775.8
704.795	36594.56
705.14	36612.19
705.485	36425.07
705.83	36356.15
706.175	36505.98
706.52	36241.12
706.865	36207.68
707.209	36146.21
707.554	35979.66
707.899	35967.91
708.243	35963.62
708.588	35822.83
708.932	35429.62
709.277	35473.01
709.621	35585.32
709.966	35272.11
710.31	35426.23
710.654	35190.76
710.998	35328.6
711.342	35209.06
711.687	35147.37
712.031	34958.67
712.375	34838.45
712.719	34997.77
713.063	34837.77
713.407	34971.33
713.75	34723.42
714.094	34548.96
714.438	34562.3
714.782	34556.65
715.125	34469.19
715.469	34453.37
715.812	34195.53
716.156	34041.86
716.499	34091.58
716.843	34182.65
717.186	33891.58
717.53	34119.82
717.873	34075.08
718.216	34068.53
718.559	33848.42
718.902	33589.22
719.246	33596.22
719.589	33495.66
719.932	33559.61
720.275	33434.87
720.617	33521.42
720.96	33423.12
721.303	33208.89
721.646	33300.64
721.989	33164.14
722.331	33230.58
722.674	33050.92
723.016	33062.9
723.359	33077.36
723.701	33036.46
724.044	32826.75
724.386	32739.52
724.729	32793.3
725.071	32840.31
725.413	32690.93
725.755	32682.12
726.097	32557.83
726.439	32398.51
726.782	32454.1
727.124	32620.65
727.465	32438.96
727.807	32265.63
728.149	32248.91
728.491	32248.01
728.833	32349.25
729.175	32059.31
729.516	32104.28
729.858	32119.65
730.199	32053.89
730.541	31898.64
730.882	31906.77
731.224	31926.66
731.565	31801.24
731.906	31819.77
732.248	31727.34
732.589	31576.39
732.93	31488.48
733.271	31404.64
733.612	31569.61
733.953	31727.34
734.294	31551.3
734.635	31413.23
734.976	31476.73
735.317	31325.55
735.658	31314.47
735.999	31276.06
736.339	31314.25
736.68	31277.86
737.021	31171.43
737.361	31104.99
737.702	31169.17
738.042	30968.04
738.383	30934.6
738.723	31093.91
739.063	30915.39
739.404	30815.5
739.744	30783.19
740.084	30672.68
740.424	30729.86
740.764	30693.25
741.104	30837.88
741.444	30662.74
741.784	30629.75
742.124	30537.32
742.464	30496.87
742.804	30447.6
743.143	30307.49
743.483	30527.38
743.823	30197.89
744.162	30127.84
744.502	30321.05
744.841	30087.16
745.181	30207.61
745.52	30197.89
745.86	30095.3
746.199	30020.04
746.538	29874.96
746.877	30125.35
747.216	30043.55
747.556	29841.29
747.895	29876.77
748.234	29770.79
748.573	29586.61
748.911	29700.96
749.25	29698.7
749.589	29580.96
749.928	29564.24
750.267	29753.16
750.605	29479.04
750.944	29455.09
751.283	29312.72
751.621	29445.6
751.96	29139.16
752.298	29195.88
752.636	29292.83
752.975	29124.25
753.313	28873.63
753.651	29113.18
753.989	28859.85
754.327	28885.61
754.666	28773.75
755.004	28768.55
755.342	28898.49
755.679	28718.38
756.017	28659.18
756.355	28658.95
756.693	28553.42
757.031	28603.13
757.368	28338.73
757.706	28433.19
758.044	28314.78
758.381	28268.23
758.719	28105.97
759.056	28088.12
759.394	28115.24
759.731	27973.09
760.068	27898.74
760.405	27832.3
760.743	27661.01
761.08	27706.88
761.417	27628.02
761.754	27592.99
762.091	27487.46
762.428	27429.15
762.765	27220.57
763.102	27322.26
763.438	27127.24
763.775	27053.57
764.112	27104.19
764.449	27084.3
764.785	26856.29
765.122	26728.15
765.458	26654.93
765.795	26497.65
766.131	26628.72
766.467	26492.45
766.804	26391.66
767.14	26258.11
767.476	26291.1
767.812	26091.33
768.148	26199.58
768.485	25970.43
768.821	25831.45
769.157	25875.97
769.492	25743.09
769.828	25667.39
770.164	25471.69
770.5	25558.24
770.836	25335.2
771.171	25275.76
771.507	25257.23
771.842	25118.7
772.178	24977.01
772.513	24928.43
772.849	24934.3
773.184	24883.91
773.519	24726.85
773.855	24689.56
774.19	24604.59
774.525	24512.17
774.86	24505.16
775.195	24378.16
775.53	24257.03
775.865	24101.1
776.2	23947.66
776.535	23842.81
776.87	23775.01
777.205	23841.45
777.539	23713.32
777.874	23657.95
778.209	23571.17
778.543	23500.44
778.878	23241.24
779.212	23361.01
779.547	23158.53
779.881	23083.73
780.215	23065.42
780.55	23140
780.884	22992.66
781.218	22812.55
781.552	22827.69
781.886	22677.64
782.22	22596.74
782.554	22506.34
782.888	22278.33
783.222	22240.59
783.556	22042.4
783.889	22048.73
784.223	21915.85
784.557	21934.15
784.89	22009.86
785.224	21794.5
785.557	21713.14
785.891	21669.76
786.224	21580.27
786.558	21628.63
786.891	21334.17
787.224	21299.82
787.557	21261.63
787.891	21169.88
788.224	21262.31
788.557	21215.76
788.89	21110.67
789.223	20921.3
789.556	20742.1
789.888	20844.47
790.221	20792.26
790.554	20633.85
790.887	20626.84
791.219	20571.48
791.552	20421.2
791.884	20397.7
792.217	20313.86
792.549	20139.63
792.882	20086.07
793.214	19907.77
793.546	20071.15
793.879	19870.93
794.211	19755.91
794.543	19822.35
794.875	19774.66
795.207	19804.72
795.539	19569.47
795.871	19599.53
796.203	19389.14
796.535	19388.91
796.867	19430.27
797.198	19283.38
797.53	19249.25
797.862	19187.33
798.193	19178.3
798.525	18987.11
798.856	18994.35
799.188	18814.69
799.519	18896.04
799.85	18633
800.182	18772.43
800.513	18736.72
800.844	18512.55
801.175	18713.9
801.506	18563.4
801.837	18446.56
802.168	18435.49
802.499	18301.71
802.83	18294.7
803.161	18244.08
803.491	18194.37
803.822	18252.22
804.153	18097.65
804.483	17970.87
804.814	17866.92
805.145	17927.25
805.475	17889.29
805.805	17777.88
806.136	17776.07
806.466	17814.72
806.796	17707.15
807.126	17615.85
807.457	17567.04
807.787	17670.09
808.117	17488.85
808.447	17474.39
808.777	17455.4
809.107	17265.8
809.436	17315.07
809.766	17292.92
810.096	17206.14
810.426	17100.61
810.755	17135.86
811.085	17006.37
811.414	17037.56
811.744	16993.95
812.073	16805.02
812.403	16820.17
812.732	16831.24
813.061	16781.75
813.39	16659.04
813.719	16584.69
814.049	16824.46
814.378	16642.32
814.707	16539.95
815.036	16575.2
815.365	16485.71
815.693	16280.07
816.022	16423.34
816.351	16363.45
816.68	16146.06
817.008	16268.99
817.337	16102.9
817.665	16097.7
817.994	16051.15
818.322	16074.42
818.651	16008.66
818.979	15946.52
819.307	16094.99
819.636	15924.37
819.964	15807.31
820.292	15892.05
820.62	15850.02
820.948	15793.53
821.276	15857.25
821.604	15820.42
821.932	15810.02
822.259	15737.48
822.587	15720.76
822.915	15749.91
823.243	15782.45
823.57	15762.79
823.898	15762.34
824.225	15640.76
824.553	15723.92
824.88	15710.14
825.207	15742.68
825.535	15678.95
825.862	15695.67
826.189	15629.46
826.516	15733.87
826.843	15710.82
827.17	15705.62
827.497	15720.08
827.824	15720.31
828.151	15780.87
828.478	15772.51
828.805	15777.25
829.131	15656.58
829.458	15644.15
829.785	15627.2
830.111	15738.16
830.438	15768.67
830.764	15669.46
831.09	15691.83
831.417	15584.27
831.743	15630.59
832.069	15585.62
832.395	15568.45
832.722	15603.7
833.048	15619.29
833.374	15570.71
833.7	15482.12
834.026	15530.03
834.351	15609.58
834.677	15531.39
835.003	15538.39
835.329	15478.05
835.654	15425.85
835.98	15384.72
836.306	15452.97
836.631	15323.26
836.956	15361.22
837.282	15328.45
837.607	15370.49
837.932	15264.73
838.258	15246.65
838.583	15243.26
838.908	15084.17
839.233	15229.7
839.558	15134.79
839.883	15055.01
840.208	15032.42
840.533	15056.14
840.858	15038.97
841.182	15069.48
841.507	15039.87
841.832	14947.22
842.156	14909.03
842.481	14976.15
842.805	14917.62
843.13	14885.75
843.454	14837.62
843.778	14774.57
844.103	14780.44
844.427	14646.89
844.751	14757.62
845.075	14697.51
845.399	14587.46
845.723	14492.32
846.047	14485.09
846.371	14397.4
846.695	14479.44
847.019	14224.3
847.343	14237.86
847.666	14144.98
847.99	14137.98
848.313	14093.01
848.637	14051.88
848.96	13975.95
849.284	13941.14
849.607	13908.6
849.931	13820.7
850.254	13702.28
850.577	13657.54
850.9	13501.61
851.223	13536.18
851.546	13452.57
851.869	13393.14
852.192	13494.38
852.515	13295.51
852.838	13317.88
853.161	13316.53
853.483	13180.71
853.806	13108.85
854.129	13209.86
854.451	12956.31
854.774	12959.48
855.096	13039.47
855.419	12989.98
855.741	12940.49
856.063	12810.1
856.385	12753.83
856.708	12810.33
857.03	12797.9
857.352	12769.88
857.674	12671.35
857.996	12578.02
858.318	12567.85
858.64	12560.62
858.961	12580.73
859.283	12492.82
859.605	12420.05
859.926	12432.71
860.248	12430.45
860.57	12349.32
860.891	12373.05
861.212	12255.31
861.534	12218.48
861.855	12262.77
862.176	12135.09
862.498	12307.06
862.819	12250.34
863.14	12120.4
863.461	12122.21
863.782	12087.18
864.103	12088.99
864.424	12100.06
864.745	12077.92
865.065	11945.49
865.386	11877.02
865.707	11887.41
866.027	12011.25
866.348	11879.73
866.668	11882.89
866.989	11795.44
867.309	11812.84
867.63	11801.77
867.95	11861.65
868.27	11756.12
868.59	11700.98
868.91	11728.32
869.23	11671.37
869.55	11617.14
869.87	11759.28
870.19	11646.29
870.51	11642.45
870.83	11691.26
871.15	11583.47
871.469	11598.61
871.789	11551.83
872.109	11484.03
872.428	11443.36
872.748	11528.78
873.067	11512.06
873.386	11543.02
873.706	11395.22
874.025	11394.55
874.344	11424.15
874.663	11321.78
874.982	11357.03
875.301	11296.02
875.62	11300.76
875.939	11327.43
876.258	11262.57
876.577	11270.71
876.896	11222.8
877.214	11146.42
877.533	11204.04
877.852	11178.05
878.17	11133.53
878.489	11183.7
878.807	11164.95
879.125	11148.45
879.444	11115.68
879.762	11047.66
880.08	11156.59
880.398	10979.64
880.716	10996.82
881.034	10988
881.352	10948.23
881.67	10933.09
881.988	10902.58
882.306	10910.04
882.624	10814.67
882.941	10794.79
883.259	10836.59
883.577	10778.52
883.894	10781.23
884.212	10761.12
884.529	10745.52
884.846	10720.89
885.164	10721.12
885.481	10677.05
885.798	10647.22
886.115	10589.82
886.432	10602.25
886.75	10553.44
887.067	10508.92
887.383	10402.25
887.7	10442.71
888.017	10461.01
888.334	10451.74
888.651	10409.94
888.967	10357.51
889.284	10334.69
889.6	10364.74
889.917	10290.39
890.233	10285.42
890.55	10251.3
890.866	10189.83
891.182	10109.38
891.498	10192.54
891.815	10111.41
892.131	10013.79
892.447	10078.87
892.763	9939.89
893.079	10010.17
893.395	9992.55
893.71	9964.07
894.026	9869.84
894.342	9869.16
894.657	9817.41
894.973	9809.28
895.289	9813.12
895.604	9814.93
895.92	9760.92
896.235	9605.44
896.55	9603.18
896.865	9636.85
897.181	9555.72
897.496	9581.03
897.811	9554.59
898.126	9476.86
898.441	9477.08
898.756	9501.26
899.071	9321.38
899.386	9366.12
899.7	9369.29
900.015	9301.72
900.33	9178.78
900.644	9253.58
900.959	9199.8
901.273	9135.4
901.588	9116.19
901.902	9060.82
902.216	9060.82
902.531	9052.46
902.845	9000.71
903.159	8895.63
903.473	8895.63
903.787	8810.21
904.101	8838.45
904.415	8812.24
904.729	8824.44
905.042	8704.45
905.356	8694.28
905.67	8703.32
905.984	8674.84
906.297	8634.39
906.611	8621.06
906.924	8597.33
907.237	8569.31
907.551	8537.9
907.864	8504.68
908.177	8452.93
908.491	8405.92
908.804	8408.41
909.117	8341.74
909.43	8302.42
909.743	8284.8
910.056	8320.28
910.368	8257.23
910.681	8145.36
910.994	8172.48
911.307	8111.92
911.619	8076.67
911.932	8073.5
912.244	8064.24
912.557	7972.49
912.869	8005.26
913.181	7834.41
913.494	7946.27
913.806	7859.27
914.118	7838.71
914.43	7743.79
914.742	7784.47
915.054	7729.56
915.366	7646.62
915.678	7656.56
915.99	7597.81
916.302	7602.78
916.613	7552.39
916.925	7523.46
917.236	7531.82
917.548	7492.73
917.859	7459.51
918.171	7379.74
918.482	7355.1
918.794	7333.41
919.105	7284.82
919.416	7301.55
919.727	7282.34
920.038	7185.84
920.349	7243.47
920.66	7149.46
920.971	7166.86
921.282	7074.43
921.593	7046.18
921.903	7029.01
922.214	6976.36
922.525	6977.71
922.835	6920.99
923.146	6887.77
923.456	6902.91
923.767	6862.23
924.077	6880.54
924.387	6749.02
924.697	6722.58
925.008	6705.4
925.318	6725.74
925.628	6684.84
925.938	6658.17
926.248	6639.42
926.558	6603.03
926.867	6554.67
927.177	6516.48
927.487	6493.66
927.796	6479.65
928.106	6451.62
928.416	6399.87
928.725	6354.9
929.034	6354.45
929.344	6359.2
929.653	6375.24
929.962	6327.79
930.271	6230.39
930.581	6218.86
930.89	6165.08
931.199	6094.8
931.508	6165.53
931.817	6156.72
932.125	6123.72
932.434	6078.07
932.743	6046.44
933.051	6003.27
933.36	5988.36
933.669	5945.87
933.977	5925.08
934.286	5957.17
934.594	5927.8
934.902	5884.18
935.21	5888.25
935.519	5842.83
935.827	5780
936.135	5783.17
936.443	5760.12
936.751	5736.61
937.059	5740.23
937.367	5638.54
937.674	5657.52
937.982	5628.59
938.29	5591.99
938.597	5575.49
938.905	5512.44
939.213	5505.43
939.52	5511.54
939.827	5486.9
940.135	5439
940.442	5410.52
940.749	5412.56
941.056	5374.59
941.363	5373.23
941.67	5321.94
941.977	5292.11
942.284	5299.56
942.591	5237.87
942.898	5233.8
943.205	5231.32
943.511	5200.13
943.818	5199.23
944.125	5149.51
944.431	5120.59
944.738	5140.47
945.044	5097.54
945.35	5069.74
945.657	5060.47
945.963	5036.29
946.269	4978.89
946.575	4930.53
946.881	4908.61
947.187	4964.43
947.493	4891.67
947.799	4883.98
948.105	4866.81
948.41	4866.81
948.716	4875.85
949.022	4821.84
949.327	4780.26
949.633	4768.5
949.938	4741.84
950.244	4738.9
950.549	4709.98
950.854	4646.02
951.16	4640.15
951.465	4629.3
951.77	4633.82
952.075	4575.74
952.38	4566.93
952.685	4584.78
952.99	4563.76
953.294	4528.74
953.599	4453.71
953.904	4471.56
954.209	4436.31
954.513	4471.34
954.818	4425.46
955.122	4415.52
955.426	4354.5
955.731	4373.71
956.035	4341.62
956.339	4309.08
956.643	4313.83
956.948	4255.75
957.252	4228.18
957.556	4282.19
957.86	4205.13
958.163	4180.72
958.467	4198.12
958.771	4171.23
959.075	4151.57
959.378	4162.64
959.682	4149.99
959.985	4131.46
960.289	4091.46
960.592	4103.21
960.896	4080.84
961.199	4039.94
961.502	4020.5
961.805	4036.77
962.108	3969.2
962.411	3970.11
962.714	3950.22
963.017	3962.88
963.32	3938.02
963.623	3922.43
963.926	3945.93
964.228	3866.38
964.531	3840.62
964.833	3836.55
965.136	3804.91
965.438	3846.49
965.741	3782.54
966.043	3799.26
966.345	3768.76
966.648	3754.97
966.95	3747.74
967.252	3678.14
967.554	3664.8
967.856	3696.44
968.158	3640.4
968.46	3643.34
968.761	3639.27
969.063	3629.78
969.365	3575.09
969.666	3578.03
969.968	3496.67
970.269	3524.92
970.571	3561.53
970.872	3529.44
971.174	3514.3
971.475	3493.06
971.776	3487.18
972.077	3427.97
972.378	3440.4
972.679	3399.73
972.98	3416.68
973.281	3407.64
973.582	3382.33
973.883	3359.95
974.183	3364.02
974.484	3364.47
974.785	3291.71
975.085	3270.01
975.386	3275.89
975.686	3301.2
975.986	3279.73
976.287	3277.24
976.587	3211.26
976.887	3238.6
977.187	3191.37
977.487	3209.45
977.787	3187.3
978.087	3195.44
978.387	3173.29
978.687	3163.58
978.987	3093.75
979.286	3109.11
979.586	3101.66
979.885	3060.3
980.185	3076.12
980.484	3052.62
980.784	3032.28
981.083	3019.62
981.382	3046.97
981.682	2983.24
981.981	2976.46
982.28	2964.26
982.579	2943.69
982.878	2947.99
983.177	2903.24
983.475	2944.37
983.774	2891.94
984.073	2875.67
984.372	2880.87
984.67	2883.81
984.969	2882
985.267	2829.35
985.566	2800.19
985.864	2846.75
986.162	2823.24
986.461	2788.9
986.759	2746.41
987.057	2727.65
987.355	2726.98
987.653	2729.24
987.951	2701.89
988.249	2711.84
988.547	2695.56
988.844	2700.31
989.142	2687.43
989.44	2657.83
989.737	2628.45
990.035	2603.36
990.332	2647.88
990.63	2621.22
990.927	2619.63
991.224	2576.47
991.521	2592.29
991.819	2559.3
992.116	2532.63
992.413	2540.77
992.71	2524.27
993.006	2508.68
993.303	2539.41
993.6	2460.09
993.897	2478.4
994.193	2512.29
994.49	2463.03
994.787	2426.19
995.083	2433.88
995.379	2455.57
995.676	2431.39
995.972	2412.63
996.268	2389.36
996.565	2435.91
996.861	2396.14
997.157	2374.9
997.453	2367.66
997.749	2365.86
998.044	2309.81
998.34	2334.9
998.636	2296.71
998.932	2269.14
999.227	2257.16
999.523	2241.11
999.818	2261.9
1000.114	2277.27
1000.409	2253.32
1000.704	2243.37
1001	2215.13
1001.295	2173.09
1001.59	2201.11
1001.885	2184.39
1002.18	2162.7
1002.475	2153.43
1002.77	2109.82
1003.065	2125.86
1003.359	2107.56
1003.654	2084.28
1003.949	2090.16
1004.243	2109.14
1004.538	2070.72
1004.832	2069.14
1005.127	2066.65
1005.421	2008.8
1005.715	2043.6
1006.009	2010.16
1006.304	1990.72
1006.598	1999.99
1006.892	1941.01
1007.186	1956.83
1007.48	1970.16
1007.773	1935.36
1008.067	1933.55
1008.361	1925.64
1008.655	1907.56
1008.948	1900.11
1009.242	1872.31
1009.535	1885.64
1009.829	1859.43
1010.122	1849.03
1010.415	1863.27
1010.708	1826.89
1011.001	1818.98
1011.295	1804.29
1011.588	1812.65
1011.881	1791.86
1012.173	1759.09
1012.466	1804.51
1012.759	1779.66
1013.052	1750.96
1013.344	1762.03
1013.637	1734.01
1013.93	1732.2
1014.222	1708.47
1014.514	1726.1
1014.807	1709.38
1015.099	1679.09
1015.391	1684.29
1015.683	1669.38
1015.976	1636.61
1016.268	1653.56
1016.56	1643.84
1016.851	1641.58
1017.143	1586.22
1017.435	1597.74
1017.727	1584.18
1018.018	1567.91
1018.31	1590.28
1018.602	1585.76
1018.893	1543.73
1019.185	1568.59
1019.476	1542.83
1019.767	1536.95
1020.058	1522.49
1020.35	1500.12
1020.641	1487.91
1020.932	1484.3
1021.223	1487.46
1021.514	1477.74
1021.804	1417.86
1022.095	1451.3
1022.386	1403.17
1022.677	1421.7
1022.967	1398.42
1023.258	1400.91
1023.548	1401.36
1023.839	1359.33
1024.129	1383.28
1024.419	1348.71
1024.709	1361.36
1025	1365.88
1025.29	1351.87
1025.58	1329.95
1025.87	1330.4
1026.16	1315.94
1026.449	1292.44
1026.739	1298.99
1027.029	1313
1027.319	1284.98
1027.608	1268.94
1027.898	1263.74
1028.187	1263.51
1028.477	1248.15
1028.766	1240.01
1029.055	1243.4
1029.344	1235.49
1029.634	1206.11
1029.923	1193.01
1030.212	1197.75
1030.501	1206.11
1030.79	1193.23
1031.078	1187.36
1031.367	1172.44
1031.656	1141.48
1031.945	1195.04
1032.233	1150.75
1032.522	1133.12
1032.81	1136.96
1033.099	1128.15
1033.387	1109.17
1033.675	1115.04
1033.963	1091.54
1034.251	1097.19
1034.54	1063.07
1034.828	1099.9
1035.116	1062.16
1035.403	1085.21
1035.691	1063.29
1035.979	1050.64
1036.267	1047.25
1036.554	1030.52
1036.842	1050.18
1037.129	1017.87
1037.417	1006.8
1037.704	1000.69
1037.992	995.27
1038.279	1010.41
1038.566	992.33
1038.853	992.33
1039.14	992.33
