Data from hue_130_FLMS001491_00082.txt Node
Date: Tue Feb 07 16:58:12 GMT 2017
User: dcchb
Spectrometer: FLMS00149
Trigger mode: 0
Integration Time (sec): 2.000000E-2
Scans to average: 10
Electric dark correction enabled: true
Nonlinearity correction enabled: false
Boxcar width: 0
XAxis mode: Wavelengths
Number of Pixels in Spectrum: 2048
>>>>>Begin Spectral Data<<<<<
341.393	-30.52
341.776	-30.52
342.16	-30.52
342.543	-67.58
342.927	-68.71
343.31	-76.62
343.693	-59.22
344.077	-55.15
344.46	-42.72
344.843	-56.51
345.226	-47.47
345.61	-27.13
345.993	-28.94
346.376	1.34
346.759	1.34
347.142	17.16
347.525	42.92
347.908	52.64
348.291	68.01
348.674	94.9
349.057	115.46
349.44	140.55
349.823	138.51
350.206	151.85
350.588	172.64
350.971	181.68
351.354	227.78
351.737	237.27
352.119	249.7
352.502	266.65
352.884	275.68
353.267	278.4
353.65	288.34
354.032	286.76
354.414	311.84
354.797	332.18
355.179	319.98
355.562	329.92
355.944	327.21
356.326	340.99
356.709	329.69
357.091	317.72
357.473	327.21
357.855	333.76
358.238	355.46
358.62	356.36
359.002	326.3
359.384	326.98
359.766	334.89
360.148	343.03
360.53	335.57
360.912	321.79
361.294	324.95
361.676	322.01
362.057	312.75
362.439	310.71
362.821	332.18
363.203	348.9
363.584	336.02
363.966	324.95
364.348	309.13
364.729	308.9
365.111	333.31
365.493	310.94
365.874	320.66
366.256	314.1
366.637	319.75
367.019	292.63
367.4	299.41
367.781	328.11
368.163	311.62
368.544	307.32
368.925	317.27
369.306	333.08
369.688	300.99
370.069	298.28
370.45	322.69
370.831	314.33
371.212	321.11
371.593	286.98
371.974	297.83
372.355	324.5
372.736	325.85
373.117	307.77
373.498	308.45
373.879	347.55
374.26	314.1
374.641	321.56
375.021	307.55
375.402	317.72
375.783	316.59
376.163	332.86
376.544	313.65
376.925	323.82
377.305	342.12
377.686	315.23
378.066	311.84
378.447	314.55
378.827	322.69
379.208	331.95
379.588	358.62
379.968	358.85
380.349	314.78
380.729	340.09
381.109	344.38
381.489	338.51
381.87	332.41
382.25	348
382.63	349.81
383.01	346.64
383.39	336.47
383.77	348.45
384.15	342.12
384.53	339.86
384.91	332.63
385.29	352.52
385.67	359.07
386.049	345.51
386.429	338.73
386.809	364.72
387.189	361.78
387.568	359.98
387.948	352.29
388.328	354.78
388.707	350.26
389.087	359.75
389.466	344.38
389.846	359.07
390.225	370.15
390.605	367.89
390.984	366.53
391.363	378.06
391.743	389.81
392.122	389.13
392.501	369.69
392.881	386.19
393.26	374.67
393.639	383.25
394.018	376.7
394.397	388.9
394.776	395.68
395.155	370.37
395.534	386.42
395.913	377.38
396.292	388.45
396.671	380.31
397.05	386.19
397.429	400.65
397.808	385.96
398.186	392.07
398.565	394.1
398.944	374.21
399.323	377.15
399.701	384.83
400.08	401.56
400.458	382.8
400.837	378.51
401.215	394.55
401.594	398.62
401.972	432.06
402.351	400.88
402.729	430.03
403.107	425.06
403.486	414.44
403.864	404.27
404.242	450.37
404.62	414.44
404.999	416.02
405.377	415.57
405.755	422.12
406.133	448.11
406.511	421.67
406.889	448.56
407.267	446.53
407.645	422.57
408.023	444.95
408.401	430.48
408.779	417.38
409.156	443.36
409.534	453.53
409.912	462.8
410.29	444.49
410.667	434.32
411.045	451.73
411.422	451.73
411.8	470.03
412.178	464.61
412.555	492.63
412.933	489.92
413.31	489.46
413.687	503.48
414.065	483.14
414.442	509.35
414.819	518.62
415.197	514.55
415.574	488.79
415.951	518.39
416.328	509.35
416.705	523.14
417.082	510.48
417.46	526.75
417.837	531.05
418.214	531.27
418.591	519.07
418.967	503.7
419.344	528.56
419.721	535.11
420.098	517.03
420.475	535.79
420.852	531.72
421.228	537.37
421.605	545.96
421.982	545.51
422.358	564.49
422.735	558.16
423.111	568.78
423.488	569.24
423.864	579.63
424.241	564.72
424.617	580.99
424.994	581.67
425.37	575.56
425.746	580.08
426.123	582.8
426.499	590.25
426.875	590.25
427.251	595.9
427.627	603.36
428.003	619.4
428.379	641.1
428.756	640.42
429.132	625.28
429.507	635.9
429.883	637.94
430.259	654.66
430.635	674.77
431.011	662.12
431.387	668.67
431.763	670.48
432.138	683.58
432.514	676.58
432.89	670.25
433.265	700.31
433.641	705.05
434.016	710.93
434.392	714.32
434.767	710.25
435.143	714.32
435.518	707.31
435.894	738.05
436.269	739.63
436.644	736.69
437.02	764.71
437.395	751.15
437.77	797.03
438.145	790.25
438.52	778.72
438.895	784.15
439.271	791.6
439.646	786.86
440.021	809.68
440.395	836.8
440.77	815.56
441.145	813.3
441.52	795.45
441.895	825.73
442.27	809.91
442.645	824.82
443.019	827.76
443.394	839.96
443.769	836.35
444.143	834.09
444.518	865.5
444.892	856.01
445.267	879.51
445.641	865.73
446.016	886.06
446.39	891.04
446.764	886.29
447.139	892.39
447.513	909.34
447.887	884.48
448.262	915.89
448.636	922.9
449.01	925.39
449.384	923.35
449.758	952.5
450.132	952.05
450.506	929
450.88	954.54
451.254	978.27
451.628	981.88
452.002	956.57
452.376	991.15
452.75	997.25
453.123	1005.84
453.497	1015.33
453.871	1007.19
454.244	1057.81
454.618	1070.92
454.992	1052.84
455.365	1041.31
455.739	1112.05
456.112	1072.95
456.486	1084.25
456.859	1140.29
457.232	1158.15
457.606	1124.7
457.979	1149.11
458.352	1172.38
458.725	1197.02
459.099	1200.18
459.472	1202.21
459.845	1190.92
460.218	1259.39
460.591	1239.5
460.964	1274.53
461.337	1260.07
461.71	1282.89
462.083	1323.34
462.456	1322.89
462.829	1311.14
463.201	1352.72
463.574	1354.75
463.947	1383.9
464.32	1414.41
464.692	1406.5
465.065	1451.93
465.438	1476.78
465.81	1461.87
466.183	1498.93
466.555	1526.5
466.928	1555.65
467.3	1536.67
467.672	1535.76
468.045	1623.22
468.417	1632.49
468.789	1660.73
469.161	1671.81
469.534	1714.97
469.906	1749.54
470.278	1788.87
470.65	1775.76
471.022	1843.78
471.394	1873.38
471.766	1910.22
472.138	1942.08
472.51	1978.01
472.882	2014.62
473.253	2030.44
473.625	2082.19
473.997	2125.35
474.369	2153.15
474.74	2227.27
475.112	2270.43
475.484	2331
475.855	2372.58
476.227	2411.9
476.598	2485.8
476.97	2522.63
477.341	2583.65
477.713	2662.29
478.084	2737.77
478.455	2861.38
478.827	2850.76
479.198	2982.73
479.569	2991.55
479.94	3115.16
480.311	3144.08
480.682	3310.86
481.053	3402.83
481.424	3487.13
481.795	3547.69
482.166	3695.26
482.537	3741.13
482.908	3858.87
483.279	3949.26
483.65	4079.2
484.021	4197.62
484.391	4276.94
484.762	4316.93
485.133	4419.76
485.503	4618.62
485.874	4740.43
486.244	4837.37
486.615	4934.77
486.985	5072.85
487.356	5246.85
487.726	5383.8
488.097	5476.45
488.467	5552.38
488.837	5805.26
489.207	5873.5
489.578	6031.01
489.948	6159.82
490.318	6291.35
490.688	6381.74
491.058	6533.37
491.428	6707.15
491.798	6836.42
492.168	7034.15
492.538	7117.54
492.908	7223.75
493.278	7387.14
493.648	7464.2
494.017	7693.34
494.387	7812.21
494.757	7902.38
495.126	8093.56
495.496	8136.27
495.866	8289.71
496.235	8409.26
496.605	8590.04
496.974	8706.88
497.344	8849.24
497.713	8935.8
498.082	9076.58
498.452	9240.19
498.821	9263.92
499.19	9372.17
499.559	9461.88
499.928	9665.27
500.298	9696.91
500.667	9844.25
501.036	9874.98
501.405	10014.19
501.774	10046.73
502.143	10129.89
502.512	10275.2
502.88	10386.38
503.249	10429.77
503.618	10599.03
503.987	10583.66
504.356	10736.2
504.724	10854.84
505.093	10903.2
505.462	10965.35
505.83	10984.1
506.199	11163.99
506.567	11309.07
506.936	11305.45
507.304	11496.63
507.672	11493.69
508.041	11500.25
508.409	11636.97
508.777	11709.51
509.145	11729.39
509.514	11768.26
509.882	11888.49
510.25	11910.63
510.618	12035.6
510.986	12039.22
511.354	12155.82
511.722	12200.57
512.09	12337.97
512.458	12332.32
512.826	12504.97
513.193	12485.08
513.561	12529.83
513.929	12630.16
514.297	12688.01
514.664	12698.18
515.032	12824.06
515.4	12806.88
515.767	12841
516.135	12921.68
516.502	12875.81
516.869	13029.47
517.237	12981.34
517.604	12961.23
517.972	13069.47
518.339	13170.71
518.706	13084.16
519.073	13122.58
519.44	13187.21
519.808	13317.15
520.175	13191.5
520.542	13295.68
520.909	13414.55
521.276	13386.98
521.643	13563.02
522.009	13494.77
522.376	13585.62
522.743	13589.46
523.11	13612.74
523.477	13745.61
523.843	13805.72
524.21	13929.56
524.577	13929.34
524.943	13922.33
525.31	14039.84
525.676	14042.55
526.043	14032.84
526.409	14063.8
526.776	14122.55
527.142	14112.84
527.508	14178.82
527.874	14116.9
528.241	14087.98
528.607	14099.05
528.973	14243.91
529.339	14207.3
529.705	14238.93
530.071	14388.99
530.437	14328.87
530.803	14326.16
531.169	14360.29
531.535	14267.18
531.901	14238.48
532.267	14273.06
532.632	14331.13
532.998	14311.47
533.364	14230.12
533.73	14252.04
534.095	14355.09
534.461	14250.01
534.826	14373.39
535.192	14270.8
535.557	14296.33
535.923	14236.67
536.288	14233.28
536.653	14197.8
537.019	14232.83
537.384	14255.88
537.749	14217.69
538.114	14202.1
538.479	14169.56
538.845	14190.8
539.21	14026.51
539.575	14052.72
539.94	14021.76
540.305	14120.29
540.67	13957.81
541.034	13989
541.399	14055.66
541.764	13969.79
542.129	13949.68
542.494	13892.05
542.858	13836.23
543.223	13775.22
543.587	13912.16
543.952	13739.51
544.316	13710.81
544.681	13673.75
545.045	13764.37
545.41	13807.53
545.774	13704.94
546.138	13634.88
546.503	13567.09
546.867	13622.9
547.231	13604.83
547.595	13581.78
547.959	13542.68
548.324	13437.6
548.688	13500.2
549.052	13468.78
549.416	13402.12
549.779	13375.23
550.143	13353.76
550.507	13371.84
550.871	13377.04
551.235	13235.34
551.599	13229.24
551.962	13234.89
552.326	13232.41
552.689	13188.11
553.053	13190.15
553.417	13111.96
553.78	13280.54
554.143	13143.37
554.507	13133.65
554.87	13113.54
555.234	13232.86
555.597	13022.69
555.96	13021.79
556.323	13134.1
556.686	13005.52
557.05	13058.4
557.413	12985.63
557.776	13055.24
558.139	12940.89
558.502	13012.53
558.865	13031.96
559.228	13004.39
559.59	12951.74
559.953	13006.88
560.316	13093.65
560.679	13063.6
561.041	13079.42
561.404	13093.2
561.767	13104.95
562.129	13130.26
562.492	13186.98
562.854	13091.39
563.217	13132.75
563.579	13041.68
563.941	13033.77
564.304	13140.66
564.666	13117.83
565.028	13113.77
565.39	13111.73
565.753	13201.9
566.115	13231.73
566.477	13250.94
566.839	13190.37
567.201	13236.02
567.563	13217.94
567.925	13322.8
568.287	13271.73
568.648	13290.71
569.01	13297.94
569.372	13408.9
569.734	13363.93
570.095	13380.2
570.457	13409.58
570.819	13475.79
571.18	13361.67
571.542	13463.81
571.903	13443.02
572.265	13546.07
572.626	13445.28
572.987	13507.88
573.349	13510.59
573.71	13471.72
574.071	13465.85
574.432	13489.35
574.794	13571.38
575.155	13591.27
575.516	13505.62
575.877	13563.02
576.238	13565.73
576.599	13560.31
576.96	13560.31
577.32	13612.06
577.681	13635.33
578.042	13583.81
578.403	13583.58
578.763	13598.95
579.124	13615.45
579.485	13685.05
579.845	13676.69
580.206	13648.89
580.566	13652.06
580.927	13606.63
581.287	13677.14
581.648	13621.55
582.008	13635.33
582.368	13574.32
582.728	13603.02
583.089	13605.28
583.449	13689.12
583.809	13705.16
584.169	13649.57
584.529	13611.38
584.889	13663.36
585.249	13550.59
585.609	13473.53
585.969	13649.8
586.329	13551.27
586.688	13567.76
587.048	13577.48
587.408	13484.6
587.768	13522.34
588.127	13388.11
588.487	13506.07
588.846	13501.1
589.206	13457.49
589.565	13433.08
589.925	13481.44
590.284	13442.12
590.643	13436.92
591.003	13445.28
591.362	13508.78
591.721	13448.67
592.08	13461.78
592.44	13408.9
592.799	13461.55
593.158	13382.68
593.517	13416.58
593.876	13473.53
594.235	13326.42
594.593	13431.72
594.952	13370.03
595.311	13321.9
595.67	13391.5
596.029	13375.45
596.387	13372.52
596.746	13447.32
597.104	13396.92
597.463	13314.21
597.822	13384.27
598.18	13276.92
598.538	13342.23
598.897	13435.56
599.255	13344.49
599.613	13450.93
599.972	13257.72
600.33	13295.91
600.688	13304.27
601.046	13407.54
601.404	13422.46
601.762	13368.9
602.12	13423.14
602.478	13429.46
602.836	13350.6
603.194	13252.52
603.552	13356.92
603.91	13249.36
604.268	13368.22
604.625	13291.61
604.983	13427.66
605.341	13258.39
605.698	13411.84
606.056	13374.78
606.413	13337.49
606.771	13322.8
607.128	13323.25
607.485	13314.21
607.843	13357.15
608.2	13347.66
608.557	13373.42
608.914	13431.72
609.272	13416.13
609.629	13356.47
609.986	13490.03
610.343	13421.78
610.7	13584.49
611.057	13429.92
611.414	13520.31
611.771	13464.94
612.127	13537.26
612.484	13486.41
612.841	13538.39
613.198	13509.24
613.554	13490.7
613.911	13551.27
614.267	13538.16
614.624	13523.25
614.98	13594.2
615.337	13632.4
615.693	13707.2
616.05	13608.67
616.406	13672.85
616.762	13603.24
617.118	13607.54
617.475	13645.95
617.831	13677.82
618.187	13665.39
618.543	13702
618.899	13838.27
619.255	13803.92
619.611	13802.79
619.967	13744.03
620.323	13749.68
620.678	13714.2
621.034	13654.32
621.39	13760.3
621.746	13718.72
622.101	13856.8
622.457	13664.71
622.812	13774.54
623.168	13739.96
623.523	13701.32
623.879	13802.56
624.234	13767.99
624.589	13714.88
624.945	13716.46
625.3	13794.2
625.655	13795.33
626.01	13755.1
626.365	13757.36
626.72	13751.49
627.075	13745.39
627.43	13728.89
627.785	13767.08
628.14	13779.51
628.495	13723.47
628.85	13704.71
629.205	13680.76
629.559	13734.77
629.914	13707.65
630.269	13677.59
630.623	13589.91
630.978	13603.92
631.332	13601.89
631.687	13733.86
632.041	13602.34
632.396	13611.38
632.75	13544.26
633.104	13628.1
633.459	13590.14
633.813	13537.93
634.167	13523.92
634.521	13571.15
634.875	13466.98
635.229	13514.66
635.583	13426.75
635.937	13427.2
636.291	13464.49
636.645	13431.95
636.999	13434.89
637.352	13443.25
637.706	13320.54
638.06	13399.41
638.413	13326.42
638.767	13366.19
639.121	13335.45
639.474	13242.35
639.828	13214.78
640.181	13240.32
640.534	13311.05
640.888	13311.73
641.241	13170.71
641.594	13232.18
641.947	13145.63
642.301	13222.69
642.654	13187.44
643.007	13195.8
643.36	13164.61
643.713	13158.96
644.066	13204.16
644.419	13093.65
644.771	13001.68
645.124	12942.47
645.477	12908.35
645.83	12884.39
646.182	12840.1
646.535	12786.09
646.888	12837.39
647.24	12739.54
647.593	12767.56
647.945	12705.41
648.298	12682.59
648.65	12655.25
649.002	12698.86
649.355	12742.02
649.707	12735.24
650.059	12806.88
650.411	12884.17
650.763	12930.27
651.115	12982.47
651.467	13074.44
651.819	12965.75
652.171	12945.63
652.523	12946.54
652.875	12947.44
653.227	12928.01
653.578	13027.67
653.93	12993.32
654.282	12895.24
654.633	13023.82
654.985	12907.44
655.337	12933.43
655.688	13016.59
656.039	12941.11
656.391	12922.36
656.742	12925.52
657.094	12912.41
657.445	12972.75
657.796	12867.44
658.147	12887.56
658.498	12972.07
658.849	13014.11
659.2	12956.48
659.551	12994.22
659.902	12985.63
660.253	13009.81
660.604	13010.49
660.955	12926.2
661.306	12986.54
661.656	12966.2
662.007	12987.44
662.358	13032.19
662.708	13051.39
663.059	12970.27
663.409	12981.34
663.76	13024.95
664.11	13008.68
664.461	12997.38
664.811	13023.6
665.161	13051.62
665.511	13010.49
665.862	12954.67
666.212	13062.47
666.562	13042.58
666.912	13066.53
667.262	13037.38
667.612	13025.18
667.962	12967.78
668.312	12996.25
668.662	13049.36
669.011	13001.9
669.361	13037.38
669.711	12982.92
670.06	12952.87
670.41	12969.81
670.76	12914
671.109	13029.47
671.459	12859.53
671.808	12932.98
672.157	12957.61
672.507	12869.7
672.856	12871.96
673.205	12919.87
673.554	12940.44
673.904	12806.43
674.253	12859.31
674.602	12925.52
674.951	12661.12
675.3	12700.89
675.649	12833.32
675.998	12833.09
676.346	12826.09
676.695	12849.59
677.044	12702.48
677.393	12786.54
677.741	12875.81
678.09	12731.63
678.438	12691.4
678.787	12792.64
679.135	12747.22
679.484	12631.52
679.832	12668.13
680.181	12574.34
680.529	12650.95
680.877	12638.98
681.225	12597.85
681.573	12579.09
681.922	12569.6
682.27	12502.26
682.618	12542.71
682.966	12464.52
683.314	12456.61
683.661	12379.1
684.009	12403.28
684.357	12385.65
684.705	12313.33
685.053	12358.3
685.4	12296.16
685.748	12214.58
686.095	12164.41
686.443	12179.55
686.79	12185.65
687.138	12177.07
687.485	12256.16
687.832	12130.06
688.18	12163.28
688.527	12049.16
688.874	12003.74
689.221	12008.26
689.568	11962.84
689.915	11949.73
690.262	11956.06
690.609	11963.74
690.956	11827.02
691.303	11765.55
691.65	11805.55
691.997	11739.34
692.344	11705.21
692.69	11732.78
693.037	11669.74
693.383	11584.09
693.73	11602.84
694.077	11507.03
694.423	11470.42
694.769	11470.87
695.116	11426.35
695.462	11370.08
695.808	11312
696.155	11339.35
696.501	11244.21
696.847	11256.64
697.193	11203.76
697.539	11232.01
697.885	11060.26
698.231	11069.98
698.577	11031.33
698.923	11054.84
699.269	10937.1
699.614	10896.42
699.96	10820.72
700.306	10890.1
700.651	10851.68
700.997	10780.27
701.342	10808.06
701.688	10682.19
702.033	10716.77
702.379	10629.31
702.724	10592.93
703.069	10646.49
703.415	10545.02
703.76	10521.97
704.105	10542.31
704.45	10535.53
704.795	10418.69
705.14	10428.64
705.485	10407.17
705.83	10239.26
706.175	10327.4
706.52	10238.81
706.865	10199.04
707.209	10119.27
707.554	10156.1
707.899	10085.6
708.243	10118.14
708.588	10060.96
708.932	10013.06
709.277	10014.19
709.621	10058.25
709.966	9925.37
710.31	9853.51
710.654	9880.18
710.998	9893.74
711.342	9861.42
711.687	9836.79
712.031	9799.95
712.375	9723.8
712.719	9842.66
713.063	9773.29
713.407	9773.29
713.75	9678.38
714.094	9707.08
714.438	9651.71
714.782	9674.08
715.125	9586.63
715.469	9672.05
715.812	9534.42
716.156	9572.39
716.499	9537.59
716.843	9535.55
717.186	9460.98
717.53	9488.1
717.873	9512.73
718.216	9496.23
718.559	9476.35
718.902	9487.42
719.246	9463.24
719.589	9397.93
719.932	9366.75
720.275	9365.62
720.617	9390.47
720.96	9374.43
721.303	9345.95
721.646	9345.05
721.989	9393.64
722.331	9420.98
722.674	9327.88
723.016	9347.99
723.359	9184.38
723.701	9381.66
724.044	9274.54
724.386	9231.61
724.729	9255.11
725.071	9230.7
725.413	9239.74
725.755	9273.87
726.097	9155.9
726.439	9164.94
726.782	9159.07
727.124	9224.38
727.465	9145.51
727.807	9136.47
728.149	9125.85
728.491	9160.42
728.833	9099.63
729.175	9123.14
729.516	9174.66
729.858	9171.27
730.199	9169.01
730.541	9087.66
730.882	9106.87
731.224	9093.98
731.565	9103.7
731.906	9038.17
732.248	9101.22
732.589	9080.43
732.93	9112.97
733.271	9045.4
733.612	9059.86
733.953	9105.96
734.294	9088.56
734.635	9056.7
734.976	9088.56
735.317	9034.78
735.658	9065.51
735.999	9109.8
736.339	9024.16
736.68	9083.59
737.021	9094.66
737.361	9062.57
737.702	9134.89
738.042	9041.33
738.383	9002.46
738.723	9179.41
739.063	9054.44
739.404	9121.1
739.744	9140.99
740.084	9129.92
740.424	9107.77
740.764	9136.69
741.104	9228.9
741.444	9166.98
741.784	9068.9
742.124	9223.7
742.464	9218.05
742.804	9193.42
743.143	9182.34
743.483	9241.32
743.823	9235.22
744.162	9257.14
744.502	9333.3
744.841	9366.97
745.181	9400.64
745.52	9379.17
745.86	9437.48
746.199	9434.54
746.538	9488.55
746.877	9502.79
747.216	9661.65
747.556	9739.84
747.895	9679.51
748.234	9697.58
748.573	9792.27
748.911	9862.78
749.25	9911.14
749.589	9921.31
749.928	10003.79
750.267	10181.19
750.605	10162.2
750.944	10223.22
751.283	10269.77
751.621	10371.92
751.96	10492.14
752.298	10523.78
752.636	10599.26
752.975	10721.74
753.313	10742.75
753.651	10904.56
753.989	11016.19
754.327	11053.48
754.666	11270.42
755.004	11359.24
755.342	11487.59
755.679	11545.67
756.017	11728.04
756.355	11957.41
756.693	11912.22
757.031	12110.63
757.368	12228.82
757.706	12362.37
758.044	12550.62
758.381	12650.73
758.719	12823.15
759.056	12946.99
759.394	13097.04
759.731	13187.44
760.068	13324.83
760.405	13532.74
760.743	13646.41
761.08	13857.02
761.417	13927.08
761.754	14165.26
762.091	14341.53
762.428	14400.96
762.765	14551.69
763.102	14765.7
763.438	14895.41
763.775	15065.58
764.112	15272.35
764.449	15372.46
764.785	15526.58
765.122	15546.24
765.458	15668.5
765.795	15900.81
766.131	16127.7
766.467	16165.89
766.804	16306.22
767.14	16404.07
767.476	16585.76
767.812	16672.54
768.148	16801.58
768.485	16954.34
768.821	16927.68
769.157	17122.25
769.492	17284.05
769.828	17377.38
770.164	17260.55
770.5	17506.64
770.836	17717.03
771.171	17705.28
771.507	17844.49
771.842	17839.74
772.178	17993.64
772.513	18060.53
772.849	18136.91
773.184	18173.97
773.519	18330.13
773.855	18324.25
774.19	18391.37
774.525	18346.85
774.86	18512.95
775.195	18575.54
775.53	18601.76
775.865	18505.49
776.2	18560.18
776.535	18499.61
776.87	18599.04
777.205	18587.97
777.539	18678.82
777.874	18682.21
778.209	18692.6
778.543	18661.19
778.878	18688.99
779.212	18768.53
779.547	18800.85
779.881	18868.64
780.215	18823.22
780.55	18996.55
780.884	18826.38
781.218	18852.15
781.552	18996.55
781.886	18893.95
782.22	18845.37
782.554	18836.33
782.888	18726.73
783.222	18671.81
783.556	18744.8
783.889	18703.67
784.223	18685.6
784.557	18639.72
784.89	18644.69
785.224	18639.04
785.557	18546.62
785.891	18497.58
786.224	18577.58
786.558	18605.15
786.891	18460.07
787.224	18426.85
787.557	18452.83
787.891	18469.1
788.224	18464.81
788.557	18376.45
788.89	18497.58
789.223	18480.63
789.556	18320.86
789.888	18227.98
790.221	18292.39
790.554	18160.86
790.887	18074.76
791.219	18151.82
791.552	18113.18
791.884	18087.42
792.217	18080.64
792.549	18054.65
792.882	17989.57
793.214	17807.2
793.546	17876.58
793.879	17845.62
794.211	17760.87
794.543	17780.54
794.875	17698.96
795.207	17834.09
795.539	17716.58
795.871	17712.06
796.203	17636.58
796.535	17482.46
796.867	17524.04
797.198	17487.21
797.53	17385.97
797.862	17359.53
798.193	17432.3
798.525	17269.59
798.856	17339.42
799.188	17038.18
799.519	17091.29
799.85	16994.57
800.182	17038.41
800.513	17064.85
800.844	16840.22
801.175	17042.48
801.506	17120.21
801.837	16852.2
802.168	16863.95
802.499	16819.88
802.83	16689.94
803.161	16776.49
803.491	16729.94
803.822	16720
804.153	16670.28
804.483	16568.36
804.814	16460.8
805.145	16479.55
805.475	16430.51
805.805	16413.34
806.136	16403.4
806.466	16440.23
806.796	16361.82
807.126	16160.92
807.457	16294.92
807.787	16228.94
808.117	16190.07
808.447	16117.98
808.777	16232.55
809.107	16073.01
809.436	16064.65
809.766	15950.07
810.096	15962.05
810.426	15899
810.755	15927.25
811.085	15913.01
811.414	15854.48
811.744	15764.32
812.073	15665.34
812.403	15742.85
812.732	15647.94
813.061	15655.62
813.39	15579.46
813.719	15505.79
814.049	15628.95
814.378	15582.18
814.707	15402.74
815.036	15486.58
815.365	15390.09
815.693	15281.17
816.022	15332.01
816.351	15195.52
816.68	15218.12
817.008	15275.97
817.337	15118.01
817.665	15075.07
817.994	15170.43
818.322	15088.18
818.651	15100.38
818.979	14895.19
819.307	15053.15
819.636	15098.35
819.964	14939.03
820.292	14983.32
820.62	14937.67
820.948	14897
821.276	14964.56
821.604	14945.58
821.932	14927.5
822.259	14842.99
822.587	14911.68
822.915	14793.27
823.243	14929.76
823.57	14854.96
823.898	14879.37
824.225	14824.45
824.553	14851.35
824.88	14800.27
825.207	15003.66
825.535	14939.71
825.862	14950.55
826.189	14841.18
826.516	14912.36
826.843	14989.65
827.17	14975.41
827.497	14873.04
827.824	14848.18
828.151	15000.27
828.478	14935.86
828.805	15014.96
829.131	14977.45
829.458	14916.66
829.785	14791.46
830.111	14841.18
830.438	14917.56
830.764	14895.19
831.09	14885.24
831.417	14842.53
831.743	14918.92
832.069	14791.46
832.395	14835.53
832.722	14891.12
833.048	14782.2
833.374	14877.11
833.7	14738.36
834.026	14863.1
834.351	14769.32
834.677	14795.08
835.003	14749.43
835.329	14777.9
835.654	14762.99
835.98	14724.12
836.306	14795.76
836.631	14613.61
836.956	14793.04
837.282	14723.44
837.607	14620.17
837.932	14576.55
838.258	14708.53
838.583	14552.82
838.908	14536.33
839.233	14509.66
839.558	14526.38
839.883	14486.61
840.208	14450
840.533	14430.34
840.858	14400.06
841.182	14416.78
841.507	14373.62
841.832	14227.63
842.156	14200.52
842.481	14238.71
842.805	14215.66
843.13	14204.81
843.454	14138.6
843.778	14109.22
844.103	14037.81
844.427	14047.07
844.751	14103.8
845.075	14000.52
845.399	13915.55
845.723	13889.34
846.047	13981.99
846.371	13784.03
846.695	13802.79
847.019	13673.3
847.343	13544.94
847.666	13560.99
847.99	13607.09
848.313	13486.41
848.637	13453.87
848.96	13437.6
849.284	13325.96
849.607	13210.26
849.931	13223.82
850.254	13156.48
850.577	13083.26
850.9	12943.6
851.223	12941.79
851.546	12897.05
851.869	12844.85
852.192	12989.7
852.515	12777.05
852.838	12747.9
853.161	12717.39
853.483	12676.71
853.806	12580.22
854.129	12614.34
854.451	12563.27
854.774	12491.41
855.096	12479.43
855.419	12415.7
855.741	12376.16
856.063	12356.27
856.385	12297.97
856.708	12305.2
857.03	12280.34
857.352	12250.06
857.674	12184.07
857.996	12161.02
858.318	12065.66
858.64	12025.88
858.961	12021.59
859.283	11955.83
859.605	11913.57
859.926	11957.41
860.248	11895.94
860.57	11857.75
860.891	11890.29
861.212	11800.81
861.534	11753.35
861.855	11718.32
862.176	11730.98
862.498	11733.69
862.819	11783.18
863.14	11656.85
863.461	11615.73
863.782	11609.17
864.103	11577.08
864.424	11555.84
864.745	11584.31
865.065	11496.63
865.386	11460.93
865.707	11458.22
866.027	11459.35
866.348	11371.44
866.668	11448.05
866.989	11355.62
867.309	11317.88
867.63	11338.22
867.95	11295.28
868.27	11281.72
868.59	11291.44
868.91	11279.01
869.23	11308.39
869.55	11211.67
869.87	11260.48
870.19	11196.98
870.51	11230.43
870.83	11276.07
871.15	11171.9
871.469	11140.26
871.789	11168.96
872.109	11088.96
872.428	11061.84
872.748	11112.46
873.067	11063.88
873.386	11043.76
873.706	11041.73
874.025	10983.43
874.344	10961.73
874.663	10968.74
874.982	10934.61
875.301	10952.01
875.62	10889.87
875.939	10875.18
876.258	10866.14
876.577	10786.37
876.896	10808.29
877.214	10752.47
877.533	10784.11
877.852	10752.02
878.17	10723.09
878.489	10773.26
878.807	10714.28
879.125	10616.88
879.444	10753.83
879.762	10647.84
880.08	10640.84
880.398	10588.63
880.716	10654.85
881.034	10592.25
881.352	10573.95
881.67	10526.04
881.988	10531.23
882.306	10484
882.624	10468.19
882.941	10365.59
883.259	10401.97
883.577	10340.5
883.894	10440.39
884.212	10337.12
884.529	10363.56
884.846	10327.62
885.164	10262.31
885.481	10247.85
885.798	10262.54
886.115	10193.16
886.432	10271.35
886.75	10160.62
887.067	10153.84
887.383	10108.87
887.7	10140.96
888.017	10070.91
888.334	10071.81
888.651	10077.01
888.967	10069.33
889.284	10018.25
889.6	9997.46
889.917	9920.4
890.233	9939.39
890.55	9789.33
890.866	9846.73
891.182	9783.91
891.498	9738.03
891.815	9762.22
892.131	9725.61
892.447	9661.65
892.763	9650.35
893.079	9645.83
893.395	9581.65
893.71	9519.06
894.026	9515.22
894.342	9505.95
894.657	9460.75
894.973	9474.31
895.289	9394.54
895.604	9337.37
895.92	9298.05
896.235	9293.98
896.55	9275.67
896.865	9292.17
897.181	9208.11
897.496	9257.82
897.811	9138.28
898.126	9122.91
898.441	9087.43
898.756	9041.1
899.071	9029.35
899.386	9012.63
899.7	8943.71
900.015	8902.58
900.33	8869.81
900.644	8846.53
900.959	8894.22
901.273	8846.08
901.588	8755.46
901.902	8698.29
902.216	8724.95
902.531	8712.07
902.845	8677.27
903.159	8622.81
903.473	8558.18
903.787	8529.93
904.101	8486.99
904.415	8445.19
904.729	8409.03
905.042	8388.24
905.356	8409.71
905.67	8324.74
905.984	8331.07
906.297	8293.33
906.611	8204.74
906.924	8281.12
907.237	8168.81
907.551	8176.04
907.864	8168.13
908.177	8131.52
908.491	8089.94
908.804	8020.34
909.117	7926.56
909.43	7917.52
909.743	7908.25
910.056	7865.99
910.368	7865.32
910.681	7781.48
910.994	7800.68
911.307	7802.72
911.619	7754.13
911.932	7676.39
912.244	7659.22
912.557	7642.5
912.869	7538.54
913.181	7518.21
913.494	7539.9
913.806	7465.33
914.118	7462.16
914.43	7393.01
914.742	7419.9
915.054	7382.16
915.366	7395.27
915.678	7280.25
915.99	7302.62
916.302	7294.48
916.613	7206.12
916.925	7187.59
917.236	7182.85
917.548	7156.18
917.859	7146.24
918.171	7088.39
918.482	7028.73
918.794	6977.43
919.105	7004.32
919.416	6975.62
919.727	6981.95
920.038	6953.93
920.349	6874.38
920.66	6835.51
920.971	6826.47
921.282	6831.44
921.593	6755.74
921.903	6760.49
922.214	6717.55
922.525	6710.77
922.835	6672.35
923.146	6618.57
923.456	6599.59
923.767	6563.66
924.077	6566.14
924.387	6548.29
924.697	6491.34
925.008	6484.34
925.318	6433.72
925.628	6412.7
925.938	6407.95
926.248	6332.7
926.558	6323.44
926.867	6347.62
927.177	6243.44
927.487	6261.52
927.796	6239.37
928.106	6230.78
928.416	6212.03
928.725	6143.55
929.034	6135.42
929.344	6144.68
929.653	6118.24
929.962	6017
930.271	6027.85
930.581	6019.94
930.89	5983.11
931.199	5913.73
931.508	5912.15
931.817	5941.07
932.125	5958.02
932.434	5900.4
932.743	5849.78
933.051	5807.52
933.36	5820.62
933.669	5771.81
933.977	5780.85
934.286	5707.86
934.594	5731.13
934.902	5694.75
935.21	5614.08
935.519	5636.9
935.827	5607.52
936.135	5596.22
936.443	5565.04
936.751	5524.36
937.059	5521.87
937.367	5471.71
937.674	5452.95
937.982	5463.57
938.29	5431.48
938.597	5438.49
938.905	5386.06
939.213	5334.53
939.52	5338.15
939.827	5338.15
940.135	5255.21
940.442	5261.99
940.749	5266.74
941.056	5278.72
941.363	5246.4
941.67	5154.88
941.977	5139.06
942.284	5116.91
942.591	5049.8
942.898	5069.01
943.205	5066.52
943.511	5011.83
943.818	5003.47
944.125	4979.06
944.431	4977.48
944.738	4963.47
945.044	4935
945.35	4900.2
945.657	4840.76
945.963	4832.18
946.269	4866.3
946.575	4855.9
946.881	4801.89
947.187	4778.39
947.493	4759.63
947.799	4724.83
948.105	4688.45
948.41	4742.69
948.716	4698.62
949.022	4635.12
949.327	4652.74
949.633	4623.59
949.938	4626.08
950.244	4644.38
950.549	4566.19
950.854	4560.09
951.16	4529.13
951.465	4530.26
951.77	4505.4
952.075	4497.95
952.38	4466.54
952.685	4466.54
952.99	4406.65
953.294	4395.12
953.599	4377.72
953.904	4307.9
954.209	4337.05
954.513	4369.81
954.818	4315.35
955.122	4278.07
955.426	4269.7
955.731	4262.47
956.035	4210.04
956.339	4221.8
956.643	4220.89
956.948	4128.92
957.252	4123.27
957.556	4125.98
957.86	4104.74
958.163	4117.62
958.467	4100.22
958.771	4036.04
959.075	4002.14
959.378	4033.78
959.682	4034.68
959.985	3974.12
960.289	3958.98
960.592	3961.24
960.896	3953.1
961.199	3891.63
961.502	3895.7
961.805	3886.66
962.108	3854.57
962.411	3880.56
962.714	3805.31
963.017	3829.04
963.32	3796.5
963.623	3804.86
963.926	3739.1
964.228	3733.22
964.531	3761.92
964.833	3758.31
965.136	3709.72
965.438	3700.23
965.741	3667.01
966.043	3665.88
966.345	3656.84
966.648	3599.44
966.95	3659.78
967.252	3594.24
967.554	3590.63
967.856	3581.81
968.158	3562.38
968.46	3506.33
968.761	3538.88
969.063	3504.3
969.365	3498.2
969.666	3458.2
969.968	3474.7
970.269	3440.8
970.571	3428.6
970.872	3428.14
971.174	3385.66
971.475	3412.1
971.776	3392.44
972.077	3334.36
972.378	3338.2
972.679	3356.73
972.98	3321.48
973.281	3278.77
973.582	3304.08
973.883	3290.07
974.183	3256.17
974.484	3217.3
974.785	3210.07
975.085	3194.25
975.386	3228.38
975.686	3172.11
975.986	3167.36
976.287	3143.63
976.587	3132.33
976.887	3145.67
977.187	3155.84
977.487	3114.48
977.787	3057.53
978.087	3091.2
978.387	3055.72
978.687	3039.68
978.987	3056.85
979.286	3031.32
979.586	3013.47
979.885	3025.22
980.185	2984.99
980.484	2960.59
980.784	2930.98
981.083	2932.34
981.382	2978.89
981.682	2936.86
981.981	2915.84
982.28	2919.23
982.579	2891.44
982.878	2879.68
983.177	2839.23
983.475	2822.06
983.774	2860.93
984.073	2853.02
984.372	2828.84
984.67	2786.35
984.969	2761.95
985.267	2759.01
985.566	2751.55
985.864	2710.42
986.162	2754.72
986.461	2702.29
986.759	2716.98
987.057	2678.33
987.355	2672.68
987.653	2659.58
987.951	2664.1
988.249	2653.02
988.547	2603.08
988.844	2614.15
989.142	2576.42
989.44	2565.34
989.737	2572.57
990.035	2541.61
990.332	2539.81
990.63	2575.96
990.927	2533.25
991.224	2518.79
991.521	2522.18
991.819	2511.33
992.116	2507.04
992.413	2477.21
992.71	2449.86
993.006	2437.89
993.303	2449.41
993.6	2427.49
993.897	2443.99
994.193	2400.37
994.49	2406.48
994.787	2379.81
995.083	2342.07
995.379	2348.17
995.676	2359.47
995.972	2337.78
996.268	2371.9
996.565	2287.84
996.861	2293.48
997.157	2294.84
997.453	2277.21
997.749	2257.78
998.044	2264.33
998.34	2236.54
998.636	2239.02
998.932	2224.33
999.227	2211.45
999.523	2189.31
999.818	2168.29
1000.114	2162.41
1000.409	2159.7
1000.704	2164.22
1001	2146.6
1001.295	2128.74
1001.59	2109.31
1001.885	2110.21
1002.18	2108.41
1002.475	2095.07
1002.77	2081.51
1003.065	2034.06
1003.359	2074.96
1003.654	2015.53
1003.949	2014.17
1004.243	2019.82
1004.538	1986.6
1004.832	2048.75
1005.127	1975.75
1005.421	1976.66
1005.715	1944.57
1006.009	1918.58
1006.304	1947.51
1006.598	1907.51
1006.892	1915.19
1007.186	1909.09
1007.48	1881.52
1007.773	1887.17
1008.067	1860.95
1008.361	1848.75
1008.655	1857.11
1008.948	1809.43
1009.242	1875.87
1009.535	1822.54
1009.829	1843.33
1010.122	1791.13
1010.415	1796.55
1010.708	1778.47
1011.001	1758.13
1011.295	1737.57
1011.588	1747.06
1011.881	1718.36
1012.173	1721.75
1012.466	1701.86
1012.759	1692.82
1013.052	1723.33
1013.344	1701.86
1013.637	1706.16
1013.93	1655.76
1014.222	1670.45
1014.514	1641.75
1014.807	1642.2
1015.099	1610.56
1015.391	1630.68
1015.683	1640.17
1015.976	1585.71
1016.268	1587.74
1016.56	1588.42
1016.851	1530.12
1017.143	1579.83
1017.435	1574.18
1017.727	1553.62
1018.018	1532.37
1018.31	1511.81
1018.602	1503.68
1018.893	1518.14
1019.185	1482.66
1019.476	1486.73
1019.767	1488.76
1020.058	1470
1020.35	1460.96
1020.641	1424.36
1020.932	1423
1021.223	1430.91
1021.514	1400.4
1021.804	1416.22
1022.095	1425.26
1022.386	1412.83
1022.677	1405.6
1022.967	1364.24
1023.258	1328.76
1023.548	1381.87
1023.839	1341.65
1024.129	1333.28
1024.419	1338.26
1024.709	1334.19
1025	1319.5
1025.29	1323.11
1025.58	1302.32
1025.87	1282.44
1026.16	1286.73
1026.449	1278.6
1026.739	1297.13
1027.029	1247.64
1027.319	1254.64
1027.608	1251.25
1027.898	1242.44
1028.187	1223.46
1028.477	1210.58
1028.766	1181.65
1029.055	1174.87
1029.344	1198.15
1029.634	1197.69
1029.923	1166.28
1030.212	1177.81
1030.501	1175.55
1030.79	1187.98
1031.078	1136
1031.367	1138.71
1031.656	1124.25
1031.945	1114.76
1032.233	1100.97
1032.522	1121.99
1032.81	1106.62
1033.099	1102.1
1033.387	1077.7
1033.675	1074.31
1033.963	1078.6
1034.251	1069.56
1034.54	1043.57
1034.828	1061.65
1035.116	1066.85
1035.403	1042.9
1035.691	1023.01
1035.979	1037.02
1036.267	1014.2
1036.554	1038.6
1036.842	1018.72
1037.129	1006.06
1037.417	974.65
1037.704	986.85
1037.992	961.32
1038.279	979.85
1038.566	942.11
1038.853	942.11
1039.14	942.11
