Data from hue_310_FLMS001491_69.txt Node
Date: Mon Feb 06 15:50:01 GMT 2017
User: dcchb
Spectrometer: FLMS00149
Trigger mode: 0
Integration Time (sec): 2.000000E-2
Scans to average: 10
Electric dark correction enabled: true
Nonlinearity correction enabled: false
Boxcar width: 0
XAxis mode: Wavelengths
Number of Pixels in Spectrum: 2048
>>>>>Begin Spectral Data<<<<<
341.393	-14.01
341.776	-14.01
342.16	-14.01
342.543	-62.6
342.927	-52.2
343.31	-59.43
343.693	-75.7
344.077	-75.7
344.46	-61.02
344.843	-47
345.226	-35.48
345.61	-46.33
345.993	-19.43
346.376	15.59
346.759	7.91
347.142	39.77
347.525	32.77
347.908	50.17
348.291	71.18
348.674	102.6
349.057	100.11
349.44	148.02
349.823	139.88
350.206	166.32
350.588	209.49
350.971	221.69
351.354	231.18
351.737	238.41
352.119	235.02
352.502	251.29
352.884	273.21
353.267	287.68
353.65	305.98
354.032	302.14
354.414	287
354.797	321.8
355.179	343.95
355.562	328.13
355.944	342.14
356.326	329.71
356.709	332.87
357.091	319.77
357.473	326.55
357.855	348.92
358.238	336.04
358.62	346.43
359.002	362.93
359.384	342.59
359.766	345.08
360.148	338.07
360.53	335.58
360.912	326.09
361.294	352.08
361.676	328.8
362.057	310.05
362.439	315.92
362.821	321.57
363.203	338.07
363.584	312.99
363.966	318.64
364.348	324.96
364.729	312.99
365.111	308.47
365.493	324.29
365.874	326.32
366.256	330.61
366.637	323.61
367.019	324.06
367.4	306.88
367.781	298.52
368.163	292.42
368.544	284.74
368.925	298.07
369.306	319.99
369.688	319.09
370.069	325.42
370.45	328.8
370.831	298.3
371.212	305.08
371.593	324.06
371.974	313.89
372.355	320.22
372.736	323.61
373.117	306.43
373.498	315.7
373.879	311.18
374.26	319.77
374.641	316.38
375.021	319.77
375.402	337.17
375.783	320.22
376.163	309.37
376.544	323.61
376.925	342.14
377.305	329.48
377.686	315.47
378.066	330.84
378.447	342.36
378.827	312.99
379.208	324.06
379.588	322.7
379.968	311.63
380.349	339.2
380.729	318.41
381.109	322.25
381.489	330.16
381.87	324.96
382.25	367.67
382.63	352.76
383.01	331.06
383.39	342.14
383.77	345.08
384.15	345.53
384.53	348.47
384.91	345.3
385.29	345.08
385.67	324.29
386.049	361.57
386.429	370.16
386.809	341.46
387.189	366.77
387.568	349.37
387.948	344.17
388.328	362.02
388.707	348.69
389.087	359.54
389.466	342.82
389.846	351.18
390.225	397.5
390.605	361.8
390.984	362.93
391.363	386.66
391.743	361.35
392.122	352.99
392.501	361.12
392.881	378.75
393.26	359.09
393.639	403.61
394.018	385.75
394.397	375.58
394.776	359.99
395.155	365.64
395.534	359.99
395.913	390.5
396.292	382.81
396.671	379.43
397.05	373.1
397.429	378.75
397.808	369.48
398.186	409.71
398.565	375.13
398.944	385.98
399.323	417.16
399.701	399.54
400.08	399.54
400.458	393.66
400.837	404.74
401.215	415.13
401.594	397.5
401.972	406.32
402.351	419.65
402.729	403.38
403.107	419.65
403.486	410.61
403.864	430.95
404.242	408.35
404.62	424.85
404.999	428.46
405.377	432.76
405.755	427.11
406.133	429.82
406.511	462.36
406.889	454.68
407.267	462.59
407.645	467.11
408.023	467.78
408.401	451.06
408.779	478.18
409.156	462.13
409.534	479.31
409.912	463.49
410.29	485.64
410.667	500.78
411.045	507.11
411.422	516.37
411.8	494.45
412.178	514.34
412.555	533.32
412.933	515.01
413.31	547.56
413.687	536.03
414.065	548.23
414.442	557.73
414.819	570.15
415.197	578.97
415.574	573.77
415.951	609.02
416.328	583.49
416.705	580.1
417.082	601.34
417.46	587.78
417.837	599.08
418.214	622.13
418.591	631.85
418.967	632.53
419.344	631.62
419.721	663.03
420.098	649.47
420.475	672.52
420.852	671.85
421.228	670.04
421.605	678.17
421.982	678.85
422.358	712.98
422.735	704.39
423.111	713.88
423.488	729.47
423.864	727.89
424.241	738.51
424.617	730.83
424.994	754.78
425.37	774.67
425.746	747.78
426.123	756.59
426.499	776.02
426.875	767.66
427.251	808.11
427.627	797.27
428.003	817.61
428.379	799.75
428.756	845.85
429.132	874.33
429.507	833.2
429.883	845.4
430.259	866.19
430.635	850.6
431.011	914.78
431.387	891.95
431.763	905.96
432.138	945.06
432.514	921.78
432.89	924.27
433.265	909.13
433.641	971.27
434.016	945.29
434.392	961.33
434.767	978.05
435.143	1006.98
435.518	1002.01
435.894	1014.66
436.269	1021.22
436.644	1046.53
437.02	1050.14
437.395	1048.79
437.77	1067.54
438.145	1054.44
438.52	1071.16
438.895	1089.91
439.271	1111.61
439.646	1110.03
440.021	1133.76
440.395	1110.03
440.77	1107.77
441.145	1145.05
441.52	1141.44
441.895	1146.86
442.27	1137.82
442.645	1141.44
443.019	1163.36
443.394	1165.85
443.769	1176.92
444.143	1161.1
444.518	1182.12
444.892	1198.84
445.267	1194.32
445.641	1223.47
446.016	1191.16
446.39	1264.37
446.764	1216.92
447.139	1200.19
447.513	1241.32
447.887	1233.41
448.262	1258.27
448.636	1226.41
449.01	1245.16
449.384	1237.48
449.758	1281.1
450.132	1261.21
450.506	1267.31
450.88	1260.53
451.254	1286.07
451.628	1275.45
452.002	1284.71
452.376	1293.53
452.75	1302.11
453.123	1307.76
453.497	1314.54
453.871	1323.58
454.244	1364.48
454.618	1351.83
454.992	1372.85
455.365	1376.24
455.739	1407.42
456.112	1408.1
456.486	1382.34
456.859	1402.45
457.232	1416.91
457.606	1430.02
457.979	1435.44
458.352	1454.65
458.725	1453.52
459.099	1502.56
459.472	1496.91
459.845	1490.58
460.218	1524.25
460.591	1521.99
460.964	1504.14
461.337	1561.54
461.71	1557.7
462.083	1567.64
462.456	1577.59
462.829	1574.87
463.201	1599.51
463.574	1597.25
463.947	1630.24
464.32	1618.04
464.692	1646.28
465.065	1660.52
465.438	1663.91
465.81	1681.54
466.183	1686.74
466.555	1705.04
466.928	1719.28
467.3	1749.78
467.672	1742.55
468.045	1777.13
468.417	1768.99
468.789	1787.75
469.161	1806.05
469.534	1793.17
469.906	1823.23
470.278	1837.01
470.65	1870.91
471.022	1896.45
471.394	1926.95
471.766	1904.81
472.138	1915.66
472.51	1957.91
472.882	1968.99
473.253	1992.26
473.625	2033.62
473.997	2042.88
474.369	2044.24
474.74	2039.27
475.112	2080.62
475.484	2096.89
475.855	2117.46
476.227	2144.58
476.598	2191.81
476.97	2173.5
477.341	2235.42
477.713	2228.42
478.084	2228.87
478.455	2274.52
478.827	2291.01
479.198	2326.72
479.569	2332.14
479.94	2361.97
480.311	2389.77
480.682	2471.12
481.053	2476.77
481.424	2511.35
481.795	2542.08
482.166	2574.17
482.537	2548.18
482.908	2593.6
483.279	2616.65
483.65	2651.46
484.021	2673.83
484.391	2682.19
484.762	2719.48
485.133	2761.51
485.503	2775.52
485.874	2837.89
486.244	2827.72
486.615	2858.91
486.985	2881.05
487.356	2933.48
487.726	2936.19
488.097	2958.11
488.467	3004.89
488.837	3032.01
489.207	3041.73
489.578	3087.83
489.948	3098.22
490.318	3121.05
490.688	3153.59
491.058	3148.84
491.428	3185.45
491.798	3188.39
492.168	3264.32
492.538	3278.56
492.908	3337.09
493.278	3324.21
493.648	3348.84
494.017	3401.49
494.387	3372.79
494.757	3441.49
495.126	3444.66
495.496	3457.54
495.866	3490.98
496.235	3471.77
496.605	3531.66
496.974	3535.27
497.344	3544.77
497.713	3567.14
498.082	3597.87
498.452	3644.42
498.821	3578.89
499.19	3606.23
499.559	3627.7
499.928	3660.47
500.298	3713.57
500.667	3701.6
501.036	3669.96
501.405	3715.83
501.774	3719.9
502.143	3722.16
502.512	3794.48
502.88	3809.17
503.249	3784.99
503.618	3810.75
503.987	3803.97
504.356	3831.31
504.724	3838.09
505.093	3819.56
505.462	3908.82
505.83	3898.88
506.199	3878.09
506.567	3930.97
506.936	3950.63
507.304	3949.5
507.672	3937.98
508.041	3989.27
508.409	4018.2
508.777	4032.21
509.145	4021.14
509.514	4014.81
509.882	4076.5
510.25	4044.87
510.618	4040.12
510.986	4068.82
511.354	4074.47
511.722	4071.76
512.09	4152.43
512.458	4135.71
512.826	4151.53
513.193	4159.66
513.561	4170.96
513.929	4179.55
514.297	4191.75
514.664	4199.21
515.032	4236.05
515.4	4231.3
515.767	4198.99
516.135	4263.16
516.502	4248.02
516.869	4274.01
517.237	4325.99
517.604	4312.43
517.972	4344.29
518.339	4354.91
518.706	4367.34
519.073	4356.95
519.44	4358.08
519.808	4414.8
520.175	4401.24
520.542	4424.97
520.909	4444.4
521.276	4426.55
521.643	4420.67
522.009	4496.15
522.376	4493.44
522.743	4498.64
523.11	4601.91
523.477	4581.35
523.843	4562.37
524.21	4605.98
524.577	4647.11
524.943	4629.93
525.31	4663.38
525.676	4674
526.043	4695.24
526.409	4738.41
526.776	4719.65
527.142	4731.63
527.508	4801.23
527.874	4882.58
528.241	4835.58
528.607	4821.12
528.973	4938.85
529.339	4887.56
529.705	4916.71
530.071	5003.48
530.437	5018.63
530.803	4983.6
531.169	5062.47
531.535	5043.26
531.901	5041.22
532.267	5102.24
532.632	5091.17
532.998	5112.86
533.364	5134.78
533.73	5123.26
534.095	5209.13
534.461	5199.41
534.826	5234.21
535.192	5298.17
535.557	5260.88
535.923	5276.02
536.288	5335.45
536.653	5316.02
537.019	5350.14
537.384	5368.9
537.749	5374.1
538.114	5343.59
538.479	5408.22
538.845	5417.71
539.21	5381.78
539.575	5465.84
539.94	5504.26
540.305	5574.99
540.67	5488.67
541.034	5558.95
541.399	5574.09
541.764	5605.28
542.129	5596.69
542.494	5671.72
542.858	5679.62
543.223	5694.31
543.587	5752.17
543.952	5710.81
544.316	5748.32
544.681	5805.05
545.045	5772.5
545.41	5888.21
545.774	5874.87
546.138	5858.15
546.503	5914.87
546.867	5881.65
547.231	5967.07
547.595	5991.03
547.959	5992.84
548.324	6016.34
548.688	6004.59
549.052	6054.08
549.416	6062.21
549.779	6070.8
550.143	6057.92
550.507	6154.87
550.871	6148.76
551.235	6153.51
551.599	6210.01
551.962	6255.2
552.326	6216.56
552.689	6244.81
553.053	6249.55
553.417	6241.87
553.78	6356.22
554.143	6335.88
554.507	6308.08
554.87	6347.4
555.234	6405.71
555.597	6379.72
555.96	6380.4
556.323	6456.33
556.686	6441.41
557.05	6466.04
557.413	6496.33
557.776	6526.16
558.139	6521.18
558.502	6456.78
558.865	6519.38
559.228	6592.14
559.59	6607.74
559.953	6659.03
560.316	6680.28
560.679	6693.61
561.041	6734.96
561.404	6701.74
561.767	6781.06
562.129	6755.08
562.492	6836.2
562.854	6780.61
563.217	6803.66
563.579	6791.91
563.941	6851.8
564.304	6873.04
564.666	6887.73
565.028	6922.98
565.39	6970.44
565.753	7036.43
566.115	6989.65
566.477	7047.72
566.839	7047.95
567.201	7134.28
567.563	7068.74
567.925	7145.57
568.287	7072.36
568.648	7120.72
569.01	7192.13
569.372	7280.49
569.734	7266.93
570.095	7290.43
570.457	7322.07
570.819	7391.44
571.18	7372.69
571.542	7369.3
571.903	7492.01
572.265	7497.88
572.626	7563.19
572.987	7501.5
573.349	7598.22
573.71	7649.52
574.071	7637.99
574.432	7696.52
574.794	7882.5
575.155	7903.97
575.516	7935.84
575.877	7957.3
576.238	8036.85
576.599	8185.1
576.96	8094.7
577.32	8238.2
577.681	8254.02
578.042	8348.93
578.403	8476.61
578.763	8539.66
579.124	8615.82
579.485	8738.98
579.845	8837.51
580.206	8904.17
580.566	8955.24
580.927	9093.09
581.287	9276.59
581.648	9323.14
582.008	9526.98
582.368	9577.83
582.728	9809.23
583.089	9906.86
583.449	10060.53
583.809	10270.24
584.169	10394.3
584.529	10542.32
584.889	10790.68
585.249	10938.24
585.609	11080.16
585.969	11327.39
586.329	11485.57
586.688	11736.64
587.048	11972.79
587.408	12143.18
587.768	12359
588.127	12528.94
588.487	12784.52
588.846	13044.4
589.206	13214.57
589.565	13535.92
589.925	13851.84
590.284	14100.19
590.643	14312.17
591.003	14604.59
591.362	14831.7
591.721	15119.15
592.08	15416.77
592.44	15702.64
592.799	15964.1
593.158	16200.48
593.517	16550.98
593.876	16845.43
594.235	17057.63
594.593	17351.63
594.952	17699.42
595.311	17947.1
595.67	18211.5
596.029	18594.54
596.387	18905.27
596.746	19272.04
597.104	19443.1
597.463	19742.98
597.822	20121.73
598.18	20320.14
598.538	20546.58
598.897	20980.92
599.255	21089.84
599.613	21701.8
599.972	21879.2
600.33	22188.34
600.688	22424.04
601.046	22809.8
601.404	23057.92
601.762	23289.78
602.12	23668.76
602.478	23929.99
602.836	24185.8
603.194	24332.02
603.552	24561.84
603.91	24931.55
604.268	25225.1
604.625	25475.26
604.983	25815.14
605.341	25881.58
605.698	26261.91
606.056	26540.09
606.413	26808.79
606.771	27041.55
607.128	27255.78
607.485	27351.15
607.843	27696.22
608.2	28000.39
608.557	28406.03
608.914	28394.73
609.272	28846.7
609.629	28975.28
609.986	29168.27
610.343	29258.67
610.7	29660.46
611.057	29889.61
611.414	29952.66
611.771	30243.72
612.127	30599.42
612.484	30610.27
612.841	30858.85
613.198	30943.59
613.554	31147.88
613.911	31402.56
614.267	31521.21
614.624	31848.2
614.98	31974.07
615.337	32185.82
615.693	32404.8
616.05	32394.85
616.406	32870.55
616.762	32812.47
617.118	32969.3
617.475	33006.36
617.831	33320.93
618.187	33406.81
618.543	33565.22
618.899	33893.35
619.255	33906.68
619.611	34010.18
619.967	34183.73
620.323	34224.64
620.678	34386.89
621.034	34298.08
621.39	34448.59
621.746	34468.25
622.101	35004.28
622.457	34793.89
622.812	35111.62
623.168	35229.58
623.523	35287.89
623.879	35581.44
624.234	35351.84
624.589	35547.09
624.945	35759.51
625.3	35648.1
625.655	35769.45
626.01	35874.76
626.365	36039.05
626.72	36133.97
627.075	36085.38
627.43	36175.09
627.785	36109.56
628.14	36317.92
628.495	36403.79
628.85	36370.57
629.205	36275.88
629.559	36655.31
629.914	36490.11
630.269	36554.07
630.623	36482.43
630.978	36474.3
631.332	36778.24
631.687	36886.94
632.041	36683.1
632.396	36806.49
632.75	36607.4
633.104	36876.54
633.459	36664.8
633.813	36783.21
634.167	36840.16
634.521	36687.17
634.875	36807.17
635.229	36965.36
635.583	36756.55
635.937	36813.72
636.291	36725.36
636.645	36901.4
636.999	36650.79
637.352	36978.69
637.706	36837.22
638.06	36922.19
638.413	36895.53
638.767	36710
639.121	36893.95
639.474	36619.6
639.828	36752.48
640.181	36879.26
640.534	36855.3
640.888	36760.16
641.241	36702.09
641.594	36717.23
641.947	36799.26
642.301	36674.97
642.654	36577.57
643.007	36803.1
643.36	36755.42
643.713	36719.71
644.066	36974.4
644.419	36615.31
644.771	36354.52
645.124	36169.22
645.477	36064.14
645.83	35997.92
646.182	35853.52
646.535	35728.1
646.888	35729.91
647.24	35691.04
647.593	35831.37
647.945	35640.42
648.298	35506.19
648.65	35640.64
649.002	35533.53
649.355	35802.22
649.707	35624.15
650.059	35718.38
650.411	36145.04
650.763	36011.03
651.115	36538.25
651.467	36613.5
651.819	36470.45
652.171	36337.58
652.523	36290.57
652.875	36342.32
653.227	36092.38
653.578	36453.28
653.93	36326.05
654.282	36174.19
654.633	36155.89
654.985	36199.5
655.337	36132.16
655.688	36395.43
656.039	36322.21
656.391	36177.13
656.742	36154.76
657.094	36225.94
657.445	36307.97
657.796	36188.43
658.147	36153.4
658.498	36123.34
658.849	36207.41
659.2	36179.16
659.551	36177.35
659.902	36135.1
660.253	36051.26
660.604	36206.73
660.955	35995.21
661.306	36107.07
661.656	36057.81
662.007	36101.65
662.358	36124.25
662.708	36161.76
663.059	36088.54
663.409	35754.09
663.76	36050.8
664.11	35992.5
664.461	36110.46
664.811	36018.04
665.161	36003.35
665.511	35875.89
665.862	35987.53
666.212	36176
666.562	35987.75
666.912	35954.31
667.262	35965.83
667.612	35903.69
667.962	35987.3
668.312	35992.27
668.662	36083.8
669.011	35940.07
669.361	35933.74
669.711	35834.31
670.06	35819.62
670.41	35916.34
670.76	35765.39
671.109	35959.28
671.459	35794.54
671.808	35795.89
672.157	35945.5
672.507	35710.93
672.856	35646.97
673.205	35670.47
673.554	35821.66
673.904	35678.61
674.253	35818.49
674.602	35714.54
674.951	35249.69
675.3	35102.81
675.649	35661.89
675.998	35601.1
676.346	35500.31
676.695	35712.28
677.044	35488.56
677.393	35620.31
677.741	35752.96
678.09	35540.99
678.438	35322.69
678.787	35626.18
679.135	35565.39
679.484	35450.59
679.832	35381.89
680.181	35268.23
680.529	35375.57
680.877	35293.31
681.225	35259.19
681.573	35483.36
681.922	35142.8
682.27	35059.42
682.618	35063.03
682.966	35049.7
683.314	35093.99
683.661	35040.21
684.009	34845.86
684.357	34841.34
684.705	34692.87
685.053	34775.81
685.4	34642.7
685.748	34607.9
686.095	34508.25
686.443	34455.37
686.79	34466.44
687.138	34481.81
687.485	34495.59
687.832	34205.88
688.18	34349.83
688.527	34310.96
688.874	34155.03
689.221	34060.35
689.568	34009.95
689.915	33883.4
690.262	33906.45
690.609	33767.25
690.956	33733.58
691.303	33644.09
691.65	33637.53
691.997	33576.52
692.344	33397.77
692.69	33417.43
693.037	33341.27
693.383	33197.32
693.73	33226.7
694.077	33111.67
694.423	33063.54
694.769	32843.66
695.116	32819.93
695.462	32742.87
695.808	32689.76
696.155	32751.46
696.501	32577
696.847	32421.97
697.193	32382.88
697.539	32401.86
697.885	32092.04
698.231	32035.77
698.577	32193.28
698.923	32112.83
699.269	31907.41
699.614	31701.99
699.96	31690.92
700.306	31739.28
700.651	31641.43
700.997	31480.98
701.342	31646.63
701.688	31514.2
702.033	31467.65
702.379	31414.09
702.724	31179.07
703.069	31266.75
703.415	30960.32
703.76	30987.43
704.105	30938.85
704.45	30897.49
704.795	30699.08
705.14	30602.36
705.485	30595.81
705.83	30543.83
706.175	30586.09
706.52	30328.69
706.865	30305.64
707.209	30303.84
707.554	30210.96
707.899	30269.49
708.243	30080.11
708.588	30180.22
708.932	29752.44
709.277	29784.75
709.621	29918.08
709.966	29586.79
710.31	29674.47
710.654	29473.8
710.998	29576.62
711.342	29522.84
711.687	29424.09
712.031	29289.17
712.375	29337.99
712.719	29271.32
713.063	29090.99
713.407	29307.93
713.75	29106.13
714.094	29135.05
714.438	28919.01
714.782	28908.39
715.125	28888.96
715.469	28829.52
715.812	28763.99
716.156	28642.41
716.499	28637.89
716.843	28650.32
717.186	28406.48
717.53	28607.38
717.873	28553.37
718.216	28485.13
718.559	28373.27
718.902	28082.2
719.246	28288.52
719.589	28097.79
719.932	27996.55
720.275	28002.43
720.617	28074.97
720.96	28067.28
721.303	28022.09
721.646	28006.27
721.989	27778.03
722.331	27906.84
722.674	27901.87
723.016	27870
723.359	27677.69
723.701	27809.21
724.044	27549.11
724.386	27403.35
724.729	27655.32
725.071	27559.28
725.413	27438.6
725.755	27448.77
726.097	27446.96
726.439	27119.96
726.782	27294.65
727.124	27232.96
727.465	27170.59
727.807	27069.57
728.149	27013.75
728.491	27010.14
728.833	26946.41
729.175	26872.97
729.516	26901.89
729.858	26799.75
730.199	26809.24
730.541	26712.74
730.882	26790.71
731.224	26776.7
731.565	26489.25
731.906	26654.67
732.248	26668.9
732.589	26533.31
732.93	26331.96
733.271	26375.8
733.612	26509.81
733.953	26512.3
734.294	26265.07
734.635	26252.19
734.976	26369.02
735.317	26192.31
735.658	26204.51
735.999	26183.72
736.339	26184.85
736.68	26219.2
737.021	26097.17
737.361	26072.76
737.702	26139.43
738.042	26006.32
738.383	26013.78
738.723	26033.21
739.063	25862.14
739.404	25910.73
739.744	25880.68
740.084	25751.41
740.424	25776.95
740.764	25738.76
741.104	25817.17
741.444	25708.25
741.784	25564.53
742.124	25591.19
742.464	25481.36
742.804	25418.54
743.143	25329.73
743.483	25334.93
743.823	25195.5
744.162	25232.1
744.502	25322.05
744.841	25232.78
745.181	25312.55
745.52	25100.81
745.86	25074.37
746.199	25145.55
746.538	25066.01
746.877	25126.12
747.216	25096.97
747.556	25010.87
747.895	25050.64
748.234	24840.48
748.573	24789.63
748.911	24840.93
749.25	24797.31
749.589	24715.28
749.928	24746.02
750.267	24704.44
750.605	24576.3
750.944	24618.56
751.283	24447.94
751.621	24524.1
751.96	24365.69
752.298	24372.47
752.636	24396.19
752.975	24187.61
753.313	24147.39
753.651	24386.48
753.989	24081.17
754.327	24046.6
754.666	23984.23
755.004	23986.71
755.342	23913.95
755.679	23917.79
756.017	23766.38
756.355	23746.27
756.693	23671.47
757.031	23756.44
757.368	23559.15
757.706	23562.09
758.044	23511.02
758.381	23576.33
758.719	23368.2
759.056	23481.19
759.394	23251.59
759.731	23137.47
760.068	23229.67
760.405	23027.19
760.743	23076.91
761.08	23101.54
761.417	22858.38
761.754	22781.32
762.091	22844.6
762.428	22756.01
762.765	22593.98
763.102	22550.82
763.438	22557.37
763.775	22286.42
764.112	22371.84
764.449	22402.12
764.785	22341.11
765.122	22160.77
765.458	22110.61
765.795	22037.84
766.131	22042.36
766.467	22048.23
766.804	21921.91
767.14	21779.99
767.476	21754.68
767.812	21638.98
768.148	21740.45
768.485	21568.02
768.821	21398.53
769.157	21441.24
769.492	21359.21
769.828	21267.46
770.164	21028.37
770.5	21081.03
770.836	21086.23
771.171	20871.54
771.507	20850.53
771.842	20786.12
772.178	20714.94
772.513	20578.89
772.849	20640.81
773.184	20556.75
773.519	20610.98
773.855	20468.16
774.19	20410.99
774.525	20262.74
774.86	20243.31
775.195	20172.12
775.53	20138.45
775.865	19996.31
776.2	19838.12
776.535	19758.58
776.87	19734.17
777.205	19764.45
777.539	19626.38
777.874	19582.99
778.209	19392.48
778.543	19455.76
778.878	19354.97
779.212	19276.78
779.547	19108.42
779.881	19241.53
780.215	19125.15
780.55	19103.68
780.884	18918.37
781.218	18857.81
781.552	18857.58
781.886	18807.42
782.22	18729.23
782.554	18679.06
782.888	18477.25
783.222	18382.12
783.556	18366.52
783.889	18255.11
784.223	18122.91
784.557	18164.04
784.89	18230.71
785.224	18093.31
785.557	17959.75
785.891	17932.86
786.224	17912.98
786.558	17832.75
786.891	17692.87
787.224	17602.25
787.557	17586.2
787.891	17542.36
788.224	17517.28
788.557	17436.6
788.89	17405.42
789.223	17444.29
789.556	17272.99
789.888	17326.55
790.221	17111.64
790.554	17076.61
790.887	17014.92
791.219	16976.5
791.552	16918.2
791.884	16745.32
792.217	16765.66
792.549	16691.76
792.882	16624.65
793.214	16594.82
793.546	16589.85
793.879	16428.04
794.211	16368.38
794.543	16442.73
794.875	16340.59
795.207	16409.96
795.539	16221.04
795.871	16164.09
796.203	16097.2
796.535	16067.15
796.867	16014.04
797.198	16021.95
797.53	15952.57
797.862	15812.69
798.193	15878.23
798.525	15714.39
798.856	15734.5
799.188	15606.6
799.519	15573.6
799.85	15463.55
800.182	15425.58
800.513	15484.79
800.844	15397.79
801.175	15428.29
801.506	15396.21
801.837	15294.74
802.168	15296.55
802.499	15196.44
802.83	15080.51
803.161	15002.32
803.491	15098.81
803.822	15039.38
804.153	14886.84
804.483	14871.7
804.814	14861.3
805.145	14909.66
805.475	14870.57
805.805	14761.19
806.136	14733.17
806.466	14734.53
806.796	14675.09
807.126	14595.1
807.457	14460.86
807.787	14521.43
808.117	14365.95
808.447	14374.76
808.777	14392.84
809.107	14443.91
809.436	14314.43
809.766	14309.68
810.096	14225.16
810.426	14213.41
810.755	14123.02
811.085	14144.71
811.414	14132.28
811.744	13978.62
812.073	14006.41
812.403	13892.74
812.732	13857.49
813.061	13892.74
813.39	13844.83
813.719	13726.64
814.049	13800.54
814.378	13773.88
814.707	13658.62
815.036	13732.97
815.365	13671.05
815.693	13571.85
816.022	13462.02
816.351	13520.32
816.68	13411.85
817.008	13502.02
817.337	13415.24
817.665	13228.35
817.994	13281.91
818.322	13394.9
818.651	13235.13
818.979	13184.06
819.307	13286.43
819.636	13149.48
819.964	13118.75
820.292	13171.41
820.62	13049.15
820.948	13033.56
821.276	13088.92
821.604	13014.8
821.932	13058.41
822.259	13067.9
822.587	13060.22
822.915	12980.45
823.243	13109.49
823.57	13006.44
823.898	13014.35
824.225	12929.6
824.553	13020
824.88	13008.02
825.207	13022.93
825.535	12978.64
825.862	13098.41
826.189	12932.77
826.516	12959.21
826.843	13060.22
827.17	13020
827.497	13069.26
827.824	13082.59
828.151	13094.12
828.478	13077.85
828.805	13077.17
829.131	12964.18
829.458	12952.2
829.785	12888.93
830.111	12926.44
830.438	12977.29
830.764	12953.33
831.09	12950.17
831.417	12853
831.743	12983.16
832.069	12984.07
832.395	12942.26
832.722	12913.78
833.048	12901.36
833.374	12918.3
833.7	12833.11
834.026	12782.26
834.351	12796.95
834.677	12768.25
835.003	12874.01
835.329	12809.15
835.654	12821.81
835.98	12819.55
836.306	12824.75
836.631	12700.68
836.956	12747.91
837.282	12682.83
837.607	12760.12
837.932	12604.19
838.258	12666.56
838.583	12624.75
838.908	12517.64
839.233	12585.43
839.558	12530.07
839.883	12489.39
840.208	12457.98
840.533	12478.32
840.858	12403.52
841.182	12441.93
841.507	12426.11
841.832	12388.15
842.156	12326
842.481	12369.39
842.805	12297.3
843.13	12243.07
843.454	12212.79
843.778	12146.12
844.103	12131.88
844.427	12116.74
844.751	12162.62
845.075	12108.61
845.399	12087.37
845.723	12011.21
846.047	12012.57
846.371	11892.34
846.695	11915.39
847.019	11798.79
847.343	11770.09
847.666	11778
847.99	11608.73
848.313	11621.16
848.637	11587.27
848.96	11596.98
849.284	11579.13
849.607	11420.49
849.931	11460.94
850.254	11403.77
850.577	11286.71
850.9	11249.65
851.223	11172.14
851.546	11138.46
851.869	11083.32
852.192	11124
852.515	11051.91
852.838	10987.28
853.161	11031.35
853.483	10893.05
853.806	10862.09
854.129	10900.05
854.451	10798.13
854.774	10736.44
855.096	10780.51
855.419	10711.36
855.741	10679.95
856.063	10623.9
856.385	10580.51
856.708	10613.96
857.03	10567.86
857.352	10514.53
857.674	10505.94
857.996	10477.69
858.318	10470.01
858.64	10443.57
858.961	10314.76
859.283	10331.71
859.605	10290.12
859.926	10313.18
860.248	10228.88
860.57	10189.34
860.891	10215.32
861.212	10147.3
861.534	10178.72
861.855	10102.79
862.176	10153.63
862.498	10089.23
862.819	10147.53
863.14	10097.59
863.461	10033.86
863.782	9931.94
864.103	9991.15
864.424	9922
864.745	9884.49
865.065	9949.34
865.386	9907.76
865.707	9904.82
866.027	9861.21
866.348	9778.73
866.668	9803.81
866.989	9801.1
867.309	9766.3
867.63	9799.97
867.95	9787.99
868.27	9633.87
868.59	9760.87
868.91	9688.33
869.23	9656.24
869.55	9626.87
869.87	9790.93
870.19	9595.23
870.51	9693.98
870.83	9606.08
871.15	9594.1
871.469	9591.39
871.789	9568.56
872.109	9632.97
872.428	9572.4
872.748	9535.12
873.067	9558.17
873.386	9499.64
873.706	9474.33
874.025	9434.33
874.344	9474.78
874.663	9463.48
874.982	9375.12
875.301	9376.48
875.62	9406.98
875.939	9324.73
876.258	9339.64
876.577	9329.7
876.896	9326.76
877.214	9249.47
877.533	9344.16
877.852	9300.55
878.17	9378.51
878.489	9291.96
878.807	9242.24
879.125	9200.21
879.444	9205.63
879.762	9159.99
880.08	9127.22
880.398	9147.33
880.716	9160.21
881.034	9073.66
881.352	9100.78
881.67	9084.51
881.988	9073.66
882.306	9087.9
882.624	9004.51
882.941	8975.81
883.259	8952.76
883.577	8949.82
883.894	8938.75
884.212	8897.17
884.529	8945.75
884.846	8872.08
885.164	8862.82
885.481	8814.91
885.798	8802.48
886.115	8820.33
886.432	8774.46
886.75	8741.92
887.067	8750.28
887.383	8782.59
887.7	8738.53
888.017	8703.27
888.334	8701.24
888.651	8681.13
888.967	8611.3
889.284	8572.66
889.6	8620.79
889.917	8474.58
890.233	8548.93
890.55	8424.64
890.866	8489.27
891.182	8446.78
891.498	8460.79
891.815	8353.9
892.131	8395.71
892.447	8318.65
892.763	8273.68
893.079	8319.33
893.395	8291.99
893.71	8310.74
894.026	8201.82
894.342	8248.37
894.657	8163.63
894.973	8176.96
895.289	8210.41
895.604	8071.2
895.92	8054.25
896.235	8059.22
896.55	8009.51
896.865	8003.18
897.181	7999.56
897.496	7971.32
897.811	7938.1
898.126	7885.89
898.441	7860.13
898.756	7802.51
899.071	7802.28
899.386	7873.92
899.7	7705.33
900.015	7682.96
900.33	7688.39
900.644	7609.74
900.959	7677.54
901.273	7622.62
901.588	7594.6
901.902	7549.63
902.216	7536.07
902.531	7483.87
902.845	7492.46
903.159	7412.46
903.473	7363.65
903.787	7397.32
904.101	7329.07
904.415	7342.86
904.729	7302.86
905.042	7253.82
905.356	7227.83
905.67	7220.6
905.984	7198.45
906.297	7144.9
906.611	7080.94
906.924	7086.82
907.237	7118.68
907.551	7079.81
907.864	7070.1
908.177	6972.7
908.491	6981.74
908.804	6937.67
909.117	6909.87
909.43	6912.36
909.743	6875.53
910.056	6805.47
910.368	6789.88
910.681	6725.47
910.994	6779.26
911.307	6754.17
911.619	6673.72
911.932	6667.62
912.244	6640.5
912.557	6657.45
912.869	6584.91
913.181	6579.94
913.494	6550.34
913.806	6528.19
914.118	6511.47
914.43	6423.56
914.742	6434.63
915.054	6404.8
915.366	6377.23
915.678	6381.3
915.99	6328.42
916.302	6296.56
916.613	6296.56
916.925	6229.89
917.236	6288.65
917.548	6261.53
917.859	6252.49
918.171	6146.73
918.482	6174.53
918.794	6151.7
919.105	6109.9
919.416	6054.53
919.727	6062.21
920.038	6051.37
920.349	5987.19
920.66	5930.01
920.971	5956.23
921.282	5941.76
921.593	5875.55
921.903	5826.74
922.214	5829.23
922.525	5776.57
922.835	5801.88
923.146	5763.69
923.456	5672.85
923.767	5728.21
924.077	5690.92
924.387	5693.18
924.697	5666.74
925.008	5617.48
925.318	5627.2
925.628	5611.6
925.938	5569.35
926.248	5535.9
926.558	5492.74
926.867	5489.8
927.177	5450.25
927.487	5420.2
927.796	5384.04
928.106	5379.52
928.416	5359.18
928.725	5371.84
929.034	5269.47
929.344	5328.22
929.653	5326.41
929.962	5256.81
930.271	5219.98
930.581	5234.66
930.89	5173.65
931.199	5142.92
931.508	5132.07
931.817	5147.21
932.125	5098.17
932.434	5110.83
932.743	5061.79
933.051	5012.75
933.36	5051.62
933.669	5010.94
933.977	4966.88
934.286	4937.5
934.594	4922.36
934.902	4867.89
935.21	4861.79
935.519	4870.83
935.827	4853.88
936.135	4833.09
936.443	4770.27
936.751	4805.75
937.059	4794.68
937.367	4754.68
937.674	4716.26
937.982	4735.92
938.29	4706.77
938.597	4655.92
938.905	4657.5
939.213	4595.13
939.52	4611.4
939.827	4640.33
940.135	4537.28
940.442	4488.24
940.749	4559.2
941.056	4548.81
941.363	4455.93
941.67	4470.84
941.977	4481.46
942.284	4441.92
942.591	4418.41
942.898	4379.32
943.205	4394.69
943.511	4360.79
943.818	4336.16
944.125	4317.4
944.431	4295.48
944.738	4259.77
945.044	4245.31
945.35	4237.85
945.657	4287.57
945.963	4222.71
946.269	4179.55
946.575	4224.52
946.881	4162.6
947.187	4111.3
947.493	4130.29
947.799	4065.66
948.105	4095.49
948.41	4074.7
948.716	4074.47
949.022	4049.16
949.327	4008.93
949.633	3974.58
949.938	3944.08
950.244	3914.7
950.549	3972.55
950.854	3922.16
951.16	3916.06
951.465	3866.56
951.77	3880.35
952.075	3823.85
952.38	3850.97
952.685	3852.1
952.99	3856.17
953.294	3794.93
953.599	3759.45
953.904	3766.68
954.209	3747.47
954.513	3757.87
954.818	3716.96
955.122	3693.46
955.426	3708.6
955.731	3634.48
956.035	3666.57
956.339	3642.84
956.643	3639.45
956.948	3568.04
957.252	3599.23
957.556	3606.01
957.86	3581.83
958.163	3545.44
958.467	3502.51
958.771	3544.31
959.075	3554.03
959.378	3512.45
959.682	3472.23
959.985	3459.8
960.289	3478.33
960.592	3464.32
960.896	3436.29
961.199	3392.68
961.502	3361.27
961.805	3381.38
962.108	3348.16
962.411	3357.88
962.714	3342.06
963.017	3320.82
963.32	3345
963.623	3288.5
963.926	3273.36
964.228	3286.24
964.531	3267.03
964.833	3224.77
965.136	3183.19
965.438	3194.04
965.741	3158.79
966.043	3170.09
966.345	3163.98
966.648	3130.54
966.95	3134.15
967.252	3093.93
967.554	3119.01
967.856	3093.03
968.158	3061.61
968.46	3051.9
968.761	3033.37
969.063	3068.62
969.365	3040.37
969.666	3006.25
969.968	2985.91
970.269	3011.67
970.571	2978.45
970.872	2988.85
971.174	2965.57
971.475	2956.08
971.776	2928.74
972.077	2933.48
972.378	2906.14
972.679	2871.34
972.98	2866.14
973.281	2877.89
973.582	2851.68
973.883	2795.41
974.183	2835.86
974.484	2827.5
974.785	2795.63
975.085	2795.18
975.386	2818.01
975.686	2766.71
975.986	2757.67
976.287	2742.53
976.587	2747.05
976.887	2692.58
977.187	2736.88
977.487	2721.96
977.787	2663.43
978.087	2686.71
978.387	2671.57
978.687	2660.72
978.987	2652.81
979.286	2639.48
979.586	2630.89
979.885	2595.86
980.185	2611.68
980.484	2602.64
980.784	2604.23
981.083	2568.75
981.382	2570.1
981.682	2558.12
981.981	2526.04
982.28	2512.93
982.579	2471.8
982.878	2525.58
983.177	2507.28
983.475	2469.99
983.774	2452.59
984.073	2437.68
984.372	2434.06
984.67	2434.29
984.969	2439.48
985.267	2432.48
985.566	2422.99
985.864	2399.94
986.162	2381.86
986.461	2394.97
986.759	2368.98
987.057	2350.9
987.355	2344.12
987.653	2338.02
987.951	2296.44
988.249	2317.68
988.547	2290.34
988.844	2288.53
989.142	2286.49
989.44	2256.66
989.737	2232.48
990.035	2234.52
990.332	2255.08
990.63	2225.03
990.927	2219.38
991.224	2207.17
991.521	2175.76
991.819	2179.6
992.116	2194.29
992.413	2176.44
992.71	2140.51
993.006	2150.45
993.303	2154.75
993.6	2139.83
993.897	2133.05
994.193	2110.9
994.49	2116.78
994.787	2083.79
995.083	2091.02
995.379	2104.13
995.676	2039.72
995.972	2054.86
996.268	2043.79
996.565	2018.93
996.861	2014.64
997.157	2016.44
997.453	1978.03
997.749	2002.21
998.044	1980.96
998.34	1965.15
998.636	1954.07
998.932	1926.5
999.227	1919.27
999.523	1933.96
999.818	1900.52
1000.114	1906.62
1000.409	1909.78
1000.704	1899.16
1001	1884.24
1001.295	1877.92
1001.59	1855.77
1001.885	1862.1
1002.18	1832.49
1002.475	1821.87
1002.77	1820.74
1003.065	1819.61
1003.359	1792.04
1003.654	1794.53
1003.949	1771.93
1004.243	1781.42
1004.538	1779.16
1004.832	1747.98
1005.127	1777.81
1005.421	1763.34
1005.715	1742.55
1006.009	1718.15
1006.304	1714.98
1006.598	1717.92
1006.892	1687.41
1007.186	1684.02
1007.48	1716.34
1007.773	1663.91
1008.067	1638.38
1008.361	1637.02
1008.655	1663.46
1008.948	1618.49
1009.242	1614.19
1009.535	1602.44
1009.829	1609.45
1010.122	1604.48
1010.415	1599.73
1010.708	1586.17
1011.001	1566.96
1011.295	1521.32
1011.588	1568.32
1011.881	1522.67
1012.173	1536.68
1012.466	1533.07
1012.759	1539.39
1013.052	1499.85
1013.344	1496.91
1013.637	1510.69
1013.93	1490.81
1014.222	1475.67
1014.514	1464.37
1014.807	1454.2
1015.099	1477.02
1015.391	1456.68
1015.683	1432.05
1015.976	1455.33
1016.268	1434.99
1016.56	1416.69
1016.851	1401.09
1017.143	1393.64
1017.435	1359.06
1017.727	1385.5
1018.018	1397.7
1018.31	1350.47
1018.602	1344.15
1018.893	1347.31
1019.185	1359.06
1019.476	1308.21
1019.767	1270.93
1020.058	1328.1
1020.35	1302.56
1020.641	1284.03
1020.932	1313.64
1021.223	1320.19
1021.514	1267.31
1021.804	1232.51
1022.095	1238.84
1022.386	1271.83
1022.677	1238.39
1022.967	1232.96
1023.258	1214.88
1023.548	1191.61
1023.839	1202.91
1024.129	1208.78
1024.419	1212.17
1024.709	1183.7
1025	1175.34
1025.29	1176.24
1025.58	1202.23
1025.87	1140.53
1026.16	1161.55
1026.449	1158.16
1026.739	1120.2
1027.029	1129.91
1027.319	1102.8
1027.608	1115
1027.898	1121.33
1028.187	1090.82
1028.477	1088.78
1028.766	1098.73
1029.055	1067.99
1029.344	1058.5
1029.634	1063.47
1029.923	1075.45
1030.212	1032.97
1030.501	1051.5
1030.79	1044.27
1031.078	1025.28
1031.367	1007.88
1031.656	1027.54
1031.945	1009.24
1032.233	1012.4
1032.522	995
1032.81	1004.49
1033.099	987.09
1033.387	998.84
1033.675	964.27
1033.963	963.82
1034.251	959.07
1034.54	968.79
1034.828	964.49
1035.116	930.6
1035.403	957.49
1035.691	949.13
1035.979	928.34
1036.267	931.73
1036.554	944.83
1036.842	913.2
1037.129	908.9
1037.417	901.22
1037.704	915
1037.992	893.99
1038.279	892.41
1038.566	902.12
1038.853	902.12
1039.14	902.12
