Data from hue_130_FLMS001491_00084.txt Node
Date: Tue Feb 07 16:58:12 GMT 2017
User: dcchb
Spectrometer: FLMS00149
Trigger mode: 0
Integration Time (sec): 2.000000E-2
Scans to average: 10
Electric dark correction enabled: true
Nonlinearity correction enabled: false
Boxcar width: 0
XAxis mode: Wavelengths
Number of Pixels in Spectrum: 2048
>>>>>Begin Spectral Data<<<<<
341.393	-16.88
341.776	-16.88
342.16	-16.88
342.543	-75.41
342.927	-52.36
343.31	-60.72
343.693	-75.41
344.077	-70.44
344.46	-66.14
344.843	-49.87
345.226	-46.26
345.61	-29.76
345.993	-23.43
346.376	-4
346.759	10.69
347.142	11.82
347.525	31.71
347.908	70.8
348.291	74.64
348.674	102.89
349.057	123.46
349.44	115.77
349.823	153.06
350.206	173.4
350.588	198.26
350.971	192.83
351.354	227.41
351.737	220.63
352.119	246.84
352.502	251.36
352.884	270.35
353.267	276.9
353.65	299.95
354.032	298.14
354.414	303.57
354.797	326.16
355.179	333.85
355.562	308.76
355.944	327.75
356.326	320.97
356.709	331.81
357.091	340.17
357.473	316.67
357.855	322.32
358.238	344.02
358.62	361.42
359.002	347.41
359.384	337.69
359.766	349.67
360.148	336.56
360.53	352.83
360.912	325.94
361.294	324.13
361.676	344.24
362.057	312.15
362.439	321.64
362.821	336.33
363.203	330.46
363.584	335.88
363.966	329.33
364.348	347.41
364.729	328.42
365.111	318.71
365.493	342.43
365.874	317.58
366.256	304.7
366.637	325.71
367.019	311.47
367.4	320.74
367.781	340.85
368.163	306.05
368.544	311.47
368.925	338.82
369.306	317.12
369.688	302.21
370.069	315.09
370.45	316.67
370.831	321.64
371.212	308.99
371.593	316.67
371.974	325.71
372.355	338.37
372.736	328.88
373.117	311.25
373.498	314.86
373.879	317.8
374.26	311.02
374.641	302.44
375.021	328.65
375.402	334.3
375.783	329.33
376.163	314.86
376.544	315.54
376.925	323.9
377.305	331.59
377.686	314.86
378.066	336.11
378.447	334.75
378.827	329.1
379.208	333.62
379.588	327.97
379.968	351.25
380.349	334.07
380.729	321.42
381.109	331.81
381.489	323.23
381.87	315.54
382.25	333.85
382.63	358.25
383.01	348.31
383.39	347.63
383.77	334.3
384.15	348.76
384.53	344.69
384.91	348.31
385.29	354.86
385.67	345.37
386.049	342.43
386.429	335.43
386.809	359.84
387.189	337.01
387.568	356.9
387.948	373.85
388.328	359.38
388.707	373.39
389.087	371.81
389.466	366.16
389.846	356.67
390.225	366.61
390.605	366.84
390.984	373.17
391.363	375.88
391.743	368.65
392.122	374.75
392.501	377.01
392.881	384.02
393.26	385.6
393.639	380.4
394.018	400.29
394.397	356.22
394.776	374.3
395.155	374.3
395.534	396.44
395.913	389.89
396.292	374.3
396.671	402.09
397.05	401.19
397.429	409.33
397.808	400.06
398.186	389.66
398.565	400.29
398.944	374.52
399.323	396.22
399.701	403.9
400.08	388.76
400.458	396.67
400.837	398.03
401.215	418.59
401.594	380.63
401.972	409.78
402.351	416.78
402.729	404.13
403.107	397.12
403.486	420.17
403.864	409.1
404.242	430.12
404.62	443
404.999	406.16
405.377	413.17
405.755	415.2
406.133	429.66
406.511	424.24
406.889	443.45
407.267	426.05
407.645	464.47
408.023	437.12
408.401	453.62
408.779	440.29
409.156	447.52
409.534	458.82
409.912	470.34
410.29	459.27
410.667	458.36
411.045	472.83
411.422	485.93
411.8	463.56
412.178	476.89
412.555	492.26
412.933	484.8
413.31	477.57
413.687	479.38
414.065	492.04
414.442	472.83
414.819	539.04
415.197	497.46
415.574	520.73
415.951	527.51
416.328	501.75
416.705	518.02
417.082	511.02
417.46	532.94
417.837	507.4
418.214	530.9
418.591	535.2
418.967	545.59
419.344	534.07
419.721	529.32
420.098	540.4
420.475	529.32
420.852	556.89
421.228	551.92
421.605	555.76
421.982	555.76
422.358	550.11
422.735	533.62
423.111	555.99
423.488	560.51
423.864	564.58
424.241	597.34
424.617	579.72
424.994	596.67
425.37	589.21
425.746	574.97
426.123	591.02
426.499	587.63
426.875	598.02
427.251	603.22
427.627	609.32
428.003	627.4
428.379	636.21
428.756	639.38
429.132	603.9
429.507	628.98
429.883	647.51
430.259	642.54
430.635	634.63
431.011	641.41
431.387	669.66
431.763	675.76
432.138	674.63
432.514	672.82
432.89	683.22
433.265	703.78
433.641	712.37
434.016	708.98
434.392	717.11
434.767	718.02
435.143	744.91
435.518	731.8
435.894	741.75
436.269	763.89
436.644	772.48
437.02	776.77
437.395	752.14
437.77	744.91
438.145	771.12
438.52	775.42
438.895	766.38
439.271	785.36
439.646	796.43
440.021	800.95
440.395	807.06
440.77	830.78
441.145	794.4
441.52	804.34
441.895	824.23
442.27	833.95
442.645	830.56
443.019	834.62
443.394	845.47
443.769	865.81
444.143	836.43
444.518	850.22
444.892	867.39
445.267	899.26
445.641	888.18
446.016	886.83
446.39	911.46
446.764	897.9
447.139	895.64
447.513	899.71
447.887	912.36
448.262	942.64
448.636	930.22
449.01	913.94
449.384	946.26
449.758	923.44
450.132	974.73
450.506	967.05
450.88	959.59
451.254	984.45
451.628	971.12
452.002	1000.72
452.376	1004.79
452.75	985.58
453.123	986.94
453.497	1012.93
453.871	1027.84
454.244	1040.04
454.618	1038.24
454.992	1067.39
455.365	1087.27
455.739	1097.44
456.112	1087.5
456.486	1112.36
456.859	1083.21
457.232	1132.47
457.606	1127.72
457.979	1158.46
458.352	1179.93
458.725	1185.12
459.099	1178.8
459.472	1182.19
459.845	1217.67
460.218	1247.95
460.591	1223.99
460.964	1249.3
461.337	1293.82
461.71	1302.18
462.083	1285.23
462.456	1317.78
462.829	1307.61
463.201	1362.97
463.574	1356.19
463.947	1384.89
464.32	1431.67
464.692	1438.45
465.065	1447.04
465.438	1461.5
465.81	1482.52
466.183	1513.48
466.555	1529.97
466.928	1557.09
467.3	1504.21
467.672	1595.51
468.045	1646.13
468.417	1614.94
468.789	1659.91
469.161	1682.29
469.534	1685.22
469.906	1772.68
470.278	1790.53
470.65	1812.9
471.022	1802.51
471.394	1882.96
471.766	1897.87
472.138	1925.44
472.51	1970.64
472.882	2022.62
473.253	2068.49
473.625	2090.41
473.997	2129.51
474.369	2160.01
474.74	2203.18
475.112	2280.24
475.484	2329.27
475.855	2412.21
476.227	2400.91
476.598	2484.98
476.97	2521.81
477.341	2613.79
477.713	2661.47
478.084	2722.03
478.455	2830.96
478.827	2855.36
479.198	2974.91
479.569	3033.89
479.94	3136.71
480.311	3211.29
480.682	3328.8
481.053	3414.22
481.424	3483.59
481.795	3539.86
482.166	3665.74
482.537	3789.58
482.908	3836.13
483.279	3945.96
483.65	4026.86
484.021	4198.6
484.391	4226.85
484.762	4362.22
485.133	4458.03
485.503	4562.21
485.874	4732.38
486.244	4767.4
486.615	4932.14
486.985	5052.59
487.356	5138.69
487.726	5303.43
488.097	5474.5
488.467	5531.22
488.837	5734.38
489.207	5830.88
489.578	5983.87
489.948	6121.94
490.318	6279.91
490.688	6310.41
491.058	6529.84
491.428	6663.4
491.798	6826.11
492.168	6922.37
492.538	7055.48
492.908	7241.91
493.278	7380.22
493.648	7482.81
494.017	7639.64
494.387	7702.69
494.757	7893.87
495.126	8004.15
495.496	8101.33
495.866	8239.63
496.235	8342.22
496.605	8533.86
496.974	8631.03
497.344	8767.98
497.713	8876.45
498.082	9011.59
498.452	9115.54
498.821	9168.42
499.19	9324.35
499.559	9391.69
499.928	9616.99
500.298	9743.77
500.667	9737.89
501.036	9758.46
501.405	9885.91
501.774	9995.51
502.143	10131.33
502.512	10238.22
502.88	10330.42
503.249	10404.54
503.618	10553.92
503.987	10572.9
504.356	10735.16
504.724	10730.18
505.093	10851.76
505.462	10989.61
505.83	10991.42
506.199	11093.56
506.567	11220.11
506.936	11220.11
507.304	11328.13
507.672	11451.52
508.041	11472.54
508.409	11574.91
508.777	11690.61
509.145	11766.54
509.514	11778.52
509.882	11813.55
510.25	11918.4
510.618	12014.44
510.986	12017.83
511.354	12172.63
511.722	12169.92
512.09	12276.13
512.458	12264.38
512.826	12360.42
513.193	12401.1
513.561	12394.77
513.929	12479.29
514.297	12560.64
514.664	12686.74
515.032	12669.57
515.4	12806.06
515.767	12804.71
516.135	12850.58
516.502	12799.73
516.869	12958.83
517.237	12998.82
517.604	12947.75
517.972	13092.61
518.339	13195.2
518.706	13044.7
519.073	13104.36
519.44	13174.19
519.808	13233.17
520.175	13199.95
520.542	13360.62
520.909	13437.23
521.276	13308.87
521.643	13363.11
522.009	13409.89
522.376	13545.48
522.743	13529.21
523.11	13625.48
523.477	13715.87
523.843	13760.16
524.21	13852.59
524.577	13918.35
524.943	13857.79
525.31	13925.13
525.676	13992.7
526.043	14091.45
526.409	13900.04
526.776	14067.27
527.142	14126.25
527.508	14082.64
527.874	14111.79
528.241	14096.2
528.607	14181.17
528.973	14228.17
529.339	14029.53
529.705	14262.52
530.071	14273.82
530.437	14237.66
530.803	14315.4
531.169	14343.65
531.535	14238.79
531.901	14168.29
532.267	14332.12
532.632	14362.18
532.998	14234.72
533.364	14240.83
533.73	14238.11
534.095	14247.38
534.461	14239.92
534.826	14274.05
535.192	14294.38
535.557	14319.69
535.923	14267.04
536.288	14295.06
536.653	14199.92
537.019	14204.67
537.384	14191.11
537.749	14147.5
538.114	14159.7
538.479	14020.27
538.845	14098.68
539.21	13986.82
539.575	14044.67
539.94	13949.76
540.305	14058.23
540.67	13881.29
541.034	13901.17
541.399	13947.73
541.764	13834.06
542.129	13846.03
542.494	13880.84
542.858	13788.41
543.223	13780.5
543.587	13816.43
543.952	13692.14
544.316	13726.94
544.681	13643.55
545.045	13736.21
545.41	13620.5
545.774	13678.81
546.138	13633.84
546.503	13570.79
546.867	13590.67
547.231	13548.87
547.595	13491.24
547.959	13524.46
548.324	13461.41
548.688	13471.58
549.052	13405.14
549.416	13374.86
549.779	13291.25
550.143	13261.64
550.507	13307.29
550.871	13312.26
551.235	13163.57
551.599	13229.78
551.962	13109.78
552.326	13147.52
552.689	13271.36
553.053	13036.79
553.417	13073.4
553.78	13199.72
554.143	13091.93
554.507	13085.38
554.87	13057.81
555.234	13164.47
555.597	12966.06
555.96	13084.25
556.323	13035.43
556.686	12939.62
557.05	13055.55
557.413	12976.23
557.776	13034.3
558.139	13006.51
558.502	12979.39
558.865	12972.61
559.228	13041.99
559.59	12979.84
559.953	13050.57
560.316	13086.96
560.679	13057.81
561.041	13000.18
561.404	13113.4
561.767	13114.53
562.129	13034.76
562.492	13134.41
562.854	13037.92
563.217	13031.37
563.579	13084.47
563.941	13056.22
564.304	13115.43
564.666	13133.96
565.028	13120.4
565.39	13092.16
565.753	13174.19
566.115	13173.28
566.477	13187.07
566.839	13171.93
567.201	13268.2
567.563	13145.49
567.925	13308.87
568.287	13286.27
568.648	13273.62
569.01	13331.92
569.372	13385.71
569.734	13245.6
570.095	13299.38
570.457	13360.85
570.819	13371.7
571.18	13328.31
571.542	13394.29
571.903	13430
572.265	13454.18
572.626	13476.1
572.987	13493.5
573.349	13423.22
573.71	13484.91
574.071	13461.86
574.432	13488.98
574.794	13562.2
575.155	13520.17
575.516	13461.86
575.877	13551.35
576.238	13448.76
576.599	13551.13
576.96	13485.82
577.32	13527.85
577.681	13552.71
578.042	13612.37
578.403	13568.98
578.763	13618.24
579.124	13524.23
579.485	13611.46
579.845	13610.11
580.206	13599.94
580.566	13564.01
580.927	13597.68
581.287	13610.33
581.648	13557.45
582.008	13626.38
582.368	13505.03
582.728	13533.27
583.089	13527.85
583.449	13640.84
583.809	13513.84
584.169	13628.19
584.529	13474.29
584.889	13595.19
585.249	13508.42
585.609	13485.59
585.969	13570.34
586.329	13577.11
586.688	13554.06
587.048	13532.82
587.408	13533.73
587.768	13481.3
588.127	13413.73
588.487	13428.87
588.846	13485.14
589.206	13425.71
589.565	13475.65
589.925	13505.03
590.284	13395.42
590.643	13425.03
591.003	13441.98
591.362	13474.29
591.721	13426.61
592.08	13410.79
592.44	13338.7
592.799	13440.17
593.158	13418.47
593.517	13329.44
593.876	13357.46
594.235	13424.35
594.593	13398.81
594.952	13292.38
595.311	13305.48
595.67	13317.23
596.029	13415.99
596.387	13332.6
596.746	13407.85
597.104	13303.9
597.463	13221.19
597.822	13305.48
598.18	13327.18
598.538	13310
598.897	13363.56
599.255	13279.5
599.613	13421.86
599.972	13324.01
600.33	13322.66
600.688	13304.58
601.046	13277.91
601.404	13323.79
601.762	13305.03
602.12	13366.05
602.478	13401.07
602.836	13374.18
603.194	13289.21
603.552	13359.04
603.91	13233.85
604.268	13298.25
604.625	13333.73
604.983	13281.53
605.341	13312.49
605.698	13330.57
606.056	13342.32
606.413	13309.78
606.771	13355.43
607.128	13324.69
607.485	13281.76
607.843	13262.32
608.2	13329.66
608.557	13392.49
608.914	13349.32
609.272	13406.5
609.629	13340.74
609.986	13413.5
610.343	13337.12
610.7	13476.78
611.057	13469.55
611.414	13396.33
611.771	13489.21
612.127	13516.1
612.484	13460.06
612.841	13527.17
613.198	13410.11
613.554	13510.68
613.911	13551.58
614.267	13575.31
614.624	13531.47
614.98	13508.87
615.337	13548.19
615.693	13592.48
616.05	13549.54
616.406	13680.16
616.762	13591.8
617.118	13573.5
617.475	13596.78
617.831	13722.2
618.187	13658.24
618.543	13672.93
618.899	13686.49
619.255	13707.28
619.611	13698.47
619.967	13797.67
620.323	13761.06
620.678	13727.62
621.034	13745.47
621.39	13735.3
621.746	13670.67
622.101	13782.53
622.457	13680.16
622.812	13738.69
623.168	13700.05
623.523	13751.12
623.879	13862.3
624.234	13701.41
624.589	13719.26
624.945	13719.48
625.3	13773.49
625.655	13661.86
626.01	13666.38
626.365	13772.14
626.72	13736.21
627.075	13751.35
627.43	13748.64
627.785	13707.73
628.14	13712.25
628.495	13700.28
628.85	13706.15
629.205	13632.71
629.559	13723.1
629.914	13628.64
630.269	13614.63
630.623	13585.02
630.978	13524.91
631.332	13644.46
631.687	13622.99
632.041	13563.1
632.396	13580.5
632.75	13583.44
633.104	13665.02
633.459	13496.21
633.813	13574.63
634.167	13481.75
634.521	13589.54
634.875	13510.22
635.229	13462.32
635.583	13343.45
635.937	13451.69
636.291	13379.15
636.645	13427.29
636.999	13377.8
637.352	13322.43
637.706	13308.42
638.06	13369.66
638.413	13348.65
638.767	13265.94
639.121	13370.57
639.474	13154.53
639.828	13230.23
640.181	13273.17
640.534	13174.64
640.888	13205.37
641.241	13071.59
641.594	13207.63
641.947	13219.38
642.301	13152.95
642.654	13171.48
643.007	13165.83
643.36	13130.35
643.713	13072.5
644.066	13121.99
644.419	13039.95
644.771	13080.63
645.124	12885.38
645.477	12844.03
645.83	12833.63
646.182	12792.5
646.535	12701.21
646.888	12721.54
647.24	12671.15
647.593	12655.56
647.945	12694.2
648.298	12621.89
648.65	12590.47
649.002	12615.78
649.355	12726.06
649.707	12651.94
650.059	12786.63
650.411	12867.98
650.763	12903.01
651.115	12994.98
651.467	12938.49
651.819	12988.66
652.171	12963.35
652.523	12930.8
652.875	12878.6
653.227	12895.78
653.578	13012.38
653.93	13010.12
654.282	12871.6
654.633	12796.57
654.985	12906.62
655.337	12837.25
655.688	12915.21
656.039	12988.66
656.391	12862.11
656.742	12937.81
657.094	12898.49
657.445	12940.75
657.796	12961.09
658.147	12940.75
658.498	12936
658.849	12910.01
659.2	12994.53
659.551	12885.38
659.902	12976
660.253	12930.35
660.604	12942.78
660.955	13000.63
661.306	12993.85
661.656	12998.15
662.007	12936.45
662.358	12995.66
662.708	12869.79
663.059	12874.76
663.409	12963.12
663.76	13072.95
664.11	12940.75
664.461	13026.62
664.811	12973.97
665.161	13031.59
665.511	12934.65
665.862	12973.97
666.212	13044.93
666.562	12958.37
666.912	13014.87
667.262	12963.8
667.612	12894.19
667.962	12973.29
668.312	12983.68
668.662	13070.69
669.011	12986.62
669.361	12910.24
669.711	12937.13
670.06	12922.22
670.41	12898.71
670.76	12919.73
671.109	12972.84
671.459	12907.53
671.808	12870.24
672.157	12864.14
672.507	12872.95
672.856	12892.39
673.205	12764.25
673.554	12899.62
673.904	12832.5
674.253	12781.88
674.602	12832.95
674.951	12586.63
675.3	12592.28
675.649	12862.11
675.998	12791.15
676.346	12730.81
676.695	12838.38
677.044	12715.44
677.393	12710.47
677.741	12698.27
678.09	12682
678.438	12660.75
678.787	12737.36
679.135	12698.72
679.484	12628.21
679.832	12653.07
680.181	12594.77
680.529	12666.86
680.877	12536.24
681.225	12549.8
681.573	12669.34
681.922	12572.4
682.27	12510.7
682.618	12506.41
682.966	12479.97
683.314	12432.51
683.661	12412.17
684.009	12401.78
684.357	12415.34
684.705	12318.16
685.053	12315.23
685.4	12290.37
685.748	12232.97
686.095	12170.6
686.443	12150.49
686.79	12125.4
687.138	12182.35
687.485	12107.1
687.832	12039.98
688.18	12142.8
688.527	12050.15
688.874	12037.49
689.221	11965.63
689.568	11941.45
689.915	11910.94
690.262	11926.76
690.609	11841.79
690.956	11781
691.303	11829.59
691.65	11712.31
691.997	11791.4
692.344	11609.71
692.69	11664.17
693.037	11622.59
693.383	11513.21
693.73	11582.59
694.077	11570.61
694.423	11464.18
694.769	11423.05
695.116	11430.28
695.462	11375.14
695.808	11324.29
696.155	11355.25
696.501	11246.55
696.847	11244.07
697.193	11106.9
697.539	11166.78
697.885	11069.61
698.231	10998.43
698.577	11043.17
698.923	10983.74
699.269	10899.45
699.614	10904.64
699.96	10827.58
700.306	10870.52
700.651	10883.17
700.997	10673.46
701.342	10707.81
701.688	10613.58
702.033	10642.73
702.379	10651.99
702.724	10591.2
703.069	10583.3
703.415	10461.94
703.76	10448.16
704.105	10538.32
704.45	10422.62
704.795	10376.97
705.14	10318.67
705.485	10263.76
705.83	10299.46
706.175	10273.02
706.52	10254.72
706.865	10217.2
707.209	10121.61
707.554	10129.75
707.899	10101.05
708.243	10056.98
708.588	10070.31
708.932	9998
709.277	9940.37
709.621	9968.17
709.966	9873.03
710.31	9906.02
710.654	9791.23
710.998	9846.82
711.342	9788.06
711.687	9769.08
712.031	9784.22
712.375	9728.85
712.719	9769.31
713.063	9716.65
713.407	9777.67
713.75	9716.43
714.094	9665.35
714.438	9614.28
714.782	9639.59
715.125	9586.49
715.469	9584.9
715.812	9555.98
716.156	9547.16
716.499	9554.17
716.843	9553.27
717.186	9480.5
717.53	9553.94
717.873	9506.71
718.216	9471.23
718.559	9445.7
718.902	9390.56
719.246	9393.72
719.589	9361.41
719.932	9347.17
720.275	9391.24
720.617	9355.08
720.96	9357.56
721.303	9315.08
721.646	9291.35
721.989	9292.71
722.331	9310.56
722.674	9227.62
723.016	9240.05
723.359	9308.3
723.701	9254.52
724.044	9211.58
724.386	9195.31
724.729	9204.57
725.071	9190.11
725.413	9198.02
725.755	9219.49
726.097	9154.41
726.439	9165.93
726.782	9107.85
727.124	9205.48
727.465	9097.68
727.807	9166.16
728.149	9143.33
728.491	9051.13
728.833	9105.14
729.175	9136.1
729.516	9104.24
729.858	9123.45
730.199	9162.32
730.541	9081.64
730.882	9056.1
731.224	9097.01
731.565	9104.92
731.906	9093.16
732.248	9078.93
732.589	9035.99
732.93	8975.2
733.271	9057.91
733.612	9010.91
733.953	9107.63
734.294	9063.79
734.635	9029.89
734.976	9079.15
735.317	9052.49
735.658	9033.28
735.999	9028.53
736.339	9075.09
736.68	9122.09
737.021	8972.26
737.361	9070.79
737.702	9070.11
738.042	9090
738.383	9042.09
738.723	9068.08
739.063	9067.63
739.404	9051.58
739.744	9068.31
740.084	9054.97
740.424	9109.44
740.764	9128.64
741.104	9159.38
741.444	9138.81
741.784	9122.09
742.124	9195.31
742.464	9246.83
742.804	9234.63
743.143	9252.93
743.483	9272.6
743.823	9241.41
744.162	9251.13
744.502	9228.53
744.841	9308.53
745.181	9405.02
745.52	9392.14
745.86	9447.28
746.199	9407.96
746.538	9505.13
746.877	9558.69
747.216	9596.43
747.556	9617.9
747.895	9682.08
748.234	9664.68
748.573	9752.13
748.911	9796.88
749.25	9910.09
749.589	9905.12
749.928	9922.07
750.267	10040.48
750.605	10132.01
750.944	10226.24
751.283	10277.77
751.621	10352.79
751.96	10383.75
752.298	10454.26
752.636	10581.71
752.975	10686.34
753.313	10736.06
753.651	10957.3
753.989	10934.02
754.327	11070.29
754.666	11094.47
755.004	11245.2
755.342	11411.3
755.679	11555.47
756.017	11664.4
756.355	11817.16
756.693	11898.97
757.031	12056.48
757.368	12119.53
757.706	12309.13
758.044	12400.2
758.381	12657.36
758.719	12801.54
759.056	12884.93
759.394	13125.38
759.731	13178.71
760.068	13333.28
760.405	13483.33
760.743	13604.01
761.08	13818.01
761.417	13885.36
761.754	14047.84
762.091	14225.46
762.428	14405.79
762.765	14506.13
763.102	14747.25
763.438	14988.38
763.775	14948.83
764.112	15126.9
764.449	15368.48
764.785	15451.87
765.122	15470.17
765.458	15691.64
765.795	15770.5
766.131	16061.34
766.467	16089.37
766.804	16240.77
767.14	16316.7
767.476	16508.56
767.812	16587.66
768.148	16852.51
768.485	16903.35
768.821	16907.42
769.157	17092.05
769.492	17183.12
769.828	17270.8
770.164	17430.57
770.5	17495.88
770.836	17670.11
771.171	17551.93
771.507	17739.27
771.842	17766.84
772.178	17910.11
772.513	18021.97
772.849	18140.61
773.184	18074.17
773.519	18185.36
773.855	18088.63
774.19	18266.03
774.525	18323.66
774.86	18435.07
775.195	18527.27
775.53	18474.39
775.865	18419.7
776.2	18506.02
776.535	18433.48
776.87	18581.73
777.205	18519.81
777.539	18544.67
777.874	18709.64
778.209	18664.21
778.543	18732.46
778.878	18629.41
779.212	18740.82
779.547	18694.04
779.881	18735.62
780.215	18721.39
780.55	18810.88
780.884	18791.67
781.218	18757.09
781.552	18829.63
781.886	18825.79
782.22	18774.49
782.554	18804.55
782.888	18671.44
783.222	18658.56
783.556	18671.67
783.889	18639.81
784.223	18577.89
784.557	18553.48
784.89	18608.39
785.224	18595.74
785.557	18529.53
785.891	18519.58
786.224	18578.34
786.558	18605.01
786.891	18391.45
787.224	18272.13
787.557	18382.41
787.891	18374.5
788.224	18322.3
788.557	18353.03
788.89	18357.78
789.223	18417.89
789.556	18316.2
789.888	18229.42
790.221	18196.88
790.554	18156.66
790.887	18141.06
791.219	18093.15
791.552	17970.45
791.884	17956.89
792.217	18031.01
792.549	17914.4
792.882	17921.86
793.214	17866.04
793.546	17904.91
793.879	17747.4
794.211	17721.86
794.543	17728.19
794.875	17715.09
795.207	17654.07
795.539	17677.8
795.871	17707.63
796.203	17519.16
796.535	17465.6
796.867	17454.75
797.198	17349.67
797.53	17334.76
797.862	17272.84
798.193	17302.89
798.525	17206.62
798.856	17218.15
799.188	17074.2
799.519	17044.37
799.85	16992.17
800.182	17033.07
800.513	16970.92
800.844	16952.39
801.175	16956.01
801.506	16940.19
801.837	16913.07
802.168	16819.74
802.499	16673.08
802.83	16723.92
803.161	16620.88
803.491	16687.32
803.822	16600.54
804.153	16539.97
804.483	16491.39
804.814	16440.99
805.145	16406.19
805.475	16402.13
805.805	16372.3
806.136	16308.34
806.466	16427.66
806.796	16308.79
807.126	16231.06
807.457	16104.51
807.787	16176.59
808.117	16043.49
808.447	16134.11
808.777	16067.9
809.107	16027.67
809.436	15953.32
809.766	15901.57
810.096	15836.72
810.426	15844.17
810.755	15892.76
811.085	15807.11
811.414	15810.73
811.744	15658.19
812.073	15713.56
812.403	15658.42
812.732	15706.55
813.061	15638.98
813.39	15533
813.719	15509.95
814.049	15541.58
814.378	15566.67
814.707	15454.13
815.036	15456.61
815.365	15379.55
815.693	15251.87
816.022	15328.71
816.351	15153.12
816.68	15173
817.008	15240.8
817.337	15075.15
817.665	15100.01
817.994	15107.7
818.322	15100.46
818.651	15017.08
818.979	14836.74
819.307	15070.86
819.636	14891.43
819.964	14846.23
820.292	14954.25
820.62	14874.93
820.948	14868.83
821.276	14907.02
821.604	14853.24
821.932	14909.28
822.259	14790.19
822.587	14895.95
822.915	14874.48
823.243	14778.89
823.57	14793.35
823.898	14881.26
824.225	14777.76
824.553	14763.75
824.88	14821.15
825.207	14888.04
825.535	14859.79
825.862	14984.31
826.189	14811.66
826.516	14886.68
826.843	14942.05
827.17	14864.76
827.497	14872.45
827.824	14896.18
828.151	14897.76
828.478	14878.55
828.805	14921.26
829.131	14849.62
829.458	14796.74
829.785	14832.45
830.111	14841.26
830.438	14943.41
830.764	14878.78
831.09	14901.83
831.417	14846.46
831.743	14895.27
832.069	14944.31
832.395	14806.46
832.722	14817.08
833.048	14747.25
833.374	14772.11
833.7	14699.57
834.026	14823.86
834.351	14841.49
834.677	14756.07
835.003	14817.99
835.329	14761.72
835.654	14711.32
835.98	14653.47
836.306	14686.46
836.631	14575.05
836.956	14691.44
837.282	14674.71
837.607	14660.25
837.932	14560.37
838.258	14641.04
838.583	14600.59
838.908	14430.2
839.233	14498.22
839.558	14489.86
839.883	14417.77
840.208	14319.69
840.533	14386.58
840.858	14378.45
841.182	14370.09
841.507	14280.6
841.832	14260.49
842.156	14279.47
842.481	14142.3
842.805	14168.74
843.13	14179.58
843.454	14148.17
843.778	14032.02
844.103	14073.82
844.427	14034.05
844.751	14056.42
845.075	13990.66
845.399	13960.61
845.723	13930.1
846.047	13819.82
846.371	13674.74
846.695	13783.66
847.019	13688.98
847.343	13525.14
847.666	13454.41
847.99	13505.25
848.313	13457.57
848.637	13351.36
848.96	13390.45
849.284	13328.31
849.607	13244.47
849.931	13183.45
850.254	13079.95
850.577	13051.48
850.9	13030.01
851.223	13017.58
851.546	12893.52
851.869	12856.68
852.192	12821.88
852.515	12755.67
852.838	12676.57
853.161	12641.09
853.483	12608.33
853.806	12572.4
854.129	12516.58
854.451	12489.23
854.774	12439.29
855.096	12376.02
855.419	12383.7
855.741	12369.01
856.063	12353.19
856.385	12244.27
856.708	12178.96
857.03	12150.71
857.352	12157.72
857.674	12135.8
857.996	12148.23
858.318	12019.64
858.64	12035.23
858.961	11919.98
859.283	11910.27
859.605	11809.93
859.926	11940.32
860.248	11842.47
860.57	11744.85
860.891	11820.55
861.212	11720.21
861.534	11705.3
861.855	11723.83
862.176	11798.63
862.498	11707.56
862.819	11675.47
863.14	11642.48
863.461	11570.61
863.782	11491.52
864.103	11541.46
864.424	11558.86
864.745	11527.68
865.065	11423.73
865.386	11442.26
865.707	11420.56
866.027	11464.63
866.348	11444.29
866.668	11396.16
866.989	11326.78
867.309	11290.17
867.63	11379.66
867.95	11336.72
868.27	11228.02
868.59	11263.28
868.91	11256.27
869.23	11255.14
869.55	11178.53
869.87	11178.08
870.19	11178.76
870.51	11196.16
870.83	11204.75
871.15	11063.51
871.469	11094.02
871.789	11053.34
872.109	11019.22
872.428	11023.51
872.748	11050.18
873.067	11011.08
873.386	11064.86
873.706	11068.71
874.025	10915.04
874.344	10892.89
874.663	10865.55
874.982	10897.41
875.301	10934.25
875.62	10847.92
875.939	10745.1
876.258	10818.32
876.577	10776.51
876.896	10823.29
877.214	10765.44
877.533	10780.8
877.852	10760.92
878.17	10782.61
878.489	10656.06
878.807	10729.73
879.125	10642.5
879.444	10708.49
879.762	10616.74
880.08	10620.81
880.398	10548.27
880.716	10628.94
881.034	10565.44
881.352	10533.35
881.67	10441.6
881.988	10479.8
882.306	10495.84
882.624	10435.95
882.941	10331.55
883.259	10349.4
883.577	10371.78
883.894	10365
884.212	10366.35
884.529	10306.47
884.846	10293.59
885.164	10242.97
885.481	10177.88
885.798	10293.13
886.115	10110.09
886.432	10178.79
886.75	10173.36
887.067	10116.41
887.383	10129.75
887.7	10087.49
888.017	10082.74
888.334	9979.47
888.651	9939.92
888.967	10051.56
889.284	9944.67
889.6	9872.58
889.917	9902.18
890.233	9863.31
890.55	9835.29
890.866	9808.17
891.182	9721.17
891.498	9769.08
891.815	9750.32
892.131	9662.64
892.447	9640.27
892.763	9672.58
893.079	9637.78
893.395	9582.19
893.71	9666.71
894.026	9509.43
894.342	9520.05
894.657	9418.58
894.973	9391.69
895.289	9406.15
895.604	9412.93
895.92	9295.65
896.235	9262.65
896.55	9248.64
896.865	9261.07
897.181	9169.1
897.496	9242.09
897.811	9168.64
898.126	9063.56
898.441	9070.34
898.756	9077.35
899.071	8967.29
899.386	8954.41
899.7	8970.23
900.015	8869.89
900.33	8866.05
900.644	8776.79
900.959	8808.88
901.273	8786.05
901.588	8724.81
901.902	8676.68
902.216	8715.32
902.531	8611.14
902.845	8612.95
903.159	8529.34
903.473	8550.13
903.787	8469.68
904.101	8449.11
904.415	8464.25
904.729	8446.63
905.042	8382.9
905.356	8325.73
905.67	8328.89
905.984	8325.28
906.297	8316.46
906.611	8221.32
906.924	8246.86
907.237	8171.38
907.551	8149.91
907.864	8179.74
908.177	8092.51
908.491	8024.72
908.804	8006.87
909.117	7958.51
909.43	7856.36
909.743	7869.69
910.056	7873.99
910.368	7846.19
910.681	7775.23
910.994	7797.15
911.307	7731.84
911.619	7700.66
911.932	7729.36
912.244	7702.69
912.557	7636.71
912.869	7554.9
913.181	7556.71
913.494	7493.21
913.806	7471.74
914.118	7485.98
914.43	7389.71
914.742	7390.84
915.054	7340.67
915.366	7405.53
915.678	7284.17
915.99	7236.26
916.302	7234.46
916.613	7191.07
916.925	7158.75
917.236	7130.5
917.548	7151.52
917.859	7137.96
918.171	7055.25
918.482	7073.78
918.794	6983.84
919.105	6996.72
919.416	6929.38
919.727	6910.17
920.038	6937.29
920.349	6891.41
920.66	6816.16
920.971	6782.04
921.282	6831.08
921.593	6753.34
921.903	6732.32
922.214	6671.08
922.525	6600.58
922.835	6649.84
923.146	6617.07
923.456	6641.7
923.767	6555.6
924.077	6525.1
924.387	6437.64
924.697	6496.62
925.008	6499.11
925.318	6427.47
925.628	6395.83
925.938	6373.01
926.248	6343.18
926.558	6294.59
926.867	6279.91
927.177	6311.77
927.487	6239.91
927.796	6178.21
928.106	6190.87
928.416	6225.44
928.725	6147.71
929.034	6121.94
929.344	6125.56
929.653	6124.43
929.962	6074.71
930.271	6005.79
930.581	5952.68
930.89	5967.15
931.199	5942.29
931.508	5920.14
931.817	5914.72
932.125	5905.68
932.434	5892.8
932.743	5847.15
933.051	5756.53
933.36	5794.27
933.669	5718.34
933.977	5747.49
934.286	5711.11
934.594	5669.07
934.902	5675.18
935.21	5600.83
935.519	5564.44
935.827	5637.21
936.135	5569.64
936.443	5502.52
936.751	5509.3
937.059	5515.86
937.367	5533.03
937.674	5409.65
937.982	5443.32
938.29	5413.26
938.597	5366.71
938.905	5280.84
939.213	5285.58
939.52	5321.74
939.827	5321.51
940.135	5260.95
940.442	5264.56
940.749	5204.45
941.056	5231.12
941.363	5163.32
941.67	5160.16
941.977	5181.4
942.284	5106.6
942.591	5083.33
942.898	5051.24
943.205	5057.11
943.511	4992.48
943.818	5011.46
944.125	4959.71
944.431	4997.68
944.738	4943.9
945.044	4947.74
945.35	4935.99
945.657	4900.05
945.963	4851.69
946.269	4837.68
946.575	4810.34
946.881	4775.76
947.187	4768.53
947.493	4720.85
947.799	4705.94
948.105	4728.08
948.41	4656.22
948.716	4693.28
949.022	4649.21
949.327	4652.15
949.633	4623.23
949.938	4593.62
950.244	4562.21
950.549	4590.68
950.854	4547.07
951.16	4514.98
951.465	4510.46
951.77	4479.73
952.075	4492.83
952.38	4501.65
952.685	4426.85
952.99	4419.16
953.294	4402.89
953.599	4375.55
953.904	4311.82
954.209	4305.49
954.513	4332.39
954.818	4309.34
955.122	4306.85
955.426	4324.02
955.731	4256
956.035	4216.91
956.339	4170.36
956.643	4180.3
956.948	4203.8
957.252	4136.01
957.556	4119.28
957.86	4136.23
958.163	4080.64
958.467	4071.38
958.771	4084.48
959.075	4041.77
959.378	3975.11
959.682	4010.36
959.985	4039.06
960.289	3942.79
960.592	3945.05
960.896	3905.28
961.199	3922
961.502	3907.09
961.805	3839.97
962.108	3848.78
962.411	3862.57
962.714	3819.63
963.017	3801.55
963.32	3812.63
963.623	3771.27
963.926	3753.19
964.228	3746.41
964.531	3709.58
964.833	3738.96
965.136	3704.83
965.438	3675.68
965.741	3666.87
966.043	3637.04
966.345	3629.35
966.648	3582.8
966.95	3614.66
967.252	3580.32
967.554	3602.24
967.856	3580.09
968.158	3534.89
968.46	3544.61
968.761	3542.58
969.063	3477.27
969.365	3515.46
969.666	3519.75
969.968	3450.6
970.269	3409.25
970.571	3423.71
970.872	3385.07
971.174	3400.43
971.475	3353.43
971.776	3380.32
972.077	3370.83
972.378	3340.77
972.679	3297.61
972.98	3310.94
973.281	3307.1
973.582	3251.28
973.883	3281.57
974.183	3245.18
974.484	3271.17
974.785	3201.12
975.085	3197.05
975.386	3210.83
975.686	3165.41
975.986	3173.55
976.287	3161.34
976.587	3123.15
976.887	3140.33
977.187	3114.79
977.487	3127.67
977.787	3087.67
978.087	3032.53
978.387	3062.81
978.687	3061.46
978.987	3041.8
979.286	3038.63
979.586	3008.13
979.885	2998.64
980.185	2964.74
980.484	2961.8
980.784	2931.07
981.083	2923.38
981.382	2908.92
981.682	2942.14
981.981	2901.92
982.28	2891.75
982.579	2837.51
982.878	2863.95
983.177	2857.62
983.475	2825.08
983.774	2814.91
984.073	2799.09
984.372	2774.01
984.67	2775.59
984.969	2774.01
985.267	2782.37
985.566	2737.4
985.864	2697.63
986.162	2708.7
986.461	2691.75
986.759	2696.72
987.057	2646.1
987.355	2658.31
987.653	2673.67
987.951	2677.51
988.249	2656.95
988.547	2604.07
988.844	2609.27
989.142	2609.95
989.44	2597.97
989.737	2609.04
990.035	2535.37
990.332	2531.76
990.63	2546.67
990.927	2529.27
991.224	2518.87
991.521	2481.14
991.819	2513.22
992.116	2477.97
992.413	2446.56
992.71	2447.46
993.006	2447.46
993.303	2438.42
993.6	2407.92
993.897	2406.79
994.193	2384.19
994.49	2401.14
994.787	2396.84
995.083	2374.7
995.379	2391.87
995.676	2338.09
995.972	2361.36
996.268	2332.44
996.565	2325.43
996.861	2303.51
997.157	2287.92
997.453	2247.47
997.749	2242.05
998.044	2258.09
998.34	2226.68
998.636	2227.58
998.932	2184.19
999.227	2199.56
999.523	2205.89
999.818	2196.62
1000.114	2172.89
1000.409	2137.42
1000.704	2139.22
1001	2156.85
1001.295	2127.92
1001.59	2109.85
1001.885	2110.52
1002.18	2078.66
1002.475	2099.22
1002.77	2061.71
1003.065	2048.38
1003.359	2042.05
1003.654	2048.6
1003.949	2048.6
1004.243	2014.48
1004.538	1986.46
1004.832	1969.74
1005.127	1985.56
1005.421	1964.54
1005.715	2004.99
1006.009	1952.11
1006.304	1898.55
1006.598	1921.38
1006.892	1905.78
1007.186	1943.97
1007.48	1901.72
1007.773	1860.81
1008.067	1857.2
1008.361	1889.51
1008.655	1859.91
1008.948	1843.41
1009.242	1819.68
1009.535	1831.43
1009.829	1827.14
1010.122	1792.57
1010.415	1800.02
1010.708	1746.01
1011.001	1734.49
1011.295	1734.94
1011.588	1753.7
1011.881	1732.68
1012.173	1714.83
1012.466	1711.66
1012.759	1714.83
1013.052	1711.66
1013.344	1677.99
1013.637	1685.68
1013.93	1648.16
1014.222	1648.16
1014.514	1673.7
1014.807	1632.12
1015.099	1615.85
1015.391	1619.24
1015.683	1593.93
1015.976	1618.56
1016.268	1568.39
1016.56	1552.57
1016.851	1545.57
1017.143	1559.13
1017.435	1558.67
1017.727	1552.12
1018.018	1507.38
1018.31	1497.88
1018.602	1515.74
1018.893	1515.51
1019.185	1505.79
1019.476	1481.61
1019.767	1455.63
1020.058	1462.41
1020.35	1455.63
1020.641	1441.39
1020.932	1443.42
1021.223	1426.7
1021.514	1424.89
1021.804	1430.32
1022.095	1381.05
1022.386	1422.86
1022.677	1370.2
1022.967	1382.41
1023.258	1361.16
1023.548	1367.04
1023.839	1325.91
1024.129	1337.66
1024.419	1293.37
1024.709	1305.57
1025	1282.97
1025.29	1314.39
1025.58	1274.84
1025.87	1256.31
1026.16	1250.89
1026.449	1261.05
1026.739	1267.61
1027.029	1243.65
1027.319	1244.78
1027.608	1224.9
1027.898	1247.72
1028.187	1212.69
1028.477	1215.41
1028.766	1215.63
1029.055	1215.41
1029.344	1167.5
1029.634	1180.83
1029.923	1180.6
1030.212	1168.85
1030.501	1149.42
1030.79	1146.26
1031.078	1140.83
1031.367	1142.19
1031.656	1132.02
1031.945	1097.89
1032.233	1123.2
1032.522	1128.4
1032.81	1103.09
1033.099	1083.43
1033.387	1110.1
1033.675	1084.34
1033.963	1054.28
1034.251	1066.26
1034.54	1065.81
1034.828	1041.85
1035.116	1055.41
1035.403	1049.99
1035.691	1026.03
1035.979	1016.54
1036.267	997.11
1036.554	998.46
1036.842	1026.26
1037.129	1027.84
1037.417	986.71
1037.704	997.56
1037.992	986.03
1038.279	945.13
1038.566	952.81
1038.853	952.81
1039.14	952.81
