Data from hue_30_FLMS001491_28.txt Node
Date: Mon Feb 06 15:04:57 GMT 2017
User: dcchb
Spectrometer: FLMS00149
Trigger mode: 0
Integration Time (sec): 2.000000E-2
Scans to average: 10
Electric dark correction enabled: true
Nonlinearity correction enabled: false
Boxcar width: 0
XAxis mode: Wavelengths
Number of Pixels in Spectrum: 2048
>>>>>Begin Spectral Data<<<<<
341.393	-8.22
341.776	-8.22
342.16	-8.22
342.543	-53.19
342.927	-84.15
343.31	-73.3
343.693	-74.21
344.077	-68.78
344.46	-66.07
344.843	-47.54
345.226	-36.69
345.61	-33.98
345.993	-4.83
346.376	4.66
346.759	7.37
347.142	26.13
347.525	41.5
347.908	46.02
348.291	69.97
348.674	89.4
349.057	120.36
349.44	120.82
349.823	139.12
350.206	173.02
350.588	191.1
350.971	229.74
351.354	226.58
351.737	238.55
352.119	240.13
352.502	258.89
352.884	272.45
353.267	292.34
353.65	272.9
354.032	301.83
354.414	297.53
354.797	314.71
355.179	316.97
355.562	316.07
355.944	319.23
356.326	322.84
356.709	355.16
357.091	319.45
357.473	337.76
357.855	317.42
358.238	364.2
358.62	344.54
359.002	329.62
359.384	331.43
359.766	324.65
360.148	335.27
360.53	310.42
360.912	335.5
361.294	337.99
361.676	334.6
362.057	351.54
362.439	338.44
362.821	319.68
363.203	347.7
363.584	338.66
363.966	330.3
364.348	312.22
364.729	311.77
365.111	309.74
365.493	326.91
365.874	334.82
366.256	319.23
366.637	329.4
367.019	327.59
367.4	321.26
367.781	301.6
368.163	318.55
368.544	319.23
368.925	313.35
369.306	318.1
369.688	305.44
370.069	304.77
370.45	314.26
370.831	331.66
371.212	319.45
371.593	324.65
371.974	297.99
372.355	296.18
372.736	321.04
373.117	293.92
373.498	307.48
373.879	316.07
374.26	312.22
374.641	313.13
375.021	339.12
375.402	313.58
375.783	323.75
376.163	335.95
376.544	342.05
376.925	340.47
377.305	316.74
377.686	329.4
378.066	340.92
378.447	318.1
378.827	349.51
379.208	333.92
379.588	321.49
379.968	333.92
380.349	342.73
380.729	347.7
381.109	339.79
381.489	343.41
381.87	340.25
382.25	352.45
382.63	362.62
383.01	347.25
383.39	352
383.77	349.74
384.15	343.64
384.53	337.53
384.91	335.27
385.29	344.76
385.67	360.36
386.049	366.46
386.429	365.1
386.809	328.04
387.189	336.86
387.568	360.36
387.948	326.46
388.328	373.01
388.707	348.61
389.087	352.9
389.466	356.52
389.846	351.77
390.225	363.07
390.605	370.98
390.984	366.69
391.363	360.81
391.743	377.31
392.122	371.66
392.501	372.79
392.881	379.11
393.26	379.11
393.639	373.92
394.018	374.82
394.397	375.05
394.776	380.92
395.155	401.49
395.534	379.79
395.913	378.89
396.292	396.06
396.671	393.58
397.05	384.99
397.429	389.28
397.808	403.29
398.186	364.65
398.565	383.86
398.944	383.18
399.323	398.55
399.701	384.09
400.08	396.74
400.458	383.63
400.837	405.1
401.215	409.4
401.594	405.1
401.972	400.58
402.351	387.02
402.729	424.76
403.107	421.83
403.486	402.16
403.864	410.98
404.242	405.55
404.62	401.71
404.999	411.88
405.377	422.28
405.755	417.08
406.133	427.25
406.511	429.28
406.889	423.41
407.267	417.76
407.645	430.19
408.023	436.74
408.401	435.61
408.779	436.51
409.156	454.37
409.534	449.62
409.912	443.07
410.29	459.56
410.667	450.3
411.045	448.04
411.422	436.51
411.8	456.63
412.178	488.72
412.555	460.47
412.933	469.06
413.31	459.56
413.687	475.83
414.065	450.98
414.442	470.86
414.819	491.88
415.197	493.91
415.574	497.53
415.951	500.69
416.328	494.59
416.705	505.89
417.082	488.04
417.46	514.7
417.837	512.9
418.214	511.77
418.591	537.53
418.967	523.97
419.344	505.21
419.721	515.16
420.098	530.07
420.475	539.11
420.852	515.61
421.228	537.08
421.605	531.2
421.982	527.81
422.358	526.46
422.735	526
423.111	556.96
423.488	516.96
423.864	555.38
424.241	571.88
424.617	557.41
424.994	570.97
425.37	567.13
425.746	580.01
426.123	540.69
426.499	567.81
426.875	586.34
427.251	595.83
427.627	582.72
428.003	594.02
428.379	588.15
428.756	603.74
429.132	584.76
429.507	603.52
429.883	616.62
430.259	608.71
430.635	616.17
431.011	629.73
431.387	665.43
431.763	627.24
432.138	637.19
432.514	624.98
432.89	657.75
433.265	675.38
433.641	656.85
434.016	664.3
434.392	675.6
434.767	699.78
435.143	699.11
435.518	691.42
435.894	710.41
436.269	713.12
436.644	714.92
437.02	713.34
437.395	706.56
437.77	704.08
438.145	736.39
438.52	723.51
438.895	750.63
439.271	737.07
439.646	739.56
440.021	746.34
440.395	754.92
440.77	758.09
441.145	754.92
441.52	781.59
441.895	760.35
442.27	771.19
442.645	789.27
443.019	783.62
443.394	779.1
443.769	807.58
444.143	784.3
444.518	802.15
444.892	800.8
445.267	820.46
445.641	818.65
446.016	835.6
446.39	848.71
446.764	843.06
447.139	837.41
447.513	841.25
447.887	841.7
448.262	853
448.636	843.06
449.01	850.51
449.384	860.91
449.758	850.06
450.132	860.91
450.506	896.16
450.88	886.22
451.254	891.87
451.628	879.67
452.002	905.43
452.376	922.15
452.75	899.33
453.123	898.87
453.497	927.35
453.871	912.66
454.244	944.98
454.618	948.36
454.992	948.59
455.365	975.26
455.739	957.4
456.112	981.58
456.486	983.62
456.859	1004.63
457.232	1010.74
457.606	1006.67
457.979	1038.76
458.352	1026.78
458.725	1060.68
459.099	1054.35
459.472	1078.08
459.845	1086.21
460.218	1085.76
460.591	1109.94
460.964	1074.46
461.337	1138.19
461.71	1129.15
462.083	1170.28
462.456	1171.86
462.829	1159.88
463.201	1186.55
463.574	1190.84
463.947	1205.76
464.32	1251.41
464.692	1245.76
465.065	1259.32
465.438	1277.85
465.81	1249.15
466.183	1262.03
466.555	1317.17
466.928	1335.25
467.3	1342.03
467.672	1336.15
468.045	1388.13
468.417	1370.5
468.789	1419.76
469.161	1434.91
469.534	1474.23
469.906	1462.25
470.278	1475.13
470.65	1504.73
471.022	1535.24
471.394	1575.02
471.766	1580.89
472.138	1626.77
472.51	1592.87
472.882	1679.65
473.253	1682.81
473.625	1704.05
473.997	1732.53
474.369	1753.09
474.74	1780.66
475.112	1832.86
475.484	1841.22
475.855	1903.14
476.227	1924.38
476.598	1977.72
476.97	1953.76
477.341	2044.38
477.713	2083.7
478.084	2111.5
478.455	2147.66
478.827	2181.78
479.198	2254.55
479.569	2273.3
479.94	2347.65
480.311	2388.78
480.682	2428.55
481.053	2518.95
481.424	2550.36
481.795	2577.93
482.166	2652.05
482.537	2673.07
482.908	2714.19
483.279	2781.76
483.65	2892.95
484.021	2925.04
484.391	2964.58
484.762	3080.51
485.133	3095.88
485.503	3150.79
485.874	3245.25
486.244	3246.38
486.615	3335.65
486.985	3385.59
487.356	3475.3
487.726	3480.95
488.097	3566.38
488.467	3611.57
488.837	3751.91
489.207	3797.78
489.578	3861.73
489.948	3938.12
490.318	3941.28
490.688	4033.03
491.058	4091.33
491.428	4197.77
491.798	4235.06
492.168	4275.74
492.538	4360.7
492.908	4390.76
493.278	4508.27
493.648	4526.8
494.017	4635.95
494.387	4673.69
494.757	4752.78
495.126	4809.05
495.496	4848.38
495.866	4867.81
496.235	4981.48
496.605	5007.47
496.974	5055.83
497.344	5141.93
497.713	5145.32
498.082	5202.94
498.452	5283.17
498.821	5266.22
499.19	5301.47
499.559	5416.5
499.928	5482.26
500.298	5476.38
500.667	5533.56
501.036	5564.29
501.405	5622.59
501.774	5650.61
502.143	5729.26
502.512	5736.71
502.88	5836.6
503.249	5845.19
503.618	5884.28
503.987	5931.28
504.356	5966.54
504.724	5978.97
505.093	6035.01
505.462	6039.53
505.83	6090.15
506.199	6200.2
506.567	6229.13
506.936	6235.01
507.304	6354.1
507.672	6373.53
508.041	6372.18
508.409	6405.17
508.777	6431.84
509.145	6533.3
509.514	6511.16
509.882	6530.82
510.25	6540.76
510.618	6621.44
510.986	6686.07
511.354	6739.85
511.722	6779.62
512.09	6809
512.458	6790.02
512.826	6854.2
513.193	6892.62
513.561	6923.35
513.929	6991.37
514.297	7028.21
514.664	7011.93
515.032	7102.33
515.4	7120.86
515.767	7110.91
516.135	7137.13
516.502	7125.15
516.869	7217.8
517.237	7282.21
517.604	7282.21
517.972	7294.19
518.339	7335.54
518.706	7351.59
519.073	7365.37
519.44	7481.53
519.808	7438.36
520.175	7516.1
520.542	7568.53
520.909	7575.31
521.276	7639.49
521.643	7672.03
522.009	7639.26
522.376	7741.63
522.743	7766.94
523.11	7848.97
523.477	7906.6
523.843	7940.95
524.21	8040.38
524.577	8034.28
524.943	8122.87
525.31	8109.98
525.676	8197.44
526.043	8200.83
526.409	8276.76
526.776	8334.39
527.142	8352.01
527.508	8378
527.874	8473.36
528.241	8426.59
528.607	8521.05
528.973	8599.92
529.339	8603.53
529.705	8629.74
530.071	8758.33
530.437	8751.78
530.803	8892.34
531.169	8864.31
531.535	8812.79
531.901	8914.48
532.267	8856.86
532.632	8971.66
532.998	8953.58
533.364	9051.88
533.73	9031.99
534.095	9200.8
534.461	9169.39
534.826	9240.8
535.192	9232.89
535.557	9370.52
535.923	9299.33
536.288	9292.33
536.653	9355.83
537.019	9403.06
537.384	9448.93
537.749	9493.22
538.114	9603.96
538.479	9575.26
538.845	9638.08
539.21	9612.54
539.575	9717.63
539.94	9673.33
540.305	9745.42
540.67	9777.06
541.034	9779.32
541.399	9864.29
541.764	9917.62
542.129	9943.61
542.494	9992.87
542.858	10067
543.223	10053.44
543.587	10136.6
543.952	10178.86
544.316	10151.29
544.681	10202.81
545.045	10177.95
545.41	10344.28
545.774	10360.32
546.138	10377.27
546.503	10415.23
546.867	10423.82
547.231	10495.46
547.595	10518.51
547.959	10603.03
548.324	10593.08
548.688	10679.63
549.052	10683.7
549.416	10704.72
549.779	10746.75
550.143	10744.72
550.507	10852.74
550.871	10848.67
551.235	10872.85
551.599	10974.54
551.962	10986.07
552.326	10999.17
552.689	11045.73
553.053	11043.24
553.417	11055.44
553.78	11197.13
554.143	11148.55
554.507	11182.9
554.87	11194.42
555.234	11273.07
555.597	11323.69
555.96	11336.34
556.323	11377.7
556.686	11379.73
557.05	11483.68
557.413	11508.31
557.776	11568.65
558.139	11611.36
558.502	11617.01
558.865	11660.85
559.228	11723.22
559.59	11758.02
559.953	11752.83
560.316	11951.47
560.679	11864.24
561.041	11978.58
561.404	11934.29
561.767	12009.09
562.129	11987.85
562.492	12071.46
562.854	12032.59
563.217	12079.82
563.579	12148.07
563.941	12255.86
564.304	12275.98
564.666	12401.85
565.028	12451.11
565.39	12383.77
565.753	12431.23
566.115	12517.33
566.477	12528.63
566.839	12611.56
567.201	12658.34
567.563	12623.76
567.925	12763.2
568.287	12762.97
568.648	12808.17
569.01	12915.96
569.372	13004.32
569.734	12930.42
570.095	13000.48
570.457	13076.86
570.819	13087.93
571.18	13240.02
571.542	13202.05
571.903	13206.8
572.265	13371.32
572.626	13346.23
572.987	13392.56
573.349	13514.36
573.71	13660.57
574.071	13669.39
574.432	13795.03
574.794	13843.62
575.155	13917.29
575.516	13889.49
575.877	14101.01
576.238	14124.52
576.599	14271.18
576.96	14267.56
577.32	14471.4
577.681	14587.78
578.042	14738.06
578.403	14736.48
578.763	14874.33
579.124	14992.97
579.485	15086.52
579.845	15307.54
580.206	15446.51
580.566	15534.87
580.927	15704.36
581.287	15895.32
581.648	15980.74
582.008	16250.56
582.368	16361.52
582.728	16582.98
583.089	16762.64
583.449	16961.28
583.809	17216.86
584.169	17407.14
584.529	17534.6
584.889	17990.18
585.249	18041.25
585.609	18147.01
585.969	18509.71
586.329	18565.08
586.688	18994.22
587.048	19206.64
587.408	19388.56
587.768	19553.07
588.127	19833.29
588.487	20139.05
588.846	20521.41
589.206	20672.37
589.565	20957.78
589.925	21363.65
590.284	21500.14
590.643	21892.45
591.003	22152.55
591.362	22416.05
591.721	22698.75
592.08	23065.52
592.44	23373.09
592.799	23636.81
593.158	23928.33
593.517	24088.77
593.876	24428.43
594.235	24566.05
594.593	25029.54
594.952	25309.98
595.311	25451
595.67	25828.61
596.029	26175.27
596.387	26560.8
596.746	26855.03
597.104	26926.89
597.463	27240.55
597.822	27740.43
598.18	27875.11
598.538	28071.95
598.897	28510.58
599.255	28711.25
599.613	29274.17
599.972	29355.53
600.33	29764.33
600.688	29831.67
601.046	30227.37
601.404	30670.97
601.762	30838.2
602.12	31128.14
602.478	31323.61
602.836	31493.55
603.194	31646.54
603.552	32064.61
603.91	32024.61
604.268	32565.61
604.625	32658.49
604.983	33075.2
605.341	33115.43
605.698	33425.48
606.056	33762.19
606.413	33954.5
606.771	34050.09
607.128	34341.61
607.485	34567.14
607.843	34772.56
608.2	35011.42
608.557	35364.64
608.914	35410.51
609.272	35769.82
609.629	36006.2
609.986	36178.85
610.343	36183.37
610.7	36515.57
611.057	36659.74
611.414	36902.67
611.771	37055.66
612.127	37293.62
612.484	37563.22
612.841	37643.9
613.198	37761.41
613.554	37757.11
613.911	38076.65
614.267	38192.58
614.624	38267.84
614.98	38465.8
615.337	38855.62
615.693	38874.15
616.05	39047.02
616.406	39262.39
616.762	39262.84
617.118	39257.64
617.475	39669.15
617.831	39854.23
618.187	39845.2
618.543	40146.2
618.899	40269.59
619.255	40296.03
619.611	40446.76
619.967	40571.73
620.323	40800.88
620.678	40739.86
621.034	40642.46
621.39	40752.29
621.746	40775.57
622.101	41288.77
622.457	41056.46
622.812	41212.39
623.168	41432.5
623.523	41516.79
623.879	41532.38
624.234	41468.2
624.589	41592.95
624.945	41706.39
625.3	41812.6
625.655	41849.44
626.01	41830.23
626.365	41976.89
626.72	41968.53
627.075	42042.43
627.43	42026.83
627.785	41944.35
628.14	42240.61
628.495	42128.75
628.85	42072.26
629.205	42146.38
629.559	42432.25
629.914	42323.32
630.269	42404.22
630.623	42308.18
630.978	42255.53
631.332	42471.79
631.687	42533.03
632.041	42291.68
632.396	42366.48
632.75	42395.18
633.104	42400.16
633.459	42354.73
633.813	42187.73
634.167	42261.18
634.521	42446.48
634.875	42452.36
635.229	42457.78
635.583	42209.2
635.937	42271.12
636.291	42341.63
636.645	42251.46
636.999	42263.44
637.352	42411.23
637.706	42232.7
638.06	42373.26
638.413	42319.93
638.767	42229.77
639.121	42195.64
639.474	41992.26
639.828	42072.93
640.181	42173.72
640.534	42174.17
640.888	42110.9
641.241	41904.8
641.594	42058.47
641.947	42175.76
642.301	41951.35
642.654	42114.74
643.007	41996.55
643.36	42096.44
643.713	41887.63
644.066	42105.47
644.419	41875.65
644.771	41598.82
645.124	41334.87
645.477	41204.03
645.83	41034.32
646.182	40851.27
646.535	40781.89
646.888	40834.1
647.24	40590.49
647.593	40983.7
647.945	40745.74
648.298	40671.16
648.65	40633.42
649.002	40489.25
649.355	40755
649.707	40600.66
650.059	40745.96
650.411	41184.6
650.763	41421.42
651.115	41767.4
651.467	41454.42
651.819	41574.42
652.171	41480.18
652.523	41495.77
652.875	41426.62
653.227	41263.46
653.578	41555.88
653.93	41243.58
654.282	41269.79
654.633	41086.74
654.985	41207.87
655.337	41289
655.688	41342.33
656.039	41331.03
656.391	40986.86
656.742	41054.88
657.094	41187.31
657.445	41186.4
657.796	41043.81
658.147	41009.68
658.498	41212.39
658.849	41107.99
659.2	41200.64
659.551	40992.96
659.902	41171.94
660.253	41020.98
660.604	41169
660.955	40933.3
661.306	41000.42
661.656	40920.42
662.007	40938.05
662.358	40930.36
662.708	40953.41
663.059	40903.92
663.409	40692.86
663.76	41072.51
664.11	40858.73
664.461	40985.96
664.811	40940.31
665.161	40931.49
665.511	40825.28
665.862	40898.27
666.212	41006.07
666.562	41037.48
666.912	40821.67
667.262	40855.11
667.612	40861.44
667.962	40752.06
668.312	40762.46
668.662	41049.23
669.011	40865.51
669.361	40725.17
669.711	40766.53
670.06	40641.56
670.41	40761.78
670.76	40583.03
671.109	40732.63
671.459	40728.56
671.808	40614.89
672.157	40627.77
672.507	40498.06
672.856	40602.24
673.205	40551.39
673.554	40651.05
673.904	40512.75
674.253	40630.94
674.602	40508
674.951	40009.26
675.3	39885.19
675.649	40513.2
675.998	40351.4
676.346	40299.19
676.695	40501.45
677.044	40231.4
677.393	40222.36
677.741	40371.96
678.09	40321.11
678.438	40095.58
678.787	40244.51
679.135	40219.65
679.484	40010.84
679.832	40256.48
680.181	39879.54
680.529	40062.14
680.877	39917.96
681.225	39761.36
681.573	39970.84
681.922	39810.85
682.27	39770.39
682.618	39705.09
682.966	39649.95
683.314	39707.57
683.661	39478.65
684.009	39406.34
684.357	39353
684.705	39287.24
685.053	39216.51
685.4	39242.95
685.748	39006.57
686.095	39070.3
686.443	38843.64
686.79	38950.08
687.138	38929.74
687.485	38971.77
687.832	38767.94
688.18	38808.61
688.527	38550.31
688.874	38460.6
689.221	38332.92
689.568	38340.6
689.915	38356.87
690.262	38443.2
690.609	38171.57
690.956	38068.07
691.303	37944.23
691.65	37799.6
691.997	37843.67
692.344	37619.04
692.69	37581.3
693.037	37536.78
693.383	37351.7
693.73	37522.32
694.077	37239.84
694.423	37292.04
694.769	37066.51
695.116	36977.7
695.462	37065.16
695.808	36898.38
696.155	36919.4
696.501	36711.27
696.847	36788.33
697.193	36440.99
697.539	36496.81
697.885	36187.89
698.231	36055.46
698.577	36281.45
698.923	36088.91
699.269	35870.61
699.614	35815.7
699.96	35757.85
700.306	35749.94
700.651	35589.94
700.997	35421.58
701.342	35543.16
701.688	35430.85
702.033	35287.57
702.379	35221.81
702.724	35131.65
703.069	35208.48
703.415	34729.85
703.76	34839.68
704.105	34933.69
704.45	34619.34
704.795	34508.61
705.14	34443.08
705.485	34417.77
705.83	34239.92
706.175	34247.38
706.52	34227.26
706.865	34153.59
707.209	34062.97
707.554	33946.82
707.899	34051.45
708.243	33831.57
708.588	33731.46
708.932	33594.29
709.277	33488.3
709.621	33508.86
709.966	33370.34
710.31	33497.34
710.654	33217.57
710.998	33279.27
711.342	33302.09
711.687	33094.19
712.031	33004.47
712.375	32812.84
712.719	32862.55
713.063	32800.41
713.407	32791.14
713.75	32563.58
714.094	32599.51
714.438	32435.67
714.782	32681.54
715.125	32425.5
715.469	32483.13
715.812	32272.51
716.156	32041.78
716.499	32090.14
716.843	32149.8
717.186	31990.26
717.53	32075.68
717.873	32115.68
718.216	32016.02
718.559	31809.02
718.902	31637.5
719.246	31681.34
719.589	31607.22
719.932	31598.41
720.275	31525.64
720.617	31454.23
720.96	31382.14
721.303	31383.72
721.646	31319.09
721.989	31154.12
722.331	31228.92
722.674	31193.22
723.016	31104.63
723.359	31070.28
723.701	31078.87
724.044	30836.84
724.386	30743.29
724.729	30957.29
725.071	30874.13
725.413	30789.39
725.755	30801.37
726.097	30630.97
726.439	30505.33
726.782	30447.25
727.124	30585.1
727.465	30454.48
727.807	30393.01
728.149	30402.05
728.491	30299.91
728.833	30307.37
729.175	30126.13
729.516	30214.04
729.858	30181.04
730.199	30146.69
730.541	30043.19
730.882	30103.08
731.224	30088.16
731.565	29870.99
731.906	29958.68
732.248	29939.02
732.589	29735.4
732.93	29588.29
733.271	29695.41
733.612	29677.78
733.953	29709.19
734.294	29546.03
734.635	29459.71
734.976	29598.01
735.317	29466.71
735.658	29373.15
735.999	29463.1
736.339	29282.54
736.68	29491.34
737.021	29280.5
737.361	29171.8
737.702	29200.73
738.042	29305.81
738.383	29043.45
738.723	29141.52
739.063	29093.39
739.404	29077.79
739.744	29051.35
740.084	28784.7
740.424	28847.29
740.764	28750.8
741.104	28896.1
741.444	28750.57
741.784	28663.79
742.124	28630.8
742.464	28625.6
742.804	28558.94
743.143	28619.05
743.483	28564.81
743.823	28434.2
744.162	28454.53
744.502	28400.52
744.841	28335.89
745.181	28407.3
745.52	28217.03
745.86	28236.01
746.199	28182.68
746.538	28193.52
746.877	28147.42
747.216	28191.49
747.556	28148.33
747.895	28056.58
748.234	28076.47
748.573	27937.94
748.911	27902.46
749.25	27812.74
749.589	27830.14
749.928	27733.65
750.267	27920.09
750.605	27742.46
750.944	27669.02
751.283	27600.55
751.621	27636.25
751.96	27537.5
752.298	27464.28
752.636	27434.45
752.975	27379.08
753.313	27262.48
753.651	27241.68
753.989	27178.41
754.327	27207.34
754.666	27123.04
755.004	27174.34
755.342	27086.66
755.679	26982.93
756.017	26939.09
756.355	26936.61
756.693	26806.22
757.031	26839.66
757.368	26718.99
757.706	26721.7
758.044	26733.68
758.381	26782.94
758.719	26514.92
759.056	26561.48
759.394	26408.71
759.731	26388.15
760.068	26259.34
760.405	26190.64
760.743	26144.09
761.08	26204.2
761.417	25977.54
761.754	25967.59
762.091	25841.72
762.428	25820.71
762.765	25608.28
763.102	25820.71
763.438	25580.49
763.775	25555.85
764.112	25534.61
764.449	25485.8
764.785	25454.39
765.122	25248.52
765.458	25127.62
765.795	25109.54
766.131	25105.02
766.467	24919.49
766.804	24768.98
767.14	24704.12
767.476	24860.96
767.812	24747.97
768.148	24542.09
768.485	24420.97
768.821	24445.6
769.157	24223.69
769.492	24217.13
769.828	24210.35
770.164	24067.08
770.5	23983.24
770.836	24056.91
771.171	23913.41
771.507	23782.79
771.842	23673.64
772.178	23597.26
772.513	23465.51
772.849	23516.36
773.184	23358.85
773.519	23274.11
773.855	23236.14
774.19	23098.29
774.525	23223.26
774.86	23030.04
775.195	23011.06
775.53	22884.06
775.865	22802.25
776.2	22629.38
776.535	22553.67
776.87	22521.36
777.205	22374.24
777.539	22299.22
777.874	22270.29
778.209	22127.47
778.543	22109.62
778.878	22001.37
779.212	22012.44
779.547	21863.07
779.881	21907.14
780.215	21640.48
780.55	21674.15
780.884	21555.73
781.218	21465.57
781.552	21443.19
781.886	21344.21
782.22	21224.67
782.554	21189.41
782.888	21031
783.222	21026.71
783.556	20866.03
783.889	20822.42
784.223	20691.57
784.557	20718.24
784.89	20680.5
785.224	20501.75
785.557	20411.58
785.891	20362.54
786.224	20314.86
786.558	20347.63
786.891	20115.32
787.224	20000.07
787.557	19905.83
787.891	20030.12
788.224	19978.82
788.557	19867.42
788.89	19746.74
789.223	19757.14
789.556	19611.6
789.888	19500.19
790.221	19466.07
790.554	19355.34
790.887	19368.22
791.219	19295
791.552	19243.48
791.884	19106.31
792.217	19023.6
792.549	19019.08
792.882	18871.51
793.214	18864.28
793.546	18902.7
793.879	18745.86
794.211	18757.39
794.543	18759.87
794.875	18638.75
795.207	18596.71
795.539	18551.29
795.871	18473.1
796.203	18320.34
796.535	18273.11
796.867	18251.19
797.198	18194.47
797.53	18078.08
797.862	17994.47
798.193	18121.02
798.525	17968.48
798.856	18016.39
799.188	17727.58
799.519	17738.43
799.85	17607.36
800.182	17623.18
800.513	17664.31
800.844	17500.25
801.175	17519.45
801.506	17516.06
801.837	17357.65
802.168	17307.48
802.499	17260.25
802.83	17238.11
803.161	17107.94
803.491	17112.91
803.822	17114.27
804.153	17024.1
804.483	16911.79
804.814	16885.12
805.145	16868.62
805.475	16818.23
805.805	16779.36
806.136	16735.97
806.466	16757.67
806.796	16644.45
807.126	16462.31
807.457	16383.67
807.787	16493.49
808.117	16436.55
808.447	16241.97
808.777	16367.85
809.107	16286.27
809.436	16214.63
809.766	16314.51
810.096	16157
810.426	16122.2
810.755	16115.65
811.085	16013.05
811.414	16040.4
811.744	15905.49
812.073	15874.3
812.403	15861.65
812.732	15830.91
813.061	15775.32
813.39	15714.98
813.719	15742.33
814.049	15707.3
814.378	15663.01
814.707	15572.61
815.036	15563.35
815.365	15464.37
815.693	15318.16
816.022	15402
816.351	15357.48
816.68	15276.12
817.008	15256.92
817.337	15127.65
817.665	15162.23
817.994	15185.96
818.322	15136.47
818.651	15025.06
818.979	15011.5
819.307	14969.92
819.636	14991.84
819.964	14866.42
820.292	14961.33
820.62	14952.97
820.948	14932.86
821.276	14930.37
821.604	14873.2
821.932	14875.68
822.259	14863.48
822.587	14862.58
822.915	14829.81
823.243	14829.81
823.57	14767.21
823.898	14886.76
824.225	14720.43
824.553	14708
824.88	14729.02
825.207	14761.11
825.535	14817.38
825.862	14803.82
826.189	14729.47
826.516	14772.63
826.843	14773.99
827.17	14783.71
827.497	14784.61
827.824	14819.86
828.151	14756.59
828.478	14678.17
828.805	14855.34
829.131	14717.95
829.458	14668
829.785	14646.08
830.111	14768.11
830.438	14743.71
830.764	14693.77
831.09	14701.45
831.417	14592.07
831.743	14699.64
832.069	14647.67
832.395	14635.91
832.722	14677.95
833.048	14627.55
833.374	14609.7
833.7	14497.16
834.026	14586.2
834.351	14626.42
834.677	14507.78
835.003	14600.44
835.329	14539.19
835.654	14531.28
835.98	14433.66
836.306	14482.92
836.631	14425.98
836.956	14421.23
837.282	14446.99
837.607	14369.93
837.932	14294
838.258	14447.67
838.583	14317.5
838.908	14240.9
839.233	14334.45
839.558	14232.76
839.883	14234.12
840.208	14148.92
840.533	14147.34
840.858	14156.38
841.182	14111.86
841.507	14174.91
841.832	14037.74
842.156	13956.84
842.481	14010.85
842.805	14017.17
843.13	13910.06
843.454	13864.64
843.778	13867.12
844.103	13886.78
844.427	13783.28
844.751	13845.43
845.075	13755.26
845.399	13675.71
845.723	13677.75
846.047	13620.12
846.371	13580.35
846.695	13594.81
847.019	13440.47
847.343	13339.45
847.666	13346.01
847.99	13251.54
848.313	13160.7
848.637	13190.98
848.96	13076.86
849.284	13120.47
849.607	13013.81
849.931	12933.13
850.254	12862.18
850.577	12744.66
850.9	12701.05
851.223	12717.09
851.546	12686.59
851.869	12596.65
852.192	12671.67
852.515	12593.93
852.838	12481.85
853.161	12514.84
853.483	12415.41
853.806	12355.52
854.129	12331.12
854.451	12249.54
854.774	12209.99
855.096	12226.94
855.419	12112.37
855.741	12038.47
856.063	12028.3
856.385	12077.34
856.708	12018.13
857.03	11993.72
857.352	11925.7
857.674	11935.19
857.996	11925.7
858.318	11849.1
858.64	11779.27
858.961	11766.39
859.283	11749.89
859.605	11653.85
859.926	11714.41
860.248	11670.57
860.57	11582.44
860.891	11639.16
861.212	11516.22
861.534	11470.35
861.855	11461.31
862.176	11486.84
862.498	11473.29
862.819	11474.64
863.14	11359.84
863.461	11312.39
863.782	11324.82
864.103	11366.62
864.424	11283.46
864.745	11339.96
865.065	11265.83
865.386	11218.83
865.707	11174.31
866.027	11197.59
866.348	11145.61
866.668	11139.28
866.989	11076.69
867.309	11024.48
867.63	11144.93
867.95	11037.59
868.27	11005.5
868.59	10969.57
868.91	10973.41
869.23	10947.88
869.55	10925.96
869.87	11036.24
870.19	10929.35
870.51	10898.16
870.83	10930.48
871.15	10827.65
871.469	10892.74
871.789	10889.8
872.109	10833.08
872.428	10722.35
872.748	10725.73
873.067	10807.77
873.386	10762.12
873.706	10822.91
874.025	10749.24
874.344	10737.26
874.663	10751.5
874.982	10668.79
875.301	10725.06
875.62	10654.55
875.939	10586.3
876.258	10613.2
876.577	10569.35
876.896	10571.39
877.214	10509.02
877.533	10550.37
877.852	10529.36
878.17	10479.19
878.489	10457.49
878.807	10536.14
879.125	10466.08
879.444	10454.33
879.762	10427.66
880.08	10430.38
880.398	10365.29
880.716	10334.56
881.034	10324.84
881.352	10315.12
881.67	10304.28
881.988	10268.57
882.306	10209.82
882.624	10230.38
882.941	10172.08
883.259	10099.31
883.577	10154.9
883.894	10084.17
884.212	10078.07
884.529	10099.54
884.846	10057.5
885.164	9991.06
885.481	10031.97
885.798	10001.01
886.115	9919.2
886.432	9841.46
886.75	9854.57
887.067	9908.81
887.383	9888.47
887.7	9860.45
888.017	9799.66
888.334	9785.87
888.651	9705.42
888.967	9733.67
889.284	9684.18
889.6	9641.47
889.917	9611.64
890.233	9669.49
890.55	9506.11
890.866	9609.38
891.182	9540
891.498	9544.3
891.815	9525.09
892.131	9420.46
892.447	9519.89
892.763	9451.42
893.079	9371.87
893.395	9356.73
893.71	9340.69
894.026	9339.33
894.342	9246.23
894.657	9207.36
894.973	9117.64
895.289	9262.95
895.604	9154.93
895.92	9126.91
896.235	9080.81
896.55	9083.74
896.865	9119.22
897.181	9058.89
897.496	9048.04
897.811	8961.04
898.126	8912.9
898.441	8880.36
898.756	8906.12
899.071	8831.1
899.386	8790.19
899.7	8749.06
900.015	8756.52
900.33	8622.97
900.644	8659.57
900.959	8654.15
901.273	8627.26
901.588	8559.24
901.902	8539.13
902.216	8546.13
902.531	8454.83
902.845	8488.96
903.159	8385.23
903.473	8412.12
903.787	8389.3
904.101	8359.24
904.415	8316.53
904.729	8268.62
905.042	8210.32
905.356	8239.7
905.67	8144.56
905.984	8239.25
906.297	8145.92
906.611	8112.92
906.924	8077.44
907.237	8074.73
907.551	8029.08
907.864	7936.66
908.177	7953.83
908.491	7951.34
908.804	7861.63
909.117	7857.56
909.43	7761.52
909.743	7738.02
910.056	7738.92
910.368	7707.96
910.681	7665.02
910.994	7597.23
911.307	7684.46
911.619	7511.13
911.932	7567.85
912.244	7490.34
912.557	7528.08
912.869	7411.25
913.181	7406.95
913.494	7386.39
913.806	7309.55
914.118	7318.37
914.43	7242.44
914.742	7288.99
915.054	7281.31
915.366	7222.32
915.678	7206.05
915.99	7176.68
916.302	7059.16
916.613	7063.91
916.925	7067.53
917.236	7037.7
917.548	7013.74
917.859	6992.05
918.171	6897.36
918.482	6901.2
918.794	6911.37
919.105	6828.89
919.416	6843.35
919.727	6788.21
920.038	6780.08
920.349	6781.88
920.66	6719.29
920.971	6682.68
921.282	6706.86
921.593	6624.6
921.903	6574.66
922.214	6594.77
922.525	6541.44
922.835	6490.37
923.146	6468.45
923.456	6491.72
923.767	6428.45
924.077	6401.33
924.387	6441.78
924.697	6340.54
925.008	6331.73
925.318	6289.92
925.628	6317.72
925.938	6295.57
926.248	6280.43
926.558	6216.02
926.867	6218.06
927.177	6122.24
927.487	6123.37
927.796	6105.74
928.106	6063.48
928.416	6027.1
928.725	5999.76
929.034	5982.58
929.344	5920.66
929.653	5955.69
929.962	5906.88
930.271	5913.88
930.581	5808.58
930.89	5862.59
931.199	5783.49
931.508	5793.44
931.817	5747.11
932.125	5715.92
932.434	5748.24
932.743	5676.6
933.051	5647.68
933.36	5630.5
933.669	5635.25
933.977	5561.8
934.286	5572.2
934.594	5532.65
934.902	5543.72
935.21	5492.2
935.519	5473.9
935.827	5461.01
936.135	5398.42
936.443	5381.69
936.751	5413.78
937.059	5345.31
937.367	5352.77
937.674	5284.75
937.982	5281.36
938.29	5302.15
938.597	5252.88
938.905	5213.11
939.213	5207.01
939.52	5156.39
939.827	5192.55
940.135	5127.69
940.442	5137.18
940.749	5135.6
941.056	5090.4
941.363	5018.09
941.67	5023.51
941.977	5002.72
942.284	4944.87
942.591	4966.56
942.898	4923.4
943.205	4910.52
943.511	4860.13
943.818	4903.06
944.125	4847.25
944.431	4837.53
944.738	4810.86
945.044	4814.7
945.35	4775.61
945.657	4705.78
945.963	4715.5
946.269	4753.91
946.575	4676.18
946.881	4660.36
947.187	4613.35
947.493	4658.78
947.799	4618.78
948.105	4574.94
948.41	4532.68
948.716	4561.6
949.022	4479.35
949.327	4553.02
949.633	4491.77
949.938	4480.25
950.244	4470.53
950.549	4411.1
950.854	4427.82
951.16	4412.91
951.465	4402.51
951.77	4377.65
952.075	4318.9
952.38	4302.85
952.685	4310.99
952.99	4264.66
953.294	4254.94
953.599	4285.9
953.904	4218.11
954.209	4206.58
954.513	4199.58
954.818	4148.51
955.122	4119.58
955.426	4130.2
955.731	4135.17
956.035	4092.46
956.339	4075.06
956.643	4074.38
956.948	4014.05
957.252	4008.62
957.556	4023.76
957.86	3943.99
958.163	3961.84
958.467	3953.71
958.771	3951.45
959.075	3945.35
959.378	3863.09
959.682	3891.79
959.985	3848.85
960.289	3850.89
960.592	3842.07
960.896	3831.23
961.199	3818.57
961.502	3809.08
961.805	3780.38
962.108	3796.2
962.411	3722.98
962.714	3727.73
963.017	3717.78
963.32	3727.05
963.623	3666.94
963.926	3678.01
964.228	3633.72
964.531	3605.7
964.833	3599.14
965.136	3618.8
965.438	3598.69
965.741	3588.3
966.043	3526.38
966.345	3495.42
966.648	3524.57
966.95	3503.1
967.252	3509.43
967.554	3420.39
967.856	3451.8
968.158	3429.88
968.46	3426.04
968.761	3411.12
969.063	3380.84
969.365	3365.48
969.666	3378.58
969.968	3381.07
970.269	3366.83
970.571	3356.66
970.872	3339.26
971.174	3272.82
971.475	3268.76
971.776	3250.45
972.077	3258.36
972.378	3206.16
972.679	3230.79
972.98	3188.31
973.281	3206.16
973.582	3163
973.883	3168.65
974.183	3183.33
974.484	3120.51
974.785	3118.93
975.085	3114.64
975.386	3120.74
975.686	3072.15
975.986	3056.56
976.287	3056.11
976.587	3024.24
976.887	3024.92
977.187	2998.03
977.487	3046.39
977.787	3006.84
978.087	2959.16
978.387	2972.72
978.687	2939.05
978.987	2912.16
979.286	2938.37
979.586	2945.83
979.885	2899.73
980.185	2849.11
980.484	2860.18
980.784	2840.29
981.083	2845.04
981.382	2798.03
981.682	2801.65
981.981	2784.25
982.28	2776.11
982.579	2804.14
982.878	2784.02
983.177	2751.48
983.475	2771.82
983.774	2716.45
984.073	2738.37
984.372	2669.68
984.67	2709.45
984.969	2687.3
985.267	2672.39
985.566	2666.51
985.864	2632.16
986.162	2646.17
986.461	2651.82
986.759	2614.76
987.057	2594.88
987.355	2601.2
987.653	2578.38
987.951	2553.75
988.249	2594.88
988.547	2543.8
988.844	2537.02
989.142	2518.04
989.44	2493.18
989.737	2523.46
990.035	2480.98
990.332	2457.48
990.63	2514.2
990.927	2481.21
991.224	2481.88
991.521	2434.2
991.819	2433.75
992.116	2422.45
992.413	2420.64
992.71	2415.67
993.006	2361.66
993.303	2320.53
993.6	2373.41
993.897	2346.07
994.193	2355.33
994.49	2313.98
994.787	2339.74
995.083	2333.19
995.379	2305.39
995.676	2282.79
995.972	2304.04
996.268	2243.92
996.565	2242.57
996.861	2257.03
997.157	2215.68
997.453	2237.82
997.749	2230.82
998.044	2143.14
998.34	2178.39
998.636	2155.11
998.932	2164.38
999.227	2150.37
999.523	2121.22
999.818	2101.33
1000.114	2112.18
1000.409	2081.89
1000.704	2095.68
1001	2083.25
1001.295	2077.15
1001.59	2062.69
1001.885	2020.2
1002.18	2006.64
1002.475	2027.66
1002.77	2013.87
1003.065	1963.71
1003.359	1986.76
1003.654	1990.15
1003.949	1972.07
1004.243	1979.07
1004.538	1948.11
1004.832	1959.86
1005.127	1889.81
1005.421	1937.49
1005.715	1890.04
1006.009	1904.05
1006.304	1889.81
1006.598	1881.22
1006.892	1866.08
1007.186	1855.01
1007.48	1862.92
1007.773	1836.93
1008.067	1860.21
1008.361	1826.53
1008.655	1800.09
1008.948	1787.66
1009.242	1782.47
1009.535	1760.32
1009.829	1756.48
1010.122	1754.22
1010.415	1729.36
1010.708	1727.33
1011.001	1729.14
1011.295	1718.74
1011.588	1709.93
1011.881	1671.51
1012.173	1691.4
1012.466	1674.67
1012.759	1672.41
1013.052	1666.09
1013.344	1654.11
1013.637	1645.07
1013.93	1633.09
1014.222	1637.61
1014.514	1601.46
1014.807	1593.32
1015.099	1589.7
1015.391	1601
1015.683	1585.18
1015.976	1571.4
1016.268	1546.99
1016.56	1545.86
1016.851	1550.38
1017.143	1518.29
1017.435	1529.59
1017.727	1508.35
1018.018	1498.86
1018.31	1468.58
1018.602	1501.12
1018.893	1486.43
1019.185	1454.34
1019.476	1452.53
1019.767	1448.24
1020.058	1428.35
1020.35	1448.46
1020.641	1392.2
1020.932	1393.55
1021.223	1403.72
1021.514	1398.75
1021.804	1382.03
1022.095	1354.46
1022.386	1345.19
1022.677	1356.49
1022.967	1336.83
1023.258	1304.51
1023.548	1317.17
1023.839	1314.23
1024.129	1311.07
1024.419	1300.22
1024.709	1308.81
1025	1274.46
1025.29	1227.68
1025.58	1289.15
1025.87	1238.98
1026.16	1245.76
1026.449	1263.38
1026.739	1236.04
1027.029	1226.1
1027.319	1200.79
1027.608	1206.66
1027.898	1216.83
1028.187	1212.31
1028.477	1172.31
1028.766	1163.05
1029.055	1172.99
1029.344	1166.44
1029.634	1152.43
1029.923	1146.55
1030.212	1141.13
1030.501	1134.12
1030.79	1124.18
1031.078	1132.09
1031.367	1145.2
1031.656	1115.59
1031.945	1097.51
1032.233	1087.12
1032.522	1097.74
1032.81	1061.13
1033.099	1097.97
1033.387	1078.53
1033.675	1031.07
1033.963	1062.03
1034.251	1026.1
1034.54	1046.44
1034.828	1032.66
1035.116	1024.52
1035.403	1017.74
1035.691	1001.47
1035.979	1010.74
1036.267	996.27
1036.554	1011.41
1036.842	987.69
1037.129	967.35
1037.417	982.49
1037.704	965.09
1037.992	957.18
1038.279	962.38
1038.566	953.79
1038.853	953.79
1039.14	953.79
