Data from hue_100_FLMS001491_00041.txt Node
Date: Tue Feb 07 17:03:13 GMT 2017
User: dcchb
Spectrometer: FLMS00149
Trigger mode: 0
Integration Time (sec): 2.000000E-2
Scans to average: 10
Electric dark correction enabled: true
Nonlinearity correction enabled: false
Boxcar width: 0
XAxis mode: Wavelengths
Number of Pixels in Spectrum: 2048
>>>>>Begin Spectral Data<<<<<
341.393	5.8
341.776	5.8
342.16	5.8
342.543	-72.39
342.927	-90.24
343.31	-64.02
343.693	-73.29
344.077	-62.22
344.46	-71.71
344.843	-30.8
345.226	-52.72
345.61	-16.34
345.993	-23.57
346.376	11
346.759	7.61
347.142	34.28
347.525	41.06
347.908	40.61
348.291	70.44
348.674	80.61
349.057	109.08
349.44	120.83
349.823	140.94
350.206	172.81
350.588	203.54
350.971	199.02
351.354	238.79
351.737	238.12
352.119	258.68
352.502	254.61
352.884	265.91
353.267	269.98
353.65	291.67
354.032	304.1
354.414	326.02
354.797	316.08
355.179	307.49
355.562	324.21
355.944	329.86
356.326	350.43
356.709	331.9
357.091	342.07
357.473	345.23
357.855	365.12
358.238	343.42
358.62	354.5
359.002	355.4
359.384	359.69
359.766	334.16
360.148	335.74
360.53	348.62
360.912	334.16
361.294	308.17
361.676	348.62
362.057	330.09
362.439	352.46
362.821	339.58
363.203	325.12
363.584	338.45
363.966	340.49
364.348	325.8
364.729	316.08
365.111	346.36
365.493	335.06
365.874	312.24
366.256	318.57
366.637	327.83
367.019	323.99
367.4	334.84
367.781	312.46
368.163	318.34
368.544	333.03
368.925	323.08
369.306	311.56
369.688	309.3
370.069	317.44
370.45	330.54
370.831	327.83
371.212	302.07
371.593	318.34
371.974	313.82
372.355	325.57
372.736	307.72
373.117	309.98
373.498	326.93
373.879	319.47
374.26	323.54
374.641	322.18
375.021	331.45
375.402	330.54
375.783	335.06
376.163	337.32
376.544	348.85
376.925	330.54
377.305	324.44
377.686	335.51
378.066	340.71
378.447	342.52
378.827	324.21
379.208	330.09
379.588	352.69
379.968	330.54
380.349	366.25
380.729	345.91
381.109	351.56
381.489	359.24
381.87	337.32
382.25	368.51
382.63	364.89
383.01	360.6
383.39	367.83
383.77	358.34
384.15	367.83
384.53	376.64
384.91	349.75
385.29	360.82
385.67	359.24
386.049	353.37
386.429	366.93
386.809	359.92
387.189	360.82
387.568	381.84
387.948	366.47
388.328	369.41
388.707	374.38
389.087	369.41
389.466	393.14
389.846	378.68
390.225	388.85
390.605	382.29
390.984	403.53
391.363	380.48
391.743	397.21
392.122	388.62
392.501	420.03
392.881	399.92
393.26	384.78
393.639	410.31
394.018	381.39
394.397	412.8
394.776	403.08
395.155	420.71
395.534	406.25
395.913	422.29
396.292	403.99
396.671	413.25
397.05	415.29
397.429	427.04
397.808	418.9
398.186	406.25
398.565	413.25
398.944	433.59
399.323	423.65
399.701	427.04
400.08	425.91
400.458	444.44
400.837	440.6
401.215	420.94
401.594	413.48
401.972	437.43
402.351	442.18
402.729	449.86
403.107	430.88
403.486	447.6
403.864	436.53
404.242	451.44
404.62	442.63
404.999	450.09
405.377	455.51
405.755	451.67
406.133	440.14
406.511	475.17
406.889	479.01
407.267	490.31
407.645	476.75
408.023	488.96
408.401	511.33
408.779	494.15
409.156	470.2
409.534	482.4
409.912	493.48
410.29	488.28
410.667	503.19
411.045	489.41
411.422	498.45
411.8	513.14
412.178	512.01
412.555	521.05
412.933	532.57
413.31	553.36
413.687	529.41
414.065	527.6
414.442	555.62
414.819	548.16
415.197	550.42
415.574	552.46
415.951	568.95
416.328	572.8
416.705	554.94
417.082	591.55
417.46	585.22
417.837	574.15
418.214	564.89
418.591	580.03
418.967	584.55
419.344	594.94
419.721	608.73
420.098	600.82
420.475	622.51
420.852	606.69
421.228	611.21
421.605	603.76
421.982	625.45
422.358	597.65
422.735	617.54
423.111	637.2
423.488	653.92
423.864	650.99
424.241	661.38
424.617	632.68
424.994	644.43
425.37	649.18
425.746	672.45
426.123	648.95
426.499	660.48
426.875	680.14
427.251	687.59
427.627	686.92
428.003	691.89
428.379	718.33
428.756	727.37
429.132	716.29
429.507	731.89
429.883	738.89
430.259	743.41
430.635	732.34
431.011	746.58
431.387	746.35
431.763	747.48
432.138	781.15
432.514	793.58
432.89	787.48
433.265	778.21
433.641	806.46
434.016	796.52
434.392	807.37
434.767	826.35
435.143	815.05
435.518	827.93
435.894	813.92
436.269	873.35
436.644	862.96
437.02	857.76
437.395	855.73
437.77	905.89
438.145	890.3
438.52	899.57
438.895	914.93
439.271	921.71
439.646	912.9
440.021	920.58
440.395	916.97
440.77	928.72
441.145	947.25
441.52	941.83
441.895	980.69
442.27	968.27
442.645	954.03
443.019	974.59
443.394	983.63
443.769	956.74
444.143	978.43
444.518	1006.68
444.892	1011.88
445.267	1004.87
445.641	1031.99
446.016	1027.02
446.39	1046.46
446.764	1044.2
447.139	1032.9
447.513	1063.4
447.887	1042.61
448.262	1071.09
448.636	1035.38
449.01	1076.74
449.384	1088.04
449.758	1088.49
450.132	1109.28
450.506	1119.45
450.88	1129.62
451.254	1125.78
451.628	1132.78
452.002	1180.69
452.376	1149.28
452.75	1183.85
453.123	1184.31
453.497	1223.85
453.871	1175.27
454.244	1217.07
454.618	1246.68
454.992	1234.02
455.365	1263.4
455.739	1276.73
456.112	1267.69
456.486	1321.48
456.859	1327.13
457.232	1321.02
457.606	1358.54
457.979	1347.69
458.352	1366
458.725	1387.46
459.099	1394.92
459.472	1425.43
459.845	1453.9
460.218	1454.13
460.591	1477.18
460.964	1483.05
461.337	1523.28
461.71	1559.44
462.083	1552.2
462.456	1569.15
462.829	1619.32
463.201	1610.51
463.574	1612.99
463.947	1641.02
464.32	1684.86
464.692	1663.16
465.065	1704.74
465.438	1747.91
465.81	1759.21
466.183	1778.87
466.555	1801.46
466.928	1861.35
467.3	1880.11
467.672	1884.17
468.045	1961.23
468.417	1953.55
468.789	1978.18
469.161	1979.99
469.534	2054.34
469.906	2113.55
470.278	2112.64
470.65	2136.37
471.022	2196.93
471.394	2245.52
471.766	2250.49
472.138	2291.62
472.51	2379.08
472.882	2383.37
473.253	2456.14
473.625	2522.8
473.997	2566.64
474.369	2599.86
474.74	2633.08
475.112	2719.63
475.484	2796.47
475.855	2834.88
476.227	2897.25
476.598	2981.09
476.97	3037.36
477.341	3136.12
477.713	3162.56
478.084	3240.97
478.455	3358.49
478.827	3430.35
479.198	3531.14
479.569	3620.4
479.94	3688.87
480.311	3831.69
480.682	3914.85
481.053	4044.79
481.424	4159.59
481.795	4196.66
482.166	4315.75
482.537	4429.87
482.908	4547.83
483.279	4629.41
483.65	4768.84
484.021	4866.24
484.391	4998.89
484.762	5176.74
485.133	5261.03
485.503	5406.79
485.874	5551.87
486.244	5652.21
486.615	5854.46
486.985	5952.77
487.356	6184.4
487.726	6318.41
488.097	6479.08
488.467	6492.64
488.837	6735.57
489.207	6902.8
489.578	7054.21
489.948	7174.88
490.318	7339.85
490.688	7453.97
491.058	7672.27
491.428	7830.46
491.798	7985.93
492.168	8269.99
492.538	8354.51
492.908	8505.02
493.278	8625.69
493.648	8759.47
494.017	8929.64
494.387	9126.47
494.757	9274.71
495.126	9363.52
495.496	9540.47
495.866	9646.23
496.235	9802.16
496.605	9943.4
496.974	10157.63
497.344	10256.38
497.713	10365.76
498.082	10477.17
498.452	10649.82
498.821	10811.85
499.19	10806.42
499.559	11039.64
499.928	11158.73
500.298	11265.17
500.667	11416.58
501.036	11409.8
501.405	11668.1
501.774	11664.48
502.143	11827.87
502.512	11989.44
502.88	12132.72
503.249	12136.79
503.618	12263.79
503.987	12440.96
504.356	12512.14
504.724	12540.16
505.093	12600.28
505.462	12708.52
505.83	12864.68
506.199	12928.63
506.567	13219.47
506.936	13172.24
507.304	13262.41
507.672	13445.45
508.041	13485.68
508.409	13601.15
508.777	13621.04
509.145	13726.12
509.514	13774.48
509.882	13929.96
510.25	13868.27
510.618	14002.05
510.986	14091.54
511.354	14215.15
511.722	14354.58
512.09	14433.22
512.458	14411.3
512.826	14544.63
513.193	14551.41
513.561	14608.36
513.929	14658.75
514.297	14751.18
514.664	14910.72
515.032	14894.45
515.4	15068.46
515.767	15057.84
516.135	15125.41
516.502	15028.69
516.869	15256.48
517.237	15290.15
517.604	15234.78
517.972	15336.48
518.339	15441.78
518.706	15482.91
519.073	15449.01
519.44	15554.32
519.808	15721.32
520.175	15637.71
520.542	15852.39
520.909	15899.62
521.276	15784.83
521.643	15931.94
522.009	15963.35
522.376	16057.59
522.743	16029.11
523.11	16184.81
523.477	16365.37
523.843	16363.34
524.21	16410.57
524.577	16539.38
524.943	16391.36
525.31	16520.62
525.676	16715.65
526.043	16670
526.409	16729.43
526.776	16938.02
527.142	16827.74
527.508	16860.28
527.874	16912.48
528.241	17010.1
528.607	17039.93
528.973	17056.66
529.339	17038.13
529.705	17033.83
530.071	17095.3
530.437	17138.91
530.803	17164
531.169	17232.7
531.535	17197.9
531.901	17164.22
532.267	17203.54
532.632	17282.86
532.998	17195.64
533.364	17349.98
533.73	17315.86
534.095	17349.98
534.461	17274.28
534.826	17319.02
535.192	17289.64
535.557	17385.69
535.923	17332.81
536.288	17315.63
536.653	17407.38
537.019	17236.76
537.384	17216.88
537.749	17227.5
538.114	17181.85
538.479	17150.89
538.845	17266.14
539.21	17071.8
539.575	17135.75
539.94	17128.52
540.305	17139.82
540.67	17078.58
541.034	17124.45
541.399	17162.64
541.764	17045.58
542.129	16979.82
542.494	17035.41
542.858	17044.68
543.223	16978.01
543.587	16978.47
543.952	17007.84
544.316	16944.12
544.681	16829.54
545.045	16912.48
545.41	16936.89
545.774	16866.6
546.138	16748.87
546.503	16914.96
546.867	16893.95
547.231	16838.36
547.595	16722.2
547.959	16742.09
548.324	16652.6
548.688	16567.63
549.052	16645.14
549.416	16587.06
549.779	16571.02
550.143	16556.1
550.507	16590.23
550.871	16642.43
551.235	16555.65
551.599	16575.54
551.962	16529.66
552.326	16504.13
552.689	16529.21
553.053	16370.8
553.417	16392.49
553.78	16599.04
554.143	16463.9
554.507	16355.21
554.87	16411.7
555.234	16596.78
555.597	16350.23
555.96	16321.08
556.323	16378.48
556.686	16331.93
557.05	16424.36
557.413	16406.5
557.776	16389.1
558.139	16461.64
558.502	16418.71
558.865	16438.14
559.228	16400.18
559.59	16362.89
559.953	16364.7
560.316	16557.46
560.679	16437.92
561.041	16463.23
561.404	16531.7
561.767	16526.05
562.129	16435.88
562.492	16566.73
562.854	16500.74
563.217	16552.49
563.579	16544.81
563.941	16663.9
564.304	16627.06
564.666	16740.28
565.028	16709.09
565.39	16579.61
565.753	16797.68
566.115	16830.67
566.477	16865.7
566.839	16868.64
567.201	16898.69
567.563	16925.59
567.925	16984.79
568.287	17001.74
568.648	16928.07
569.01	16984.57
569.372	17044.68
569.734	16839.94
570.095	17091.46
570.457	17162.42
570.819	17100.27
571.18	17097.11
571.542	17140.72
571.903	17113.38
572.265	17163.55
572.626	17165.58
572.987	17293.26
573.349	17305.01
573.71	17243.54
574.071	17336.65
574.432	17278.8
574.794	17381.39
575.155	17236.09
575.516	17279.93
575.877	17458.68
576.238	17374.16
576.599	17434.95
576.96	17349.08
577.32	17333.94
577.681	17340.26
578.042	17406.93
578.403	17452.58
578.763	17494.84
579.124	17371.22
579.485	17509.3
579.845	17550.43
580.206	17517.89
580.566	17484.44
580.927	17505.68
581.287	17482.63
581.648	17455.74
582.008	17563.08
582.368	17432.47
582.728	17493.48
583.089	17545.68
583.449	17438.57
583.809	17427.49
584.169	17478.79
584.529	17417.55
584.889	17497.77
585.249	17366.48
585.609	17302.53
585.969	17465.01
586.329	17386.59
586.688	17423.88
587.048	17374.61
587.408	17267.27
587.768	17283.32
588.127	17270.89
588.487	17296.88
588.846	17452.35
589.206	17301.85
589.565	17295.75
589.925	17441.05
590.284	17207.39
590.643	17295.75
591.003	17339.13
591.362	17338.68
591.721	17306.82
592.08	17309.53
592.44	17338.23
592.799	17269.98
593.158	17225.24
593.517	17257.33
593.876	17348.63
594.235	17314.73
594.593	17140.27
594.952	17231.79
595.311	17169.42
595.67	17214.62
596.029	17265.01
596.387	17324.22
596.746	17333.03
597.104	17199.03
597.463	17135.75
597.822	17322.19
598.18	17167.61
598.538	17169.87
598.897	17284.45
599.255	17045.36
599.613	17354.5
599.972	17248.74
600.33	17218.23
600.688	17180.49
601.046	17342.3
601.404	17221.85
601.762	17243.09
602.12	17340.72
602.478	17306.37
602.836	17294.84
603.194	17206.26
603.552	17202.19
603.91	17110.44
604.268	17237.44
604.625	17091.23
604.983	17382.75
605.341	17239.02
605.698	17267.95
606.056	17293.49
606.413	17299.36
606.771	17346.82
607.128	17276.31
607.485	17316.54
607.843	17302.75
608.2	17383.43
608.557	17333.03
608.914	17282.86
609.272	17436.99
609.629	17439.47
609.986	17474.72
610.343	17346.59
610.7	17607.6
611.057	17476.53
611.414	17499.13
611.771	17552.24
612.127	17666.13
612.484	17582.74
612.841	17666.36
613.198	17547.04
613.554	17653.02
613.911	17636.53
614.267	17629.75
614.624	17558.34
614.98	17613.25
615.337	17718.56
615.693	17612.57
616.05	17631.78
616.406	17652.35
616.762	17672.91
617.118	17659.58
617.475	17655.51
617.831	17762.63
618.187	17765.56
618.543	17731.21
618.899	17858.22
619.255	17811.89
619.611	17898.67
619.967	17853.47
620.323	17865
620.678	17845.34
621.034	17727.37
621.39	17849.86
621.746	17794.49
622.101	17976.18
622.457	17779.35
622.812	17780.25
623.168	17924.88
623.523	17841.04
623.879	17977.08
624.234	17885.56
624.589	17872.91
624.945	17771.21
625.3	17836.07
625.655	17801.04
626.01	17861.61
626.365	17823.64
626.72	17792.91
627.075	17766.24
627.43	17674.49
627.785	17767.15
628.14	17832.68
628.495	17808.95
628.85	17676.98
629.205	17764.43
629.559	17912.23
629.914	17739.58
630.269	17747.03
630.623	17684.44
630.978	17679.46
631.332	17730.08
631.687	17680.82
632.041	17701.84
632.396	17695.74
632.75	17622.52
633.104	17694.38
633.459	17509.3
633.813	17531.9
634.167	17512.69
634.521	17587.94
634.875	17675.62
635.229	17502.07
635.583	17535.06
635.937	17527.83
636.291	17396.99
636.645	17432.69
636.999	17415.74
637.352	17350.43
637.706	17316.99
638.06	17367.16
638.413	17460.49
638.767	17180.27
639.121	17321.96
639.474	17228.18
639.828	17210.78
640.181	17280.6
640.534	17217.78
640.888	17151.57
641.241	17145.24
641.594	17125.81
641.947	17202.87
642.301	17095.3
642.654	17197.44
643.007	17177.33
643.36	17086.71
643.713	17167.61
644.066	17147.95
644.419	17025.02
644.771	16880.62
645.124	16820.96
645.477	16725.59
645.83	16625.93
646.182	16572.15
646.535	16527.86
646.888	16585.03
647.24	16487.41
647.593	16660.28
647.945	16476.78
648.298	16484.24
648.65	16350.46
649.002	16375.09
649.355	16493.06
649.707	16556.78
650.059	16587.97
650.411	16808.08
650.763	16817.57
651.115	16954.74
651.467	16924
651.819	16942.08
652.171	16804.46
652.523	16818.7
652.875	16785.02
653.227	16760.17
653.578	16892.59
653.93	16911.12
654.282	16826.15
654.633	16732.14
654.985	16771.92
655.337	16829.09
655.688	16868.19
656.039	16829.09
656.391	16790
656.742	16749.55
657.094	16743.9
657.445	16825.25
657.796	16846.27
658.147	16672.71
658.498	16836.32
658.849	16835.64
659.2	16821.18
659.551	16706.38
659.902	16842.88
660.253	16816.44
660.604	16853.27
660.955	16756.78
661.306	16789.54
661.656	16784.35
662.007	16887.39
662.358	16766.27
662.708	16758.58
663.059	16757
663.409	16767.62
663.76	16804.01
664.11	16859.15
664.461	16821.63
664.811	16987.96
665.161	16885.14
665.511	16785.7
665.862	16759.71
666.212	16936.43
666.562	16931.46
666.912	16804.91
667.262	16987.96
667.612	16816.44
667.962	16902.08
668.312	16872.93
668.662	16853.72
669.011	16916.09
669.361	16794.52
669.711	16799.26
670.06	16709.09
670.41	16743.67
670.76	16826.61
671.109	16836.77
671.459	16722.2
671.808	16849.88
672.157	16752.48
672.507	16609.44
672.856	16660.73
673.205	16707.74
673.554	16740.96
673.904	16661.19
674.253	16806.27
674.602	16693.5
674.951	16424.13
675.3	16457.35
675.649	16594.07
675.998	16626.84
676.346	16716.33
676.695	16656.89
677.044	16532.38
677.393	16535.09
677.741	16535.31
678.09	16498.48
678.438	16449.21
678.787	16537.8
679.135	16455.54
679.484	16358.82
679.832	16405.83
680.181	16298.71
680.529	16310.91
680.877	16272.27
681.225	16265.49
681.573	16333.74
681.922	16101.43
682.27	16119.05
682.618	16205.6
682.966	16122.67
683.314	16205.38
683.661	16098.49
684.009	15965.39
684.357	15972.62
684.705	15959.06
685.053	15988.44
685.4	15887.2
685.748	15911.6
686.095	15800.87
686.443	15819.63
686.79	15759.74
687.138	15812.62
687.485	15784.15
687.832	15741.21
688.18	15696.92
688.527	15625.28
688.874	15605.85
689.221	15568.79
689.568	15491.73
689.915	15463.25
690.262	15492.86
690.609	15459.18
690.956	15393.2
691.303	15436.13
691.65	15262.13
691.997	15333.09
692.344	15156.14
692.69	15169.93
693.037	15101.68
693.383	14959.31
693.73	15053.32
694.077	14906.2
694.423	14943.49
694.769	14863.49
695.116	14843.83
695.462	14819.65
695.808	14734.23
696.155	14704.63
696.501	14631.41
696.847	14597.96
697.193	14466.89
697.539	14530.62
697.885	14408.82
698.231	14364.52
698.577	14350.96
698.923	14324.98
699.269	14117.3
699.614	14131.31
699.96	14133.34
700.306	14058.54
700.651	14002.05
700.997	13986.45
701.342	13961.37
701.688	13912.33
702.033	13865.55
702.379	13839.34
702.724	13809.51
703.069	13897.64
703.415	13714.15
703.76	13685.67
704.105	13653.81
704.45	13586.46
704.795	13593.47
705.14	13484.55
705.485	13407.94
705.83	13410.2
706.175	13436.86
706.52	13354.61
706.865	13294.72
707.209	13266.25
707.554	13153.26
707.899	13184.89
708.243	13179.92
708.588	13142.41
708.932	13005.46
709.277	13039.13
709.621	13021.96
709.966	12855.86
710.31	12921.62
710.654	12733.83
710.998	12807.05
711.342	12886.14
711.687	12747.62
712.031	12732.25
712.375	12614.96
712.719	12722.76
713.063	12668.3
713.407	12681.18
713.75	12575.87
714.094	12596.43
714.438	12546.49
714.782	12613.38
715.125	12526.15
715.469	12508.75
715.812	12515.08
716.156	12302.66
716.499	12332.49
716.843	12372.49
717.186	12372.49
717.53	12393.5
717.873	12317.12
718.216	12311.02
718.559	12230.34
718.902	12216.56
719.246	12217.91
719.589	12171.36
719.932	12200.06
720.275	12118.25
720.617	12178.14
720.96	12141.53
721.303	12146.73
721.646	12083.91
721.989	12042.78
722.331	12055.43
722.674	12046.62
723.016	12094.98
723.359	12078.26
723.701	12057.47
724.044	11994.42
724.386	11878.49
724.729	11971.59
725.071	11954.64
725.413	11897.47
725.755	11904.02
726.097	11931.59
726.439	11868.09
726.782	11816.79
727.124	11932.27
727.465	11876.68
727.807	11842.78
728.149	11795.55
728.491	11871.26
728.833	11759.85
729.175	11777.7
729.516	11800.3
729.858	11772.5
730.199	11848.66
730.541	11801.2
730.882	11666.97
731.224	11794.65
731.565	11675.1
731.906	11704.71
732.248	11744.93
732.589	11728.21
732.93	11618.83
733.271	11694.09
733.612	11758.49
733.953	11728.21
734.294	11698.38
734.635	11671.03
734.976	11660.87
735.317	11634.43
735.658	11661.54
735.999	11615.22
736.339	11628.1
736.68	11723.46
737.021	11620.64
737.361	11651.83
737.702	11650.92
738.042	11637.82
738.383	11719.85
738.723	11762.78
739.063	11713.75
739.404	11657.93
739.744	11693.41
740.084	11661.54
740.424	11672.16
740.764	11762.33
741.104	11703.8
741.444	11711.94
741.784	11692.73
742.124	11745.61
742.464	11758.04
742.804	11718.49
743.143	11778.83
743.483	11843.01
743.823	11767.53
744.162	11864.7
744.502	11788.32
744.841	11933.63
745.181	11956.23
745.52	11950.58
745.86	12082.32
746.199	12105.37
746.538	12077.58
746.877	12188.31
747.216	12227.4
747.556	12270.79
747.895	12299.72
748.234	12307.85
748.573	12275.76
748.911	12423.78
749.25	12573.84
749.589	12530.67
749.928	12643.44
750.267	12725.24
750.605	12803.21
750.944	12816.99
751.283	12874.17
751.621	13039.81
751.96	13066.48
752.298	13208.17
752.636	13278.22
752.975	13280.71
753.313	13432.57
753.651	13591.21
753.989	13623.75
754.327	13747.82
754.666	13725.9
755.004	14047.92
755.342	14096.28
755.679	14258.76
756.017	14383.96
756.355	14663.05
756.693	14680.22
757.031	14721.12
757.368	14922.25
757.706	15104.39
758.044	15230.04
758.381	15443.82
758.719	15486.08
759.056	15788.89
759.394	15862.34
759.731	15915.67
760.068	16145.49
760.405	16301.65
760.743	16531.02
761.08	16657.12
761.417	16788.87
761.754	16949.09
762.091	17085.36
762.428	17257.33
762.765	17402.64
763.102	17617.32
763.438	17819.12
763.775	17916.52
764.112	18022.05
764.449	18326
764.785	18294.14
765.122	18435.15
765.458	18566.9
765.795	18707.46
766.131	18881.24
766.467	19081.01
766.804	19012.08
767.14	19159.2
767.476	19376.82
767.812	19506.54
768.148	19665.85
768.485	19697.26
768.821	19775.45
769.157	19925.96
769.492	20012.06
769.828	20131.83
770.164	20112.39
770.5	20216.12
770.836	20463.35
771.171	20422.67
771.507	20475.78
771.842	20548.54
772.178	20699.95
772.513	20823.56
772.849	20771.13
773.184	20821.08
773.519	20917.12
773.855	20868.53
774.19	20907.63
774.525	20996.67
774.86	21154.18
775.195	21185.14
775.53	21241.18
775.865	21200.5
776.2	21170.22
776.535	21189.88
776.87	21204.34
777.205	21197.11
777.539	21279.37
777.874	21400.04
778.209	21305.58
778.543	21258.58
778.878	21364.34
779.212	21232.82
779.547	21222.87
779.881	21395.98
780.215	21361.63
780.55	21463.09
780.884	21261.07
781.218	21304.23
781.552	21286.15
781.886	21155.31
782.22	21249.31
782.554	21285.47
782.888	21099.71
783.222	21150.11
783.556	21068.53
783.889	21100.39
784.223	20939.04
784.557	21081.41
784.89	21157.11
785.224	21006.61
785.557	20974.97
785.891	20918.93
786.224	20951.47
786.558	21003.9
786.891	20767.52
787.224	20711.93
787.557	20733.17
787.891	20719.38
788.224	20738.82
788.557	20772.49
788.89	20634.42
789.223	20551.93
789.556	20610.91
789.888	20509.67
790.221	20490.46
790.554	20303.58
790.887	20369.79
791.219	20310.36
791.552	20377.47
791.884	20163.47
792.217	20269.68
792.549	20232.62
792.882	20036.92
793.214	20091.83
793.546	20076.92
793.879	19915.11
794.211	19892.51
794.543	19961.66
794.875	19869.01
795.207	20063.13
795.539	19899.52
795.871	19910.59
796.203	19633.99
796.535	19598.51
796.867	19564.16
797.198	19438.74
797.53	19508.79
797.862	19419.31
798.193	19507.67
798.525	19347.22
798.856	19314.22
799.188	19200.78
799.519	19189.71
799.85	18982.48
800.182	19092.08
800.513	19063.83
800.844	18962.14
801.175	18982.48
801.506	18946.55
801.837	18889.6
802.168	18942.03
802.499	18774.13
802.83	18692.77
803.161	18603.06
803.491	18673.79
803.822	18705.2
804.153	18707.69
804.483	18528.93
804.814	18413.46
805.145	18463.62
805.475	18445.09
805.805	18283.29
806.136	18324.42
806.466	18268.6
806.796	18332.1
807.126	18084.2
807.457	18106.12
807.787	18107.02
808.117	18089.17
808.447	18008.5
808.777	17953.81
809.107	17917.65
809.436	17929.85
809.766	17886.01
810.096	17858.89
810.426	17725.34
810.755	17752
811.085	17689.86
811.414	17652.35
811.744	17562.41
812.073	17563.76
812.403	17516.53
812.732	17340.04
813.061	17418
813.39	17375.07
813.719	17254.62
814.049	17371
814.378	17302.98
814.707	17255.52
815.036	17220.95
815.365	17148.63
815.693	17049.65
816.022	17057.79
816.351	17014.62
816.68	16876.1
817.008	17022.53
817.337	16804.69
817.665	16789.09
817.994	16851.01
818.322	16882.42
818.651	16804.01
818.979	16700.06
819.307	16878.36
819.636	16787.74
819.964	16703.44
820.292	16741.64
820.62	16693.05
820.948	16689.43
821.276	16676.33
821.604	16653.95
821.932	16631.13
822.259	16690.34
822.587	16611.47
822.915	16631.36
823.243	16709.32
823.57	16619.15
823.898	16622.54
824.225	16578.25
824.553	16544.13
824.88	16536.9
825.207	16634.52
825.535	16514.07
825.862	16568.76
826.189	16504.13
826.516	16614.86
826.843	16651.47
827.17	16633.62
827.497	16623.67
827.824	16686.95
828.151	16573.73
828.478	16549.1
828.805	16635.42
829.131	16556.56
829.458	16565.14
829.785	16422.77
830.111	16576.22
830.438	16681.75
830.764	16615.76
831.09	16611.92
831.417	16434.07
831.743	16546.61
832.069	16584.35
832.395	16494.86
832.722	16545.03
833.048	16441.53
833.374	16452.38
833.7	16375.32
834.026	16456.67
834.351	16407.63
834.677	16414.87
835.003	16402.21
835.329	16363.79
835.654	16383
835.98	16290.35
836.306	16331.03
836.631	16286.51
836.956	16420.29
837.282	16370.12
837.607	16271.37
837.932	16194.08
838.258	16273.63
838.583	16253.29
838.908	16119.96
839.233	16064.82
839.558	16032.95
839.883	16027.98
840.208	16000.19
840.533	15947.76
840.858	16049.68
841.182	15966.97
841.507	15912.96
841.832	15910.47
842.156	15902.79
842.481	15905.73
842.805	15819.63
843.13	15673.19
843.454	15726.97
843.778	15742.79
844.103	15573.31
844.427	15566.07
844.751	15604.04
845.075	15532.18
845.399	15502.8
845.723	15444.72
846.047	15445.17
846.371	15338.06
846.695	15310.71
847.019	15147.55
847.343	15103.49
847.666	15144.39
847.99	15072.75
848.313	14992.98
848.637	14850.39
848.96	14871.63
849.284	14835.92
849.607	14758.64
849.931	14695.36
850.254	14639.77
850.577	14518.87
850.9	14474.8
851.223	14436.84
851.546	14364.98
851.869	14274.58
852.192	14336.05
852.515	14126.34
852.838	14170.86
853.161	14092.21
853.483	14041.14
853.806	14028.49
854.129	14000.47
854.451	13941.03
854.774	13880.92
855.096	13824.65
855.419	13766.8
855.741	13736.52
856.063	13741.71
856.385	13647.93
856.708	13556.41
857.03	13593.02
857.352	13487.26
857.674	13464.89
857.996	13497.2
858.318	13413.59
858.64	13360.48
858.961	13409.97
859.283	13287.04
859.605	13224.21
859.926	13298.11
860.248	13171.56
860.57	13076.2
860.891	13133.37
861.212	13131.56
861.534	13071.68
861.855	13007.5
862.176	13065.57
862.498	13007.05
862.819	13006.14
863.14	12924.79
863.461	12943.09
863.782	12916.65
864.103	12935.41
864.424	12762.98
864.745	12910.32
865.065	12759.59
865.386	12758.69
865.707	12726.6
866.027	12661.97
866.348	12674.62
866.668	12702.87
866.989	12660.39
867.309	12521.63
867.63	12680.73
867.95	12612.03
868.27	12584.01
868.59	12506.49
868.91	12497.23
869.23	12534.06
869.55	12390.79
869.87	12490.22
870.19	12473.73
870.51	12477.34
870.83	12421.52
871.15	12350.79
871.469	12380.17
871.789	12414.29
872.109	12365.03
872.428	12258.59
872.748	12293.39
873.067	12323
873.386	12263.79
873.706	12213.39
874.025	12115.77
874.344	12119.38
874.663	12200.96
874.982	12181.98
875.301	12058.14
875.62	12154.19
875.939	12085.26
876.258	12095.88
876.577	12025.6
876.896	12001.87
877.214	12014.53
877.533	11999.61
877.852	11958.71
878.17	11979.95
878.489	11880.52
878.807	11792.39
879.125	11888.88
879.444	11894.98
879.762	11812.5
880.08	11746.29
880.398	11733.86
880.716	11729.11
881.034	11709
881.352	11703.58
881.67	11647.53
881.988	11687.31
882.306	11684.59
882.624	11619.06
882.941	11614.31
883.259	11498.84
883.577	11474.43
883.894	11503.81
884.212	11469.23
884.529	11427.43
884.846	11431.95
885.164	11363.7
885.481	11362.79
885.798	11330.48
886.115	11275.57
886.432	11242.35
886.75	11217.71
887.067	11354.66
887.383	11200.99
887.7	11291.38
888.017	11208.22
888.334	11191.73
888.651	11124.16
888.967	11109.47
889.284	11042.12
889.6	11050.71
889.917	10968.23
890.233	11023.59
890.55	10908.34
890.866	10908.12
891.182	10876.93
891.498	10812.53
891.815	10849.14
892.131	10792.41
892.447	10734.34
892.763	10744.05
893.079	10667.9
893.395	10648.69
893.71	10685.75
894.026	10541.8
894.342	10530.73
894.657	10464.06
894.973	10459.99
895.289	10480.56
895.604	10456.83
895.92	10356.27
896.235	10255.25
896.55	10338.19
896.865	10264.97
897.181	10208.25
897.496	10274.24
897.811	10039.21
898.126	10106.33
898.441	10164.41
898.756	10020
899.071	9987.69
899.386	9974.58
899.7	9892.55
900.015	9984.3
900.33	9784.08
900.644	9744.08
900.959	9813.23
901.273	9754.93
901.588	9690.07
901.902	9649.62
902.216	9619.34
902.531	9614.82
902.845	9604.65
903.159	9503.86
903.473	9488.49
903.787	9480.58
904.101	9409.17
904.415	9326.69
904.729	9352.45
905.042	9272.45
905.356	9307.48
905.67	9242.17
905.984	9204.66
906.297	9254.15
906.611	9115.85
906.924	9156.75
907.237	9113.36
907.551	9074.95
907.864	9031.1
908.177	9024.32
908.491	8967.38
908.804	8894.84
909.117	8842.41
909.43	8772.58
909.743	8766.25
910.056	8840.83
910.368	8712.92
910.681	8744.56
910.994	8628.4
911.307	8633.15
911.619	8539.82
911.932	8620.27
912.244	8576.88
912.557	8491.23
912.869	8444.23
913.181	8417.11
913.494	8370.33
913.806	8308.64
914.118	8328.75
914.43	8260.96
914.742	8233.16
915.054	8248.53
915.366	8119.72
915.678	8103.67
915.99	8119.94
916.302	8010.79
916.613	8001.53
916.925	7983.9
917.236	7941.19
917.548	7844.92
917.859	7923.11
918.171	7846.5
918.482	7799.27
918.794	7736.45
919.105	7784.13
919.416	7752.95
919.727	7700.07
920.038	7644.47
920.349	7616
920.66	7549.34
920.971	7579.84
921.282	7589.11
921.593	7560.63
921.903	7427.08
922.214	7460.07
922.525	7430.24
922.835	7374.2
923.146	7342.34
923.456	7308.89
923.767	7286.74
924.077	7242.9
924.387	7229.57
924.697	7177.14
925.008	7140.53
925.318	7119.52
925.628	7143.92
925.938	7085.62
926.248	7010.37
926.558	7009.91
926.867	6979.86
927.177	6948.22
927.487	6887.43
927.796	6900.31
928.106	6914.1
928.416	6845.17
928.725	6824.38
929.034	6792.52
929.344	6768.56
929.653	6748.9
929.962	6641.11
930.271	6644.73
930.581	6613.09
930.89	6646.76
931.199	6566.99
931.508	6598.63
931.817	6540.77
932.125	6565.63
932.434	6493.77
932.743	6447.22
933.051	6409.25
933.36	6419.2
933.669	6338.52
933.977	6319.76
934.286	6348.46
934.594	6341.23
934.902	6235.25
935.21	6214
935.519	6222.36
935.827	6186.21
936.135	6124.51
936.443	6105.76
936.751	6071.41
937.059	6078.64
937.367	6079.77
937.674	6055.36
937.982	6056.04
938.29	6014.46
938.597	5976.27
938.905	5905.08
939.213	5876.16
939.52	5888.36
939.827	5918.64
940.135	5862.6
940.442	5779.66
940.749	5811.08
941.056	5794.13
941.363	5707.12
941.67	5684.53
941.977	5654.02
942.284	5647.46
942.591	5629.61
942.898	5576.05
943.205	5588.71
943.511	5551.2
943.818	5553.68
944.125	5516.17
944.431	5481.82
944.738	5489.28
945.044	5409.5
945.35	5365.89
945.657	5402.5
945.963	5368.6
946.269	5313.24
946.575	5346.91
946.881	5261.03
947.187	5268.49
947.493	5236.18
947.799	5239.11
948.105	5243.63
948.41	5158.44
948.716	5194.14
949.022	5114.15
949.327	5094.94
949.633	5084.54
949.938	5085.67
950.244	5089.51
950.549	5002.28
950.854	4985.11
951.16	4996.41
951.465	4923.19
951.77	4950.99
952.075	4898.78
952.38	4868.73
952.685	4906.92
952.99	4880.25
953.294	4841.61
953.599	4823.98
953.904	4827.6
954.209	4783.76
954.513	4802.97
954.818	4741.73
955.122	4705.57
955.426	4724.32
955.731	4711.67
956.035	4658.34
956.339	4666.93
956.643	4671.67
956.948	4602.97
957.252	4529.3
957.556	4565.23
957.86	4527.49
958.163	4496.31
958.467	4510.09
958.771	4477.33
959.075	4477.1
959.378	4415.18
959.682	4440.26
959.985	4399.14
960.289	4373.6
960.592	4335.18
960.896	4320.95
961.199	4359.59
961.502	4301.06
961.805	4278.91
962.108	4283.43
962.411	4233.94
962.714	4176.54
963.017	4188.52
963.32	4186.03
963.623	4169.76
963.926	4188.75
964.228	4141.29
964.531	4111.69
964.833	4103.55
965.136	4084.57
965.438	4067.39
965.741	4076.21
966.043	4042.99
966.345	4018.58
966.648	4012.93
966.95	3952.59
967.252	3973.61
967.554	3958.47
967.856	3948.98
968.158	3865.59
968.46	3863.56
968.761	3878.25
969.063	3849.32
969.365	3824.91
969.666	3807.06
969.968	3757.34
970.269	3777.68
970.571	3783.33
970.872	3793.95
971.174	3754.86
971.475	3711.47
971.776	3681.64
972.077	3685.48
972.378	3737.23
972.679	3663.34
972.98	3644.81
973.281	3600.96
973.582	3600.51
973.883	3612.94
974.183	3570.46
974.484	3564.81
974.785	3572.04
975.085	3582.89
975.386	3527.52
975.686	3496.56
975.986	3505.83
976.287	3488.65
976.587	3483.23
976.887	3420.4
977.187	3439.84
977.487	3411.14
977.787	3434.42
978.087	3388.54
978.387	3334.53
978.687	3340.86
978.987	3351.48
979.286	3300.18
979.586	3308.99
979.885	3308.32
980.185	3270.13
980.484	3273.97
980.784	3250.92
981.083	3243.91
981.382	3236.45
981.682	3213.4
981.981	3176.8
982.28	3181.99
982.579	3123.46
982.878	3152.16
983.177	3141.54
983.475	3135.89
983.774	3123.24
984.073	3113.07
984.372	3111.49
984.67	3055.22
984.969	3048.44
985.267	3041.43
985.566	3021.54
985.864	3031.49
986.162	2975.22
986.461	2989.68
986.759	2957.59
987.057	2931.83
987.355	2943.35
987.653	2936.12
987.951	2917.14
988.249	2898.61
988.547	2871.72
988.844	2855.45
989.142	2854.77
989.44	2824.26
989.737	2794.88
990.035	2836.92
990.332	2772.06
990.63	2756.24
990.927	2787.43
991.224	2738.39
991.521	2740.42
991.819	2718.73
992.116	2737.03
992.413	2702.23
992.71	2695
993.006	2730.71
993.303	2732.06
993.6	2650.03
993.897	2641.22
994.193	2645.74
994.49	2619.97
994.787	2615.23
995.083	2574.32
995.379	2580.65
995.676	2573.65
995.972	2543.37
996.268	2575.45
996.565	2516.02
996.861	2505.17
997.157	2506.98
997.453	2500.2
997.749	2514.67
998.044	2480.54
998.34	2464.72
998.636	2454.33
998.932	2470.82
999.227	2407.1
999.523	2412.75
999.818	2409.58
1000.114	2376.36
1000.409	2345.86
1000.704	2332.3
1001	2324.39
1001.295	2300.43
1001.59	2333.65
1001.885	2361.22
1002.18	2297.04
1002.475	2304.95
1002.77	2250.72
1003.065	2251.17
1003.359	2225.41
1003.654	2221.34
1003.949	2226.99
1004.243	2234.67
1004.538	2179.76
1004.832	2166.65
1005.127	2169.36
1005.421	2158.06
1005.715	2134.56
1006.009	2148.35
1006.304	2116.03
1006.598	2124.85
1006.892	2106.31
1007.186	2066.09
1007.48	2089.14
1007.773	2083.49
1008.067	2034.45
1008.361	2017.96
1008.655	2042.36
1008.948	2021.12
1009.242	2023.83
1009.535	2008.01
1009.829	2023.15
1010.122	1968.92
1010.415	1961.91
1010.708	1969.14
1011.001	1915.59
1011.295	1923.04
1011.588	1912.65
1011.881	1899.77
1012.173	1877.62
1012.466	1850.73
1012.759	1836.49
1013.052	1834.91
1013.344	1845.08
1013.637	1844.85
1013.93	1835.14
1014.222	1817.28
1014.514	1816.6
1014.807	1803.27
1015.099	1802.14
1015.391	1767.57
1015.683	1761.92
1015.976	1739.77
1016.268	1715.14
1016.56	1740.9
1016.851	1702.71
1017.143	1707.91
1017.435	1702.71
1017.727	1674.69
1018.018	1659.32
1018.31	1641.24
1018.602	1655.48
1018.893	1637.17
1019.185	1620.45
1019.476	1605.76
1019.767	1600.79
1020.058	1614.35
1020.35	1604.41
1020.641	1584.97
1020.932	1591.75
1021.223	1542.49
1021.514	1539.32
1021.804	1548.36
1022.095	1513.56
1022.386	1540
1022.677	1509.72
1022.967	1509.49
1023.258	1484.86
1023.548	1474.01
1023.839	1439.44
1024.129	1451.87
1024.419	1407.35
1024.709	1422.04
1025	1417.29
1025.29	1412.1
1025.58	1387.24
1025.87	1423.85
1026.16	1379.78
1026.449	1366.67
1026.739	1358.31
1027.029	1353.79
1027.319	1329.39
1027.608	1328.48
1027.898	1327.58
1028.187	1347.46
1028.477	1316.28
1028.766	1308.37
1029.055	1270.4
1029.344	1293.23
1029.634	1268.82
1029.923	1267.47
1030.212	1253.91
1030.501	1281.48
1030.79	1265.43
1031.078	1257.75
1031.367	1226.56
1031.656	1211.65
1031.945	1224.98
1032.233	1184.53
1032.522	1200.35
1032.81	1175.49
1033.099	1156.74
1033.387	1175.94
1033.675	1163.29
1033.963	1141.37
1034.251	1184.31
1034.54	1161.25
1034.828	1129.62
1035.116	1113.57
1035.403	1128.49
1035.691	1121.93
1035.979	1113.57
1036.267	1101.37
1036.554	1082.16
1036.842	1084.87
1037.129	1083.74
1037.417	1066.57
1037.704	1069.28
1037.992	1060.92
1038.279	1024.08
1038.566	1043.74
1038.853	1043.74
1039.14	1043.74
