Data from hue_350_FLMS001491_70.txt Node
Date: Mon Feb 06 15:38:22 GMT 2017
User: dcchb
Spectrometer: FLMS00149
Trigger mode: 0
Integration Time (sec): 2.000000E-2
Scans to average: 10
Electric dark correction enabled: true
Nonlinearity correction enabled: false
Boxcar width: 0
XAxis mode: Wavelengths
Number of Pixels in Spectrum: 2048
>>>>>Begin Spectral Data<<<<<
341.393	-10.28
341.776	-10.28
342.16	-10.28
342.543	-53.67
342.927	-48.93
343.31	-69.04
343.693	-88.92
344.077	-45.31
344.46	-62.94
344.843	-58.19
345.226	-60.22
345.61	-41.47
345.993	-21.13
346.376	7.34
346.759	20
347.142	27.91
347.525	48.25
347.908	57.06
348.291	69.94
348.674	93.9
349.057	122.82
349.44	121.47
349.823	147.23
350.206	179.32
350.588	181.35
350.971	187
351.354	231.07
351.737	250.73
352.119	262.48
352.502	256.6
352.884	292.08
353.267	274.23
353.65	297.73
354.032	297.96
354.414	303.16
354.797	321.01
355.179	335.7
355.562	324.17
355.944	336.83
356.326	336.6
356.709	359.2
357.091	348.35
357.473	350.84
357.855	354.23
358.238	329.82
358.62	339.31
359.002	352.65
359.384	339.77
359.766	349.93
360.148	341.35
360.53	349.71
360.912	342.7
361.294	325.08
361.676	370.05
362.057	358.75
362.439	343.38
362.821	341.57
363.203	333.66
363.584	325.98
363.966	340.89
364.348	349.71
364.729	328.01
365.111	326.88
365.493	319.65
365.874	325.08
366.256	300.44
366.637	314.46
367.019	321.91
367.4	302.03
367.781	307.22
368.163	334.12
368.544	317.17
368.925	320.78
369.306	335.25
369.688	306.32
370.069	316.71
370.45	314.68
370.831	317.84
371.212	317.62
371.593	326.88
371.974	317.84
372.355	323.72
372.736	330.05
373.117	329.6
373.498	315.36
373.879	323.27
374.26	334.57
374.641	301.57
375.021	308.81
375.402	324.4
375.783	318.75
376.163	332.53
376.544	342.02
376.925	314.23
377.305	326.21
377.686	325.53
378.066	328.01
378.447	324.85
378.827	336.38
379.208	353.55
379.588	305.87
379.968	333.89
380.349	332.53
380.729	327.79
381.109	319.43
381.489	323.49
381.87	336.83
382.25	341.57
382.63	337.96
383.01	361.69
383.39	329.37
383.77	325.98
384.15	343.38
384.53	345.87
384.91	343.38
385.29	341.57
385.67	351.06
386.049	346.32
386.429	334.57
386.809	360.56
387.189	345.64
387.568	360.33
387.948	351.97
388.328	361.69
388.707	348.58
389.087	358.97
389.466	368.24
389.846	350.16
390.225	328.47
390.605	366.88
390.984	370.05
391.363	361.91
391.743	369.59
392.122	392.87
392.501	348.58
392.881	348.13
393.26	373.44
393.639	383.61
394.018	370.72
394.397	379.76
394.776	362.59
395.155	374.11
395.534	382.48
395.913	354.68
396.292	411.63
396.671	365.75
397.05	370.05
397.429	358.97
397.808	370.72
398.186	388.35
398.565	363.95
398.944	379.54
399.323	365.08
399.701	378.63
400.08	384.06
400.458	386.09
400.837	379.76
401.215	396.03
401.594	389.93
401.972	394.68
402.351	397.62
402.729	394.9
403.107	394.68
403.486	395.13
403.864	418.86
404.242	415.02
404.62	417.05
404.999	392.19
405.377	394
405.755	403.72
406.133	403.94
406.511	412.76
406.889	420.21
407.267	421.34
407.645	415.02
408.023	435.81
408.401	428.35
408.779	441.23
409.156	447.56
409.534	435.81
409.912	420.44
410.29	443.72
410.667	446.2
411.045	431.97
411.422	451.85
411.8	444.4
412.178	462.25
412.555	443.72
412.933	456.6
413.31	457.28
413.687	460.21
414.065	457.5
414.442	482.59
414.819	476.48
415.197	474.22
415.574	480.55
415.951	485.75
416.328	490.5
416.705	476.94
417.082	476.71
417.46	478.52
417.837	495.47
418.214	488.91
418.591	500.44
418.967	489.82
419.344	512.64
419.721	504.73
420.098	528.69
420.475	542.25
420.852	521.91
421.228	513.32
421.605	547.67
421.982	507.22
422.358	552.19
422.735	518.29
423.111	550.83
423.488	550.83
423.864	535.24
424.241	537.05
424.617	550.83
424.994	543.6
425.37	545.41
425.746	546.09
426.123	589.25
426.499	568.46
426.875	565.52
427.251	566.43
427.627	582.7
428.003	579.53
428.379	575.69
428.756	593.09
429.132	613.2
429.507	611.4
429.883	577.05
430.259	619.31
430.635	584.73
431.011	629.93
431.387	620.21
431.763	626.31
432.138	655.46
432.514	641.45
432.89	662.02
433.265	663.15
433.641	644.16
434.016	657.27
434.392	651.17
434.767	669.7
435.143	675.12
435.518	688.46
435.894	696.59
436.269	680.55
436.644	679.42
437.02	710.38
437.395	715.12
437.77	715.35
438.145	732.75
438.52	715.57
438.895	731.17
439.271	746.53
439.646	745.18
440.021	724.39
440.395	752.64
440.77	749.25
441.145	746.08
441.52	752.86
441.895	751.51
442.27	764.84
442.645	793.76
443.019	792.41
443.394	768.91
443.769	771.17
444.143	764.84
444.518	778.62
444.892	765.97
445.267	766.19
445.641	763.93
446.016	815.91
446.39	817.72
446.764	800.32
447.139	785.86
447.513	787.89
447.887	816.36
448.262	820.2
448.636	822.69
449.01	827.44
449.384	832.86
449.758	852.07
450.132	853.65
450.506	832.18
450.88	812.3
451.254	857.49
451.628	858.17
452.002	854.1
452.376	842.8
452.75	857.49
453.123	889.13
453.497	900.65
453.871	918.05
454.244	908.11
454.618	922.35
454.992	922.12
455.365	915.8
455.739	914.21
456.112	935.68
456.486	929.58
456.859	949.92
457.232	964.61
457.606	973.87
457.979	991.05
458.352	969.81
458.725	976.81
459.099	1013.65
459.472	998.05
459.845	1020.65
460.218	1025.62
460.591	1035.57
460.964	1008
461.337	1049.58
461.71	1053.87
462.083	1085.51
462.456	1088.22
462.829	1081.44
463.201	1092.29
463.574	1096.36
463.947	1101.33
464.32	1122.12
464.692	1139.52
465.065	1141.55
465.438	1144.26
465.81	1169.57
466.183	1183.13
466.555	1201.44
466.928	1210.93
467.3	1224.71
467.672	1228.1
468.045	1247.31
468.417	1265.16
468.789	1260.42
469.161	1293.41
469.534	1265.39
469.906	1307.2
470.278	1337.93
470.65	1304.49
471.022	1385.16
471.394	1354.43
471.766	1377.93
472.138	1410.02
472.51	1443.01
472.882	1447.31
473.253	1455.67
473.625	1516.68
473.997	1532.73
474.369	1509.45
474.74	1559.85
475.112	1558.94
475.484	1581.77
475.855	1593.52
476.227	1623.12
476.598	1675.55
476.97	1709.9
477.341	1713.74
477.713	1710.35
478.084	1755.55
478.455	1789.44
478.827	1781.76
479.198	1859.05
479.569	1863.11
479.94	1904.24
480.311	1927.97
480.682	1968.2
481.053	2021.75
481.424	2031.47
481.795	2058.59
482.166	2091.58
482.537	2142.66
482.908	2132.03
483.279	2195.08
483.65	2235.76
484.021	2266.27
484.391	2315.31
484.762	2272.6
485.133	2362.99
485.503	2353.95
485.874	2466.26
486.244	2451.8
486.615	2512.59
486.985	2539.93
487.356	2564.79
487.726	2568.86
488.097	2595.52
488.467	2659.48
488.837	2706.93
489.207	2720.72
489.578	2769.53
489.948	2785.8
490.318	2848.4
490.688	2863.54
491.058	2888.17
491.428	2938.11
491.798	2956.65
492.168	3028.96
492.538	3037.1
492.908	3083.87
493.278	3141.5
493.648	3110.09
494.017	3188.28
494.387	3154.38
494.757	3224.21
495.126	3241.38
495.496	3228.28
495.866	3289.07
496.235	3311.89
496.605	3373.58
496.974	3369.97
497.344	3429.4
497.713	3437.76
498.082	3474.37
498.452	3485.22
498.821	3509.85
499.19	3510.53
499.559	3603.63
499.928	3600.24
500.298	3573.8
500.667	3642.73
501.036	3633.92
501.405	3663.97
501.774	3683.63
502.143	3718.66
502.512	3709.85
502.88	3768.15
503.249	3710.75
503.618	3780.35
503.987	3774.93
504.356	3816.74
504.724	3873.91
505.093	3817.64
505.462	3850.18
505.83	3871.88
506.199	3921.14
506.567	3955.72
506.936	3947.13
507.304	3970.86
507.672	4019.67
508.041	4042.72
508.409	3999.33
508.777	4033
509.145	4104.86
509.514	4027.58
509.882	4106.67
510.25	4045.66
510.618	4134.69
510.986	4120.46
511.354	4149.16
511.722	4161.59
512.09	4162.04
512.458	4203.39
512.826	4282.26
513.193	4262.6
513.561	4238.42
513.929	4282.03
514.297	4335.59
514.664	4329.49
515.032	4371.98
515.4	4407.45
515.767	4356.61
516.135	4390.96
516.502	4372.2
516.869	4472.76
517.237	4462.82
517.604	4436.61
517.972	4469.83
518.339	4486.1
518.706	4491.97
519.073	4500.79
519.44	4504.18
519.808	4540.56
520.175	4588.69
520.542	4599.54
520.909	4615.81
521.276	4597.51
521.643	4652.65
522.009	4650.39
522.376	4663.04
522.743	4732.64
523.11	4741.01
523.477	4741.91
523.843	4811.96
524.21	4811.96
524.577	4873.88
524.943	4849.03
525.31	4875.24
525.676	4908.46
526.043	4944.62
526.409	4947.33
526.776	4978.51
527.142	5002.47
527.508	4992.75
527.874	5036.82
528.241	5081.11
528.607	5105.29
528.973	5113.2
529.339	5161.11
529.705	5137.61
530.071	5180.54
530.437	5215.57
530.803	5218.28
531.169	5274.55
531.535	5278.62
531.901	5233.87
532.267	5323.59
532.632	5344.83
532.998	5336.7
533.364	5369.69
533.73	5391.16
534.095	5432.74
534.461	5417.82
534.826	5462.79
535.192	5549.12
535.557	5547.09
535.923	5551.83
536.288	5582.57
536.653	5594.32
537.019	5597.03
537.384	5622.79
537.749	5640.64
538.114	5670.7
538.479	5631.15
538.845	5740.53
539.21	5710.02
539.575	5734.2
539.94	5760.87
540.305	5864.37
540.67	5774.42
541.034	5804.25
541.399	5853.74
541.764	5903.69
542.129	5890.13
542.494	5917.25
542.858	5914.99
543.223	5981.88
543.587	6018.26
543.952	6027.75
544.316	6127.64
544.681	6075.89
545.045	6089.22
545.41	6105.94
545.774	6171.7
546.138	6139.39
546.503	6198.82
546.867	6150.69
547.231	6291.7
547.595	6211.25
547.959	6255.99
548.324	6310.46
548.688	6353.17
549.052	6314.75
549.416	6361.53
549.779	6342.32
550.143	6381.64
550.507	6415.76
550.871	6418.25
551.235	6430.9
551.599	6506.16
551.962	6517.46
552.326	6517.46
552.689	6559.49
553.053	6530.79
553.417	6631.13
553.78	6669.54
554.143	6666.83
554.507	6677.9
554.87	6683.33
555.234	6710.67
555.597	6700.5
555.96	6688.52
556.323	6740.27
556.686	6687.17
557.05	6825.92
557.413	6787.96
557.776	6798.8
558.139	6828.18
558.502	6827.73
558.865	6876.99
559.228	6925.35
559.59	6990.89
559.953	6985.24
560.316	7030.44
560.679	7030.21
561.041	7044
561.404	7055.75
561.767	7109.98
562.129	7107.04
562.492	7130.32
562.854	7170.55
563.217	7185.69
563.579	7191.56
563.941	7207.16
564.304	7283.54
564.666	7301.62
565.028	7339.36
565.39	7343.65
565.753	7352.91
566.115	7426.13
566.477	7436.08
566.839	7460.93
567.201	7428.84
567.563	7565.79
567.925	7566.92
568.287	7546.58
568.648	7576.18
569.01	7622.29
569.372	7671.1
569.734	7599.46
570.095	7668.16
570.457	7734.37
570.819	7768.27
571.18	7752.9
571.542	7836.29
571.903	7847.82
572.265	7924.42
572.626	7946.57
572.987	7995.83
573.349	8015.5
573.71	8067.7
574.071	8107.24
574.432	8149.96
574.794	8262.27
575.155	8303.85
575.516	8288.48
575.877	8350.18
576.238	8436.95
576.599	8426.78
576.96	8558.98
577.32	8623.62
577.681	8618.64
578.042	8761.46
578.403	8794.23
578.763	8881.69
579.124	9011.85
579.485	9114.9
579.845	9164.39
580.206	9275.35
580.566	9325.29
580.927	9458.85
581.287	9641.89
581.648	9699.97
582.008	9815
582.368	9910.36
582.728	10052.73
583.089	10174.08
583.449	10304.47
583.809	10460.85
584.169	10621.75
584.529	10760.28
584.889	10989.43
585.249	11143.55
585.609	11270.33
585.969	11548.96
586.329	11725.45
586.688	11862.63
587.048	12047.48
587.408	12240.7
587.768	12433.68
588.127	12660.35
588.487	12873.9
588.846	13177.17
589.206	13283.61
589.565	13470.27
589.925	13852.18
590.284	14035.22
590.643	14302.56
591.003	14623.01
591.362	14913.85
591.721	15126.72
592.08	15271.12
592.44	15660.27
592.799	15940.03
593.158	16213.47
593.517	16493.69
593.876	16711.31
594.235	16994.02
594.593	17288.25
594.952	17675.81
595.311	17815.46
595.67	18206.19
596.029	18472.17
596.387	18827.41
596.746	19174.98
597.104	19303.79
597.463	19639.82
597.822	20018.12
598.18	20192.8
598.538	20397.77
598.897	20800.47
599.255	20891.09
599.613	21530.39
599.972	21663.95
600.33	21971.06
600.688	22203.37
601.046	22625.28
601.404	22919.06
601.762	23077.02
602.12	23440.17
602.478	23626.84
602.836	24084.68
603.194	24140.5
603.552	24375.74
603.91	24608.05
604.268	25046.46
604.625	25204.87
604.983	25597.86
605.341	25784.75
605.698	26052.31
606.056	26335.47
606.413	26518.96
606.771	26814.55
607.128	27077.59
607.485	27067.2
607.843	27466.51
608.2	27867.4
608.557	28127.96
608.914	28184.91
609.272	28538.57
609.629	28781.05
609.986	28982.63
610.343	29223.98
610.7	29569.5
611.057	29686.11
611.414	29833.23
611.771	30154.57
612.127	30359.09
612.484	30501.91
612.841	30804.05
613.198	30717.05
613.554	31040.43
613.911	31306.18
614.267	31451.94
614.624	31682.44
614.98	31844.47
615.337	32117.46
615.693	32225.71
616.05	32303.44
616.406	32635.41
616.762	32528.98
617.118	32818.46
617.475	32981.17
617.831	33138
618.187	33333.93
618.543	33354.26
618.899	33777.3
619.255	33676.74
619.611	33765.1
619.967	33946.11
620.323	34203.96
620.678	34125.09
621.034	34262.49
621.39	34247.35
621.746	34422.94
622.101	34965.75
622.457	34668.58
622.812	34749.26
623.168	35124.61
623.523	35084.61
623.879	35313.53
624.234	35157.38
624.589	35436.7
624.945	35472.17
625.3	35639.63
625.655	35725.73
626.01	35758.27
626.365	35835.1
626.72	35965.27
627.075	35998.26
627.43	36003.46
627.785	35996.91
628.14	36173.17
628.495	36261.31
628.85	36187.86
629.205	36075.77
629.559	36370.46
629.914	36283.23
630.269	36371.81
630.623	36210.91
630.978	36339.95
631.332	36522.54
631.687	36593.5
632.041	36576.33
632.396	36594.18
632.75	36451.81
633.104	36604.57
633.459	36410.46
633.813	36555.76
634.167	36642.31
634.521	36545.82
634.875	36722.09
635.229	36579.04
635.583	36495.2
635.937	36499.27
636.291	36561.41
636.645	36652.71
636.999	36497.23
637.352	36622.88
637.706	36505.59
638.06	36663.78
638.413	36552.15
638.767	36774.29
639.121	36562.77
639.474	36385.14
639.828	36618.59
640.181	36536.55
640.534	36682.99
640.888	36641.41
641.241	36433.05
641.594	36447.29
641.947	36555.99
642.301	36549.66
642.654	36513.28
643.007	36456.78
643.36	36424.69
643.713	36536.33
644.066	36569.77
644.419	36340.85
644.771	36112.61
645.124	35922.56
645.477	35856.8
645.83	35616.8
646.182	35601.44
646.535	35445.96
646.888	35572.06
647.24	35385.85
647.593	35622.23
647.945	35540.2
648.298	35181.79
648.65	35306.76
649.002	35237.83
649.355	35306.76
649.707	35311.95
650.059	35457.03
650.411	35820.41
650.763	35909.68
651.115	36262.66
651.467	36053.18
651.819	36099.73
652.171	36107.64
652.523	36063.8
652.875	35949.22
653.227	36034.65
653.578	36108.32
653.93	36071.48
654.282	35989
654.633	35871.94
654.985	35924.82
655.337	35907.64
655.688	35860.86
656.039	35967.53
656.391	35699.29
656.742	35786.52
657.094	35872.16
657.445	35803.92
657.796	35874.65
658.147	35725.73
658.498	35655.22
658.849	35903.35
659.2	35734.99
659.551	35767.31
659.902	35986.74
660.253	35831.49
660.604	35803.69
660.955	35644.83
661.306	35804.82
661.656	35697.25
662.007	35818.61
662.358	35718.72
662.708	35701.32
663.059	35716.01
663.409	35490.25
663.76	35764.14
664.11	35753.52
664.461	35717.59
664.811	35799.17
665.161	35708.55
665.511	35611.15
665.862	35698.38
666.212	35804.14
666.562	35727.54
666.912	35734.31
667.262	35645.05
667.612	35617.26
667.962	35713.98
668.312	35579.29
668.662	35787.19
669.011	35726.86
669.361	35613.19
669.711	35563.47
670.06	35505.62
670.41	35548.78
670.76	35504.04
671.109	35560.76
671.459	35452.97
671.808	35348.11
672.157	35521.21
672.507	35355.57
672.856	35336.13
673.205	35304.04
673.554	35473.3
673.904	35317.15
674.253	35464.04
674.602	35314.89
674.951	34874.45
675.3	34775.02
675.649	35356.7
675.998	35316.25
676.346	35182.69
676.695	35251.16
677.044	35215.23
677.393	35257.72
677.741	35238.51
678.09	35148.12
678.438	35042.36
678.787	35146.99
679.135	35210.71
679.484	35037.61
679.832	35092.52
680.181	34936.14
680.529	34933.88
680.877	34914
681.225	34788.8
681.573	35013.66
681.922	34682.82
682.27	34771.18
682.618	34757.17
682.966	34695.7
683.314	34812.76
683.661	34555.59
684.009	34363.73
684.357	34387.01
684.705	34236.95
685.053	34309.49
685.4	34180.23
685.748	34160.12
686.095	34049.39
686.443	33955.83
686.79	33931.88
687.138	34067.47
687.485	34008.71
687.832	33815.72
688.18	33790.86
688.527	33762.16
688.874	33620.7
689.221	33676.06
689.568	33584.77
689.915	33490.98
690.262	33469.97
690.609	33375.51
690.956	33237.88
691.303	33106.81
691.65	33179.81
691.997	33086.47
692.344	32879.93
692.69	32808.06
693.037	32981.84
693.383	32535.08
693.73	32676.77
694.077	32564.23
694.423	32670.67
694.769	32511.57
695.116	32406.72
695.462	32239.49
695.808	32180.74
696.155	32253.28
696.501	32073.85
696.847	32023.45
697.193	31799.95
697.539	31932.15
697.885	31727.41
698.231	31628.89
698.577	31678.6
698.923	31614.65
699.269	31408.78
699.614	31218.95
699.96	31310.25
700.306	31325.84
700.651	31151.38
700.997	30952.75
701.342	30933.08
701.688	30766.54
702.033	30887.66
702.379	30821.9
702.724	30652.41
703.069	30726.31
703.415	30366.09
703.76	30345.08
704.105	30501.01
704.45	30360.67
704.795	30201.58
705.14	30074.8
705.485	30064.63
705.83	29913
706.175	30008.59
706.52	29887.69
706.865	29727.01
707.209	29800.69
707.554	29663.97
707.899	29800.91
708.243	29511.65
708.588	29458.55
708.932	29265.56
709.277	29263.52
709.621	29345.56
709.966	29085.22
710.31	29182.17
710.654	28979.01
710.998	28995.06
711.342	29045
711.687	28946.24
712.031	28879.58
712.375	28611.79
712.719	28802.29
713.063	28637.78
713.407	28732.01
713.75	28587.38
714.094	28554.84
714.438	28404.79
714.782	28518.91
715.125	28300.16
715.469	28479.82
715.812	28151.69
716.156	27990.79
716.499	28119.6
716.843	28157.34
717.186	27900.17
717.53	28039.38
717.873	28037.57
718.216	27893.39
718.559	27742.21
718.902	27746.73
719.246	27815.43
719.589	27675.77
719.932	27538.82
720.275	27516.23
720.617	27550.35
720.96	27561.2
721.303	27423.57
721.646	27468.32
721.989	27228.1
722.331	27393.74
722.674	27251.83
723.016	27284.14
723.359	27170.02
723.701	27132.51
724.044	27010.7
724.386	26937.26
724.729	27097.71
725.071	26889.8
725.413	26879.18
725.755	26825.85
726.097	26771.84
726.439	26723.48
726.782	26660.65
727.124	26777.49
727.465	26615.23
727.807	26626.98
728.149	26582.46
728.491	26500.21
728.833	26532.52
729.175	26509.25
729.516	26405.07
729.858	26379.76
730.199	26320.1
730.541	26185.87
730.882	26266.77
731.224	26375.69
731.565	26080.56
731.906	26075.59
732.248	26178.18
732.589	26109.71
732.93	25909.49
733.271	25970.05
733.612	25977.06
733.953	26083.49
734.294	25907.68
734.635	25795.14
734.976	25920.79
735.317	25697.97
735.658	25692.54
735.999	25704.75
736.339	25577.52
736.68	25729.38
737.021	25593.56
737.361	25500.69
737.702	25684.86
738.042	25473.12
738.383	25447.35
738.723	25496.62
739.063	25398.09
739.404	25432.89
739.744	25341.14
740.084	25201.26
740.424	25206.23
740.764	25199.9
741.104	25263.63
741.444	25240.35
741.784	25024.77
742.124	25079.68
742.464	25044.2
742.804	25048.27
743.143	24910.42
743.483	24975.5
743.823	24818.9
744.162	24786.35
744.502	24841.27
744.841	24741.38
745.181	24793.13
745.52	24684.66
745.86	24675.85
746.199	24665.68
746.538	24687.6
746.877	24638.79
747.216	24551.11
747.556	24538.68
747.895	24582.97
748.234	24519.24
748.573	24432.24
748.911	24333.03
749.25	24319.47
749.589	24238.8
749.928	24347.72
750.267	24348.63
750.605	24148.18
750.944	24157.9
751.283	23971.91
751.621	24118.8
751.96	24017.79
752.298	23965.58
752.636	24021.4
752.975	23837.68
753.313	23784.12
753.651	23929.2
753.989	23913.16
754.327	23678.81
754.666	23639.27
755.004	23677.68
755.342	23665.03
755.679	23575.09
756.017	23451.7
756.355	23591.13
756.693	23463.68
757.031	23384.58
757.368	23309.33
757.706	23272.27
758.044	23175.1
758.381	23225.49
758.719	23043.12
759.056	23164.48
759.394	22990.47
759.731	22828.21
760.068	22911.6
760.405	22659.86
760.743	22654.43
761.08	22705.73
761.417	22663.25
761.754	22552.06
762.091	22561.78
762.428	22403.82
762.765	22394.1
763.102	22405.17
763.438	22221.22
763.775	22128.34
764.112	22206.99
764.449	22077.72
764.785	22087.67
765.122	21864.85
765.458	21829.14
765.795	21825.98
766.131	21744.4
766.467	21749.6
766.804	21593.44
767.14	21494.69
767.476	21537.17
767.812	21406.1
768.148	21479.32
768.485	21231.19
768.821	21148.48
769.157	21219.89
769.492	21117.3
769.828	21078.65
770.164	20854.71
770.5	20866.01
770.836	20862.16
771.171	20703.07
771.507	20653.58
771.842	20461.5
772.178	20543.98
772.513	20422.85
772.849	20357.77
773.184	20305.79
773.519	20258.56
773.855	20209.98
774.19	20112.58
774.525	20042.98
774.86	20016.08
775.195	20005.01
775.53	19901.74
775.865	19778.8
776.2	19760.27
776.535	19483.22
776.87	19626.04
777.205	19445.48
777.539	19417.68
777.874	19387.4
778.209	19304.69
778.543	19201.87
778.878	19196.22
779.212	19081.19
779.547	18897.02
779.881	18930.24
780.215	18895.89
780.55	18892.95
780.884	18802.78
781.218	18763.69
781.552	18748.55
781.886	18576.12
782.22	18598.72
782.554	18478.5
782.888	18255.9
783.222	18230.82
783.556	18140.65
783.889	18046.87
784.223	17975.01
784.557	17869.47
784.89	17912.18
785.224	17819.98
785.557	17794
785.891	17736.14
786.224	17639.2
786.558	17645.75
786.891	17502.93
787.224	17445.53
787.557	17382.93
787.891	17402.37
788.224	17297.96
788.557	17309.49
788.89	17273.33
789.223	17193.79
789.556	17112.21
789.888	17017.07
790.221	16935.26
790.554	16778.65
790.887	16847.13
791.219	16794.25
791.552	16790.86
791.884	16626.79
792.217	16591.99
792.549	16530.53
792.882	16477.19
793.214	16387.93
793.546	16412.11
793.879	16306.8
794.211	16232.68
794.543	16319.68
794.875	16222.06
795.207	16194.94
795.539	16055.74
795.871	16047.15
796.203	15898.45
796.535	15753.37
796.867	15855.52
797.198	15768.06
797.53	15836.31
797.862	15607.61
798.193	15650.55
798.525	15536.2
798.856	15599.48
799.188	15449.2
799.519	15398.58
799.85	15298.47
800.182	15280.84
800.513	15374.17
800.844	15165.14
801.175	15289.88
801.506	15224.57
801.837	15159.04
802.168	15046.05
802.499	14992.26
802.83	14954.07
803.161	14918.82
803.491	14945.03
803.822	14967.63
804.153	14808.54
804.483	14613.06
804.814	14628.43
805.145	14574.65
805.475	14630.46
805.805	14544.59
806.136	14588.43
806.466	14519.96
806.796	14444.93
807.126	14432.05
807.457	14323.8
807.787	14310.92
808.117	14244.03
808.447	14181.21
808.777	14234.99
809.107	14147.54
809.436	14102.79
809.766	14169.46
810.096	14053.08
810.426	13988.9
810.755	14013.76
811.085	13975.56
811.414	13992.29
811.744	13874.55
812.073	13799.52
812.403	13813.08
812.732	13587.55
813.061	13736.25
813.39	13646.31
813.719	13606.53
814.049	13699.64
814.378	13640.66
814.707	13464.39
815.036	13463.26
815.365	13432.75
815.693	13262.59
816.022	13375.81
816.351	13312.31
816.68	13265.75
817.008	13308.46
817.337	13153.44
817.665	13077.96
817.994	13120.22
818.322	13142.82
818.651	13041.13
818.979	13102.82
819.307	13068.7
819.636	13033.44
819.964	12933.78
820.292	13047.23
820.62	12892.2
820.948	12889.94
821.276	13012.88
821.604	12946.21
821.932	12817.4
822.259	12940.56
822.587	12889.49
822.915	12838.19
823.243	12891.07
823.57	12870.74
823.898	12846.1
824.225	12842.49
824.553	12790.74
824.88	12814.69
825.207	12827.35
825.535	12854.01
825.862	12872.09
826.189	12780.79
826.516	12927.91
826.843	12938.3
827.17	12837.97
827.497	12830.06
827.824	12877.06
828.151	12870.06
828.478	12777.4
828.805	12844.97
829.131	12823.73
829.458	12772.43
829.785	12712.55
830.111	12789.61
830.438	12835.48
830.764	12793.45
831.09	12828.7
831.417	12734.24
831.743	12762.94
832.069	12709.38
832.395	12754.58
832.722	12809.49
833.048	12729.04
833.374	12755.26
833.7	12663.28
834.026	12705.32
834.351	12711.64
834.677	12673.68
835.003	12729.72
835.329	12762.94
835.654	12646.11
835.98	12587.13
836.306	12553.91
836.631	12548.26
836.956	12529.73
837.282	12605.88
837.607	12512.33
837.932	12527.02
838.258	12490.18
838.583	12428.94
838.908	12392.1
839.233	12466.9
839.558	12463.74
839.883	12355.72
840.208	12306.23
840.533	12303.52
840.858	12327.47
841.182	12220.81
841.507	12331.54
841.832	12241.37
842.156	12230.98
842.481	12166.57
842.805	12089.51
843.13	12108.27
843.454	12076.18
843.778	12021.49
844.103	12060.13
844.427	12053.81
844.751	11995.73
845.075	11898.78
845.399	11931.32
845.723	11869.18
846.047	11807.26
846.371	11752.12
846.695	11747.37
847.019	11696.98
847.343	11633.71
847.666	11613.37
847.99	11513.93
848.313	11487.49
848.637	11356.88
848.96	11488.62
849.284	11377.89
849.607	11311.23
849.931	11340.61
850.254	11179.93
850.577	11163.44
850.9	11067.84
851.223	11072.36
851.546	11064.23
851.869	10969.09
852.192	10997.11
852.515	10988.52
852.838	10807.29
853.161	10869.88
853.483	10711.24
853.806	10774.52
854.129	10767.51
854.451	10707.4
854.774	10655.2
855.096	10580.4
855.419	10594.18
855.741	10560.74
856.063	10508.54
856.385	10482.55
856.708	10452.95
857.03	10484.36
857.352	10440.74
857.674	10349.9
857.996	10330.69
858.318	10337.24
858.64	10309.9
858.961	10224.93
859.283	10198.71
859.605	10160.75
859.926	10156
860.248	10189.22
860.57	10139.51
860.891	10099.73
861.212	9980.87
861.534	10011.15
861.855	10047.08
862.176	9953.52
862.498	10013.41
862.819	9895.67
863.14	9941.32
863.461	9921.89
863.782	9824.94
864.103	9852.96
864.424	9879.63
864.745	9855
865.065	9865.84
865.386	9743.36
865.707	9787.43
866.027	9751.04
866.348	9723.25
866.668	9703.13
866.989	9650.93
867.309	9604.15
867.63	9690.93
867.95	9710.14
868.27	9675.11
868.59	9632.18
868.91	9600.76
869.23	9514.44
869.55	9525.96
869.87	9573.42
870.19	9597.83
870.51	9477.38
870.83	9531.16
871.15	9421.33
871.469	9440.77
871.789	9515.34
872.109	9476.02
872.428	9364.39
872.748	9456.14
873.067	9433.31
873.386	9451.16
873.706	9442.12
874.025	9335.01
874.344	9354.9
874.663	9326.2
874.982	9310.38
875.301	9306.31
875.62	9318.06
875.939	9246.2
876.258	9255.01
876.577	9215.01
876.896	9189.93
877.214	9105.86
877.533	9171.85
877.852	9118.52
878.17	9208.91
878.489	9204.16
878.807	9122.81
879.125	9149.93
879.444	9088.01
879.762	9097.05
880.08	9046.65
880.398	9078.52
880.716	9044.62
881.034	8992.42
881.352	9036.49
881.67	8981.12
881.988	8993.32
882.306	8895.25
882.624	8958.75
882.941	8955.13
883.259	8885.76
883.577	8877.85
883.894	8790.39
884.212	8832.65
884.529	8803.5
884.846	8766.66
885.164	8818.64
885.481	8745.19
885.798	8763.27
886.115	8720.34
886.432	8609.83
886.75	8613.9
887.067	8617.29
887.383	8537.06
887.7	8616.16
888.017	8486.44
888.334	8542.04
888.651	8510.17
888.967	8511.3
889.284	8453.68
889.6	8390.85
889.917	8366.9
890.233	8402.83
890.55	8380.68
890.866	8428.37
891.182	8328.03
891.498	8330.29
891.815	8267.92
892.131	8204.42
892.447	8260.01
892.763	8184.3
893.079	8209.16
893.395	8169.39
893.71	8137.75
894.026	8133.01
894.342	8119.9
894.657	7999.22
894.973	8038.32
895.289	8007.36
895.604	8001.71
895.92	7965.78
896.235	7948.83
896.55	7903.86
896.865	7923.52
897.181	7839
897.496	7853.92
897.811	7799.91
898.126	7803.3
898.441	7742.73
898.756	7698.22
899.071	7703.41
899.386	7712.9
899.7	7599.24
900.015	7636.07
900.33	7566.02
900.644	7550.87
900.959	7648.73
901.273	7486.92
901.588	7434.95
901.902	7429.97
902.216	7440.6
902.531	7422.29
902.845	7402.4
903.159	7372.12
903.473	7301.16
903.787	7279.47
904.101	7274.72
904.415	7250.54
904.729	7229.75
905.042	7198.79
905.356	7194.27
905.67	7140.04
905.984	7115.18
906.297	7097.55
906.611	7034.28
906.924	7015.3
907.237	6936.2
907.551	7000.83
907.864	6983.21
908.177	6887.84
908.491	6937.78
908.804	6831.8
909.117	6854.17
909.43	6803.32
909.743	6777.11
910.056	6737.11
910.368	6774.85
910.681	6731.01
910.994	6701.41
911.307	6655.98
911.619	6620.73
911.932	6624.8
912.244	6582.99
912.557	6569.88
912.869	6476.55
913.181	6462.99
913.494	6472.49
913.806	6444.01
914.118	6390.68
914.43	6358.14
914.742	6361.75
915.054	6298.48
915.366	6291.92
915.678	6281.3
915.99	6246.73
916.302	6208.76
916.613	6185.49
916.925	6206.73
917.236	6186.39
917.548	6160.18
917.859	6092.83
918.171	6085.15
918.482	6044.93
918.794	6048.32
919.105	6029.78
919.416	5981.42
919.727	5982.1
920.038	5985.04
920.349	5874.76
920.66	5919.73
920.971	5858.26
921.282	5821.2
921.593	5831.15
921.903	5739.4
922.214	5763.13
922.525	5775.1
922.835	5706.63
923.146	5684.71
923.456	5654.43
923.767	5658.72
924.077	5640.19
924.387	5637.25
924.697	5545.5
925.008	5584.82
925.318	5505.73
925.628	5538.95
925.938	5533.98
926.248	5466.18
926.558	5392.06
926.867	5430.7
927.177	5382.34
927.487	5345.28
927.796	5311.61
928.106	5331.05
928.416	5345.74
928.725	5299.63
929.034	5241.11
929.344	5302.8
929.653	5216.7
929.962	5166.53
930.271	5167.21
930.581	5141.9
930.89	5129.92
931.199	5085.4
931.508	5085.63
931.817	5096.48
932.125	5042.92
932.434	5049.02
932.743	4925.63
933.051	4923.37
933.36	4924.05
933.669	4910.72
933.977	4901.23
934.286	4922.02
934.594	4851.51
934.902	4853.77
935.21	4818.29
935.519	4848.8
935.827	4756.37
936.135	4836.82
936.443	4737.16
936.751	4700.78
937.059	4684.06
937.367	4714.57
937.674	4643.38
937.982	4621.23
938.29	4644.51
938.597	4637.05
938.905	4571.07
939.213	4548.02
939.52	4512.31
939.827	4497.62
940.135	4510.73
940.442	4482.48
940.749	4444.52
941.056	4440.67
941.363	4460.79
941.67	4418.75
941.977	4372.43
942.284	4377.17
942.591	4399.09
942.898	4389.83
943.205	4352.31
943.511	4288.14
943.818	4288.14
944.125	4242.94
944.431	4252.43
944.738	4207.69
945.044	4218.99
945.35	4217.63
945.657	4163.85
945.963	4192.55
946.269	4125.43
946.575	4107.58
946.881	4159.55
947.187	4117.74
947.493	4075.49
947.799	4091.08
948.105	4035.94
948.41	4018.76
948.716	4026.45
949.022	3996.17
949.327	3964.75
949.633	3942.61
949.938	3902.16
950.244	3934.47
950.549	3902.61
950.854	3869.16
951.16	3842.05
951.465	3886.34
951.77	3880.01
952.075	3817.64
952.38	3803.63
952.685	3801.59
952.99	3750.75
953.294	3783.06
953.599	3776.96
953.904	3710.52
954.209	3697.42
954.513	3722.05
954.818	3712.33
955.122	3684.54
955.426	3642.73
955.731	3622.84
956.035	3638.44
956.339	3604.54
956.643	3603.41
956.948	3558.21
957.252	3553.01
957.556	3513.01
957.86	3494.71
958.163	3549.62
958.467	3490.87
958.771	3500.81
959.075	3485.9
959.378	3474.37
959.682	3449.29
959.985	3462.17
960.289	3403.87
960.592	3369.29
960.896	3376.3
961.199	3360.02
961.502	3365.67
961.805	3334.71
962.108	3355.5
962.411	3325
962.714	3282.96
963.017	3261.95
963.32	3274.83
963.623	3286.35
963.926	3221.95
964.228	3247.71
964.531	3192.8
964.833	3160.26
965.136	3188.05
965.438	3187.83
965.741	3193.48
966.043	3127.71
966.345	3120.26
966.648	3128.62
966.95	3094.95
967.252	3077.32
967.554	3061.05
967.856	3064.21
968.158	3007.72
968.46	3072.8
968.761	2998.68
969.063	3029.41
969.365	2953.26
969.666	2994.16
969.968	2953.93
970.269	2960.94
970.571	2915.74
970.872	2931.34
971.174	2918.23
971.475	2905.8
971.776	2922.75
972.077	2907.83
972.378	2843.88
972.679	2898.57
972.98	2838.46
973.281	2844.33
973.582	2843.88
973.883	2830.55
974.183	2799.59
974.484	2784.45
974.785	2788.97
975.085	2755.97
975.386	2762.75
975.686	2721.62
975.986	2710.1
976.287	2709.87
976.587	2692.7
976.887	2713.04
977.187	2701.51
977.487	2675.97
977.787	2678.91
978.087	2685.47
978.387	2639.82
978.687	2642.53
978.987	2587.84
979.286	2581.74
979.586	2591.68
979.885	2583.77
980.185	2544.45
980.484	2527.96
980.784	2537.67
981.083	2504.91
981.382	2514.17
981.682	2523.44
981.981	2540.39
982.28	2482.53
982.579	2471.01
982.878	2485.7
983.177	2448.18
983.475	2456.09
983.774	2435.76
984.073	2404.34
984.372	2433.04
984.67	2390.56
984.969	2414.29
985.267	2395.98
985.566	2397.11
985.864	2319.6
986.162	2346.72
986.461	2345.14
986.759	2309.2
987.057	2325.7
987.355	2290
987.653	2311.46
987.951	2314.63
988.249	2279.38
988.547	2282.99
988.844	2257.91
989.142	2256.1
989.44	2243.44
989.737	2202.31
990.035	2197.8
990.332	2222.43
990.63	2224.46
990.927	2241.64
991.224	2210
991.521	2150.79
991.819	2175.2
992.116	2172.71
992.413	2155.54
992.71	2134.97
993.006	2129.1
993.303	2134.52
993.6	2111.7
993.897	2111.02
994.193	2040.51
994.49	2067.4
994.787	2062.43
995.083	2051.36
995.379	2071.47
995.676	2029.44
995.972	2017.69
996.268	2015.65
996.565	1995.31
996.861	1973.39
997.157	1963.68
997.453	2003.45
997.749	1971.13
998.044	1920.74
998.34	1947.86
998.636	1946.73
998.932	1899.72
999.227	1917.58
999.523	1876.67
999.818	1895.2
1000.114	1891.14
1000.409	1872.38
1000.704	1901.31
1001	1876.9
1001.295	1836
1001.59	1867.41
1001.885	1852.04
1002.18	1774.76
1002.475	1788.99
1002.77	1793.51
1003.065	1777.69
1003.359	1793.29
1003.654	1782.44
1003.949	1760.74
1004.243	1791.93
1004.538	1747.64
1004.832	1733.17
1005.127	1736.34
1005.421	1720.29
1005.715	1709.22
1006.009	1720.97
1006.304	1685.27
1006.598	1719.84
1006.892	1689.56
1007.186	1664.25
1007.48	1670.58
1007.773	1647.53
1008.067	1623.35
1008.361	1610.24
1008.655	1629.9
1008.948	1611.37
1009.242	1594.65
1009.535	1615.44
1009.829	1582.9
1010.122	1587.87
1010.415	1565.27
1010.708	1561.43
1011.001	1552.84
1011.295	1530.69
1011.588	1548.32
1011.881	1554.42
1012.173	1505.38
1012.466	1506.29
1012.759	1482.11
1013.052	1477.14
1013.344	1493.86
1013.637	1474.88
1013.93	1474.2
1014.222	1475.1
1014.514	1464.03
1014.807	1440.98
1015.099	1448.89
1015.391	1453.63
1015.683	1426.52
1015.976	1427.65
1016.268	1401.88
1016.56	1378.38
1016.851	1382.45
1017.143	1386.74
1017.435	1408.44
1017.727	1347.87
1018.018	1358.95
1018.31	1341.09
1018.602	1354.43
1018.893	1321.43
1019.185	1320.08
1019.476	1309.01
1019.767	1295.45
1020.058	1306.97
1020.35	1299.06
1020.641	1261.1
1020.932	1297.48
1021.223	1289.57
1021.514	1266.75
1021.804	1283.47
1022.095	1273.07
1022.386	1212.96
1022.677	1243.47
1022.967	1199.63
1023.258	1214.77
1023.548	1213.64
1023.839	1208.67
1024.129	1170.7
1024.419	1183.81
1024.709	1168.67
1025	1191.95
1025.29	1140.2
1025.58	1153.98
1025.87	1161.21
1026.16	1129.57
1026.449	1125.28
1026.739	1148.78
1027.029	1126.64
1027.319	1123.93
1027.608	1117.15
1027.898	1097.49
1028.187	1095
1028.477	1119.18
1028.766	1085.51
1029.055	1055.45
1029.344	1076.69
1029.634	1082.34
1029.923	1055.23
1030.212	1054.77
1030.501	1060.42
1030.79	1033.08
1031.078	1025.62
1031.367	1010.03
1031.656	1004.38
1031.945	1014.32
1032.233	985.62
1032.522	998.96
1032.81	964.16
1033.099	982.69
1033.387	993.99
1033.675	982.46
1033.963	991.05
1034.251	979.97
1034.54	966.19
1034.828	946.53
1035.116	937.04
1035.403	947.88
1035.691	940.88
1035.979	932.29
1036.267	918.05
1036.554	911.28
1036.842	910.37
1037.129	901.11
1037.417	912.18
1037.704	894.55
1037.992	879.19
1038.279	860.88
1038.566	853.65
1038.853	853.65
1039.14	853.65
