Data from hue_28_FLMS001491_00027.txt Node
Date: Tue Feb 07 17:17:04 GMT 2017
User: dcchb
Spectrometer: FLMS00149
Trigger mode: 0
Integration Time (sec): 2.000000E-2
Scans to average: 10
Electric dark correction enabled: true
Nonlinearity correction enabled: false
Boxcar width: 0
XAxis mode: Wavelengths
Number of Pixels in Spectrum: 2048
>>>>>Begin Spectral Data<<<<<
341.393	-24.53
341.776	-24.53
342.16	-24.53
342.543	-63.18
342.927	-63.63
343.31	-79.45
343.693	-58.88
344.077	-56.4
344.46	-66.79
344.843	-74.7
345.226	-46.68
345.61	-39.67
345.993	-20.47
346.376	-3.06
346.759	12.3
347.142	12.08
347.525	61.34
347.908	54.56
348.291	85.75
348.674	102.02
349.057	118.06
349.44	127.55
349.823	140.89
350.206	164.39
350.588	188.34
350.971	217.72
351.354	218.17
351.737	244.84
352.119	264.72
352.502	240.54
352.884	277.15
353.267	280.77
353.65	296.81
354.032	300.66
354.414	303.82
354.797	316.7
355.179	302.92
355.562	326.42
355.944	322.58
356.326	354.67
356.709	350.82
357.091	306.53
357.473	360.99
357.855	314.89
358.238	306.53
358.62	350.15
359.002	345.63
359.384	327.77
359.766	348.11
360.148	355.34
360.53	334.1
360.912	339.75
361.294	342.46
361.676	326.64
362.057	337.49
362.439	316.93
362.821	353.54
363.203	330.03
363.584	322.8
363.966	349.02
364.348	336.36
364.729	329.36
365.111	310.15
365.493	330.71
365.874	325.51
366.256	339.3
366.637	308.34
367.019	322.8
367.4	311.5
367.781	316.93
368.163	328.45
368.544	309.92
368.925	310.6
369.306	310.37
369.688	310.83
370.069	316.25
370.45	314.67
370.831	319.41
371.212	322.12
371.593	315.8
371.974	325.97
372.355	316.02
372.736	324.61
373.117	309.02
373.498	327.32
373.879	328
374.26	309.02
374.641	310.37
375.021	311.73
375.402	315.57
375.783	338.4
376.163	335.91
376.544	343.82
376.925	328.9
377.305	344.95
377.686	330.03
378.066	358.06
378.447	338.4
378.827	321.22
379.208	317.38
379.588	350.37
379.968	353.76
380.349	324.38
380.729	319.41
381.109	334.33
381.489	350.6
381.87	351.73
382.25	343.82
382.63	340.88
383.01	352.86
383.39	346.3
383.77	321.22
384.15	345.85
384.53	349.24
384.91	349.69
385.29	366.19
385.67	370.71
386.049	357.83
386.429	363.25
386.809	356.93
387.189	352.86
387.568	361.22
387.948	335.23
388.328	361.67
388.707	360.54
389.087	379.07
389.466	373.42
389.846	349.02
390.225	368.68
390.605	375.68
390.984	374.1
391.363	368.68
391.743	371.39
392.122	386.3
392.501	376.36
392.881	362.35
393.26	403.25
393.639	397.38
394.018	385.85
394.397	382.91
394.776	382.69
395.155	389.02
395.534	390.15
395.913	390.82
396.292	386.08
396.671	409.35
397.05	397.6
397.429	388.79
397.808	396.92
398.186	411.16
398.565	412.29
398.944	393.31
399.323	398.96
399.701	416.36
400.08	383.14
400.458	411.39
400.837	400.54
401.215	401.9
401.594	398.96
401.972	431.5
402.351	400.99
402.729	396.92
403.107	427.88
403.486	421.33
403.864	432.18
404.242	410.03
404.62	437.83
404.999	435.12
405.377	443.03
405.755	428.56
406.133	440.99
406.511	451.16
406.889	457.94
407.267	427.21
407.645	438.05
408.023	458.84
408.401	454.1
408.779	466.75
409.156	451.61
409.534	504.72
409.912	445.51
410.29	459.07
410.667	483.7
411.045	482.57
411.422	482.8
411.8	472.85
412.178	459.3
412.555	473.08
412.933	488
413.31	492.06
413.687	509.46
414.065	486.19
414.442	483.7
414.819	519.86
415.197	506.75
415.574	492.97
415.951	520.76
416.328	509.01
416.705	527.77
417.082	495.23
417.46	525.28
417.837	537.94
418.214	530.25
418.591	544.04
418.967	525.96
419.344	538.84
419.721	530.03
420.098	545.62
420.475	532.74
420.852	549.91
421.228	554.89
421.605	555.34
421.982	558.05
422.358	586.3
422.735	586.98
423.111	547.43
423.488	558.95
423.864	570.71
424.241	608.9
424.617	578.16
424.994	576.35
425.37	582
425.746	577.26
426.123	607.77
426.499	599.18
426.875	610.03
427.251	607.31
427.627	617.94
428.003	620.65
428.379	615.45
428.756	616.35
429.132	651.38
429.507	629.46
429.883	656.8
430.259	644.15
430.635	673.3
431.011	655.45
431.387	670.59
431.763	701.78
432.138	704.26
432.514	690.25
432.89	716.24
433.265	686.86
433.641	705.39
434.016	717.82
434.392	738.38
434.767	745.39
435.143	757.37
435.518	707.88
435.894	737.93
436.269	746.97
436.644	757.59
437.02	763.24
437.395	754.43
437.77	760.76
438.145	765.05
438.52	777.93
438.895	785.61
439.271	803.24
439.646	814.77
440.021	819.96
440.395	780.64
440.77	810.25
441.145	801.43
441.52	837.36
441.895	821.09
442.27	839.62
442.645	828.1
443.019	814.31
443.394	852.73
443.769	863.13
444.143	827.87
444.518	871.94
444.892	866.06
445.267	881.88
445.641	886.63
446.016	879.62
446.39	888.66
446.764	894.99
447.139	868.78
447.513	884.82
447.887	904.71
448.262	904.03
448.636	900.87
449.01	918.49
449.384	909.91
449.758	935.89
450.132	923.46
450.506	936.35
450.88	953.07
451.254	966.85
451.628	976.34
452.002	947.19
452.376	973.18
452.75	983.35
453.123	988.32
453.497	1000.07
453.871	1000.07
454.244	1003.91
454.618	1036
454.992	1046.17
455.365	1046.4
455.739	1060.18
456.112	1072.84
456.486	1112.84
456.859	1088.21
457.232	1084.59
457.606	1128.2
457.979	1128.88
458.352	1118.71
458.725	1138.83
459.099	1147.19
459.472	1190.58
459.845	1180.86
460.218	1201.88
460.591	1201.42
460.964	1206.17
461.337	1209.56
461.71	1260.86
462.083	1273.29
462.456	1283.91
462.829	1288.43
463.201	1293.17
463.574	1282.78
463.947	1310.57
464.32	1320.29
464.692	1331.59
465.065	1365.03
465.438	1379.95
465.81	1374.07
466.183	1426.95
466.555	1452.04
466.928	1447.52
467.3	1442.09
467.672	1472.15
468.045	1511.47
468.417	1510.57
468.789	1533.17
469.161	1539.04
469.534	1552.15
469.906	1580.4
470.278	1626.04
470.65	1626.95
471.022	1680.05
471.394	1698.13
471.766	1720.51
472.138	1722.09
472.51	1778.58
472.882	1828.3
473.253	1836.21
473.625	1852.25
473.997	1906.94
474.369	1918.24
474.74	1932.48
475.112	1972.25
475.484	2014.74
475.855	2044.11
476.227	2086.6
476.598	2131.79
476.97	2149.19
477.341	2189.87
477.713	2231.9
478.084	2270.55
478.455	2328.85
478.827	2341.96
479.198	2378.12
479.569	2428.28
479.94	2528.39
480.311	2525.23
480.682	2569.52
481.053	2682.74
481.424	2669.63
481.795	2748.5
482.166	2781.04
482.537	2838.22
482.908	2882.06
483.279	2922.28
483.65	2974.26
484.021	3080.7
484.391	3082.05
484.762	3148.49
485.133	3192.56
485.503	3245.44
485.874	3316.4
486.244	3365.21
486.615	3434.81
486.985	3502.15
487.356	3571.53
487.726	3611.3
488.097	3668.03
488.467	3743.05
488.837	3772.88
489.207	3875.03
489.578	3936.04
489.948	3966.1
490.318	4058.98
490.688	4065.08
491.058	4128.58
491.428	4170.16
491.798	4282.02
492.168	4383.94
492.538	4374.45
492.908	4439.53
493.278	4452.64
493.648	4550.71
494.017	4554.33
494.387	4634.55
494.757	4720.43
495.126	4774.21
495.496	4780.76
495.866	4867.54
496.235	4859.63
496.605	4908.67
496.974	5003.58
497.344	5008.78
497.713	5051.27
498.082	5074.99
498.452	5160.19
498.821	5187.99
499.19	5198.83
499.559	5268.66
499.928	5343.69
500.298	5332.39
500.667	5369
501.036	5362.9
501.405	5488.77
501.774	5452.16
502.143	5528.99
502.512	5577.58
502.88	5599.27
503.249	5610.57
503.618	5654.41
503.987	5683.79
504.356	5762.21
504.724	5791.13
505.093	5808.76
505.462	5813.73
505.83	5846.05
506.199	5936.21
506.567	6000.85
506.936	6007.4
507.304	6061.86
507.672	6086.72
508.041	6042.2
508.409	6122.65
508.777	6119.71
509.145	6194.96
509.514	6213.72
509.882	6266.6
510.25	6263.21
510.618	6326.49
510.986	6377.56
511.354	6365.81
511.722	6469.99
512.09	6455.52
512.458	6522.19
512.826	6518.57
513.193	6602.19
513.561	6526.93
513.929	6608.96
514.297	6693.26
514.664	6718.11
515.032	6696.87
515.4	6845.12
515.767	6785.46
516.135	6779.13
516.502	6786.59
516.869	6905.23
517.237	6904.32
517.604	6816.87
517.972	6982.97
518.339	7050.31
518.706	6975.51
519.073	7022.51
519.44	7053.92
519.808	7121.04
520.175	7123.3
520.542	7265.9
520.909	7242.62
521.276	7189.29
521.643	7324.43
522.009	7320.58
522.376	7331.21
522.743	7435.38
523.11	7488.94
523.477	7557.41
523.843	7540.69
524.21	7614.36
524.577	7618.2
524.943	7694.36
525.31	7699.78
525.676	7759.89
526.043	7811.42
526.409	7896.39
526.776	7934.35
527.142	7895.71
527.508	8026.1
527.874	8020.68
528.241	8082.15
528.607	8129.15
528.973	8181.58
529.339	8191.52
529.705	8257.73
530.071	8324.17
530.437	8340.22
530.803	8361.69
531.169	8426.32
531.535	8408.69
531.901	8455.02
532.267	8521.23
532.632	8588.12
532.998	8578.86
533.364	8621.79
533.73	8669.93
534.095	8738.4
534.461	8708.57
534.826	8812.97
535.192	8806.87
535.557	8894.78
535.923	8929.13
536.288	8859.75
536.653	8974.78
537.019	8956.25
537.384	8980.2
537.749	9102.91
538.114	9071.27
538.479	9068.79
538.845	9206.18
539.21	9095
539.575	9193.3
539.94	9206.41
540.305	9320.53
540.67	9311.94
541.034	9314.66
541.399	9391.26
541.764	9423.13
542.129	9441.21
542.494	9481.43
542.858	9561.66
543.223	9568.89
543.587	9649.11
543.952	9616.57
544.316	9667.19
544.681	9653.63
545.045	9786.51
545.41	9849.56
545.774	9861.76
546.138	9873.06
546.503	9919.39
546.867	9884.36
547.231	10029.44
547.595	10059.27
547.959	10042.55
548.324	10073.05
548.688	10149.66
549.052	10165.03
549.416	10190.79
549.779	10118.7
550.143	10134.52
550.507	10288.42
550.871	10324.57
551.235	10282.99
551.599	10375.87
551.962	10375.65
552.326	10411.8
552.689	10497.45
553.053	10431.01
553.417	10522.53
553.78	10597.56
554.143	10624.68
554.507	10687.95
554.87	10687.28
555.234	10755.97
555.597	10706.48
555.96	10842.75
556.323	10769.31
556.686	10786.71
557.05	10865.8
557.413	10878.23
557.776	10946.48
558.139	11014.72
558.502	11000.04
558.865	11032.35
559.228	11211.78
559.59	11109.19
559.953	11200.26
560.316	11294.27
560.679	11277.09
561.041	11320.25
561.404	11325.9
561.767	11382.17
562.129	11403.41
562.492	11583.07
562.854	11571.09
563.217	11530.42
563.579	11593.92
563.941	11656.29
564.304	11676.85
564.666	11679.11
565.028	11748.49
565.39	11774.7
565.753	11914.59
566.115	11854.02
566.477	11882.95
566.839	11917.98
567.201	12060.35
567.563	12020.35
567.925	12109.38
568.287	12145.09
568.648	12197.07
569.01	12263.96
569.372	12231.19
569.734	12255.82
570.095	12438.19
570.457	12414.69
570.819	12411.07
571.18	12390.73
571.542	12576.49
571.903	12633.21
572.265	12672.31
572.626	12688.8
572.987	12743.27
573.349	12843.83
573.71	12910.04
574.071	12996.59
574.432	13082.01
574.794	13174.22
575.155	13167.89
575.516	13235.91
575.877	13392.97
576.238	13317.04
576.599	13431.16
576.96	13575.79
577.32	13638.84
577.681	13773.75
578.042	13860.3
578.403	13922.44
578.763	14024.36
579.124	14118.15
579.485	14300.29
579.845	14424.8
580.206	14479.72
580.566	14597
580.927	14742.54
581.287	14894.4
581.648	14913.38
582.008	15223.88
582.368	15357.44
582.728	15498.22
583.089	15634.94
583.449	15787.03
583.809	16025.89
584.169	16184.08
584.529	16367.13
584.889	16643.96
585.249	16777.96
585.609	16895.02
585.969	17262.7
586.329	17453.88
586.688	17670.37
587.048	17828.56
587.408	18177.25
587.768	18400.52
588.127	18578.59
588.487	18840.51
588.846	19129.99
589.206	19259.48
589.565	19582.41
589.925	19869.86
590.284	20065.33
590.643	20496.28
591.003	20660.57
591.362	20955.25
591.721	21306.88
592.08	21574.22
592.44	21782.8
592.799	22119.07
593.158	22450.58
593.517	22635.89
593.876	23139.38
594.235	23245.36
594.593	23600.61
594.952	23946.14
595.311	24179.12
595.67	24565.55
596.029	25012.1
596.387	25287.8
596.746	25544.29
597.104	25742.92
597.463	26011.39
597.822	26379.07
598.18	26590.59
598.538	26903.8
598.897	27388.53
599.255	27433.05
599.613	28149.19
599.972	28138.79
600.33	28445.45
600.688	28766.8
601.046	29079.11
601.404	29465.76
601.762	29568.81
602.12	29971.51
602.478	30292.86
602.836	30553.42
603.194	30672.29
603.552	31046.97
603.91	31171.03
604.268	31532.38
604.625	31827.74
604.983	32177.33
605.341	32297.55
605.698	32688.05
606.056	32945.45
606.413	33108.61
606.771	33442.16
607.128	33715.37
607.485	33754.47
607.843	34073.78
608.2	34516.25
608.557	34783.14
608.914	34826.53
609.272	35170.02
609.629	35486.4
609.986	35721.42
610.343	35717.58
610.7	36192.37
611.057	36254.29
611.414	36390.33
611.771	36487.05
612.127	36863.76
612.484	37099.91
612.841	37301.04
613.198	37396.18
613.554	37567.7
613.911	37872.78
614.267	38171.52
614.624	38089.27
614.98	38477.05
615.337	38721.34
615.693	38920.88
616.05	38924.73
616.406	39329.23
616.762	39391.83
617.118	39559.06
617.475	39781.2
617.831	39901.42
618.187	39883.57
618.543	40087.18
618.899	40434.74
619.255	40412.82
619.611	40379.15
619.967	40768.97
620.323	40937.78
620.678	40829.31
621.034	40791.79
621.39	41028.17
621.746	41004.67
622.101	41514.71
622.457	41194.04
622.812	41549.74
623.168	41579.34
623.523	41701.15
623.879	41942.27
624.234	41767.14
624.589	41853.91
624.945	41996.96
625.3	42079.9
625.655	42197.63
626.01	42307.24
626.365	42356.95
626.72	42368.25
627.075	42488.47
627.43	42498.42
627.785	42468.36
628.14	42507.23
628.495	42709.94
628.85	42694.8
629.205	42549.94
629.559	42986.99
629.914	42778.86
630.269	42838.75
630.623	42872.19
630.978	42833.32
631.332	43048.46
631.687	43127.33
632.041	42961.91
632.396	43126.2
632.75	42918.29
633.104	43159.64
633.459	42981.34
633.813	43062.7
634.167	43086.42
634.521	43090.72
634.875	43100.89
635.229	43000.55
635.583	43001.68
635.937	42954.22
636.291	43005.52
636.645	43179.53
636.999	42956.03
637.352	43091.4
637.706	42930.95
638.06	43057.5
638.413	43030.38
638.767	42895.47
639.121	42883.04
639.474	42892.3
639.828	42975.01
640.181	42961.68
640.534	42994.45
640.888	42838.97
641.241	42863.83
641.594	42799.65
641.947	42968.91
642.301	42876.71
642.654	42923.04
643.007	42875.81
643.36	42780.89
643.713	42777.96
644.066	42952.19
644.419	42773.44
644.771	42657.51
645.124	42112.89
645.477	42055.04
645.83	41878.55
646.182	41728.27
646.535	41826.57
646.888	41842.61
647.24	41519.69
647.593	41816.4
647.945	41734.59
648.298	41423.19
648.65	41349.97
649.002	41400.82
649.355	41569.18
649.707	41495.28
650.059	41755.61
650.411	42237.18
650.763	42214.58
651.115	42621.35
651.467	42534.12
651.819	42316.27
652.171	42293.45
652.523	42368.02
652.875	42221.81
653.227	42152.44
653.578	42515.82
653.93	42383.62
654.282	42219.33
654.633	42127.58
654.985	42316.95
655.337	42211.64
655.688	42222.27
656.039	42376.16
656.391	42060.01
656.742	42162.38
657.094	42024.3
657.445	42236.5
657.796	42245.77
658.147	42154.47
658.498	42041.25
658.849	42189.95
659.2	42009.39
659.551	41930.3
659.902	42171.42
660.253	41977.07
660.604	42186.11
660.955	41991.31
661.306	42112.89
661.656	41990.86
662.007	42146.34
662.358	42009.84
662.708	42028.15
663.059	42024.76
663.409	41742.96
663.76	42035.6
664.11	41916.96
664.461	42075.15
664.811	42024.08
665.161	42032.67
665.511	41996.06
665.862	42069.95
666.212	42056.85
666.562	42006
666.912	41971.88
667.262	41945.44
667.612	41987.24
667.962	41803.52
668.312	41909.96
668.662	42170.97
669.011	42041.25
669.361	41857.53
669.711	41702.05
670.06	41852.56
670.41	41855.5
670.76	41735.5
671.109	41887.13
671.459	41794.03
671.808	41695.05
672.157	41865.21
672.507	41606.01
672.856	41613.92
673.205	41536.18
673.554	41776.85
673.904	41630.87
674.253	41797.42
674.602	41613.47
674.951	41086.25
675.3	40930.77
675.649	41590.64
675.998	41531.89
676.346	41492.12
676.695	41569.18
677.044	41438.56
677.393	41512.45
677.741	41444.21
678.09	41419.8
678.438	41359.46
678.787	41441.5
679.135	41384.77
679.484	41031.56
679.832	41347.94
680.181	41088.28
680.529	41154.05
680.877	41104.1
681.225	41050.32
681.573	41402.63
681.922	41046.7
682.27	40996.76
682.618	40894.84
682.966	40722.87
683.314	40984.11
683.661	40827.05
684.009	40716.32
684.357	40533.95
684.705	40406.95
685.053	40609.65
685.4	40485.14
685.748	40390.22
686.095	40313.39
686.443	40145.03
686.79	40124.02
687.138	40124.92
687.485	40147.29
687.832	39946.62
688.18	40042.44
688.527	39816.68
688.874	39794.31
689.221	39767.19
689.568	39651.03
689.915	39671.15
690.262	39622.79
690.609	39517.48
690.956	39313.42
691.303	39230.71
691.65	39134.66
691.997	39227.54
692.344	38987.77
692.69	38991.62
693.037	38930.6
693.383	38535.58
693.73	38703.94
694.077	38510.5
694.423	38472.31
694.769	38451.97
695.116	38369.71
695.462	38279.09
695.808	38134.01
696.155	38360.45
696.501	38056.5
696.847	37924.53
697.193	37612.44
697.539	37795.49
697.885	37507.59
698.231	37552.33
698.577	37400.92
698.923	37412.22
699.269	37178.33
699.614	37035.06
699.96	36966.13
700.306	37132.91
700.651	36831.67
700.997	36662.86
701.342	36676.42
701.688	36699.92
702.033	36522.53
702.379	36556.2
702.724	36539.93
703.069	36632.58
703.415	36080.28
703.76	36162.54
704.105	36162.99
704.45	36035.08
704.795	35826.95
705.14	35700.18
705.485	35587.19
705.83	35508.77
706.175	35647.98
706.52	35481.65
706.865	35370.69
707.209	35273.07
707.554	35246.63
707.899	35339.06
708.243	35008.9
708.588	35043.7
708.932	34792.4
709.277	34720.77
709.621	34708.56
709.966	34590.83
710.31	34732.74
710.654	34438.29
710.998	34431.74
711.342	34476.93
711.687	34350.83
712.031	34145.64
712.375	33967.34
712.719	34046.21
713.063	34168.69
713.407	34180.44
713.75	33923.5
714.094	33923.05
714.438	33732.77
714.782	33805.99
715.125	33631.3
715.469	33762.37
715.812	33593.57
716.156	33509.73
716.499	33287.13
716.843	33485.55
717.186	33177.31
717.53	33289.17
717.873	33357.64
718.216	33263.86
718.559	33121.94
718.902	32995.39
719.246	33070.64
719.589	32960.14
719.932	32862.74
720.275	32689.86
720.617	32730.54
720.96	32681.05
721.303	32647.6
721.646	32644.44
721.989	32441.51
722.331	32495.52
722.674	32427.95
723.016	32358.34
723.359	32303.43
723.701	32349.08
724.044	32041.52
724.386	32020.5
724.729	32141.85
725.071	31980.05
725.413	32063.89
725.755	32116.09
726.097	31948.19
726.439	31806.49
726.782	31786.61
727.124	31938.24
727.465	31645.14
727.807	31614.41
728.149	31595.2
728.491	31724.46
728.833	31540.29
729.175	31472.04
729.516	31526.5
729.858	31524.92
730.199	31514.3
730.541	31283.8
730.882	31241.76
731.224	31343.23
731.565	31283.8
731.906	31206.51
732.248	31171.93
732.589	31016.23
732.93	31001.32
733.271	30909.57
733.612	30851.49
733.953	30922
734.294	30744.6
734.635	30857.14
734.976	30935.78
735.317	30472.97
735.658	30649.24
735.999	30558.17
736.339	30575.11
736.68	30675.68
737.021	30579.18
737.361	30388
737.702	30447.89
738.042	30434.55
738.383	30386.42
738.723	30412.18
739.063	30245.63
739.404	30257.83
739.744	30300.32
740.084	30096.48
740.424	30242.47
740.764	30111.17
741.104	30212.41
741.444	29949.37
741.784	29929.71
742.124	30026.2
742.464	29873.44
742.804	29833.44
743.143	29826.21
743.483	29638.87
743.823	29620.11
744.162	29656.95
744.502	29614.01
744.841	29548.7
745.181	29692.88
745.52	29454.24
745.86	29479.78
746.199	29348.93
746.538	29422.15
746.877	29487.01
747.216	29430.06
747.556	29183.51
747.895	29291.98
748.234	29237.07
748.573	29144.42
748.911	29028.71
749.25	29119.11
749.589	29068.71
749.928	29083.18
750.267	29089.5
750.605	28997.53
750.944	28965.66
751.283	28941.26
751.621	28949.17
751.96	28722.06
752.298	28787.59
752.636	28701.04
752.975	28673.47
753.313	28547.82
753.651	28598.22
753.989	28445.9
754.327	28486.58
754.666	28287.04
755.004	28395.74
755.342	28422.63
755.679	28322.52
756.017	28088.63
756.355	28154.61
756.693	28047.72
757.031	28052.47
757.368	27982.87
757.706	27913.72
758.044	27737
758.381	27769.31
758.719	27730.9
759.056	27761.18
759.394	27591.24
759.731	27453.39
760.068	27535.19
760.405	27257.46
760.743	27305.82
761.08	27272.38
761.417	27036
761.754	27111.48
762.091	27001.2
762.428	26981.99
762.765	26805.5
763.102	26882.33
763.438	26723.24
763.775	26732.05
764.112	26676.46
764.449	26725.27
764.785	26445.05
765.122	26222.91
765.458	26266.98
765.795	26144.27
766.131	26185.4
766.467	26003.71
766.804	25866.99
767.14	25812.3
767.476	25735.92
767.812	25657.5
768.148	25640.78
768.485	25570.27
768.821	25309.26
769.157	25337.29
769.492	25407.34
769.828	25223.62
770.164	25044.41
770.5	24958.54
770.836	24995.83
771.171	24812.78
771.507	24781.59
771.842	24682.61
772.178	24742.5
772.513	24561.94
772.849	24510.19
773.184	24371.66
773.519	24453.69
773.855	24255.51
774.19	24248.73
774.525	24138.9
774.86	24072.91
775.195	24022.74
775.53	23861.39
775.865	23773.26
776.2	23620.04
776.535	23487.16
776.87	23532.36
777.205	23456.88
777.539	23262.76
777.874	23330.11
778.209	23099.15
778.543	23060.51
778.878	22946.61
779.212	22882.21
779.547	22858.03
779.881	22788.2
780.215	22698.94
780.55	22678.6
780.884	22533.97
781.218	22346.86
781.552	22433.41
781.886	22205.39
782.22	22261.66
782.554	22187.99
782.888	21957.94
783.222	21804.27
783.556	21751.84
783.889	21700.77
784.223	21575.58
784.557	21565.18
784.89	21586.2
785.224	21530.15
785.557	21300.1
785.891	21312.76
786.224	21194.34
786.558	21172.42
786.891	20982.6
787.224	20901.47
787.557	20813.79
787.891	20768.37
788.224	20730.18
788.557	20822.15
788.89	20665.09
789.223	20665.77
789.556	20441.82
789.888	20413.57
790.221	20367.7
790.554	20193.47
790.887	20205.67
791.219	20136.52
791.552	20101.27
791.884	20036.18
792.217	19952.79
792.549	19824.44
792.882	19731.33
793.214	19599.13
793.546	19666.93
793.879	19661.28
794.211	19480.04
794.543	19546.25
794.875	19478.68
795.207	19535.86
795.539	19324.34
795.871	19361.17
796.203	19192.14
796.535	19032.59
796.867	19127.96
797.198	19109.43
797.53	18990.11
797.862	18904.23
798.193	18937.45
798.525	18678.7
798.856	18765.26
799.188	18589.89
799.519	18554.87
799.85	18438.26
800.182	18517.8
800.513	18395.32
800.844	18261.99
801.175	18344.48
801.506	18227.64
801.837	18180.86
802.168	18180.41
802.499	18105.16
802.83	18021.32
803.161	18004.15
803.491	17915.79
803.822	17923.02
804.153	17783.13
804.483	17717.6
804.814	17662.46
805.145	17650.26
805.475	17584.5
805.805	17548.56
806.136	17560.09
806.466	17572.97
806.796	17481.22
807.126	17303.82
807.457	17264.96
807.787	17345.63
808.117	17174.34
808.447	17148.8
808.777	17206.88
809.107	17014.57
809.436	17016.6
809.766	17012.98
810.096	16932.08
810.426	16779.77
810.755	16831.75
811.085	16876.72
811.414	16825.87
811.744	16670.62
812.073	16582.94
812.403	16614.35
812.732	16502.94
813.061	16471.98
813.39	16354.7
813.719	16427.92
814.049	16528.48
814.378	16305.66
814.707	16294.13
815.036	16356.73
815.365	16204.19
815.693	16080.58
816.022	16081.48
816.351	16009.4
816.68	15882.39
817.008	16005.55
817.337	15829.97
817.665	15783.19
817.994	15846.01
818.322	15812.34
818.651	15770.53
818.979	15714.71
819.307	15639.01
819.636	15674.71
819.964	15613.25
820.292	15606.24
820.62	15556.98
820.948	15577.54
821.276	15678.33
821.604	15529.41
821.932	15651.66
822.259	15480.37
822.587	15557.88
822.915	15476.53
823.243	15532.35
823.57	15457.77
823.898	15436.3
824.225	15401.28
824.553	15401.28
824.88	15359.92
825.207	15512.91
825.535	15455.96
825.862	15449.64
826.189	15376.19
826.516	15427.26
826.843	15543.19
827.17	15467.94
827.497	15390.2
827.824	15462.52
828.151	15497.09
828.478	15401.5
828.805	15526.47
829.131	15364.21
829.458	15400.82
829.785	15346.59
830.111	15377.55
830.438	15528.73
830.764	15380.71
831.09	15543.64
831.417	15288.28
831.743	15425.68
832.069	15372.35
832.395	15356.53
832.722	15501.16
833.048	15325.12
833.374	15283.54
833.7	15282.63
834.026	15427.04
834.351	15308.62
834.677	15247.61
835.003	15373.03
835.329	15274.5
835.654	15147.72
835.98	15137.55
836.306	15152.69
836.631	15138.01
836.956	15156.31
837.282	15163.32
837.607	14996.31
837.932	15022.3
838.258	15007.39
838.583	15050.1
838.908	14978.46
839.233	14905.92
839.558	14873.38
839.883	14858.92
840.208	14821.18
840.533	14782.31
840.858	14855.53
841.182	14857.34
841.507	14713.61
841.832	14658.02
842.156	14707.73
842.481	14658.47
842.805	14650.56
843.13	14565.14
843.454	14586.16
843.778	14533.28
844.103	14507.51
844.427	14526.5
844.751	14480.4
845.075	14411.7
845.399	14361.3
845.723	14285.82
846.047	14285.37
846.371	14240.4
846.695	14097.81
847.019	14070.01
847.343	14005.38
847.666	13950.24
847.99	13877.47
848.313	13823.01
848.637	13784.14
848.96	13761.54
849.284	13708.21
849.607	13642.23
849.931	13577.37
850.254	13553.41
850.577	13427.99
850.9	13268.22
851.223	13342.35
851.546	13235.46
851.869	13179.87
852.192	13266.64
852.515	13091.05
852.838	13143.93
853.161	13030.49
853.483	13019.64
853.806	12934.45
854.129	12911.62
854.451	12893.32
854.774	12814
855.096	12831.85
855.419	12650.84
855.741	12778.29
856.063	12593.89
856.385	12668.69
856.708	12549.37
857.03	12485.42
857.352	12540.56
857.674	12464.86
857.996	12387.12
858.318	12434.57
858.64	12404.74
858.961	12324.07
859.283	12224.18
859.605	12160.46
859.926	12251.75
860.248	12183.06
860.57	12163.85
860.891	12141.02
861.212	12187.35
861.534	12075.49
861.855	12097.18
862.176	12055.15
862.498	12033.91
862.819	12012.89
863.14	11911.88
863.461	11921.37
863.782	11900.58
864.103	11880.01
864.424	11844.99
864.745	11851.99
865.065	11825.55
865.386	11718.43
865.707	11735.84
866.027	11722.95
866.348	11727.47
866.668	11679.57
866.989	11629.17
867.309	11577.2
867.63	11637.08
867.95	11584.88
868.27	11594.14
868.59	11600.92
868.91	11568.61
869.23	11476.63
869.55	11466.46
869.87	11559.34
870.19	11477.76
870.51	11476.41
870.83	11434.15
871.15	11356.41
871.469	11326.81
871.789	11400.25
872.109	11426.92
872.428	11337.2
872.748	11297.43
873.067	11265.34
873.386	11400.03
873.706	11245.23
874.025	11150.77
874.344	11121.84
874.663	11219.69
874.982	11126.59
875.301	11153.93
875.62	11120.71
875.939	11118.9
876.258	11068.73
876.577	11048.17
876.896	11049.07
877.214	11006.14
877.533	10981.96
877.852	11003.65
878.17	10927.95
878.489	10942.64
878.807	10968.85
879.125	10988.74
879.444	10890.66
879.762	10906.7
880.08	10847.95
880.398	10851.34
880.716	10839.36
881.034	10782.41
881.352	10838.46
881.67	10761.62
881.988	10805.01
882.306	10728.86
882.624	10708.97
882.941	10657.45
883.259	10582.19
883.577	10654.51
883.894	10546.94
884.212	10633.72
884.529	10563.21
884.846	10570.89
885.164	10504.23
885.481	10425.59
885.798	10530.9
886.115	10402.31
886.432	10443.21
886.75	10394.63
887.067	10366.15
887.383	10313.95
887.7	10332.93
888.017	10246.16
888.334	10306.49
888.651	10172.03
888.967	10244.8
889.284	10167.74
889.6	10149.66
889.917	10136.1
890.233	10100.4
890.55	10020.4
890.866	10074.18
891.182	9985.37
891.498	10014.75
891.815	9921.65
892.131	9902.89
892.447	9927.3
892.763	9885.71
893.079	9845.04
893.395	9755.32
893.71	9770.01
894.026	9719.62
894.342	9787.41
894.657	9672.84
894.973	9660.18
895.289	9577.02
895.604	9627.42
895.92	9550.58
896.235	9594.42
896.55	9516.01
896.865	9431.94
897.181	9479.62
897.496	9480.53
897.811	9422.68
898.126	9352.85
898.441	9290.02
898.756	9280.08
899.071	9258.39
899.386	9251.16
899.7	9146.75
900.015	9109.01
900.33	9050.03
900.644	9036.25
900.959	9065.4
901.273	9040.31
901.588	8996.92
901.902	8964.16
902.216	8918.96
902.531	8939.3
902.845	8833.54
903.159	8768.46
903.473	8825.86
903.787	8673.54
904.101	8716.25
904.415	8739.98
904.729	8654.11
905.042	8594.45
905.356	8529.82
905.67	8572.3
905.984	8565.75
906.297	8514.68
906.611	8466.32
906.924	8463.83
907.237	8428.8
907.551	8385.64
907.864	8405.53
908.177	8347.22
908.491	8358.75
908.804	8290.5
909.117	8220.22
909.43	8126.66
909.743	8173.9
910.056	8084.41
910.368	8050.51
910.681	8110.62
910.994	8001.47
911.307	8016.61
911.619	7978.19
911.932	7932.32
912.244	7876.95
912.557	7861.14
912.869	7846.45
913.181	7798.09
913.494	7837.41
913.806	7692.78
914.118	7728.26
914.43	7691.87
914.742	7635.6
915.054	7602.38
915.366	7527.81
915.678	7510.18
915.99	7547.92
916.302	7508.38
916.613	7387.02
916.925	7449.17
917.236	7372.79
917.548	7349.96
917.859	7364.65
918.171	7292.11
918.482	7294.82
918.794	7274.03
919.105	7288.95
919.416	7125.34
919.727	7137.09
920.038	7129.63
920.349	7079.46
920.66	7018.22
920.971	7001.72
921.282	7006.92
921.593	6944.78
921.903	6888.73
922.214	6926.92
922.525	6895.51
922.835	6812.8
923.146	6779.13
923.456	6759.02
923.767	6716.98
924.077	6717.21
924.387	6649.87
924.697	6639.47
925.008	6656.87
925.318	6619.59
925.628	6617.1
925.938	6561.73
926.248	6491.23
926.558	6499.36
926.867	6502.75
927.177	6482.41
927.487	6469.99
927.796	6363.32
928.106	6344.56
928.416	6322.42
928.725	6335.3
929.034	6272.02
929.344	6275.64
929.653	6236.77
929.962	6203.33
930.271	6172.59
930.581	6107.06
930.89	6078.58
931.199	6100.05
931.508	6070.67
931.817	6036.78
932.125	6058.7
932.434	5983.44
932.743	5945.03
933.051	5970.11
933.36	5957.68
933.669	5868.65
933.977	5884.92
934.286	5822.77
934.594	5819.83
934.902	5763.11
935.21	5758.37
935.519	5786.61
935.827	5716.33
936.135	5718.14
936.443	5654.19
936.751	5627.52
937.059	5641.53
937.367	5529.45
937.674	5590.01
937.982	5534.64
938.29	5507.07
938.597	5533.74
938.905	5421.2
939.213	5423.23
939.52	5413.74
939.827	5435.44
940.135	5398.38
940.442	5361.31
940.749	5342.11
941.056	5342.56
941.363	5236.12
941.67	5239.06
941.977	5225.95
942.284	5169
942.591	5177.59
942.898	5128.55
943.205	5136.69
943.511	5100.76
943.818	5107.99
944.125	5062.11
944.431	5042.68
944.738	5036.12
945.044	5062.79
945.35	4980.53
945.657	4922.46
945.963	4949.8
946.269	4900.53
946.575	4883.81
946.881	4865.06
947.187	4884.49
947.493	4868.45
947.799	4816.02
948.105	4802.23
948.41	4758.39
948.716	4731.27
949.022	4736.92
949.327	4751.16
949.633	4700.31
949.938	4666.87
950.244	4686.98
950.549	4655.57
950.854	4614.67
951.16	4566.53
951.465	4545.52
951.77	4562.92
952.075	4564.72
952.38	4562.92
952.685	4503.94
952.99	4435.24
953.294	4472.98
953.599	4414.67
953.904	4421
954.209	4381
954.513	4401.11
954.818	4324.96
955.122	4343.26
955.426	4346.88
955.731	4301.23
956.035	4265.75
956.339	4291.74
956.643	4243.6
956.948	4210.61
957.252	4188.46
957.556	4209.03
957.86	4162.48
958.163	4133.1
958.467	4141.68
958.771	4157.28
959.075	4096.94
959.378	4095.13
959.682	4115.92
959.985	4076.38
960.289	4044.96
960.592	3983.04
960.896	4010.16
961.199	3962.93
961.502	3992.08
961.805	3958.64
962.108	3936.27
962.411	3922.93
962.714	3909.83
963.017	3904.63
963.32	3837.96
963.623	3863.95
963.926	3836.61
964.228	3795.03
964.531	3795.03
964.833	3809.49
965.136	3753.67
965.438	3745.31
965.741	3719.78
966.043	3746.44
966.345	3710.96
966.648	3701.47
966.95	3690.85
967.252	3676.39
967.554	3613.34
967.856	3646.33
968.158	3614.92
968.46	3586.9
968.761	3603.17
969.063	3580.57
969.365	3583.73
969.666	3578.31
969.968	3537.18
970.269	3507.58
970.571	3456.05
970.872	3427.35
971.174	3462.83
971.475	3389.39
971.776	3452.89
972.077	3408.37
972.378	3354.81
972.679	3337.86
972.98	3339.22
973.281	3338.99
973.582	3340.12
973.883	3353.01
974.183	3275.04
974.484	3286.11
974.785	3262.39
975.085	3271.2
975.386	3221.48
975.686	3219.9
975.986	3226.23
976.287	3171.99
976.587	3176.96
976.887	3178.09
977.187	3160.02
977.487	3109.62
977.787	3077.08
978.087	3135.16
978.387	3124.76
978.687	3065.55
978.987	3084.09
979.286	3040.24
979.586	3041.83
979.885	3037.31
980.185	3031.43
980.484	3053.35
980.784	2985.56
981.083	2978.78
981.382	2961.15
981.682	2981.94
981.981	2916.18
982.28	2923.41
982.579	2921.38
982.878	2866.69
983.177	2894.03
983.475	2923.19
983.774	2921.38
984.073	2878.67
984.372	2819.23
984.67	2794.15
984.969	2791.21
985.267	2839.57
985.566	2815.84
985.864	2772.91
986.162	2777.65
986.461	2739.69
986.759	2762.29
987.057	2751.44
987.355	2691.78
987.653	2725.22
987.951	2721.38
988.249	2699.24
988.547	2646.13
988.844	2665.57
989.142	2679.8
989.44	2634.83
989.737	2620.59
990.035	2616.98
990.332	2569.07
990.63	2571.78
990.927	2587.6
991.224	2529.98
991.521	2547.15
991.819	2565.91
992.116	2527.94
992.413	2519.13
992.71	2493.14
993.006	2500.6
993.303	2454.05
993.6	2442.97
993.897	2460.15
994.193	2458.79
994.49	2453.14
994.787	2418.34
995.083	2382.86
995.379	2396.65
995.676	2353.48
995.972	2386.02
996.268	2360.49
996.565	2351.68
996.861	2328.4
997.157	2349.87
997.453	2326.37
997.749	2296.31
998.044	2279.13
998.34	2269.42
998.636	2280.04
998.932	2254.95
999.227	2228.29
999.523	2223.54
999.818	2240.94
1000.114	2226.48
1000.409	2192.81
1000.704	2192.36
1001	2196.43
1001.295	2139.48
1001.59	2141.06
1001.885	2125.69
1002.18	2115.07
1002.475	2107.61
1002.77	2056.99
1003.065	2096.31
1003.359	2065.36
1003.654	2071.23
1003.949	2052.93
1004.243	2029.88
1004.538	2038.69
1004.832	2041.63
1005.127	2026.71
1005.421	2041.85
1005.715	1972.93
1006.009	1994.17
1006.304	1982.87
1006.598	1947.17
1006.892	1948.52
1007.186	1933.38
1007.48	1928.41
1007.773	1936.32
1008.067	1912.14
1008.361	1897.22
1008.655	1885.7
1008.948	1901.07
1009.242	1861.29
1009.535	1831.69
1009.829	1833.95
1010.122	1838.92
1010.415	1822.88
1010.708	1812.25
1011.001	1770
1011.295	1777.68
1011.588	1784.91
1011.881	1774.06
1012.173	1744.69
1012.466	1737
1012.759	1715.53
1013.052	1726.61
1013.344	1743.33
1013.637	1701.07
1013.93	1695.2
1014.222	1699.94
1014.514	1674.63
1014.807	1671.47
1015.099	1635.31
1015.391	1660.85
1015.683	1612.94
1015.976	1645.03
1016.268	1635.08
1016.56	1631.92
1016.851	1611.13
1017.143	1595.99
1017.435	1565.93
1017.727	1562.09
1018.018	1546.05
1018.31	1548.98
1018.602	1548.08
1018.893	1534.07
1019.185	1532.04
1019.476	1504.69
1019.767	1506.05
1020.058	1504.24
1020.35	1475.09
1020.641	1483.45
1020.932	1472.38
1021.223	1461.98
1021.514	1434.64
1021.804	1433.06
1022.095	1428.99
1022.386	1447.52
1022.677	1403
1022.967	1402.55
1023.258	1402.1
1023.548	1389.67
1023.839	1383.11
1024.129	1380.18
1024.419	1355.32
1024.709	1356.22
1025	1356.9
1025.29	1349.44
1025.58	1302.44
1025.87	1317.58
1026.16	1308.54
1026.449	1332.72
1026.739	1282.55
1027.029	1267.41
1027.319	1264.47
1027.608	1246.62
1027.898	1271.03
1028.187	1252.04
1028.477	1221.76
1028.766	1257.24
1029.055	1211.59
1029.344	1234.64
1029.634	1204.81
1029.923	1210.69
1030.212	1216.79
1030.501	1180.86
1030.79	1149
1031.078	1168.66
1031.367	1182.21
1031.656	1136.79
1031.945	1143.57
1032.233	1151.71
1032.522	1134.31
1032.81	1126.4
1033.099	1107.19
1033.387	1101.09
1033.675	1097.92
1033.963	1110.35
1034.251	1087.98
1034.54	1080.07
1034.828	1108.32
1035.116	1066.06
1035.403	1048.88
1035.691	1077.36
1035.979	1083.91
1036.267	1040.98
1036.554	1034.87
1036.842	1009.34
1037.129	1021.77
1037.417	1004.14
1037.704	1002.11
1037.992	1007.98
1038.279	985.61
1038.566	998.72
1038.853	998.72
1039.14	998.72
