Data from hue_280_FLMS001491_00078.txt Node
Date: Tue Feb 07 15:55:45 GMT 2017
User: dcchb
Spectrometer: FLMS00149
Trigger mode: 0
Integration Time (sec): 2.000000E-2
Scans to average: 10
Electric dark correction enabled: true
Nonlinearity correction enabled: false
Boxcar width: 0
XAxis mode: Wavelengths
Number of Pixels in Spectrum: 2048
>>>>>Begin Spectral Data<<<<<
341.393	-11.43
341.776	-11.43
342.16	-11.43
342.543	-65.66
342.927	-66.79
343.31	-88.03
343.693	-56.62
344.077	-67.47
344.46	-60.69
344.843	-46.23
345.226	-39
345.61	-35.15
345.993	-29.05
346.376	-4.19
346.759	23.6
347.142	23.38
347.525	54.33
347.908	49.14
348.291	62.92
348.674	84.39
349.057	128.68
349.44	118.51
349.823	134.11
350.206	182.24
350.588	203.71
350.971	193.31
351.354	213.65
351.737	221.34
352.119	243.48
352.502	274.44
352.884	268.11
353.267	273.76
353.65	281
354.032	308.34
354.414	312.63
354.797	309.47
355.179	302.24
355.562	307.21
355.944	328.68
356.326	325.06
356.709	344.95
357.091	325.51
357.473	337.94
357.855	342.01
358.238	344.72
358.62	354.89
359.002	335.91
359.384	336.59
359.766	320.54
360.148	342.46
360.53	344.27
360.912	320.09
361.294	325.51
361.676	326.64
362.057	308.79
362.439	339.3
362.821	314.89
363.203	329.81
363.584	314.67
363.966	320.32
364.348	315.57
364.729	320.09
365.111	304.27
365.493	297.27
365.874	328.68
366.256	313.31
366.637	331.84
367.019	308.79
367.4	305.18
367.781	298.62
368.163	314.44
368.544	308.34
368.925	301.33
369.306	301.33
369.688	322.8
370.069	318.51
370.45	308.11
370.831	309.7
371.212	308.57
371.593	321.45
371.974	318.28
372.355	323.03
372.736	292.07
373.117	313.99
373.498	329.13
373.879	311.05
374.26	318.06
374.641	309.02
375.021	319.19
375.402	305.4
375.783	328.9
376.163	335.46
376.544	336.81
376.925	325.29
377.305	323.93
377.686	331.16
378.066	328
378.447	321.67
378.827	329.36
379.208	333.42
379.588	319.41
379.968	342.69
380.349	350.6
380.729	336.14
381.109	322.12
381.489	327.32
381.87	343.14
382.25	313.99
382.63	346.98
383.01	343.59
383.39	325.74
383.77	370.94
384.15	340.2
384.53	344.72
384.91	351.28
385.29	352.86
385.67	344.04
386.049	358.96
386.429	341.56
386.809	338.85
387.189	354.21
387.568	356.02
387.948	376.36
388.328	366.19
388.707	355.12
389.087	338.4
389.466	383.82
389.846	356.25
390.225	370.71
390.605	357.38
390.984	372.07
391.363	365.06
391.743	370.94
392.122	376.81
392.501	359.86
392.881	377.72
393.26	388.34
393.639	388.56
394.018	368.45
394.397	370.48
394.776	364.61
395.155	406.87
395.534	380.65
395.913	391.73
396.292	393.08
396.671	414.55
397.05	373.65
397.429	405.29
397.808	407.09
398.186	400.54
398.565	419.52
398.944	393.31
399.323	399.86
399.701	408.22
400.08	399.41
400.458	412.74
400.837	425.4
401.215	414.33
401.594	411.39
401.972	437.15
402.351	444.38
402.729	414.1
403.107	444.61
403.486	426.98
403.864	426.3
404.242	423.82
404.62	454.78
404.999	461.33
405.377	460.88
405.755	472.63
406.133	469.24
406.511	462.01
406.889	491.84
407.267	498.16
407.645	481.89
408.023	511.5
408.401	495
408.779	493.19
409.156	510.59
409.534	498.84
409.912	490.71
410.29	511.95
410.667	504.94
411.045	527.77
411.422	516.24
411.8	533.87
412.178	539.97
412.555	561.21
412.933	560.08
413.31	573.64
413.687	588.78
414.065	570.03
414.442	574.1
414.819	592.63
415.197	580.87
415.574	611.83
415.951	626.75
416.328	617.48
416.705	645.28
417.082	647.99
417.46	625.39
417.837	645.96
418.214	664.94
418.591	665.17
418.967	679.4
419.344	673.3
419.721	687.54
420.098	667.43
420.475	684.6
420.852	687.99
421.228	709.46
421.605	733.19
421.982	718.05
422.358	746.52
422.735	751.94
423.111	755.79
423.488	745.16
423.864	777.48
424.241	769.34
424.617	805.28
424.994	800.3
425.37	809.8
425.746	824.94
426.123	810.02
426.499	824.48
426.875	844.14
427.251	849.12
427.627	868.32
428.003	885.95
428.379	906.74
428.756	916.91
429.132	934.54
429.507	906.52
429.883	921.66
430.259	951.49
430.635	968.43
431.011	949.68
431.387	967.31
431.763	974.31
432.138	996.23
432.514	1011.37
432.89	997.36
433.265	1045.95
433.641	1065.83
434.016	1054.53
434.392	1100.63
434.767	1087.53
435.143	1096.12
435.518	1111.93
435.894	1131.14
436.269	1142.22
436.644	1149.9
437.02	1186.51
437.395	1155.77
437.77	1201.88
438.145	1209.11
438.52	1191.48
438.895	1222.89
439.271	1234.19
439.646	1277.58
440.021	1291.14
440.395	1309.22
440.77	1272.83
441.145	1281.2
441.52	1315.09
441.895	1313.51
442.27	1347.41
442.645	1353.06
443.019	1361.19
443.394	1358.03
443.769	1384.24
444.143	1351.02
444.518	1376.56
444.892	1388.76
445.267	1398.93
445.641	1434.41
446.016	1444.81
446.39	1433.06
446.764	1409.55
447.139	1420.17
447.513	1423.34
447.887	1463.56
448.262	1439.38
448.636	1447.07
449.01	1486.16
449.384	1489.55
449.758	1490
450.132	1508.99
450.506	1534.52
450.88	1492.71
451.254	1509.21
451.628	1544.92
452.002	1554.18
452.376	1539.49
452.75	1543.34
453.123	1608.42
453.497	1591.24
453.871	1590.79
454.244	1625.14
454.618	1602.32
454.992	1653.61
455.365	1643.9
455.739	1708.08
456.112	1700.39
456.486	1695.87
456.859	1701.75
457.232	1724.57
457.606	1705.14
457.979	1749.88
458.352	1801.18
458.725	1838.24
459.099	1797.34
459.472	1822.42
459.845	1863.33
460.218	1866.49
460.591	1878.69
460.964	1873.04
461.337	1905.36
461.71	1972.02
462.083	1953.72
462.456	1967.28
462.829	1958.47
463.201	1959.14
463.574	1981.97
463.947	2020.61
464.32	2034.4
464.692	2050.89
465.065	2068.07
465.438	2072.81
465.81	2117.56
466.183	2146.03
466.555	2174.5
466.928	2149.19
467.3	2165.69
467.672	2212.24
468.045	2204.33
468.417	2252.92
468.789	2275.75
469.161	2283.88
469.534	2316.2
469.906	2341.28
470.278	2328.17
470.65	2403.88
471.022	2408.85
471.394	2443.2
471.766	2420.83
472.138	2481.84
472.51	2535.63
472.882	2518
473.253	2560.71
473.625	2581.05
473.997	2610.65
474.369	2643.65
474.74	2656.07
475.112	2651.1
475.484	2744.89
475.855	2784.66
476.227	2784.88
476.598	2839.12
476.97	2858.78
477.341	2918.67
477.713	2925.9
478.084	2908.72
478.455	2991.43
478.827	3031.21
479.198	3049.51
479.569	3111.43
479.94	3213.12
480.311	3134.93
480.682	3223.52
481.053	3249.5
481.424	3336.51
481.795	3363.17
482.166	3367.47
482.537	3399.33
482.908	3458.31
483.279	3515.03
483.65	3528.82
484.021	3607.24
484.391	3574.02
484.762	3582.38
485.133	3642.26
485.503	3680.23
485.874	3762.03
486.244	3778.08
486.615	3829.38
486.985	3847.46
487.356	3909.15
487.726	3914.12
488.097	3987.79
488.467	4042.7
488.837	4066.21
489.207	4081.8
489.578	4180.55
489.948	4154.79
490.318	4226.65
490.688	4220.33
491.058	4286.54
491.428	4318.63
491.798	4349.82
492.168	4371.06
492.538	4421.23
492.908	4482.24
493.278	4428.91
493.648	4521.79
494.017	4526.53
494.387	4587.55
494.757	4566.98
495.126	4627.55
495.496	4703.03
495.866	4662.12
496.235	4717.26
496.605	4721.33
496.974	4729.92
497.344	4811.95
497.713	4792.97
498.082	4752.74
498.452	4844.72
498.821	4867.99
499.19	4906.18
499.559	4892.17
499.928	4982.11
500.298	4992.28
500.667	4978.27
501.036	5037.48
501.405	5009.91
501.774	5010.14
502.143	5060.08
502.512	5037.03
502.88	5059.17
503.249	5100.53
503.618	5118.16
503.987	5102.34
504.356	5187.76
504.724	5152.05
505.093	5214.2
505.462	5186.86
505.83	5218.49
506.199	5311.15
506.567	5287.64
506.936	5338.49
507.304	5331.94
507.672	5362.44
508.041	5392.5
508.409	5378.49
508.777	5441.76
509.145	5435.89
509.514	5409.9
509.882	5478.82
510.25	5437.47
510.618	5468.2
510.986	5522.21
511.354	5523.57
511.722	5552.04
512.09	5582.32
512.458	5573.06
512.826	5604.7
513.193	5603.12
513.561	5623.68
513.929	5667.07
514.297	5773.51
514.664	5667.52
515.032	5771.25
515.4	5754.3
515.767	5766.73
516.135	5739.16
516.502	5683.79
516.869	5778.48
517.237	5759.27
517.604	5717.91
517.972	5781.42
518.339	5818.7
518.706	5852.83
519.073	5799.49
519.44	5856.22
519.808	5929.89
520.175	5856.44
520.542	6003.56
520.909	6009.88
521.276	5951.35
521.643	6029.54
522.009	6094.63
522.376	6005.59
522.743	6079.71
523.11	6094.4
523.477	6151.8
523.843	6139.6
524.21	6216.21
524.577	6261.86
524.943	6236.09
525.31	6293.27
525.676	6294.62
526.043	6313.61
526.409	6345.24
526.776	6363.77
527.142	6406.94
527.508	6386.6
527.874	6435.64
528.241	6448.06
528.607	6421.85
528.973	6472.02
529.339	6482.87
529.705	6548.18
530.071	6556.76
530.437	6533.49
530.803	6665.01
531.169	6637.66
531.535	6634.5
531.901	6645.8
532.267	6643.09
532.632	6715.4
532.998	6765.57
533.364	6765.12
533.73	6752.92
534.095	6752.92
534.461	6862.52
534.826	6888.73
535.192	6866.81
535.557	6889.41
535.923	6867.94
536.288	6840.82
536.653	6894.61
537.019	6921.05
537.384	6902.74
537.749	6907.04
538.114	6921.05
538.479	6985
538.845	6974.38
539.21	6984.55
539.575	7006.47
539.94	7015.96
540.305	7043.76
540.67	7074.04
541.034	7069.07
541.399	7069.52
541.764	7042.4
542.129	7091.21
542.494	7130.76
542.858	7120.36
543.223	7120.59
543.587	7141.61
543.952	7161.72
544.316	7174.15
544.681	7157.88
545.045	7234.26
545.41	7208.27
545.774	7245.11
546.138	7309.06
546.503	7286.91
546.867	7277.87
547.231	7334.14
547.595	7336.4
547.959	7303.18
548.324	7373.24
548.688	7340.02
549.052	7372.56
549.416	7406.68
549.779	7338.44
550.143	7335.27
550.507	7449.39
550.871	7453.46
551.235	7423.86
551.599	7437.42
551.962	7468.38
552.326	7536.17
552.689	7482.16
553.053	7441.71
553.417	7533.01
553.78	7564.42
554.143	7524.87
554.507	7575.72
554.87	7593.57
555.234	7667.69
555.597	7599
555.96	7607.36
556.323	7658.65
556.686	7688.26
557.05	7704.3
557.413	7700.46
557.776	7730.52
558.139	7758.54
558.502	7739.56
558.865	7804.19
559.228	7856.39
559.59	7810.51
559.953	7817.52
560.316	7925.77
560.679	7910.17
561.041	7985.65
561.404	7989.72
561.767	8019.1
562.129	8035.82
562.492	8086.67
562.854	7976.39
563.217	8091.86
563.579	8097.51
563.941	8193.78
564.304	8097.29
564.666	8220.9
565.028	8210.05
565.39	8212.76
565.753	8274.23
566.115	8358.07
566.477	8276.04
566.839	8343.61
567.201	8401.69
567.563	8413.66
567.925	8451.85
568.287	8468.58
568.648	8435.58
569.01	8474.68
569.372	8524.62
569.734	8523.49
570.095	8555.13
570.457	8605.07
570.819	8639.87
571.18	8702.47
571.542	8710.6
571.903	8737.72
572.265	8734.11
572.626	8772.98
572.987	8835.35
573.349	8824.73
573.71	8915.34
574.071	8956.25
574.432	8933.42
574.794	8988.34
575.155	9027.66
575.516	9026.3
575.877	9141.55
576.238	9139.97
576.599	9166.86
576.96	9177.71
577.32	9209.57
577.681	9222.46
578.042	9351.04
578.403	9361.43
578.763	9356.24
579.124	9404.37
579.485	9423.13
579.845	9532.5
580.206	9540.41
580.566	9561.66
580.927	9585.61
581.287	9688.88
581.648	9732.5
582.008	9790.12
582.368	9740.41
582.728	9867.86
583.089	9895.66
583.449	9956.45
583.809	10037.12
584.169	10021.98
584.529	10032.15
584.889	10220.62
585.249	10229.21
585.609	10205.71
585.969	10292.71
586.329	10346.72
586.688	10411.8
587.048	10480.5
587.408	10560.27
587.768	10607.05
588.127	10614.28
588.487	10697.22
588.846	10821.51
589.206	10920.49
589.565	10991.67
589.925	11072.8
590.284	11119.13
590.643	11146.92
591.003	11266.7
591.362	11363.19
591.721	11382.85
592.08	11452.91
592.44	11487.71
592.799	11646.12
593.158	11688.38
593.517	11737.42
593.876	11748.94
594.235	11875.72
594.593	11919.56
594.952	11932.44
595.311	12003.4
595.67	12137.86
596.029	12226.9
596.387	12288.36
596.746	12310.74
597.104	12280
597.463	12395.71
597.822	12531.07
598.18	12524.52
598.538	12603.61
598.897	12682.48
599.255	12608.81
599.613	12849.25
599.972	12895.35
600.33	12895.13
600.688	12900.55
601.046	13019.19
601.404	13091.73
601.762	13148.23
602.12	13181.22
602.478	13264.16
602.836	13324.72
603.194	13289.69
603.552	13327.88
603.91	13311.84
604.268	13413.98
604.625	13426.64
604.983	13539.18
605.341	13516.58
605.698	13688.33
606.056	13755.44
606.413	13711.6
606.771	13781.21
607.128	13833.86
607.485	13793.18
607.843	13847.19
608.2	13968.09
608.557	14016
608.914	13954.76
609.272	14069.56
609.629	14154.53
609.986	14279.05
610.343	14186.39
610.7	14180.97
611.057	14352.49
611.414	14377.35
611.771	14358.59
612.127	14390.45
612.484	14368.99
612.841	14459.61
613.198	14453.73
613.554	14515.2
613.911	14578.7
614.267	14528.53
614.624	14574.18
614.98	14566.5
615.337	14661.86
615.693	14637.23
616.05	14653.5
616.406	14803.55
616.762	14813.95
617.118	14816.88
617.475	14780.28
617.831	14834.96
618.187	14792.93
618.543	14914.06
618.899	15060.49
619.255	14973.72
619.611	14959.48
619.967	15015.98
620.323	15127.84
620.678	14991.34
621.034	14982.08
621.39	15077.67
621.746	15067.27
622.101	15159.93
622.457	15048.29
622.812	15062.98
623.168	15127.16
623.523	15118.8
623.879	15151.34
624.234	15140.04
624.589	15133.94
624.945	15107.5
625.3	15169.87
625.655	15198.8
626.01	15201.73
626.365	15265.01
626.72	15146.59
627.075	15135.29
627.43	15250.77
627.785	15179.36
628.14	15194.5
628.495	15189.3
628.85	15168.29
629.205	15182.3
629.559	15238.79
629.914	15135.52
630.269	15269.53
630.623	15137.33
630.978	15172.13
631.332	15237.89
631.687	15167.61
632.041	15107.5
632.396	15185.24
632.75	15141.62
633.104	15227.95
633.459	15168.97
633.813	15118.35
634.167	15002.19
634.521	15059.14
634.875	15072.92
635.229	15083.09
635.583	14933.94
635.937	15006.94
636.291	15080.15
636.645	15015.3
636.999	14988.41
637.352	15004.9
637.706	14862.08
638.06	14975.3
638.413	14908.63
638.767	14949.99
639.121	15002.87
639.474	14818.47
639.828	14917.45
640.181	14875.19
640.534	14820.05
640.888	14846.26
641.241	14838.35
641.594	14819.14
641.947	14792.48
642.301	14794.96
642.654	14870.22
643.007	14766.49
643.36	14795.42
643.713	14725.81
644.066	14813.27
644.419	14699.15
644.771	14600.17
645.124	14536.67
645.477	14462.77
645.83	14340.74
646.182	14366.05
646.535	14302.1
646.888	14290.12
647.24	14222.55
647.593	14341.19
647.945	14318.37
648.298	14254.64
648.65	14297.12
649.002	14254.64
649.355	14366.95
649.707	14266.62
650.059	14406.27
650.411	14560.39
650.763	14547.06
651.115	14625.48
651.467	14649.21
651.819	14721.07
652.171	14635.42
652.523	14586.61
652.875	14665.25
653.227	14588.42
653.578	14674.29
653.93	14577.34
654.282	14624.8
654.633	14499.83
654.985	14624.35
655.337	14660.96
655.688	14666.83
656.039	14723.1
656.391	14547.06
656.742	14681.52
657.094	14566.5
657.445	14704.35
657.796	14574.63
658.147	14686.94
658.498	14578.7
658.849	14703.22
659.2	14599.49
659.551	14568.08
659.902	14708.19
660.253	14638.81
660.604	14680.84
660.955	14628.64
661.306	14707.73
661.656	14620.28
662.007	14721.52
662.358	14717.23
662.708	14669.77
663.059	14784.12
663.409	14600.39
663.76	14707.06
664.11	14742.99
664.461	14717
664.811	14681.29
665.161	14749.32
665.511	14731.91
665.862	14663.67
666.212	14752.03
666.562	14788.41
666.912	14743.67
667.262	14684.01
667.612	14701.86
667.962	14733.5
668.312	14783.89
668.662	14712.25
669.011	14717.9
669.361	14733.04
669.711	14728.3
670.06	14621.86
670.41	14688.07
670.76	14631.58
671.109	14731.46
671.459	14697.11
671.808	14689.2
672.157	14695.98
672.507	14595.65
672.856	14530.11
673.205	14667.06
673.554	14687.4
673.904	14569.89
674.253	14631.8
674.602	14582.54
674.951	14456.67
675.3	14317.46
675.649	14544.8
675.998	14564.01
676.346	14497.12
676.695	14510.45
677.044	14463.9
677.393	14478.36
677.741	14539.83
678.09	14474.75
678.438	14448.76
678.787	14497.34
679.135	14417.57
679.484	14302.1
679.832	14422.32
680.181	14286.73
680.529	14263
680.877	14267.52
681.225	14303.68
681.573	14296.9
681.922	14235.88
682.27	14241.31
682.618	14211.7
682.966	14153.85
683.314	14161.99
683.661	14123.57
684.009	14024.59
684.357	13993.18
684.705	14042.22
685.053	14053.97
685.4	13917.7
685.748	13972.39
686.095	13990.24
686.443	13917.7
686.79	13889.45
687.138	13841.99
687.485	13850.36
687.832	13754.77
688.18	13763.35
688.527	13696.46
688.874	13674.32
689.221	13632.96
689.568	13574.66
689.915	13492.85
690.262	13559.52
690.609	13473.64
690.956	13486.3
691.303	13383.02
691.65	13292.18
691.997	13383.25
692.344	13244.72
692.69	13233.88
693.037	13239.3
693.383	13122.47
693.73	13113.65
694.077	13171.5
694.423	13055.57
694.769	12984.39
695.116	13006.99
695.462	12985.29
695.808	12875.92
696.155	12943.94
696.501	12756.6
696.847	12739.2
697.193	12707.11
697.539	12713.89
697.885	12634.34
698.231	12589.15
698.577	12554.8
698.923	12571.97
699.269	12512.76
699.614	12440.68
699.96	12340.79
700.306	12373.78
700.651	12244.75
700.997	12146.22
701.342	12178.54
701.688	12123.85
702.033	12232.32
702.379	12122.49
702.724	12074.58
703.069	12112.77
703.415	11976.06
703.76	11956.85
704.105	11958.88
704.45	11889.96
704.795	11751.88
705.14	11772.9
705.485	11776.74
705.83	11707.14
706.175	11667.36
706.52	11633.01
706.865	11581.94
707.209	11613.8
707.554	11577.65
707.899	11598.44
708.243	11468.27
708.588	11470.98
708.932	11439.57
709.277	11354.83
709.621	11372.91
709.966	11353.7
710.31	11302.63
710.654	11227.37
710.998	11267.37
711.342	11220.14
711.687	11173.14
712.031	11138.79
712.375	11141.95
712.719	11057.89
713.063	11083.2
713.407	11138.11
713.75	11060.15
714.094	11069.41
714.438	11025.12
714.782	10984.22
715.125	10904.22
715.469	10932.69
715.812	10905.35
716.156	10811.34
716.499	10837.78
716.843	10824
717.186	10753.49
717.53	10792.36
717.873	10841.85
718.216	10806.37
718.559	10716.88
718.902	10695.41
719.246	10666.71
719.589	10709.87
719.932	10699.25
720.275	10698.35
720.617	10713.72
720.96	10652.02
721.303	10661.29
721.646	10654.73
721.989	10613.83
722.331	10590.33
722.674	10520.05
723.016	10604.11
723.359	10521.4
723.701	10546.71
724.044	10499.48
724.386	10517.56
724.729	10501.29
725.071	10437.79
725.413	10492.03
725.755	10505.81
726.097	10420.84
726.439	10405.02
726.782	10425.36
727.124	10495.19
727.465	10463.1
727.807	10382.88
728.149	10398.47
728.491	10420.62
728.833	10398.7
729.175	10409.77
729.516	10297.68
729.858	10383.78
730.199	10381.52
730.541	10296.33
730.882	10336.55
731.224	10364.35
731.565	10348.75
731.906	10283.67
732.248	10392.59
732.589	10289.55
732.93	10311.24
733.271	10344.01
733.612	10328.41
733.953	10242.99
734.294	10277.57
734.635	10267.4
734.976	10344.23
735.317	10289.77
735.658	10310.56
735.999	10303.33
736.339	10254.52
736.68	10362.99
737.021	10355.31
737.361	10312.82
737.702	10383.55
738.042	10295.65
738.383	10313.95
738.723	10308.75
739.063	10331.8
739.404	10462.42
739.744	10316.66
740.084	10269.43
740.424	10404.12
740.764	10351.01
741.104	10450.67
741.444	10423.1
741.784	10391.92
742.124	10436.66
742.464	10458.81
742.804	10475.53
743.143	10451.35
743.483	10501.52
743.823	10464.23
744.162	10512.59
744.502	10581.74
744.841	10548.75
745.181	10661.51
745.52	10662.64
745.86	10754.62
746.199	10700.38
746.538	10774.73
746.877	10866.25
747.216	10817.89
747.556	10868.29
747.895	11006.14
748.234	11006.14
748.573	11085.68
748.911	11112.35
749.25	11153.25
749.589	11184.66
749.928	11239.35
750.267	11390.31
750.605	11455.16
750.944	11477.31
751.283	11547.59
751.621	11604.31
751.96	11695.16
752.298	11798.88
752.636	11918.88
752.975	11946.68
753.313	12036.84
753.651	12271.64
753.989	12280.68
754.327	12364.75
754.666	12489.94
755.004	12618.3
755.342	12696.26
755.679	12846.77
756.017	12976.71
756.355	13100.55
756.693	13183.03
757.031	13340.54
757.368	13545.28
757.706	13553.19
758.044	13753.41
758.381	13797.25
758.719	13974.19
759.056	14192.04
759.394	14227.3
759.731	14323.11
760.068	14454.63
760.405	14720.16
760.743	14768.07
761.08	15052.36
761.417	15002.87
761.754	15158.12
762.091	15382.07
762.428	15439.01
762.765	15589.29
763.102	15753.36
763.438	15844.88
763.775	15997.87
764.112	16155.83
764.449	16387.69
764.785	16377.3
765.122	16502.49
765.458	16684.41
765.795	16709.72
766.131	16944.29
766.467	17025.64
766.804	17080.78
767.14	17215.24
767.476	17323.71
767.812	17390.83
768.148	17517.83
768.485	17592.4
768.821	17655.68
769.157	17700.2
769.492	17800.31
769.828	17883.24
770.164	17917.14
770.5	18068.78
770.836	18125.95
771.171	18187.42
771.507	18254.99
771.842	18202.33
772.178	18346.74
772.513	18323.46
772.849	18386.51
773.184	18424.93
773.519	18402.78
773.855	18396.23
774.19	18525.04
774.525	18541.53
774.86	18580.85
775.195	18646.16
775.53	18719.15
775.865	18679.83
776.2	18578.37
776.535	18617.46
776.87	18615.43
777.205	18653.62
777.539	18657.01
777.874	18670.12
778.209	18657.46
778.543	18583.79
778.878	18550.35
779.212	18634.86
779.547	18701.08
779.881	18716.44
780.215	18709.21
780.55	18722.09
780.884	18714.64
781.218	18560.97
781.552	18754.86
781.886	18589.67
782.22	18519.84
782.554	18573.85
782.888	18471.25
783.222	18410.24
783.556	18520.97
783.889	18351.03
784.223	18427.18
784.557	18382.89
784.89	18438.03
785.224	18320.3
785.557	18269.45
785.891	18213.18
786.224	18190.13
786.558	18251.6
786.891	18111.71
787.224	18076.46
787.557	18069.23
787.891	18053.41
788.224	18086.63
788.557	18032.39
788.89	17947.2
789.223	18072.84
789.556	17866.07
789.888	17900.65
790.221	17872.85
790.554	17704.94
790.887	17687.54
791.219	17657.26
791.552	17743.36
791.884	17629.92
792.217	17568.9
792.549	17599.64
792.882	17499.98
793.214	17389.92
793.546	17470.15
793.879	17321.23
794.211	17315.35
794.543	17352.41
794.875	17238.97
795.207	17247.33
795.539	17215.92
795.871	17233.09
796.203	17078.75
796.535	16975.92
796.867	16921.46
797.198	16911.07
797.53	16924.85
797.862	16824.06
798.193	16889.6
798.525	16711.3
798.856	16826.55
799.188	16595.37
799.519	16560.12
799.85	16588.36
800.182	16504.98
800.513	16542.26
800.844	16409.61
801.175	16410.06
801.506	16411.64
801.837	16385.2
802.168	16337.52
802.499	16241.03
802.83	16149.05
803.161	16263.85
803.491	16084.42
803.822	16169.39
804.153	16091.43
804.483	16041.48
804.814	15919.45
805.145	15975.72
805.475	15885.33
805.805	15785.45
806.136	15869.06
806.466	15833.58
806.796	15800.81
807.126	15649.18
807.457	15626.58
807.787	15714.94
808.117	15569.86
808.447	15512.69
808.777	15593.59
809.107	15500.48
809.436	15462.29
809.766	15454.16
810.096	15333.03
810.426	15287.61
810.755	15354.72
811.085	15218
811.414	15257.1
811.744	15160.6
812.073	15231.11
812.403	15178.68
812.732	15139.14
813.061	15118.35
813.39	15032.25
813.719	14995.41
814.049	15011.91
814.378	14975.52
814.707	14878.58
815.036	14883.55
815.365	14790.22
815.693	14771.46
816.022	14797
816.351	14710.67
816.68	14677.68
817.008	14647.4
817.337	14590
817.665	14511.36
817.994	14547.74
818.322	14601.3
818.651	14458.93
818.979	14410.57
819.307	14475.42
819.636	14550.68
819.964	14400.17
820.292	14387.52
820.62	14351.59
820.948	14358.82
821.276	14374.41
821.604	14345.48
821.932	14380.29
822.259	14338.03
822.587	14267.52
822.915	14302.77
823.243	14280.85
823.57	14315.88
823.898	14201.31
824.225	14297.35
824.553	14378.25
824.88	14304.58
825.207	14346.39
825.535	14282.89
825.862	14345.71
826.189	14301.64
826.516	14373.05
826.843	14365.14
827.17	14322.66
827.497	14380.29
827.824	14332.38
828.151	14389.78
828.478	14295.54
828.805	14348.2
829.131	14342.77
829.458	14265.94
829.785	14238.37
830.111	14276.33
830.438	14284.02
830.764	14374.18
831.09	14265.49
831.417	14287.18
831.743	14314.98
832.069	14316.11
832.395	14275.43
832.722	14245.83
833.048	14238.14
833.374	14242.21
833.7	14177.81
834.026	14225.49
834.351	14272.72
834.677	14249.44
835.003	14187.3
835.329	14180.52
835.654	14134.87
835.98	14080.86
836.306	14109.33
836.631	14011.93
836.956	14088.09
837.282	14116.11
837.607	14000.86
837.932	13977.13
838.258	13962.44
838.583	13911.82
838.908	13905.95
839.233	13962.9
839.558	13884.71
839.883	13783.01
840.208	13771.04
840.533	13855.55
840.858	13753.86
841.182	13786.18
841.507	13858.72
841.832	13660.3
842.156	13659.85
842.481	13718.83
842.805	13637.71
843.13	13634.54
843.454	13534.21
843.778	13565.17
844.103	13462.12
844.427	13373.98
844.751	13461.89
845.075	13400.88
845.399	13388.9
845.723	13303.03
846.047	13307.77
846.371	13168.34
846.695	13241.56
847.019	13088.79
847.343	13100.32
847.666	12992.75
847.99	12944.39
848.313	12965.18
848.637	12842.02
848.96	12889.48
849.284	12706.21
849.607	12676.38
849.931	12677.05
850.254	12616.94
850.577	12568.36
850.9	12525.87
851.223	12444.97
851.546	12360.9
851.869	12317.97
852.192	12395.71
852.515	12245.43
852.838	12173.79
853.161	12177.18
853.483	12138.31
853.806	12024.42
854.129	12036.84
854.451	11976.28
854.774	12010.63
855.096	11956.39
855.419	11944.87
855.741	11914.36
856.063	11878.2
856.385	11791.65
856.708	11774.7
857.03	11699.9
857.352	11691.99
857.674	11692.22
857.996	11562.73
858.318	11583.98
858.64	11529.51
858.961	11456.75
859.283	11468.95
859.605	11401.38
859.926	11421.95
860.248	11376.52
860.57	11273.25
860.891	11387.82
861.212	11266.24
861.534	11210.65
861.855	11166.36
862.176	11218.56
862.498	11304.66
862.819	11308.05
863.14	11244.77
863.461	11102.86
863.782	11063.99
864.103	11141.05
864.424	11106.7
864.745	11187.6
865.065	11038
865.386	11046.36
865.707	11007.95
866.027	11019.02
866.348	10943.54
866.668	10945.35
866.989	10953.26
867.309	10839.14
867.63	10851.79
867.95	10875.29
868.27	10754.84
868.59	10813.83
868.91	10800.49
869.23	10840.94
869.55	10717.33
869.87	10755.97
870.19	10755.3
870.51	10816.99
870.83	10742.19
871.15	10704.45
871.469	10610.89
871.789	10643.43
872.109	10640.5
872.428	10587.84
872.748	10630.33
873.067	10596.66
873.386	10643.43
873.706	10560.73
874.025	10496.55
874.344	10520.73
874.663	10551.46
874.982	10453.61
875.301	10467.62
875.62	10478.69
875.939	10409.32
876.258	10387.17
876.577	10433.72
876.896	10383.55
877.214	10386.72
877.533	10394.4
877.852	10325.7
878.17	10316.21
878.489	10315.08
878.807	10320.73
879.125	10285.03
879.444	10214.75
879.762	10228.3
880.08	10191.24
880.398	10198.47
880.716	10218.81
881.034	10129.1
881.352	10214.52
881.67	10071.7
881.988	10148.31
882.306	10140.4
882.624	9922.32
882.941	9977.01
883.259	10018.14
883.577	9951.02
883.894	9940.85
884.212	9968.88
884.529	9914.64
884.846	9856.34
885.164	9864.02
885.481	9855.66
885.798	9870.35
886.115	9756
886.432	9775.89
886.75	9756.68
887.067	9719.17
887.383	9754.64
887.7	9705.38
888.017	9700.18
888.334	9626.51
888.651	9642.78
888.967	9544.71
889.284	9601.88
889.6	9531.6
889.917	9423.81
890.233	9471.94
890.55	9402.34
890.866	9362.34
891.182	9395.33
891.498	9322.79
891.815	9399.4
892.131	9319.4
892.447	9303.36
892.763	9279.18
893.079	9240.31
893.395	9232.4
893.71	9153.76
894.026	9200.76
894.342	9073.08
894.657	9004.16
894.973	9039.64
895.289	9062.91
895.604	9023.14
895.92	8923.93
896.235	8874.44
896.55	8900.43
896.865	8911.95
897.181	8784.95
897.496	8816.36
897.811	8782.47
898.126	8754.22
898.441	8688.01
898.756	8706.54
899.071	8610.27
899.386	8649.59
899.7	8547.44
900.015	8514
900.33	8481.01
900.644	8467.67
900.959	8466.32
901.273	8467.67
901.588	8358.98
901.902	8336.15
902.216	8330.73
902.531	8300.67
902.845	8299.32
903.159	8191.75
903.473	8176.61
903.787	8158.98
904.101	8115.82
904.415	8174.57
904.729	8049.15
905.042	8036.72
905.356	8052.09
905.67	8029.94
905.984	7989.04
906.297	7990.17
906.611	7929.61
906.924	7888.03
907.237	7798.09
907.551	7801.48
907.864	7740.46
908.177	7766.67
908.491	7750.4
908.804	7679.67
909.117	7661.14
909.43	7674.7
909.743	7522.61
910.056	7593.12
910.368	7589.5
910.681	7505.89
910.994	7474.93
911.307	7420.92
911.619	7349.74
911.932	7403.52
912.244	7361.94
912.557	7349.96
912.869	7276.29
913.181	7228.16
913.494	7248.5
913.806	7158.33
914.118	7179.35
914.43	7102.29
914.742	7105
915.054	7089.63
915.366	7060.03
915.678	7018.67
915.99	7039.46
916.302	6963.53
916.613	6966.7
916.925	6923.31
917.236	6873.59
917.548	6824.55
917.859	6833.82
918.171	6808.73
918.482	6785.01
918.794	6704.33
919.105	6714.05
919.416	6662.07
919.727	6668.85
920.038	6665.01
920.349	6626.82
920.66	6577.78
920.971	6549.76
921.282	6519.7
921.593	6513.6
921.903	6455.52
922.214	6420.27
922.525	6385.24
922.835	6378.91
923.146	6362.42
923.456	6325.58
923.767	6309.31
924.077	6297.11
924.387	6269.76
924.697	6175.98
925.008	6210.56
925.318	6186.15
925.628	6149.54
925.938	6145.02
926.248	6037.68
926.558	6086.72
926.867	6029.77
927.177	5985.7
927.487	5962.43
927.796	5907.97
928.106	5989.77
928.416	5952.26
928.725	5817.8
929.034	5879.94
929.344	5865.93
929.653	5882.88
929.962	5736.22
930.271	5781.87
930.581	5766.95
930.89	5677.24
931.199	5676.79
931.508	5691.93
931.817	5678.14
932.125	5638.14
932.434	5668.2
932.743	5577.13
933.051	5553.4
933.36	5492.16
933.669	5524.7
933.977	5469.56
934.286	5471.37
934.594	5476.57
934.902	5407.19
935.21	5357.7
935.519	5381.65
935.827	5387.75
936.135	5291.49
936.443	5259.4
936.751	5264.37
937.059	5275.67
937.367	5256.91
937.674	5220.3
937.982	5216.68
938.29	5197.93
938.597	5203.35
938.905	5119.51
939.213	5078.38
939.52	5122.68
939.827	5105.95
940.135	5057.59
940.442	5077.25
940.749	5020.98
941.056	5046.07
941.363	4999.29
941.67	4967.43
941.977	4923.81
942.284	4892.85
942.591	4892.4
942.898	4839.29
943.205	4833.42
943.511	4855.34
943.818	4810.14
944.125	4766.53
944.431	4733.08
944.738	4734.44
945.044	4672.07
945.35	4649.47
945.657	4604.95
945.963	4633.65
946.269	4606.53
946.575	4624.84
946.881	4627.1
947.187	4560.88
947.493	4538.06
947.799	4526.53
948.105	4514.33
948.41	4489.02
948.716	4533.76
949.022	4407.67
949.327	4437.27
949.633	4423.26
949.938	4436.14
950.244	4394.33
950.549	4355.24
950.854	4352.75
951.16	4344.39
951.465	4284.73
951.77	4284.05
952.075	4266.88
952.38	4275.69
952.685	4291.74
952.99	4184.62
953.294	4204.51
953.599	4163.61
953.904	4152.98
954.209	4133.55
954.513	4091.29
954.818	4100.1
955.122	4088.58
955.426	4119.54
955.731	4035.02
956.035	4032.54
956.339	4018.07
956.643	3963.61
956.948	3987.56
957.252	3943.5
957.556	3930.84
957.86	3877.96
958.163	3898.08
958.467	3941.46
958.771	3885.65
959.075	3908.92
959.378	3808.59
959.682	3804.07
959.985	3818.3
960.289	3754.12
960.592	3762.03
960.896	3728.14
961.199	3687.91
961.502	3689.72
961.805	3730.62
962.108	3705.31
962.411	3707.35
962.714	3641.81
963.017	3665.99
963.32	3671.64
963.623	3628.93
963.926	3607.91
964.228	3600
964.531	3606.33
964.833	3614.92
965.136	3542.15
965.438	3503.96
965.741	3508.48
966.043	3482.72
966.345	3489.27
966.648	3463.96
966.95	3432.33
967.252	3469.16
967.554	3399.33
967.856	3401.59
968.158	3357.98
968.46	3360.46
968.761	3375.38
969.063	3333.12
969.365	3331.08
969.666	3336.73
969.968	3278.43
970.269	3278.66
970.571	3269.17
970.872	3292.22
971.174	3240.92
971.475	3258.77
971.776	3175.38
972.077	3208.15
972.378	3210.86
972.679	3157.98
972.98	3189.17
973.281	3155.72
973.582	3143.07
973.883	3109.17
974.183	3098.55
974.484	3116.63
974.785	3084.09
975.085	3066.91
975.386	3068.27
975.686	3066.01
975.986	3035.27
976.287	3034.6
976.587	2980.13
976.887	3000.47
977.187	2992.11
977.487	2993.01
977.787	2959.57
978.087	2943.52
978.387	2947.37
978.687	2954.15
978.987	2882.51
979.286	2881.83
979.586	2865.79
979.885	2889.74
980.185	2838.67
980.484	2841.83
980.784	2816.3
981.083	2800.93
981.382	2819.01
981.682	2791.66
981.981	2771.33
982.28	2758.67
982.579	2717.54
982.878	2723.19
983.177	2733.81
983.475	2720.71
983.774	2700.82
984.073	2672.57
984.372	2660.82
984.67	2680.25
984.969	2665.57
985.267	2652.91
985.566	2625.34
985.864	2651.55
986.162	2639.58
986.461	2593.7
986.759	2580.37
987.057	2562.07
987.355	2537.43
987.653	2548.73
987.951	2523.42
988.249	2503.99
988.547	2514.84
988.844	2487.72
989.142	2505.57
989.44	2496.76
989.737	2467.15
990.035	2458.57
990.332	2435.29
990.63	2429.41
990.927	2396.42
991.224	2427.61
991.521	2402.75
991.819	2386.93
992.116	2388.28
992.413	2359.58
992.71	2336.31
993.006	2355.52
993.303	2324.56
993.6	2328.17
993.897	2309.64
994.193	2294.05
994.49	2294.28
994.787	2265.58
995.083	2286.82
995.379	2263.32
995.676	2268.97
995.972	2221.28
996.268	2217.44
996.565	2209.98
996.861	2186.48
997.157	2162.75
997.453	2175.41
997.749	2158.91
998.044	2160.72
998.34	2155.75
998.636	2140.38
998.932	2179.93
999.227	2117.78
999.523	2108.52
999.818	2093.6
1000.114	2091.12
1000.409	2074.62
1000.704	2055.19
1001	2040.95
1001.295	2002.76
1001.59	2029.2
1001.885	2004.11
1002.18	2026.71
1002.475	1975.41
1002.77	1990.56
1003.065	1953.95
1003.359	1960.5
1003.654	1970.44
1003.949	1934.51
1004.243	1901.74
1004.538	1901.97
1004.832	1907.85
1005.127	1871.01
1005.421	1870.78
1005.715	1828.98
1006.009	1849.09
1006.304	1866.49
1006.598	1844.8
1006.892	1847.06
1007.186	1803.22
1007.48	1802.31
1007.773	1795.53
1008.067	1807.96
1008.361	1795.76
1008.655	1785.14
1008.948	1748.98
1009.242	1787.4
1009.535	1747.17
1009.829	1721.41
1010.122	1708.08
1010.415	1672.15
1010.708	1687.96
1011.001	1699.04
1011.295	1693.84
1011.588	1697.46
1011.881	1644.58
1012.173	1677.34
1012.466	1614.97
1012.759	1647.06
1013.052	1615.2
1013.344	1630.79
1013.637	1606.16
1013.93	1612.94
1014.222	1586.72
1014.514	1611.81
1014.807	1567.06
1015.099	1584.92
1015.391	1555.31
1015.683	1554.41
1015.976	1554.63
1016.268	1520.74
1016.56	1509.66
1016.851	1487.74
1017.143	1508.99
1017.435	1506.27
1017.727	1452.04
1018.018	1475.99
1018.31	1440.96
1018.602	1456.78
1018.893	1443.22
1019.185	1426.95
1019.476	1435.54
1019.767	1421.76
1020.058	1390.8
1020.35	1385.6
1020.641	1398.48
1020.932	1364.58
1021.223	1361.87
1021.514	1350.8
1021.804	1323.68
1022.095	1353.51
1022.386	1292.95
1022.677	1304.02
1022.967	1320.52
1023.258	1286.17
1023.548	1303.34
1023.839	1265.6
1024.129	1282.55
1024.419	1269.44
1024.709	1276.9
1025	1264.7
1025.29	1247.07
1025.58	1226.06
1025.87	1232.38
1026.16	1199.62
1026.449	1220.18
1026.739	1229.9
1027.029	1211.37
1027.319	1208.43
1027.608	1173.4
1027.898	1196
1028.187	1161.65
1028.477	1173.4
1028.766	1177.24
1029.055	1139.05
1029.344	1154.64
1029.634	1155.1
1029.923	1150.35
1030.212	1101.99
1030.501	1115.32
1030.79	1136.57
1031.078	1097.25
1031.367	1084.36
1031.656	1076.23
1031.945	1096.57
1032.233	1078.49
1032.522	1080.07
1032.81	1056.12
1033.099	1035.55
1033.387	1058.38
1033.675	1044.37
1033.963	1029.45
1034.251	1035.78
1034.54	1023.35
1034.828	992.84
1035.116	994.87
1035.403	1000.52
1035.691	1012.05
1035.979	994.65
1036.267	976.12
1036.554	970.47
1036.842	965.27
1037.129	975.44
1037.417	929.34
1037.704	934.76
1037.992	917.14
1038.279	936.12
1038.566	925.95
1038.853	925.95
1039.14	925.95
