Data from hue_340_FLMS001491_37.txt Node
Date: Mon Feb 06 15:43:02 GMT 2017
User: dcchb
Spectrometer: FLMS00149
Trigger mode: 0
Integration Time (sec): 2.000000E-2
Scans to average: 10
Electric dark correction enabled: true
Nonlinearity correction enabled: false
Boxcar width: 0
XAxis mode: Wavelengths
Number of Pixels in Spectrum: 2048
>>>>>Begin Spectral Data<<<<<
341.393	-27.5
341.776	-27.5
342.16	-27.5
342.543	-65.01
342.927	-46.48
343.31	-70.66
343.693	-76.31
344.077	-55.52
344.46	-53.94
344.843	-72.47
345.226	-42.87
345.61	-38.57
345.993	-6.03
346.376	-9.42
346.759	-8.06
347.142	21.54
347.525	58.83
347.908	57.02
348.291	73.97
348.674	98.15
349.057	124.36
349.44	122.33
349.823	134.3
350.206	151.25
350.588	163
350.971	193.29
351.354	201.65
351.737	237.35
352.119	247.52
352.502	254.3
352.884	276.45
353.267	274.87
353.65	266.5
354.032	294.07
354.414	301.76
354.797	285.94
355.179	315.54
355.562	334.75
355.944	293.17
356.326	333.85
356.709	315.77
357.091	330.68
357.473	326.62
357.855	316.22
358.238	328.42
358.62	345.82
359.002	341.98
359.384	329.1
359.766	341.3
360.148	329.55
360.53	337.91
360.912	326.84
361.294	329.1
361.676	307.41
362.057	314.41
362.439	329.33
362.821	313.28
363.203	319.38
363.584	302.44
363.966	333.4
364.348	308.09
364.729	295.66
365.111	323
365.493	311.25
365.874	309.89
366.256	295.43
366.637	309.44
367.019	304.24
367.4	314.86
367.781	305.15
368.163	313.06
368.544	306.05
368.925	317.8
369.306	307.63
369.688	298.59
370.069	311.93
370.45	325.49
370.831	311.93
371.212	311.25
371.593	302.66
371.974	301.98
372.355	286.62
372.736	294.07
373.117	316.22
373.498	316.22
373.879	308.54
374.26	304.7
374.641	296.79
375.021	297.24
375.402	312.83
375.783	306.28
376.163	318.25
376.544	305.6
376.925	325.03
377.305	304.92
377.686	318.48
378.066	325.94
378.447	306.73
378.827	326.84
379.208	311.02
379.588	328.2
379.968	328.65
380.349	327.07
380.729	317.8
381.109	320.74
381.489	308.76
381.87	322.77
382.25	320.74
382.63	329.55
383.01	322.55
383.39	324.81
383.77	329.33
384.15	330.23
384.53	340.85
384.91	318.48
385.29	327.75
385.67	331.81
386.049	349.89
386.429	333.4
386.809	346.95
387.189	346.28
387.568	337.91
387.948	315.99
388.328	337.01
388.707	336.33
389.087	339.27
389.466	356.22
389.846	356.22
390.225	344.24
390.605	353.73
390.984	361.42
391.363	347.63
391.743	347.86
392.122	361.64
392.501	343.34
392.881	354.86
393.26	366.39
393.639	364.35
394.018	349.21
394.397	350.8
394.776	364.81
395.155	351.7
395.534	372.26
395.913	343.79
396.292	381.98
396.671	381.08
397.05	380.17
397.429	368.42
397.808	371.13
398.186	374.98
398.565	379.04
398.944	373.39
399.323	371.59
399.701	371.13
400.08	379.04
400.458	376.56
400.837	389.21
401.215	382.43
401.594	394.64
401.972	390.12
402.351	393.73
402.729	371.13
403.107	390.79
403.486	366.16
403.864	401.42
404.242	400.96
404.62	385.82
404.999	383.34
405.377	411.81
405.755	406.61
406.133	412.04
406.511	412.26
406.889	392.38
407.267	404.81
407.645	410.91
408.023	423.11
408.401	434.86
408.779	440.96
409.156	431.92
409.534	438.03
409.912	440.51
410.29	435.09
410.667	427.4
411.045	442.32
411.422	452.49
411.8	458.14
412.178	454.97
412.555	471.92
412.933	454.3
413.31	458.59
413.687	480.28
414.065	458.59
414.442	485.93
414.819	470.79
415.197	509.89
415.574	498.36
415.951	479.83
416.328	506.95
416.705	501.3
417.082	511.24
417.46	503.11
417.837	502.88
418.214	525.03
418.591	506.05
418.967	512.6
419.344	536.78
419.721	525.25
420.098	520.06
420.475	549.43
420.852	527.74
421.228	555.08
421.605	558.93
421.982	567.29
422.358	555.54
422.735	544.69
423.111	577.91
423.488	587.17
423.864	593.05
424.241	589.21
424.617	586.72
424.994	562.32
425.37	602.54
425.746	579.49
426.123	592.15
426.499	610.22
426.875	613.84
427.251	612.94
427.627	635.31
428.003	629.21
428.379	644.57
428.756	641.64
429.132	635.53
429.507	643.67
429.883	651.13
430.259	648.64
430.635	679.6
431.011	673.95
431.387	667.62
431.763	700.84
432.138	673.27
432.514	688.19
432.89	700.39
433.265	699.94
433.641	708.75
434.016	727.06
434.392	741.97
434.767	739.26
435.143	740.62
435.518	751.01
435.894	760.73
436.269	774.06
436.644	763.67
437.02	779.94
437.395	774.51
437.77	789.43
438.145	766.83
438.52	762.76
438.895	813.61
439.271	791.01
439.646	805.25
440.021	800.28
440.395	819.94
440.77	820.39
441.145	822.87
441.52	831.01
441.895	841.18
442.27	841.4
442.645	861.74
443.019	874.17
443.394	860.84
443.769	863.1
444.143	874.17
444.518	882.99
444.892	863.1
445.267	872.36
445.641	884.79
446.016	876.21
446.39	884.79
446.764	885.25
447.139	872.82
447.513	900.39
447.887	888.41
448.262	905.36
448.636	873.49
449.01	909.43
449.384	925.92
449.758	926.15
450.132	916.88
450.506	918.69
450.88	933.15
451.254	937.67
451.628	948.52
452.002	937.67
452.376	943.1
452.75	951.23
453.123	965.24
453.497	974.73
453.871	966.6
454.244	991.91
454.618	1007.5
454.992	1008.63
455.365	996.65
455.739	1006.6
456.112	1000.95
456.486	1031.23
456.859	1061.29
457.232	1045.47
457.606	1038.69
457.979	1075.3
458.352	1095.64
458.725	1089.53
459.099	1092.02
459.472	1069.65
459.845	1091.79
460.218	1116.65
460.591	1126.59
460.964	1131.57
461.337	1152.81
461.71	1150.1
462.083	1169.98
462.456	1177.67
462.829	1172.47
463.201	1190.77
463.574	1214.05
463.947	1202.98
464.32	1223.32
464.692	1232.58
465.065	1212.02
465.438	1251.11
465.81	1281.39
466.183	1276.65
466.555	1286.59
466.928	1294.05
467.3	1328.17
467.672	1353.26
468.045	1353.48
468.417	1368.62
468.789	1386.93
469.161	1404.1
469.534	1425.34
469.906	1421.28
470.278	1425.34
470.65	1405.46
471.022	1464.44
471.394	1482.74
471.766	1482.52
472.138	1483.42
472.51	1541.5
472.882	1542.85
473.253	1541.95
473.625	1590.54
473.997	1588.05
474.369	1613.36
474.74	1622.17
475.112	1645.45
475.484	1660.37
475.855	1691.78
476.227	1708.05
476.598	1755.96
476.97	1763.64
477.341	1800.48
477.713	1820.59
478.084	1844.77
478.455	1869.17
478.827	1899
479.198	1922.73
479.569	1941.94
479.94	1973.8
480.311	1963.63
480.682	1990.3
481.053	2051.54
481.424	2073.24
481.795	2101.26
482.166	2140.81
482.537	2168.83
482.908	2229.39
483.279	2260.58
483.65	2231.2
484.021	2285.89
484.391	2312.78
484.762	2346.68
485.133	2349.61
485.503	2368.82
485.874	2442.27
486.244	2435.71
486.615	2505.54
486.985	2492.21
487.356	2541.92
487.726	2548.48
488.097	2623.73
488.467	2626.89
488.837	2668.25
489.207	2714.35
489.578	2764.74
489.948	2818.53
490.318	2829.37
490.688	2775.14
491.058	2848.36
491.428	2841.8
491.798	2896.04
492.168	2949.37
492.538	2952.31
492.908	3006.55
493.278	3028.92
493.648	3038.86
494.017	3119.54
494.387	3113.66
494.757	3124.06
495.126	3174.22
495.496	3130.61
495.866	3162.25
496.235	3210.16
496.605	3233.21
496.974	3260.32
497.344	3324.73
497.713	3319.08
498.082	3329.25
498.452	3395.24
498.821	3413.09
499.19	3372.41
499.559	3397.04
499.928	3406.99
500.298	3425.97
500.667	3433.65
501.036	3430.94
501.405	3460.54
501.774	3502.8
502.143	3550.94
502.512	3572.41
502.88	3586.87
503.249	3592.97
503.618	3609.47
503.987	3583.71
504.356	3628
504.724	3675.23
505.093	3659.41
505.462	3665.96
505.83	3693.76
506.199	3737.83
506.567	3738.05
506.936	3746.19
507.304	3764.94
507.672	3781.89
508.041	3800.2
508.409	3841.78
508.777	3833.42
509.145	3855.11
509.514	3872.06
509.882	3870.93
510.25	3876.58
510.618	3893.75
510.986	3869.12
511.354	3937.37
511.722	3942.34
512.09	3964.94
512.458	3959.29
512.826	4009.46
513.193	3994.54
513.561	3970.81
513.929	4019.17
514.297	4055.56
514.664	4057.82
515.032	4068.89
515.4	4124.93
515.767	4104.6
516.135	4105.27
516.502	4118.61
516.869	4124.48
517.237	4140.07
517.604	4159.28
517.972	4207.64
518.339	4166.74
518.706	4199.06
519.073	4210.81
519.44	4255.78
519.808	4197.47
520.175	4247.42
520.542	4322.22
520.909	4300.52
521.276	4304.14
521.643	4352.95
522.009	4348.43
522.376	4356.34
522.743	4388.66
523.11	4366.74
523.477	4422.55
523.843	4442.89
524.21	4511.14
524.577	4468.43
524.943	4485.15
525.31	4513.62
525.676	4505.49
526.043	4589.1
526.409	4626.62
526.776	4652.83
527.142	4611.7
527.508	4647.86
527.874	4684.24
528.241	4713.39
528.607	4746.84
528.973	4768.53
529.339	4748.42
529.705	4824.58
530.071	4830.9
530.437	4830.23
530.803	4874.74
531.169	4840.17
531.535	4913.39
531.901	4915.42
532.267	4953.16
532.632	4953.61
532.998	4988.41
533.364	5008.75
533.73	5009.43
534.095	5072.25
534.461	5085.36
534.826	5082.2
535.192	5080.84
535.557	5142.31
535.923	5121.74
536.288	5195.64
536.653	5196.09
537.019	5205.36
537.384	5165.13
537.749	5273.83
538.114	5259.82
538.479	5271.57
538.845	5265.24
539.21	5336.43
539.575	5317.22
539.94	5308.18
540.305	5365.13
540.67	5380.95
541.034	5403.77
541.399	5430.21
541.764	5453.03
542.129	5484.67
542.494	5477.89
542.858	5500.72
543.223	5584.78
543.587	5530.55
543.952	5584.56
544.316	5577.55
544.681	5598.79
545.045	5588.85
545.41	5703.42
545.774	5658.45
546.138	5688.06
546.503	5755.85
546.867	5768.73
547.231	5801.95
547.595	5740.71
547.959	5814.38
548.324	5840.37
548.688	5833.82
549.052	5847.15
549.416	5879.92
549.779	5866.13
550.143	5922.85
550.507	5970.08
550.871	5990.42
551.235	5961.5
551.599	5992.68
551.962	6019.35
552.326	6020.93
552.689	6019.12
553.053	6015.73
553.417	6066.8
553.78	6108.61
554.143	6119.23
554.507	6171.43
554.87	6171.43
555.234	6199.46
555.597	6205.56
555.96	6231.09
556.323	6236.52
556.686	6268.61
557.05	6300.02
557.413	6303.18
557.776	6350.19
558.139	6323.97
558.502	6384.54
558.865	6404.2
559.228	6414.82
559.59	6428.6
559.953	6445.78
560.316	6468.6
560.679	6478.09
561.041	6494.59
561.404	6556.73
561.767	6549.28
562.129	6572.33
562.492	6630.86
562.854	6603.06
563.217	6629.5
563.579	6616.39
563.941	6716.5
564.304	6702.95
564.666	6733.9
565.028	6686
565.39	6734.36
565.753	6766.9
566.115	6819.55
566.477	6789.27
566.839	6845.09
567.201	6889.16
567.563	6883.51
567.925	6944.75
568.287	6960.11
568.648	6935.03
569.01	6981.36
569.372	7092.09
569.734	7034.91
570.095	7113.78
570.457	7092.54
570.819	7137.74
571.18	7179.99
571.542	7210.05
571.903	7212.31
572.265	7284.4
572.626	7320.78
572.987	7351.74
573.349	7366.66
573.71	7413.89
574.071	7410.95
574.432	7533.43
574.794	7530.49
575.155	7624.5
575.516	7594.45
575.877	7664.05
576.238	7765.97
576.599	7846.87
576.96	7893.87
577.32	7893.42
577.681	8008.67
578.042	8095.9
578.403	8197.6
578.763	8188.33
579.124	8247.99
579.485	8443.46
579.845	8501.77
580.206	8555.55
580.566	8654.53
580.927	8773.17
581.287	8928.88
581.648	9019.27
582.008	9188.3
582.368	9324.8
582.728	9423.78
583.089	9555.98
583.449	9692.25
583.809	9828.51
584.169	10006.36
584.529	10068.96
584.889	10288.61
585.249	10423.53
585.609	10603.41
585.969	10884.53
586.329	10960.91
586.688	11225.99
587.048	11298.3
587.408	11464.4
587.768	11839.76
588.127	11899.87
588.487	12127.44
588.846	12321.1
589.206	12517.93
589.565	12736.68
589.925	13126.05
590.284	13262.77
590.643	13450.79
591.003	13832.93
591.362	14041.96
591.721	14230.2
592.08	14486.92
592.44	14796.97
592.799	15054.82
593.158	15246
593.517	15510.62
593.876	15791.29
594.235	16059.08
594.593	16376.59
594.952	16572.74
595.311	16807.09
595.67	17207.53
596.029	17544.24
596.387	17863.78
596.746	18090.22
597.104	18277.1
597.463	18573.37
597.822	18857.2
598.18	19122.51
598.538	19348.94
598.897	19737.18
599.255	19716.39
599.613	20323.6
599.972	20438.63
600.33	20743.03
600.688	20917.03
601.046	21273.18
601.404	21601.99
601.762	21856.22
602.12	22102.77
602.478	22423.21
602.836	22617.56
603.194	22773.94
603.552	23048.5
603.91	23255.96
604.268	23579.34
604.625	23741.14
604.983	24078.99
605.341	24150.62
605.698	24499.99
606.056	24882.13
606.413	24973.65
606.771	25247.54
607.128	25455.9
607.485	25710.58
607.843	25824.7
608.2	26175.65
608.557	26354.41
608.914	26559.82
609.272	26843.66
609.629	26941.51
609.986	27331.33
610.343	27323.42
610.7	27717.31
611.057	27868.49
611.414	28049.95
611.771	28261.93
612.127	28546.44
612.484	28587.79
612.841	28883.6
613.198	28910.72
613.554	29040.44
613.911	29439.52
614.267	29496.02
614.624	29664.15
614.98	29834.31
615.337	30102.33
615.693	30163.12
616.05	30191.82
616.406	30494.64
616.762	30576.44
617.118	30691.02
617.475	30833.84
617.831	30997
618.187	31124.22
618.543	31322.64
618.899	31566.7
619.255	31654.38
619.611	31714.26
619.967	31925.33
620.323	31986.8
620.678	31954.94
621.034	32021.6
621.39	32131.2
621.746	32283.74
622.101	32549.05
622.457	32465.43
622.812	32738.19
623.168	32770.73
623.523	32793.11
623.879	32981.58
624.234	32979.32
624.589	33145.41
624.945	33175.7
625.3	33398.97
625.655	33380.89
626.01	33441.9
626.365	33535.01
626.72	33502.01
627.075	33575.91
627.43	33640.77
627.785	33597.38
628.14	33759.18
628.495	33822.01
628.85	33739.52
629.205	33685.96
629.559	34015.9
629.914	33847.54
630.269	33949.01
630.623	33941.33
630.978	34045.28
631.332	34149.91
631.687	34222
632.041	34174.99
632.396	34241.88
632.75	34117.14
633.104	34183.58
633.459	34024.26
633.813	34109.23
634.167	34290.02
634.521	34230.36
634.875	34242.33
635.229	34236.68
635.583	33985.84
635.937	34179.96
636.291	34261.99
636.645	34207.53
636.999	34173.41
637.352	34327.98
637.706	34090.7
638.06	34335.66
638.413	34326.17
638.767	34160.53
639.121	34269.9
639.474	34040.53
639.828	34035.11
640.181	34225.16
640.534	34247.98
640.888	34071.27
641.241	33911.95
641.594	34111.26
641.947	34196.69
642.301	33995.79
642.654	34153.3
643.007	34245.72
643.36	34198.72
643.713	34071.27
644.066	34245.72
644.419	34038.05
644.771	33724.38
645.124	33591.73
645.477	33452.3
645.83	33260.89
646.182	33205.3
646.535	32918.08
646.888	33177.5
647.24	33047.11
647.593	33207.79
647.945	33094.57
648.298	32956.27
648.65	32881.24
649.002	32922.37
649.355	33033.78
649.707	32922.59
650.059	33047.79
650.411	33568.23
650.763	33482.13
651.115	33826.75
651.467	33759.18
651.819	33707.88
652.171	33647.55
652.523	33621.33
652.875	33716.92
653.227	33493.2
653.578	33806.19
653.93	33660.88
654.282	33546.99
654.633	33518.29
654.985	33492.3
655.337	33519.87
655.688	33410.27
656.039	33714.66
656.391	33375.46
656.742	33438.97
657.094	33497.49
657.445	33551.28
657.796	33392.64
658.147	33377.72
658.498	33469.7
658.849	33461.79
659.2	33470.83
659.551	33357.84
659.902	33390.83
660.253	33532.52
660.604	33474.67
660.955	33277.39
661.306	33411.4
661.656	33345.86
662.007	33276.71
662.358	33322.81
662.708	33399.19
663.059	33360.32
663.409	33190.38
663.76	33402.81
664.11	33318.97
664.461	33410.72
664.811	33313.54
665.161	33384.28
665.511	33196.94
665.862	33191.74
666.212	33274.22
666.562	33253.21
666.912	33265.41
667.262	33240.33
667.612	33272.19
667.962	33261.57
668.312	33234
668.662	33316.48
669.011	33231.06
669.361	33190.84
669.711	33090.73
670.06	33112.19
670.41	33090.05
670.76	33179.09
671.109	33264.51
671.459	33203.94
671.808	33156.26
672.157	33256.15
672.507	33001.24
672.856	32900.45
673.205	33078.3
673.554	33120.1
673.904	33109.26
674.253	33277.39
674.602	32965.31
674.951	32536.39
675.3	32486.22
675.649	33059.54
675.998	32911.97
676.346	33013.21
676.695	32904.06
677.044	32795.14
677.393	32821.35
677.741	32985.64
678.09	32862.71
678.438	32656.84
678.787	32827
679.135	32806.67
679.484	32605.77
679.832	32650.96
680.181	32546.11
680.529	32618.65
680.877	32462.04
681.225	32523.28
681.573	32670.62
681.922	32474.7
682.27	32425.88
682.618	32252.33
682.966	32197.64
683.314	32340.01
683.661	32171.2
684.009	32055.05
684.357	32048.72
684.705	31950.42
685.053	31995.61
685.4	31945.9
685.748	31925.11
686.095	31839.91
686.443	31671.33
686.79	31707.94
687.138	31653.7
687.485	31692.8
687.832	31641.72
688.18	31769.18
688.527	31492.35
688.874	31462.75
689.221	31494.16
689.568	31362.64
689.915	31222.3
690.262	31232.7
690.609	31239.7
690.956	31061.63
691.303	31074.06
691.65	30858.02
691.997	30806.04
692.344	30898.69
692.69	30642.43
693.037	30705.7
693.383	30442.43
693.73	30578.25
694.077	30319.27
694.423	30369.89
694.769	30297.81
695.116	30202.67
695.462	30160.18
695.808	30026.85
696.155	30123.12
696.501	29838.16
696.847	29893.97
697.193	29586.86
697.539	29828.66
697.885	29549.58
698.231	29429.58
698.577	29486.3
698.923	29490.14
699.269	29324.5
699.614	29132.41
699.96	29166.54
700.306	29069.36
700.651	28936.94
700.997	28948.01
701.342	28870.95
701.688	28830.27
702.033	28858.97
702.379	28749.15
702.724	28690.62
703.069	28649.49
703.415	28369.95
703.76	28487.68
704.105	28375.82
704.45	28340.34
704.795	28075.72
705.14	28070.52
705.485	28107.58
705.83	27943.97
706.175	27903.97
706.52	27980.8
706.865	27842.5
707.209	27870.75
707.554	27649.74
707.899	27640.93
708.243	27622.85
708.588	27635.95
708.932	27346.02
709.277	27308.51
709.621	27321.16
709.966	27189.86
710.31	27262.86
710.654	27048.85
710.998	26958.68
711.342	26954.62
711.687	26988.74
712.031	26901.96
712.375	26748.75
712.719	26811.57
713.063	26762.53
713.407	26871.68
713.75	26544.91
714.094	26595.53
714.438	26554.85
714.782	26575.19
715.125	26498.81
715.469	26419.49
715.812	26339.72
716.156	26159.83
716.499	26203.68
716.843	26168.42
717.186	26010.23
717.53	26172.94
717.873	26077.35
718.216	26107.41
718.559	25882.78
718.902	25716.23
719.246	25786.74
719.589	25735.44
719.932	25692.95
720.275	25633.97
720.617	25774.76
720.96	25704.93
721.303	25599.62
721.646	25598.95
721.989	25498.38
722.331	25522.34
722.674	25445.5
723.016	25538.38
723.359	25383.58
723.701	25291.83
724.044	25140.65
724.386	25082.57
724.729	25233.08
725.071	25111.95
725.413	25087.77
725.755	25131.39
726.097	25014.78
726.439	24846.65
726.782	24940.43
727.124	25003.93
727.465	24850.94
727.807	24734.56
728.149	24742.24
728.491	24698.18
728.833	24685.3
729.175	24605.3
729.516	24524.4
729.858	24541.12
730.199	24484.4
730.541	24573.89
730.882	24509.93
731.224	24512.19
731.565	24329.15
731.906	24411.86
732.248	24437.62
732.589	24271.97
732.93	24244.86
733.271	24144.29
733.612	24264.97
733.953	24204.63
734.294	24189.72
734.635	24138.42
734.976	24178.42
735.317	24083.51
735.658	24101.36
735.999	23898.43
736.339	23903.85
736.68	23988.37
737.021	24000.8
737.361	23880.8
737.702	24001.25
738.042	23790.63
738.383	23827.47
738.723	23841.25
739.063	23711.99
739.404	23803.96
739.744	23675.61
740.084	23510.86
740.424	23608.94
740.764	23472.67
741.104	23631.09
741.444	23469.06
741.784	23420.02
742.124	23454.14
742.464	23396.74
742.804	23335.28
743.143	23387.25
743.483	23333.24
743.823	23213.92
744.162	23229.06
744.502	23222.51
744.841	23102.51
745.181	23170.08
745.52	23069.07
745.86	23143.19
746.199	23095.28
746.538	22999.47
746.877	23080.37
747.216	23102.29
747.556	22945.23
747.895	22991.56
748.234	22905.91
748.573	22870.66
748.911	22825.69
749.25	22813.93
749.589	22681.96
749.928	22723.31
750.267	22707.72
750.605	22681.28
750.944	22600.61
751.283	22543.21
751.621	22544.34
751.96	22533.04
752.298	22398.58
752.636	22448.75
752.975	22243.55
753.313	22307.05
753.651	22335.75
753.989	22175.98
754.327	22266.83
754.666	22062.32
755.004	22122.65
755.342	22111.58
755.679	22037.01
756.017	21962.66
756.355	22015.08
756.693	21811.02
757.031	21947.06
757.368	21707.97
757.706	21754.3
758.044	21676.79
758.381	21606.28
758.719	21590.24
759.056	21591.14
759.394	21383.92
759.731	21335.78
760.068	21366.74
760.405	21246.97
760.743	21200.87
761.08	21299.62
761.417	21070.25
761.754	21029.8
762.091	20916.36
762.428	20896.92
762.765	20758.39
763.102	20898.73
763.438	20781.67
763.775	20679.75
764.112	20676.36
764.449	20676.59
764.785	20633.65
765.122	20323.15
765.458	20347.33
765.795	20367.22
766.131	20287.22
766.467	20272.98
766.804	20115.47
767.14	20070.28
767.476	20105.3
767.812	19957.74
768.148	20023.05
768.485	19875.25
768.821	19827.12
769.157	19711.19
769.492	19681.59
769.828	19654.7
770.164	19521.37
770.5	19454.25
770.836	19409.96
771.171	19317.75
771.507	19197.98
771.842	19117.31
772.178	19149.17
772.513	19106.46
772.849	19003.41
773.184	18915.28
773.519	18843.87
773.855	18831.21
774.19	18867.6
774.525	18757.32
774.86	18646.59
775.195	18703.53
775.53	18653.59
775.865	18428.74
776.2	18365.01
776.535	18174.73
776.87	18111.23
777.205	18132.48
777.539	18125.47
777.874	18123.66
778.209	17817
778.543	17875.31
778.878	17902.2
779.212	17805.25
779.547	17667.63
779.881	17708.53
780.215	17550.12
780.55	17584.69
780.884	17481.87
781.218	17391.48
781.552	17349.22
781.886	17389.9
782.22	17210.47
782.554	17167.3
782.888	16903.58
783.222	16998.27
783.556	16869.91
783.889	16931.6
784.223	16758.5
784.557	16800.98
784.89	16651.61
785.224	16598.05
785.557	16632.18
785.891	16467.43
786.224	16448.68
786.558	16448.23
786.891	16317.83
787.224	16193.09
787.557	16187.22
787.891	16199.42
788.224	16240.1
788.557	16128.23
788.89	16059.54
789.223	16080.1
789.556	15904.29
789.888	15886.66
790.221	15754.91
790.554	15738.87
790.887	15711.97
791.219	15626.1
791.552	15686.44
791.884	15451.87
792.217	15531.41
792.549	15425.43
792.882	15334.81
793.214	15253
793.546	15315.37
793.879	15232.44
794.211	15185.43
794.543	15227.69
794.875	15059.11
795.207	15021.82
795.539	15036.74
795.871	14975.04
796.203	14851.21
796.535	14811.66
796.867	14818.66
797.198	14681.72
797.53	14779.34
797.862	14601.95
798.193	14657.76
798.525	14437.43
798.856	14518.78
799.188	14449.41
799.519	14401.05
799.85	14227.95
800.182	14400.37
800.513	14322.63
800.844	14194.5
801.175	14203.99
801.506	14215.29
801.837	14110.66
802.168	14020.49
802.499	13998.12
802.83	13993.37
803.161	13949.31
803.491	13932.81
803.822	13853.04
804.153	13883.32
804.483	13689.43
804.814	13634.97
805.145	13604.68
805.475	13702.08
805.805	13586.61
806.136	13539.83
806.466	13545.25
806.796	13520.62
807.126	13405.82
807.457	13399.49
807.787	13400.85
808.117	13292.15
808.447	13310.91
808.777	13325.82
809.107	13263.9
809.436	13221.19
809.766	13196.56
810.096	13191.59
810.426	13114.3
810.755	13092.61
811.085	13087.18
811.414	13039.5
811.744	12926.28
812.073	12886.51
812.403	12858.04
812.732	12845.61
813.061	12824.82
813.39	12778.94
813.719	12724.03
814.049	12822.11
814.378	12771.26
814.707	12640.64
815.036	12644.48
815.365	12538.5
815.693	12475
816.022	12465.96
816.351	12480.19
816.68	12420.08
817.008	12478.16
817.337	12370.59
817.665	12262.8
817.994	12258.51
818.322	12303.7
818.651	12155.23
818.979	12268.9
819.307	12238.62
819.636	12165.17
819.964	12104.16
820.292	12148.45
820.62	12106.64
820.948	12064.16
821.276	12128.79
821.604	12061
821.932	12085.18
822.259	12029.36
822.587	12070.04
822.915	12024.61
823.243	12066.42
823.57	11985.97
823.898	11938.74
824.225	11971.06
824.553	11972.64
824.88	11939.42
825.207	12043.37
825.535	11948.01
825.862	11999.08
826.189	12006.76
826.516	12034.78
826.843	12042.92
827.17	11983.03
827.497	12083.82
827.824	12054.89
828.151	11958.63
828.478	11956.37
828.805	12074.56
829.131	11973.09
829.458	12037.95
829.785	11910.94
830.111	11905.97
830.438	12119.75
830.764	11918.18
831.09	11934.45
831.417	11880.21
831.743	11908.91
832.069	11965.41
832.395	11976.93
832.722	11928.34
833.048	11912.3
833.374	11955.24
833.7	11833.21
834.026	11967.44
834.351	11879.08
834.677	11816.71
835.003	11924.28
835.329	11868.01
835.654	11851.28
835.98	11795.01
836.306	11781.68
836.631	11820.32
836.956	11705.3
837.282	11785.98
837.607	11720.67
837.932	11683.61
838.258	11692.19
838.583	11711.63
838.908	11606.09
839.233	11647.67
839.558	11577.39
839.883	11568.81
840.208	11547.79
840.533	11464.4
840.858	11507.11
841.182	11512.76
841.507	11437.06
841.832	11435.25
842.156	11391.41
842.481	11304.63
842.805	11363.84
843.13	11347.79
843.454	11315.25
843.778	11299.21
844.103	11281.13
844.427	11163.17
844.751	11247.68
845.075	11178.31
845.399	11125.2
845.723	11141.25
846.047	11112.09
846.371	11047.92
846.695	10990.29
847.019	10855.83
847.343	10876.39
847.666	10831.65
847.99	10786.68
848.313	10781.26
848.637	10668.26
848.96	10696.06
849.284	10651.54
849.607	10535.16
849.931	10588.49
850.254	10429.17
850.577	10436.41
850.9	10341.27
851.223	10397.54
851.546	10384.43
851.869	10230.99
852.192	10325.22
852.515	10209.75
852.838	10145.34
853.161	10129.97
853.483	10152.8
853.806	10011.78
854.129	10099.01
854.451	9949.64
854.774	9901.96
855.096	9896.53
855.419	9947.83
855.741	9903.99
856.063	9814.05
856.385	9784.9
856.708	9733.6
857.03	9711.68
857.352	9740.15
857.674	9739.93
857.996	9689.99
858.318	9590.1
858.64	9621.74
858.961	9592.36
859.283	9514.62
859.605	9439.37
859.926	9535.19
860.248	9473.04
860.57	9328.86
860.891	9488.63
861.212	9391.01
861.534	9378.36
861.855	9313.5
862.176	9317.57
862.498	9302.65
862.819	9385.59
863.14	9345.81
863.461	9274.4
863.782	9253.39
864.103	9254.06
864.424	9224.46
864.745	9222.2
865.065	9209.09
865.386	9144.46
865.707	9105.37
866.027	9202.77
866.348	9111.47
866.668	9098.59
866.989	9114.41
867.309	9012.04
867.63	9059.27
867.95	9044.13
868.27	8997.8
868.59	9018.59
868.91	9062.88
869.23	9000.51
869.55	8944.47
869.87	8988.31
870.19	8936.33
870.51	8952.15
870.83	8914.64
871.15	8832.15
871.469	8876.67
871.789	8886.84
872.109	8862.66
872.428	8780.18
872.748	8848.2
873.067	8820.4
873.386	8876
873.706	8788.31
874.025	8761.87
874.344	8703.34
874.663	8748.99
874.982	8807.97
875.301	8699.05
875.62	8706.51
875.939	8602.33
876.258	8666.28
876.577	8606.17
876.896	8659.96
877.214	8622.89
877.533	8578.15
877.852	8542.44
878.17	8611.82
878.489	8567.75
878.807	8577.02
879.125	8517.36
879.444	8508.32
879.762	8498.83
880.08	8538.6
880.398	8456.12
880.716	8468.55
881.034	8398.49
881.352	8349.91
881.67	8376.57
881.988	8353.98
882.306	8375.44
882.624	8336.8
882.941	8317.82
883.259	8247.54
883.577	8273.07
883.894	8226.29
884.212	8192.62
884.529	8212.06
884.846	8181.78
885.164	8205.96
885.481	8130.25
885.798	8139.07
886.115	8085.96
886.432	8118.28
886.75	8085.51
887.067	8083.7
887.383	8045.96
887.7	8043.47
888.017	8031.27
888.334	8002.35
888.651	7984.95
888.967	8013.42
889.284	7952.86
889.6	7925.51
889.917	7838.28
890.233	7854.1
890.55	7866.3
890.866	7843.03
891.182	7875.12
891.498	7768.68
891.815	7719.64
892.131	7693.43
892.447	7685.52
892.763	7642.81
893.079	7640.55
893.395	7628.34
893.71	7660.89
894.026	7579.76
894.342	7577.5
894.657	7547.67
894.973	7530.04
895.289	7514.45
895.604	7484.62
895.92	7393.77
896.235	7403.72
896.55	7396.94
896.865	7416.82
897.181	7365.3
897.496	7372.31
897.811	7314.68
898.126	7336.83
898.441	7246.21
898.756	7228.58
899.071	7234.91
899.386	7193.33
899.7	7142.26
900.015	7108.81
900.33	7059.32
900.644	7095.25
900.959	7049.83
901.273	7073.33
901.588	7001.92
901.902	6988.59
902.216	6959.44
902.531	6956.27
902.845	6946.33
903.159	6838.53
903.473	6876.95
903.787	6820.46
904.101	6782.04
904.415	6782.27
904.729	6757.63
905.042	6695.26
905.356	6662.27
905.67	6692.32
905.984	6655.26
906.297	6623.4
906.611	6595.83
906.924	6569.62
907.237	6560.35
907.551	6570.97
907.864	6517.87
908.177	6527.13
908.491	6434.7
908.804	6388.6
909.117	6429.96
909.43	6403.29
909.743	6326.23
910.056	6339.34
910.368	6314.03
910.681	6300.02
910.994	6265.89
911.307	6271.09
911.619	6199.91
911.932	6199.46
912.244	6165.78
912.557	6146.35
912.869	6102.06
913.181	6135.28
913.494	6131.89
913.806	6053.7
914.118	6044.66
914.43	5979.35
914.742	5960.14
915.054	5945.68
915.366	5942.97
915.678	5922.85
915.99	5837.88
916.302	5869.75
916.613	5805.79
916.925	5825.91
917.236	5786.13
917.548	5766.92
917.859	5773.48
918.171	5740.71
918.482	5726.02
918.794	5658.9
919.105	5606.02
919.416	5610.77
919.727	5575.97
920.038	5622.52
920.349	5613.26
920.66	5521.96
920.971	5508.17
921.282	5478.34
921.593	5442.41
921.903	5461.4
922.214	5378.46
922.525	5418.23
922.835	5395.63
923.146	5335.3
923.456	5321.74
923.767	5345.47
924.077	5347.5
924.387	5227.73
924.697	5207.84
925.008	5198.13
925.318	5202.65
925.628	5158.81
925.938	5137.79
926.248	5056.43
926.558	5147.96
926.867	5090.56
927.177	5040.39
927.487	5060.28
927.796	4916.33
928.106	5021.41
928.416	5034.29
928.725	4957.68
929.034	4967.4
929.344	4917.46
929.653	4907.51
929.962	4862.77
930.271	4853.28
930.581	4838.14
930.89	4779.38
931.199	4750.45
931.508	4789.55
931.817	4756.1
932.125	4724.92
932.434	4709.1
932.743	4727.18
933.051	4649.89
933.36	4674.98
933.669	4621.87
933.977	4605.6
934.286	4546.62
934.594	4580.74
934.902	4549.33
935.21	4563.57
935.519	4526.96
935.827	4488.54
936.135	4514.75
936.443	4485.6
936.751	4439.73
937.059	4418.71
937.367	4411.25
937.674	4440.63
937.982	4382.33
938.29	4353.4
938.597	4391.37
938.905	4305.95
939.213	4284.03
939.52	4299.84
939.827	4226.17
940.135	4239.06
940.442	4205.84
940.749	4191.37
941.056	4244.25
941.363	4151.6
941.67	4099.4
941.977	4138.27
942.284	4135.78
942.591	4072.28
942.898	4099.17
943.205	4065.05
943.511	4037.7
943.818	3992.73
944.125	4003.58
944.431	4028.21
944.738	3996.35
945.044	3993.41
945.35	3923.36
945.657	3945.05
945.963	3912.28
946.269	3910.02
946.575	3900.53
946.881	3833.64
947.187	3839.29
947.493	3875.45
947.799	3840.42
948.105	3791.84
948.41	3806.98
948.716	3806.98
949.022	3720.88
949.327	3723.59
949.633	3670.03
949.938	3707.54
950.244	3695.34
950.549	3668.67
950.854	3617.83
951.16	3612.86
951.465	3608.79
951.77	3615.34
952.075	3565.85
952.38	3618.51
952.685	3598.17
952.99	3545.29
953.294	3562.01
953.599	3515.23
953.904	3506.42
954.209	3491.05
954.513	3486.31
954.818	3477.27
955.122	3467.55
955.426	3449.25
955.731	3412.64
956.035	3374.45
956.339	3391.85
956.643	3355.01
956.948	3353.2
957.252	3352.07
957.556	3321.57
957.86	3353.65
958.163	3286.31
958.467	3274.11
958.771	3255.35
959.075	3280.44
959.378	3232.75
959.682	3208.57
959.985	3243.15
960.289	3220.32
960.592	3186.2
960.896	3193.88
961.199	3151.4
961.502	3160.21
961.805	3149.59
962.108	3124.73
962.411	3095.36
962.714	3136.49
963.017	3111.63
963.32	3123.6
963.623	3065.53
963.926	3055.58
964.228	3042.93
964.531	2991.4
964.833	3023.27
965.136	2972.87
965.438	3007.45
965.741	2993.21
966.043	2944.17
966.345	2959.99
966.648	2931.52
966.95	2893.1
967.252	2881.35
967.554	2898.75
967.856	2864.63
968.158	2870.96
968.46	2855.36
968.761	2826.89
969.063	2839.77
969.365	2786.21
969.666	2802.48
969.968	2798.19
970.269	2762.71
970.571	2757.29
970.872	2771.07
971.174	2753.67
971.475	2743.5
971.776	2727.46
972.077	2709.15
972.378	2732.65
972.679	2696.95
972.98	2690.4
973.281	2672.54
973.582	2625.31
973.883	2658.76
974.183	2628.7
974.484	2646.1
974.785	2622.6
975.085	2590.96
975.386	2605.2
975.686	2563.39
975.986	2577.4
976.287	2563.39
976.587	2540.79
976.887	2549.38
977.187	2529.5
977.487	2520
977.787	2508.25
978.087	2464.19
978.387	2479.1
978.687	2466.45
978.987	2467.12
979.286	2420.35
979.586	2449.72
979.885	2413.79
980.185	2382.38
980.484	2400.69
980.784	2398.43
981.083	2393.91
981.382	2378.99
981.682	2344.87
981.981	2374.7
982.28	2385.77
982.579	2317.52
982.878	2345.32
983.177	2284.08
983.475	2275.49
983.774	2297.19
984.073	2298.54
984.372	2258.32
984.67	2288.82
984.969	2257.19
985.267	2251.76
985.566	2221.93
985.864	2201.37
986.162	2236.62
986.461	2204.08
986.759	2195.49
987.057	2194.36
987.355	2185.55
987.653	2183.52
987.951	2140.35
988.249	2188.49
988.547	2134.7
988.844	2144.42
989.142	2135.16
989.44	2129.96
989.737	2098.32
990.035	2103.29
990.332	2088.6
990.63	2074.37
990.927	2057.64
991.224	2058.77
991.521	2053.35
991.819	2056.97
992.116	2026.01
992.413	2048.83
992.71	2020.36
993.006	2035.27
993.303	1994.37
993.6	1995.5
993.897	1999.79
994.193	1980.58
994.49	1962.96
994.787	1922.73
995.083	1946.01
995.379	1933.81
995.676	1907.59
995.972	1923.18
996.268	1903.52
996.565	1896.07
996.861	1886.57
997.157	1875.95
997.453	1866.46
997.749	1840.7
998.044	1868.95
998.34	1863.98
998.636	1816.07
998.932	1819.01
999.227	1809.51
999.523	1807.48
999.818	1806.12
1000.114	1791.44
1000.409	1793.02
1000.704	1755.96
1001	1730.42
1001.295	1762.28
1001.59	1723.87
1001.885	1760.48
1002.18	1733.81
1002.475	1722.51
1002.77	1713.7
1003.065	1704.88
1003.359	1710.08
1003.654	1669.86
1003.949	1670.08
1004.243	1672.79
1004.538	1665.11
1004.832	1672.79
1005.127	1660.59
1005.421	1640.71
1005.715	1626.69
1006.009	1630.54
1006.304	1641.16
1006.598	1594.38
1006.892	1591.67
1007.186	1581.27
1007.48	1569.97
1007.773	1580.82
1008.067	1556.41
1008.361	1558
1008.655	1537.88
1008.948	1514.83
1009.242	1525.91
1009.535	1521.61
1009.829	1506.02
1010.122	1495.85
1010.415	1489.97
1010.708	1477.55
1011.001	1474.38
1011.295	1493.59
1011.588	1481.84
1011.881	1438
1012.173	1445.68
1012.466	1431.45
1012.759	1414.95
1013.052	1442.29
1013.344	1409.98
1013.637	1361.84
1013.93	1391.9
1014.222	1388.28
1014.514	1355.74
1014.807	1338.79
1015.099	1363.88
1015.391	1361.16
1015.683	1351.22
1015.976	1337.66
1016.268	1335.18
1016.56	1320.71
1016.851	1333.14
1017.143	1301.05
1017.435	1299.47
1017.727	1295.18
1018.018	1297.21
1018.31	1268.29
1018.602	1276.2
1018.893	1263.77
1019.185	1274.84
1019.476	1244.33
1019.767	1254.73
1020.058	1243.88
1020.35	1203.65
1020.641	1209.76
1020.932	1220.38
1021.223	1203.2
1021.514	1190.77
1021.804	1155.52
1022.095	1191
1022.386	1179.02
1022.677	1159.36
1022.967	1173.83
1023.258	1154.62
1023.548	1120.95
1023.839	1139.7
1024.129	1139.25
1024.419	1138.12
1024.709	1136.99
1025	1130.66
1025.29	1112.58
1025.58	1111.91
1025.87	1097.89
1026.16	1111.23
1026.449	1086.6
1026.739	1042.98
1027.029	1046.82
1027.319	1038.91
1027.608	1022.19
1027.898	1014.96
1028.187	1041.85
1028.477	1048.86
1028.766	1034.39
1029.055	1024.68
1029.344	983.32
1029.634	1008.18
1029.923	1003.21
1030.212	979.48
1030.501	976.99
1030.79	976.54
1031.078	948.52
1031.367	980.61
1031.656	965.47
1031.945	955.53
1032.233	942.42
1032.522	948.07
1032.81	953.49
1033.099	929.76
1033.387	946.94
1033.675	952.36
1033.963	919.59
1034.251	914.4
1034.54	921.18
1034.828	894.74
1035.116	898.8
1035.403	887.05
1035.691	897
1035.979	899.26
1036.267	870.56
1036.554	865.13
1036.842	864
1037.129	867.17
1037.417	849.77
1037.704	842.76
1037.992	850.67
1038.279	842.99
1038.566	839.37
1038.853	839.37
1039.14	839.37
