Data from hue_24_FLMS001491_00078.txt Node
Date: Tue Feb 07 17:12:45 GMT 2017
User: dcchb
Spectrometer: FLMS00149
Trigger mode: 0
Integration Time (sec): 2.000000E-2
Scans to average: 10
Electric dark correction enabled: true
Nonlinearity correction enabled: false
Boxcar width: 0
XAxis mode: Wavelengths
Number of Pixels in Spectrum: 2048
>>>>>Begin Spectral Data<<<<<
341.393	-0.49
341.776	-0.49
342.16	-0.49
342.543	-61.51
342.927	-56.54
343.31	-73.71
343.693	-66.26
344.077	-59.02
344.46	-59.48
344.843	-67.39
345.226	-38.46
345.61	-46.82
345.993	-17.44
346.376	-29.42
346.759	4.48
347.142	15.32
347.525	51.03
347.908	62.78
348.291	86.51
348.674	106.4
349.057	131.48
349.44	143.46
349.823	161.54
350.206	189.11
350.588	195.43
350.971	226.39
351.354	234.08
351.737	244.47
352.119	241.99
352.502	263.23
352.884	298.93
353.267	290.35
353.65	290.35
354.032	294.64
354.414	300.29
354.797	326.73
355.179	321.98
355.562	301.19
355.944	338.48
356.326	346.62
356.709	358.59
357.091	337.8
357.473	335.77
357.855	340.74
358.238	364.24
358.62	347.75
359.002	352.49
359.384	332.38
359.766	336.45
360.148	346.84
360.53	321.08
360.912	360.4
361.294	342.32
361.676	346.16
362.057	328.54
362.439	337.35
362.821	344.36
363.203	344.13
363.584	326.95
363.966	344.36
364.348	345.26
364.729	334.64
365.111	333.96
365.493	320.63
365.874	326.73
366.256	306.16
366.637	315.2
367.019	316.56
367.4	310.91
367.781	305.71
368.163	333.51
368.544	329.21
368.925	321.31
369.306	326.28
369.688	316.33
370.069	312.04
370.45	324.69
370.831	310.46
371.212	324.02
371.593	314.3
371.974	336.22
372.355	333.06
372.736	317.01
373.117	331.25
373.498	327.63
373.879	314.75
374.26	325.15
374.641	311.59
375.021	323.56
375.402	317.01
375.783	325.6
376.163	327.63
376.544	321.53
376.925	318.37
377.305	322.89
377.686	341.19
378.066	350.46
378.447	345.94
378.827	359.95
379.208	334.86
379.588	330.12
379.968	322.21
380.349	328.99
380.729	347.97
381.109	334.41
381.489	344.81
381.87	326.73
382.25	333.96
382.63	343.23
383.01	336.45
383.39	334.64
383.77	338.93
384.15	352.04
384.53	365.15
384.91	357.46
385.29	349.33
385.67	359.95
386.049	367.63
386.429	352.49
386.809	365.6
387.189	359.5
387.568	353.17
387.948	359.72
388.328	340.51
388.707	358.82
389.087	363.56
389.466	366.95
389.846	362.43
390.225	357.91
390.605	363.34
390.984	378.48
391.363	379.38
391.743	373.51
392.122	383
392.501	382.09
392.881	354.52
393.26	378.25
393.639	378.7
394.018	383
394.397	368.99
394.776	394.98
395.155	387.97
395.534	375.99
395.913	391.13
396.292	375.09
396.671	385.03
397.05	370.34
397.429	397.01
397.808	397.46
398.186	384.13
398.565	401.08
398.944	403.11
399.323	392.94
399.701	394.3
400.08	404.24
400.458	406.73
400.837	391.81
401.215	388.2
401.594	409.21
401.972	414.18
402.351	404.47
402.729	429.1
403.107	427.97
403.486	426.61
403.864	432.26
404.242	412.83
404.62	417.35
404.999	420.74
405.377	418.03
405.755	420.06
406.133	409.66
406.511	432.26
406.889	432.04
407.267	440.4
407.645	451.25
408.023	434.75
408.401	452.15
408.779	443.11
409.156	452.15
409.534	460.28
409.912	445.37
410.29	470.23
410.667	447.86
411.045	467.29
411.422	466.16
411.8	464.58
412.178	479.04
412.555	477.01
412.933	468.87
413.31	484.69
413.687	500.96
414.065	481.3
414.442	495.99
414.819	484.24
415.197	493.73
415.574	485.82
415.951	514.75
416.328	512.49
416.705	522.43
417.082	495.76
417.46	510.45
417.837	503.9
418.214	517.46
418.591	516.55
418.967	510.45
419.344	505.93
419.721	524.24
420.098	526.95
420.475	527.4
420.852	531.92
421.228	535.31
421.605	546.61
421.982	530.11
422.358	545.25
422.735	540.06
423.111	554.52
423.488	573.28
423.864	552.49
424.241	571.92
424.617	562.43
424.994	571.24
425.37	588.42
425.746	561.98
426.123	593.39
426.499	591.58
426.875	566.95
427.251	608.53
427.627	595.87
428.003	595.65
428.379	580.51
428.756	602.2
429.132	625.03
429.507	601.3
429.883	611.24
430.259	638.13
430.635	637.68
431.011	654.18
431.387	665.25
431.763	652.14
432.138	637
432.514	640.62
432.89	647.62
433.265	678.58
433.641	685.36
434.016	664.8
434.392	688.3
434.767	697.34
435.143	681.52
435.518	703.44
435.894	704.8
436.269	683.56
436.644	702.76
437.02	712.71
437.395	717.23
437.77	748.86
438.145	730.33
438.52	733.05
438.895	763.55
439.271	751.12
439.646	758.81
440.021	783.67
440.395	754.29
440.77	753.61
441.145	777.34
441.52	781.41
441.895	791.35
442.27	782.76
442.645	770.78
443.019	782.54
443.394	812.14
443.769	783.89
444.143	812.37
444.518	806.04
444.892	790.67
445.267	790.22
445.641	833.61
446.016	825.7
446.39	841.97
446.764	820.28
447.139	842.2
447.513	851.01
447.887	841.07
448.262	854.85
448.636	854.17
449.01	848.97
449.384	868.64
449.758	869.99
450.132	862.53
450.506	884.91
450.88	892.36
451.254	887.39
451.628	892.14
452.002	895.75
452.376	912.02
452.75	910.44
453.123	918.8
453.497	945.02
453.871	973.94
454.244	962.87
454.618	986.82
454.992	956.54
455.365	964.68
455.739	1011.91
456.112	1011.91
456.486	1020.95
456.859	1009.2
457.232	1027.95
457.606	1043.77
457.979	1038.12
458.352	1065.24
458.725	1074.73
459.099	1084.9
459.472	1094.62
459.845	1119.93
460.218	1093.94
460.591	1086.26
460.964	1124.22
461.337	1143.88
461.71	1182.75
462.083	1177.1
462.456	1178.91
462.829	1180.27
463.201	1198.34
463.574	1204.45
463.947	1233.6
464.32	1252.13
464.692	1247.61
465.065	1267.27
465.438	1272.01
465.81	1300.49
466.183	1305.69
466.555	1353.37
466.928	1341.62
467.3	1322.18
467.672	1350.88
468.045	1389.3
468.417	1404.21
468.789	1387.72
469.161	1425.68
469.534	1450.99
469.906	1459.58
470.278	1507.26
470.65	1502.52
471.022	1554.94
471.394	1562.4
471.766	1563.98
472.138	1599.92
472.51	1609.86
472.882	1631.78
473.253	1643.08
473.625	1675.39
473.997	1721.49
474.369	1726.01
474.74	1770.76
475.112	1769.85
475.484	1843.3
475.855	1870.42
476.227	1882.62
476.598	1935.5
476.97	1953.13
477.341	1976.63
477.713	2002.39
478.084	2024.76
478.455	2130.75
478.827	2112.9
479.198	2147.7
479.569	2167.58
479.94	2235.83
480.311	2245.1
480.682	2307.24
481.053	2365.09
481.424	2418.2
481.795	2429.27
482.166	2505.43
482.537	2511.3
482.908	2582.04
483.279	2618.19
483.65	2674.46
484.021	2714.24
484.391	2748.13
484.762	2809.83
485.133	2843.72
485.503	2898.86
485.874	2901.58
486.244	2959.2
486.615	2992.42
486.985	3082.59
487.356	3153.32
487.726	3153.1
488.097	3268.12
488.467	3248.91
488.837	3334.11
489.207	3411.39
489.578	3433.54
489.948	3466.99
490.318	3531.39
490.688	3547.89
491.058	3613.87
491.428	3692.29
491.798	3688.45
492.168	3770.48
492.538	3832.85
492.908	3864.04
493.278	3948.55
493.648	3918.27
494.017	3992.62
494.387	3982
494.757	4027.87
495.126	4120.3
495.496	4159.17
495.866	4146.97
496.235	4225.61
496.605	4206.63
496.974	4294.31
497.344	4285.49
497.713	4377.47
498.082	4426.51
498.452	4472.83
498.821	4462.67
499.19	4472.16
499.559	4549.89
499.928	4602.32
500.298	4572.72
500.667	4671.47
501.036	4631.02
501.405	4739.27
501.774	4699.04
502.143	4713.73
502.512	4807.06
502.88	4816.33
503.249	4777.46
503.618	4861.3
503.987	4919.38
504.356	4930.45
504.724	4954.4
505.093	4963.44
505.462	4960.05
505.83	5068.75
506.199	5045.47
506.567	5094.29
506.936	5102.42
507.304	5176.32
507.672	5162.99
508.041	5197.11
508.409	5266.94
508.777	5254.06
509.145	5320.72
509.514	5329.76
509.882	5292.93
510.25	5375.64
510.618	5404.56
510.986	5399.82
511.354	5436.2
511.722	5463.32
512.09	5523.43
512.458	5539.47
512.826	5509.42
513.193	5575.18
513.561	5576.08
513.929	5615.63
514.297	5626.7
514.664	5692.92
515.032	5706.7
515.4	5716.64
515.767	5745.8
516.135	5783.99
516.502	5757.32
516.869	5814.72
517.237	5905.57
517.604	5899.01
517.972	5877.32
518.339	5892.01
518.706	5958.9
519.073	5940.37
519.44	5925.68
519.808	6021.04
520.175	5992.34
520.542	6132.9
520.909	6068.5
521.276	6101.27
521.643	6130.42
522.009	6195.95
522.376	6234.37
522.743	6273.01
523.11	6314.14
523.477	6377.64
523.843	6379
524.21	6455.83
524.577	6459
524.943	6499
525.31	6531.76
525.676	6578.99
526.043	6697.41
526.409	6631.2
526.776	6725.43
527.142	6684.75
527.508	6770.63
527.874	6806.78
528.241	6813.79
528.607	6814.92
528.973	6850.85
529.339	6869.38
529.705	6983.05
530.071	7023.5
530.437	7023.28
530.803	7034.57
531.169	7125.42
531.535	7081.35
531.901	7082.48
532.267	7138.53
532.632	7225.53
532.998	7242.48
533.364	7298.75
533.73	7323.38
534.095	7361.12
534.461	7437.05
534.826	7432.08
535.192	7449.71
535.557	7506.43
535.923	7536.03
536.288	7608.12
536.653	7537.39
537.019	7525.41
537.384	7618.29
537.749	7655.35
538.114	7624.62
538.479	7672.75
538.845	7700.55
539.21	7718.4
539.575	7761.79
539.94	7775.12
540.305	7847.43
540.67	7830.26
541.034	7868.23
541.399	7943.48
541.764	7960.65
542.129	7944.38
542.494	8063.93
542.858	8051.95
543.223	8085.17
543.587	8065.96
543.952	8121.33
544.316	8122.46
544.681	8191.61
545.045	8164.49
545.41	8303.69
545.774	8285.39
546.138	8286.52
546.503	8322.68
546.867	8365.84
547.231	8407.65
547.595	8455.78
547.959	8483.35
548.324	8502.11
548.688	8495.78
549.052	8551.6
549.416	8541.88
549.779	8599.73
550.143	8545.95
550.507	8672.5
550.871	8699.39
551.235	8724.93
551.599	8768.31
551.962	8720.86
552.326	8796.34
552.689	8854.87
553.053	8858.71
553.417	8811.48
553.78	9007.86
554.143	8946.62
554.507	9008.99
554.87	9041.98
555.234	9150
555.597	8996.11
555.96	9105.25
556.323	9179.38
556.686	9197.23
557.05	9222.77
557.413	9258.02
557.776	9281.97
558.139	9293.5
558.502	9333.05
558.865	9278.13
559.228	9366.49
559.59	9418.47
559.953	9435.87
560.316	9555.86
560.679	9510.89
561.041	9601.51
561.404	9593.15
561.767	9644.68
562.129	9619.82
562.492	9656.65
562.854	9740.49
563.217	9736.2
563.579	9773.49
563.941	9833.82
564.304	9904.78
564.666	9939.58
565.028	10028.17
565.39	9968.96
565.753	10052.8
566.115	10053.25
566.477	10061.61
566.839	10118.79
567.201	10239.91
567.563	10160.59
567.925	10207.15
568.287	10248.73
568.648	10247.15
569.01	10325.79
569.372	10388.16
569.734	10371.21
570.095	10500.7
570.457	10486.24
570.819	10495.5
571.18	10454.6
571.542	10556.74
571.903	10615.5
572.265	10713.35
572.626	10719
572.987	10785.66
573.349	10912.21
573.71	10864.98
574.071	11018.2
574.432	11026.11
574.794	11122.83
575.155	11068.59
575.516	11119.21
575.877	11245.54
576.238	11271.75
576.599	11368.02
576.96	11428.58
577.32	11524.85
577.681	11617.05
578.042	11667.45
578.403	11709.03
578.763	11925.97
579.124	12017.27
579.485	12028.57
579.845	12191.95
580.206	12269.69
580.566	12335
580.927	12550.81
581.287	12703.8
581.648	12726.85
582.008	12882.1
582.368	13032.38
582.728	13160.06
583.089	13320.96
583.449	13450
583.809	13579.49
584.169	13840.72
584.529	13959.59
584.889	14177.21
585.249	14215.63
585.609	14455.62
585.969	14789.4
586.329	14813.81
586.688	15164.98
587.048	15247.47
587.408	15355.94
587.768	15727.23
588.127	15889.94
588.487	16083.15
588.846	16491.28
589.206	16589.58
589.565	16854.2
589.925	17254.65
590.284	17422.32
590.643	17735.31
591.003	18025.25
591.362	18247.61
591.721	18531
592.08	18799.01
592.44	19071.32
592.799	19459.11
593.158	19612.32
593.517	19876.72
593.876	20283.94
594.235	20489.14
594.593	20807.32
594.952	21112.85
595.311	21419.28
595.67	21750.35
596.029	22151.47
596.387	22435.98
596.746	22852.46
597.104	22940.82
597.463	23291.1
597.822	23705.1
598.18	23924.98
598.538	24187.57
598.897	24607.67
599.255	24625.3
599.613	25251.5
599.972	25442.45
600.33	25709.34
600.688	25861.65
601.046	26386.38
601.404	26716.54
601.762	26896.43
602.12	27369.18
602.478	27628.16
602.836	27869.96
603.194	27984.31
603.552	28505.65
603.91	28516.72
604.268	28933.21
604.625	29193.99
604.983	29593.08
605.341	29743.81
605.698	30070.35
606.056	30438.71
606.413	30702.65
606.771	30869.65
607.128	31152.81
607.485	31173.83
607.843	31612.23
608.2	31941.04
608.557	32279.33
608.914	32311.2
609.272	32686.78
609.629	32908.7
609.986	33196.15
610.343	33170.61
610.7	33745.06
611.057	33789.35
611.414	33978.5
611.771	34108.44
612.127	34494.64
612.484	34779.16
612.841	34883.33
613.198	35009.43
613.554	35214.85
613.911	35626.14
614.267	35767.83
614.624	35833.82
614.98	35891.9
615.337	36317.42
615.693	36334.82
616.05	36642.61
616.406	36965.77
616.762	37025.65
617.118	37003.73
617.475	37336.15
617.831	37453.44
618.187	37579.76
618.543	37691.4
618.899	38053.42
619.255	38122.12
619.611	38263.36
619.967	38453.41
620.323	38623.8
620.678	38623.35
621.034	38631.71
621.39	38881.65
621.746	38957.8
622.101	39332.26
622.457	39263.78
622.812	39405.02
623.168	39583.55
623.523	39683.21
623.879	39819.48
624.234	39740.61
624.589	39988.74
624.945	40087.04
625.3	40154.16
625.655	40137.89
626.01	40334.94
626.365	40309.41
626.72	40377.43
627.075	40442.74
627.43	40608.38
627.785	40461.27
628.14	40625.78
628.495	40666.68
628.85	40719.11
629.205	40522.96
629.559	40864.87
629.914	40747.81
630.269	40793.24
630.623	40763.86
630.978	40779.45
631.332	41010.4
631.687	41115.26
632.041	40948.26
632.396	41139.67
632.75	40991.42
633.104	41162.72
633.459	41004.98
633.813	41049.05
634.167	41157.07
634.521	41181.7
634.875	41233
635.229	41242.49
635.583	41076.62
635.937	41008.14
636.291	41040.23
636.645	41309.83
636.999	41063.51
637.352	41226.67
637.706	41031.42
638.06	41233.22
638.413	41183.28
638.767	40953.91
639.121	41175.15
639.474	40969.5
639.828	41062.15
640.181	41065.54
640.534	41193.45
640.888	41059.89
641.241	40825.1
641.594	41026
641.947	41134.47
642.301	40931.76
642.654	41098.54
643.007	41163.62
643.36	40985.77
643.713	41053.12
644.066	41196.39
644.419	40942.16
644.771	40727.25
645.124	40322.29
645.477	40334.72
645.83	40160.48
646.182	40074.84
646.535	39962.07
646.888	40111.22
647.24	39777.44
647.593	40115.29
647.945	39893.82
648.298	39800.27
648.65	39823.09
649.002	39568.18
649.355	39733.38
649.707	39720.04
650.059	40127.72
650.411	40443.87
650.763	40417.2
651.115	40707.36
651.467	40766.57
651.819	40735.84
652.171	40553.24
652.523	40387.14
652.875	40583.3
653.227	40454.49
653.578	40793.46
653.93	40580.36
654.282	40371.55
654.633	40371.78
654.985	40476.63
655.337	40510.98
655.688	40453.58
656.039	40676.63
656.391	40384.21
656.742	40285.23
657.094	40468.05
657.445	40567.48
657.796	40449.97
658.147	40324.77
658.498	40345.34
658.849	40580.81
659.2	40424.66
659.551	40304.43
659.902	40555.28
660.253	40432.11
660.604	40428.05
660.955	40307.37
661.306	40404.32
661.656	40272.57
662.007	40351.66
662.358	40502.85
662.708	40282.06
663.059	40318.67
663.409	40109.64
663.76	40333.13
664.11	40341.27
664.461	40369.74
664.811	40240.48
665.161	40409.06
665.511	40137.43
665.862	40348.73
666.212	40378.33
666.562	40268.96
666.912	40262.4
667.262	40287.94
667.612	40343.53
667.962	40326.35
668.312	40292.01
668.662	40374.72
669.011	40289.75
669.361	40139.92
669.711	40186.47
670.06	40115.96
670.41	40054.5
670.76	40015.63
671.109	40322.97
671.459	40134.95
671.808	40020.15
672.157	40166.81
672.507	39830.77
672.856	39847.95
673.205	39965.01
673.554	40123.87
673.904	39994.39
674.253	40150.31
674.602	40002.97
674.951	39387.4
675.3	39279.38
675.649	39901.51
675.998	39806.37
676.346	39859.25
676.695	39903.99
677.044	39684.11
677.393	39718.91
677.741	39946.7
678.09	39725.47
678.438	39644.11
678.787	39790.1
679.135	39755.3
679.484	39513.04
679.832	39656.99
680.181	39408.64
680.529	39594.85
680.877	39332.93
681.225	39303.56
681.573	39547.39
681.922	39340.84
682.27	39304.46
682.618	39342.65
682.966	39198.93
683.314	39247.06
683.661	39126.61
684.009	38948.54
684.357	38930.23
684.705	38751.26
685.053	38967.75
685.4	38838.48
685.748	38730.01
686.095	38673.97
686.443	38449.79
686.79	38502.9
687.138	38686.85
687.485	38689.34
687.832	38370.47
688.18	38422
688.527	38238.5
688.874	38182.23
689.221	38076.7
689.568	38051.61
689.915	38055
690.262	37925.29
690.609	37804.61
690.956	37597.61
691.303	37667.22
691.65	37493.21
691.997	37382.48
692.344	37364.17
692.69	37236.27
693.037	37216.61
693.383	36926.44
693.73	37089.6
694.077	36826.56
694.423	36871.53
694.769	36786.56
695.116	36677.41
695.462	36593.35
695.808	36503.4
696.155	36566.45
696.501	36340.47
696.847	36308.61
697.193	36193.13
697.539	36307.93
697.885	35964.66
698.231	35957.66
698.577	35941.16
698.923	35778
699.269	35716.08
699.614	35411.46
699.96	35451
700.306	35507.5
700.651	35329.65
700.997	35176.21
701.342	35145.93
701.688	35071.13
702.033	34997.68
702.379	34912.71
702.724	34848.76
703.069	34858.93
703.415	34451.71
703.76	34589.1
704.105	34588.2
704.45	34545.04
704.795	34396.79
705.14	34205.61
705.485	34173.52
705.83	34039.74
706.175	34132.17
706.52	34060.53
706.865	33937.82
707.209	33943.02
707.554	33732.63
707.899	33800.88
708.243	33585.52
708.588	33532.18
708.932	33328.35
709.277	33356.82
709.621	33297.61
709.966	33101.01
710.31	33315.69
710.654	32932.43
710.998	33044.51
711.342	32915.48
711.687	32888.13
712.031	32734.69
712.375	32616.28
712.719	32652.88
713.063	32663.05
713.407	32839.32
713.75	32491.98
714.094	32531.98
714.438	32346
714.782	32430.52
715.125	32146.23
715.469	32240.47
715.812	32220.58
716.156	32003.86
716.499	32119.11
716.843	32031.21
717.186	31898.33
717.53	32004.09
717.873	31908.72
718.216	31792.12
718.559	31855.84
718.902	31566.36
719.246	31621.73
719.589	31537.43
719.932	31397.55
720.275	31481.39
720.617	31433.93
720.96	31367.49
721.303	31272.36
721.646	31279.14
721.989	31134.73
722.331	31171.12
722.674	31057.9
723.016	30980.61
723.359	31034.85
723.701	31164.34
724.044	30928.64
724.386	30749.43
724.729	30915.53
725.071	30705.82
725.413	30697.46
725.755	30681.64
726.097	30551.02
726.439	30432.83
726.782	30449.78
727.124	30560.74
727.465	30341.53
727.807	30320.74
728.149	30250.01
728.491	30232.16
728.833	30235.32
729.175	30105.61
729.516	30128.88
729.858	30034.87
730.199	30083.91
730.541	30023.57
730.882	29981.32
731.224	29987.64
731.565	29786.29
731.906	29865.16
732.248	29847.08
732.589	29673.75
732.93	29624.04
733.271	29601.21
733.612	29682.12
733.953	29558.28
734.294	29549.46
734.635	29425.4
734.976	29508.33
735.317	29332.75
735.658	29385.63
735.999	29348.34
736.339	29426.53
736.68	29458.39
737.021	29403.7
737.361	29155.58
737.702	29239.87
738.042	29092.53
738.383	29131.17
738.723	29098.85
739.063	28966.43
739.404	29106.54
739.744	28997.61
740.084	28716.94
740.424	28851.4
740.764	28865.19
741.104	28764.63
741.444	28662.48
741.784	28652.54
742.124	28634.23
742.464	28630.39
742.804	28568.02
743.143	28586.78
743.483	28586.32
743.823	28391.3
744.162	28478.3
744.502	28491.64
744.841	28371.42
745.181	28494.35
745.52	28331.64
745.86	28404.63
746.199	28296.16
746.538	28299.78
746.877	28395.82
747.216	28407.8
747.556	28203.51
747.895	28185.66
748.234	28114.92
748.573	27970.52
748.911	27985.21
749.25	27937.08
749.589	27790.19
749.928	27963.52
750.267	27977.53
750.605	27844.65
750.944	27834.93
751.283	27696.86
751.621	27740.25
751.96	27627.48
752.298	27664.77
752.636	27690.3
752.975	27587.93
753.313	27503.64
753.651	27560.59
753.989	27379.35
754.327	27436.75
754.666	27124.67
755.004	27358.79
755.342	27262.97
755.679	27224.55
756.017	27055.29
756.355	27034.05
756.693	26963.54
757.031	26938.46
757.368	26911.79
757.706	26825.69
758.044	26699.14
758.381	26846.03
758.719	26636.09
759.056	26670.89
759.394	26613.5
759.731	26425.03
760.068	26373.28
760.405	26259.83
760.743	26251.24
761.08	26189.1
761.417	26148.65
761.754	26064.81
762.091	26013.96
762.428	25961.53
762.765	25822.78
763.102	25831.59
763.438	25663.24
763.775	25637.48
764.112	25626.63
764.449	25678.6
764.785	25568.32
765.122	25480.42
765.458	25227.54
765.795	25315.22
766.131	25396.58
766.467	25149.8
766.804	25011.05
767.14	24932.18
767.476	24947.32
767.812	24788.23
768.148	24733.54
768.485	24612.87
768.821	24504.17
769.157	24488.58
769.492	24435.7
769.828	24351.41
770.164	24234.12
770.5	24115.26
770.836	24200.9
771.171	24040.91
771.507	23885.66
771.842	23763.4
772.178	23747.58
772.513	23800.69
772.849	23639.11
773.184	23498.1
773.519	23576.96
773.855	23394.14
774.19	23344.43
774.525	23318.89
774.86	23232.34
775.195	23019.92
775.53	23063.53
775.865	22939.92
776.2	22748.06
776.535	22654.28
776.87	22675.52
777.205	22579.25
777.539	22510.55
777.874	22492.47
778.209	22311.69
778.543	22208.41
778.878	22232.14
779.212	22061.75
779.547	22106.95
779.881	22111.01
780.215	21953.73
780.55	21917.57
780.884	21776.56
781.218	21748.54
781.552	21664.47
781.886	21612.95
782.22	21493.63
782.554	21353.07
782.888	21122.11
783.222	21238.27
783.556	21021.55
783.889	20980.87
784.223	20845.96
784.557	20821.78
784.89	20850.03
785.224	20701.33
785.557	20624.05
785.891	20565.52
786.224	20535.91
786.558	20561.68
786.891	20330.5
787.224	20298.63
787.557	20134.12
787.891	20149.03
788.224	20179.77
788.557	20040.56
788.89	20012.09
789.223	20007.12
789.556	19768.93
789.888	19735.94
790.221	19767.57
790.554	19504.53
790.887	19512.89
791.219	19454.14
791.552	19418.2
791.884	19191.77
792.217	19276.96
792.549	19288.04
792.882	19202.84
793.214	19035.16
793.546	19123.52
793.879	18940.93
794.211	18756.07
794.543	18837.43
794.875	18763.31
795.207	18833.59
795.539	18696.42
795.871	18762.85
796.203	18559.92
796.535	18466.82
796.867	18352.92
797.198	18337.1
797.53	18265.69
797.862	18232.7
798.193	18298.01
798.525	18131.23
798.856	18091.23
799.188	17975.3
799.519	17830.9
799.85	17750.45
800.182	17760.62
800.513	17817.79
800.844	17608.08
801.175	17734.86
801.506	17613.28
801.837	17566.5
802.168	17486.5
802.499	17531.93
802.83	17369.9
803.161	17321.99
803.491	17258.49
803.822	17242.89
804.153	17260.07
804.483	17119.51
804.814	16955.9
805.145	17026.4
805.475	16909.12
805.805	16910.93
806.136	16864.6
806.466	16913.86
806.796	16884.26
807.126	16712.29
807.457	16645.4
807.787	16671.61
808.117	16604.27
808.447	16513.42
808.777	16582.8
809.107	16447.89
809.436	16484.27
809.766	16449.69
810.096	16371.96
810.426	16263.03
810.755	16255.35
811.085	16213.77
811.414	16123.38
811.744	16108.23
812.073	16048.35
812.403	16025.3
812.732	15943.27
813.061	15927
813.39	15840.9
813.719	15903.49
814.049	15942.14
814.378	15933.1
814.707	15676.38
815.036	15691.07
815.365	15635.7
815.693	15562.49
816.022	15578.98
816.351	15444.98
816.68	15330.4
817.008	15496.73
817.337	15327.01
817.665	15319.55
817.994	15328.37
818.322	15388.48
818.651	15195.49
818.979	15221.93
819.307	15213.12
819.636	15094.25
819.964	15042.27
820.292	15120.69
820.62	15146.23
820.948	14996.63
821.276	15117.07
821.604	15036.85
821.932	14997.3
822.259	15099
822.587	15001.6
822.915	14963.18
823.243	15001.15
823.57	14896.29
823.898	15002.28
824.225	14876.4
824.553	14937.87
824.88	14970.41
825.207	14956.17
825.535	14945.55
825.862	15019.9
826.189	14948.49
826.516	15064.87
826.843	14941.49
827.17	14948.49
827.497	14979.68
827.824	14979.9
828.151	15000.24
828.478	14941.03
828.805	14952.33
829.131	14957.98
829.458	14939.23
829.785	14826.69
830.111	14884.31
830.438	14951.2
830.764	14881.37
831.09	14925.44
831.417	14966.8
831.743	14830.75
832.069	14868.95
832.395	14854.48
832.722	14834.82
833.048	14720.25
833.374	14862.39
833.7	14724.09
834.026	14805.22
834.351	14756.63
834.677	14760.93
835.003	14715.5
835.329	14724.32
835.654	14625.34
835.98	14614.26
836.306	14682.28
836.631	14657.2
836.956	14660.82
837.282	14592.12
837.607	14606.81
837.932	14466.02
838.258	14483.64
838.583	14496.98
838.908	14351.67
839.233	14460.59
839.558	14388.96
839.883	14334.95
840.208	14338.11
840.533	14313.48
840.858	14306.93
841.182	14291.56
841.507	14250.43
841.832	14170.66
842.156	14249.3
842.481	14200.49
842.805	14152.81
843.13	14120.26
843.454	14035.29
843.778	14034.62
844.103	14007.27
844.427	13951.91
844.751	13968.18
845.075	13926.37
845.399	13898.35
845.723	13803.44
846.047	13732.93
846.371	13692.25
846.695	13714.85
847.019	13628.07
847.343	13618.13
847.666	13472.15
847.99	13394.41
848.313	13473.05
848.637	13262.66
848.96	13345.82
849.284	13279.83
849.607	13178.59
849.931	13149.22
850.254	13067.41
850.577	13000.97
850.9	12855.89
851.223	12834.42
851.546	12824.71
851.869	12722.79
852.192	12793.75
852.515	12749.68
852.838	12704.93
853.161	12668.55
853.483	12600.3
853.806	12480.53
854.129	12540.19
854.451	12441.66
854.774	12372.06
855.096	12386.52
855.419	12297.49
855.741	12361.89
856.063	12173.87
856.385	12224.95
856.708	12104.95
857.03	12123.03
857.352	12115.8
857.674	12064.27
857.996	11988.79
858.318	11999.87
858.64	11931.85
858.961	11912.19
859.283	11876.71
859.605	11820.21
859.926	11800.55
860.248	11874.9
860.57	11725.07
860.891	11749.48
861.212	11780.89
861.534	11628.13
861.855	11610.95
862.176	11596.49
862.498	11590.16
862.819	11627.45
863.14	11521.69
863.461	11512.65
863.782	11473.78
864.103	11480.56
864.424	11401.92
864.745	11437.85
865.065	11404.4
865.386	11308.36
865.707	11404.86
866.027	11309.72
866.348	11296.16
866.668	11323.05
866.989	11295.48
867.309	11183.84
867.63	11274.46
867.95	11165.77
868.27	11133.22
868.59	11097.29
868.91	11092.77
869.23	11154.92
869.55	11096.62
869.87	11060.23
870.19	11100.91
870.51	11126.22
870.83	11136.84
871.15	10987.24
871.469	11044.64
871.789	11009.61
872.109	10963.06
872.428	10920.35
872.748	10945.66
873.067	10930.52
873.386	10889.61
873.706	10887.35
874.025	10844.19
874.344	10813.91
874.663	10828.37
874.982	10800.13
875.301	10820.01
875.62	10763.52
875.939	10742.95
876.258	10698.89
876.577	10740.69
876.896	10702.05
877.214	10629.96
877.533	10633.12
877.852	10642.16
878.17	10610.98
878.489	10626.34
878.807	10572.11
879.125	10570.75
879.444	10510.87
879.762	10525.1
880.08	10564.2
880.398	10496.4
880.716	10470.19
881.034	10419.12
881.352	10471.32
881.67	10456.86
881.988	10406.24
882.306	10412.11
882.624	10381.83
882.941	10293.25
883.259	10266.35
883.577	10232.23
883.894	10240.37
884.212	10222.29
884.529	10214.38
884.846	10297.31
885.164	10157.43
885.481	10147.49
885.798	10111.78
886.115	10059.35
886.432	10105.23
886.75	10045.8
887.067	10082.63
887.383	9963.54
887.7	10011.67
888.017	9995.18
888.334	9904.1
888.651	9911.34
888.967	9884.22
889.284	9879.47
889.6	9827.5
889.917	9771.45
890.233	9871.11
890.55	9755.63
890.866	9746.14
891.182	9746.37
891.498	9630.66
891.815	9603.32
892.131	9659.14
892.447	9576.2
892.763	9524.9
893.079	9484.91
893.395	9500.5
893.71	9441.52
894.026	9463.89
894.342	9408.3
894.657	9331.01
894.973	9352.25
895.289	9311.13
895.604	9275.65
895.92	9199.94
896.235	9201.75
896.55	9177.34
896.865	9191.81
897.181	9165.59
897.496	9099.83
897.811	9084.46
898.126	9093.05
898.441	8967.63
898.756	8993.17
899.071	8911.36
899.386	8922.43
899.7	8902.1
900.015	8808.54
900.33	8803.57
900.644	8765.15
900.959	8772.83
901.273	8715.66
901.588	8712.72
901.902	8664.14
902.216	8649.22
902.531	8630.01
902.845	8557.02
903.159	8524.93
903.473	8475.44
903.787	8497.81
904.101	8439.96
904.415	8426.18
904.729	8409
905.042	8373.3
905.356	8323.13
905.67	8347.31
905.984	8270.47
906.297	8259.63
906.611	8178.5
906.924	8234.54
907.237	8216.69
907.551	8120.87
907.864	8086.98
908.177	8139.63
908.491	8050.82
908.804	7976.02
909.117	7947.32
909.43	7866.42
909.743	7876.81
910.056	7888.56
910.368	7845.18
910.681	7804.95
910.994	7771.96
911.307	7756.14
911.619	7630.27
911.932	7634.79
912.244	7663.48
912.557	7590.94
912.869	7590.49
913.181	7602.24
913.494	7562.92
913.806	7449.03
914.118	7461
914.43	7370.84
914.742	7408.8
915.054	7370.39
915.366	7320.44
915.678	7239.77
915.99	7247.45
916.302	7164.52
916.613	7180.56
916.925	7247.68
917.236	7140.56
917.548	7101.24
917.859	7085.42
918.171	7025.31
918.482	6950.06
918.794	6937.85
919.105	6938.08
919.416	6876.16
919.727	6879.78
920.038	6883.62
920.349	6823.28
920.66	6778.08
920.971	6826.22
921.282	6756.84
921.593	6759.1
921.903	6714.58
922.214	6701.02
922.525	6687.24
922.835	6662.38
923.146	6626.22
923.456	6569.73
923.767	6543.29
924.077	6511.88
924.387	6412.67
924.697	6448.6
925.008	6459.45
925.318	6381.48
925.628	6368.38
925.938	6384.42
926.248	6322.28
926.558	6292.45
926.867	6245.9
927.177	6276.85
927.487	6219.46
927.796	6188.72
928.106	6133.13
928.416	6115.05
928.725	6125.45
929.034	6069.18
929.344	6050.87
929.653	6068.72
929.962	5998.22
930.271	6008.84
930.581	5917.32
930.89	5928.39
931.199	5872.57
931.508	5857.2
931.817	5823.53
932.125	5822.18
932.434	5806.13
932.743	5794.16
933.051	5728.17
933.36	5719.13
933.669	5674.16
933.977	5673.71
934.286	5718
934.594	5611.34
934.902	5565.46
935.21	5594.39
935.519	5528.85
935.827	5572.92
936.135	5490.89
936.443	5470.32
936.751	5474.62
937.059	5452.02
937.367	5400.49
937.674	5363.66
937.982	5374.05
938.29	5300.61
938.597	5366.14
938.905	5302.19
939.213	5283.89
939.52	5217
939.827	5224.23
940.135	5203.21
940.442	5201.4
940.749	5131.8
941.056	5208.18
941.363	5085.93
941.67	5110.11
941.977	5072.59
942.284	4989.43
942.591	5028.3
942.898	5028.98
943.205	5001.18
943.511	4961.41
943.818	4959.83
944.125	4907.63
944.431	4898.59
944.738	4904.01
945.044	4859.49
945.35	4832.15
945.657	4770.45
945.963	4776.33
946.269	4740.17
946.575	4734.07
946.881	4704.69
947.187	4715.54
947.493	4719.16
947.799	4689.1
948.105	4646.84
948.41	4607.29
948.716	4582.44
949.022	4603.45
949.327	4591.48
949.633	4550.57
949.938	4519.16
950.244	4492.95
950.549	4506.05
950.854	4487.52
951.16	4426.51
951.465	4469.67
951.77	4409.56
952.075	4397.58
952.38	4373.85
952.685	4362.78
952.99	4336.79
953.294	4312.84
953.599	4278.94
953.904	4278.49
954.209	4268.77
954.513	4250.92
954.818	4212.28
955.122	4225.16
955.426	4203.69
955.731	4181.99
956.035	4156.68
956.339	4151.03
956.643	4155.55
956.948	4063.58
957.252	4084.6
957.556	4097.93
957.86	4071.71
958.163	4062.45
958.467	4042.56
958.771	4028.33
959.075	3993.98
959.378	3947.2
959.682	3911.49
959.985	3926.63
960.289	3877.6
960.592	3904.49
960.896	3876.24
961.199	3858.39
961.502	3848.67
961.805	3840.99
962.108	3837.82
962.411	3810.93
962.714	3792.63
963.017	3737.94
963.32	3774.55
963.623	3737.71
963.926	3728.67
964.228	3704.94
964.531	3699.3
964.833	3662.23
965.136	3654.32
965.438	3642.35
965.741	3600.09
966.043	3558.73
966.345	3618.17
966.648	3594.44
966.95	3565.97
967.252	3516.02
967.554	3541.33
967.856	3509.7
968.158	3496.14
968.46	3494.1
968.761	3436.03
969.063	3463.6
969.365	3394.67
969.666	3404.61
969.968	3365.52
970.269	3342.92
970.571	3360.1
970.872	3377.95
971.174	3297.5
971.475	3333.66
971.776	3309.25
972.077	3304.28
972.378	3290.49
972.679	3271.06
972.98	3294.56
973.281	3245.75
973.582	3228.35
973.883	3237.39
974.183	3225.41
974.484	3171.63
974.785	3178.18
975.085	3144.96
975.386	3154.22
975.686	3123.04
975.986	3138.41
976.287	3131.4
976.587	3065.64
976.887	3100.22
977.187	3065.41
977.487	3060.89
977.787	3040.56
978.087	3022.03
978.387	3005.53
978.687	3000.56
978.987	2971.4
979.286	2941.58
979.586	2939.32
979.885	2949.03
980.185	2954.68
980.484	2912.65
980.784	2899.32
981.083	2867.9
981.382	2904.29
981.682	2862.71
981.981	2832.2
982.28	2872.65
982.579	2800.11
982.878	2816.83
983.177	2815.7
983.475	2816.83
983.774	2807.57
984.073	2757.17
984.372	2735.7
984.67	2737.96
984.969	2736.83
985.267	2727.34
985.566	2671.53
985.864	2696.16
986.162	2688.93
986.461	2668.59
986.759	2648.02
987.057	2643.05
987.355	2655.26
987.653	2635.37
987.951	2591.3
988.249	2618.19
988.547	2594.69
988.844	2602.83
989.142	2592.66
989.44	2564.41
989.737	2541.36
990.035	2531.87
990.332	2515.37
990.63	2525.31
990.927	2516.28
991.224	2469.05
991.521	2439.67
991.819	2469.27
992.116	2448.71
992.413	2447.8
992.71	2399.89
993.006	2395.6
993.303	2384.3
993.6	2397.41
993.897	2388.37
994.193	2344.3
994.49	2354.47
994.787	2353.79
995.083	2329.84
995.379	2319.67
995.676	2330.52
995.972	2308.6
996.268	2330.29
996.565	2284.87
996.861	2261.37
997.157	2242.38
997.453	2237.41
997.749	2222.05
998.044	2236.06
998.34	2253.91
998.636	2209.17
998.932	2210.07
999.227	2197.64
999.523	2176.85
999.818	2153.35
1000.114	2136.62
1000.409	2115.16
1000.704	2136.62
1001	2116.51
1001.295	2102.28
1001.59	2115.61
1001.885	2069.06
1002.18	2090.07
1002.475	2050.07
1002.77	2055.27
1003.065	2025.67
1003.359	2026.8
1003.654	1974.37
1003.949	2030.19
1004.243	1989.06
1004.538	1969.62
1004.832	1997.42
1005.127	1979.79
1005.421	1988.38
1005.715	1924.2
1006.009	1916.52
1006.304	1917.87
1006.598	1903.18
1006.892	1885.33
1007.186	1884.2
1007.48	1860.93
1007.773	1862.28
1008.067	1848.27
1008.361	1856.18
1008.655	1842.62
1008.948	1820.93
1009.242	1832
1009.535	1787.71
1009.829	1775.5
1010.122	1780.25
1010.415	1765.79
1010.708	1759.69
1011.001	1745.22
1011.295	1715.39
1011.588	1724.88
1011.881	1722.62
1012.173	1736.86
1012.466	1682.63
1012.759	1726.01
1013.052	1668.39
1013.344	1677.65
1013.637	1689.18
1013.93	1643.98
1014.222	1627.94
1014.514	1636.75
1014.807	1620.93
1015.099	1637.2
1015.391	1605.57
1015.683	1590.65
1015.976	1578
1016.268	1564.44
1016.56	1551.33
1016.851	1555.4
1017.143	1549.75
1017.435	1559.01
1017.727	1525.12
1018.018	1515.4
1018.31	1551.56
1018.602	1500.26
1018.893	1483.99
1019.185	1500.71
1019.476	1465.91
1019.767	1439.47
1020.058	1453.7
1020.35	1442.18
1020.641	1426.81
1020.932	1429.98
1021.223	1418.23
1021.514	1420.71
1021.804	1380.71
1022.095	1387.49
1022.386	1413.71
1022.677	1376.64
1022.967	1369.41
1023.258	1342.75
1023.548	1342.52
1023.839	1354.95
1024.129	1333.71
1024.419	1328.74
1024.709	1339.36
1025	1325.57
1025.29	1317.21
1025.58	1301.39
1025.87	1260.94
1026.16	1268.4
1026.449	1251.45
1026.739	1244.44
1027.029	1225.24
1027.319	1223.2
1027.608	1239.25
1027.898	1210.1
1028.187	1237.89
1028.477	1198.57
1028.766	1199.25
1029.055	1163.77
1029.344	1171.45
1029.634	1183.2
1029.923	1158.12
1030.212	1167.84
1030.501	1154.28
1030.79	1159.02
1031.078	1149.98
1031.367	1137.55
1031.656	1122.87
1031.945	1113.15
1032.233	1096.43
1032.522	1058.01
1032.81	1098.46
1033.099	1085.8
1033.387	1074.96
1033.675	1068.63
1033.963	1061.4
1034.251	1058.69
1034.54	1069.53
1034.828	1013.72
1035.116	1047.16
1035.403	1026.82
1035.691	1036.77
1035.979	1007.16
1036.267	1024.79
1036.554	998.8
1036.842	1001.97
1037.129	982.98
1037.417	1009.42
1037.704	960.84
1037.992	961.29
1038.279	969.2
1038.566	954.51
1038.853	954.51
1039.14	954.51
