Data from hue_80_FLMS001491_29.txt Node
Date: Mon Feb 06 15:22:44 GMT 2017
User: dcchb
Spectrometer: FLMS00149
Trigger mode: 0
Integration Time (sec): 2.000000E-2
Scans to average: 10
Electric dark correction enabled: true
Nonlinearity correction enabled: false
Boxcar width: 0
XAxis mode: Wavelengths
Number of Pixels in Spectrum: 2048
>>>>>Begin Spectral Data<<<<<
341.393	3.12
341.776	3.12
342.16	3.12
342.543	-45.92
342.927	-74.39
343.31	-69.42
343.693	-76.65
344.077	-71.23
344.46	-54.28
344.843	-45.46
345.226	-27.61
345.61	-26.48
345.993	-16.77
346.376	2.67
346.759	4.03
347.142	7.87
347.525	37.02
347.908	80.86
348.291	72.72
348.674	95.55
349.057	87.19
349.44	112.5
349.823	120.41
350.206	171.48
350.588	183.23
350.971	226.84
351.354	231.14
351.737	223.68
352.119	251.48
352.502	253.74
352.884	276.11
353.267	288.99
353.65	289.67
354.032	312.72
354.414	289.67
354.797	300.29
355.179	303.23
355.562	314.98
355.944	312.04
356.326	330.57
356.709	329.44
357.091	310.46
357.473	324.69
357.855	313.85
358.238	357.24
358.62	356.11
359.002	347.97
359.384	346.16
359.766	344.58
360.148	352.04
360.53	332.15
360.912	331.47
361.294	326.95
361.676	346.84
362.057	334.86
362.439	334.19
362.821	341.64
363.203	319.5
363.584	325.6
363.966	330.57
364.348	329.67
364.729	309.55
365.111	323.34
365.493	311.36
365.874	310.23
366.256	291.48
366.637	301.87
367.019	306.84
367.4	317.69
367.781	296
368.163	317.69
368.544	319.27
368.925	311.14
369.306	308.42
369.688	296.45
370.069	295.09
370.45	307.75
370.831	323.34
371.212	316.33
371.593	303
371.974	287.63
372.355	299.16
372.736	324.02
373.117	317.24
373.498	318.37
373.879	321.31
374.26	302.77
374.641	309.55
375.021	307.52
375.402	315.43
375.783	309.78
376.163	328.31
376.544	317.01
376.925	314.53
377.305	327.18
377.686	325.37
378.066	309.1
378.447	329.89
378.827	328.99
379.208	318.14
379.588	337.8
379.968	314.07
380.349	340.06
380.729	312.49
381.109	326.73
381.489	323.56
381.87	330.8
382.25	328.76
382.63	315.2
383.01	335.77
383.39	332.6
383.77	344.13
384.15	336.22
384.53	337.35
384.91	349.78
385.29	315.88
385.67	345.71
386.049	375.09
386.429	331.02
386.809	355.43
387.189	336.45
387.568	371.25
387.948	356.11
388.328	346.39
388.707	378.25
389.087	344.13
389.466	331.02
389.846	348.42
390.225	351.13
390.605	349.78
390.984	347.52
391.363	342.77
391.743	349.33
392.122	352.26
392.501	347.29
392.881	388.2
393.26	374.19
393.639	372.15
394.018	343.9
394.397	375.77
394.776	358.37
395.155	361.53
395.534	351.59
395.913	360.4
396.292	373.73
396.671	376.22
397.05	389.1
397.429	380.06
397.808	366.28
398.186	385.26
398.565	370.12
398.944	364.24
399.323	389.33
399.701	365.6
400.08	372.15
400.458	382.77
400.837	378.03
401.215	404.69
401.594	373.73
401.972	372.15
402.351	376.22
402.729	380.06
403.107	389.1
403.486	402.88
403.864	399.5
404.242	380.06
404.62	406.5
404.999	399.95
405.377	412.15
405.755	379.38
406.133	377.57
406.511	397.24
406.889	419.61
407.267	402.66
407.645	398.82
408.023	393.39
408.401	405.37
408.779	406.73
409.156	411.7
409.534	406.5
409.912	433.17
410.29	431.81
410.667	424.58
411.045	420.06
411.422	433.84
411.8	446.73
412.178	439.49
412.555	442.66
412.933	467.06
413.31	442.21
413.687	468.87
414.065	479.27
414.442	454.63
414.819	459.38
415.197	458.48
415.574	452.83
415.951	468.19
416.328	459.83
416.705	456.67
417.082	454.63
417.46	451.02
417.837	465.48
418.214	477.69
418.591	489.44
418.967	478.82
419.344	498.7
419.721	482.2
420.098	495.54
420.475	500.51
420.852	489.44
421.228	491.47
421.605	508.19
421.982	507.74
422.358	506.38
422.735	501.19
423.111	520.4
423.488	527.63
423.864	525.82
424.241	534.18
424.617	519.49
424.994	524.24
425.37	538.93
425.746	550
426.123	559.04
426.499	546.61
426.875	552.49
427.251	547.29
427.627	546.38
428.003	544.8
428.379	565.14
428.756	565.59
429.132	576.44
429.507	583.22
429.883	580.96
430.259	585.25
430.635	583.22
431.011	582.54
431.387	594.52
431.763	592.71
432.138	587.96
432.514	620.05
432.89	614.4
433.265	617.79
433.641	622.31
434.016	626.83
434.392	630.68
434.767	659.6
435.143	652.6
435.518	652.37
435.894	640.39
436.269	663.22
436.644	685.14
437.02	672.03
437.395	659.15
437.77	659.15
438.145	686.72
438.52	706.38
438.895	698.02
439.271	700.5
439.646	705.48
440.021	691.69
440.395	731.46
440.77	686.95
441.145	716.55
441.52	731.01
441.895	712.03
442.27	736.66
442.645	729.43
443.019	736.66
443.394	742.31
443.769	726.94
444.143	741.18
444.518	747.51
444.892	756.1
445.267	763.55
445.641	751.35
446.016	758.36
446.39	765.59
446.764	772.37
447.139	796.09
447.513	794.06
447.887	768.98
448.262	783.89
448.636	801.29
449.01	787.96
449.384	790.67
449.758	829.09
450.132	809.88
450.506	825.25
450.88	840.16
451.254	820.73
451.628	832.48
452.002	834.29
452.376	864.79
452.75	840.61
453.123	855.53
453.497	869.54
453.871	883.55
454.244	884.68
454.618	907.5
454.992	895.3
455.365	903.44
455.739	936.2
456.112	942.76
456.486	926.71
456.859	922.19
457.232	951.57
457.606	940.72
457.979	972.59
458.352	993.83
458.725	1010.55
459.099	1005.58
459.472	1025.69
459.845	1032.02
460.218	1045.58
460.591	1055.75
460.964	1079.48
461.337	1070.89
461.71	1072.02
462.083	1110.21
462.456	1095.07
462.829	1126.48
463.201	1165.8
463.574	1137.55
463.947	1154.73
464.32	1165.8
464.692	1178.68
465.065	1171.68
465.438	1228.4
465.81	1251.68
466.183	1258.68
466.555	1288.06
466.928	1269.98
467.3	1279.25
467.672	1294.84
468.045	1350.88
468.417	1351.79
468.789	1361.73
469.161	1370.09
469.534	1417.1
469.906	1445.57
470.278	1487.15
470.65	1516.75
471.022	1532.12
471.394	1564.89
471.766	1595.17
472.138	1610.31
472.51	1643.53
472.882	1681.95
473.253	1682.63
473.625	1727.82
473.997	1778.89
474.369	1756.75
474.74	1843.3
475.112	1867.03
475.484	1931.66
475.855	1966.69
476.227	1989.28
476.598	2055.5
476.97	2112.22
477.341	2159.9
477.713	2237.64
478.084	2268.82
478.455	2332.78
478.827	2395.37
479.198	2461.81
479.569	2508.59
479.94	2624.52
480.311	2647.35
480.682	2743.61
481.053	2799.66
481.424	2887.34
481.795	2987.9
482.166	3016.38
482.537	3105.64
482.908	3243.26
483.279	3304.5
483.65	3402.13
484.021	3488
484.391	3546.08
484.762	3673.76
485.133	3737.94
485.503	3889.57
485.874	3979.74
486.244	4087.08
486.615	4164.82
486.985	4292.5
487.356	4439.39
487.726	4531.14
488.097	4664.47
488.467	4714.86
488.837	4923.9
489.207	5028.98
489.578	5171.57
489.948	5264.45
490.318	5421.74
490.688	5434.62
491.058	5613.6
491.428	5787.83
491.798	5888.39
492.168	6025.11
492.538	6171.09
492.908	6283.41
493.278	6484.98
493.648	6494.93
494.017	6614.7
494.387	6774.47
494.757	6910.28
495.126	7029.6
495.496	7159.09
495.866	7272.53
496.235	7449.03
496.605	7567.22
496.974	7677.27
497.344	7822.12
497.713	7926.98
498.082	8090.14
498.452	8214.66
498.821	8265.28
499.19	8389.34
499.559	8504.82
499.928	8628.66
500.298	8820.52
500.667	8957.69
501.036	8999.72
501.405	9122.88
501.774	9244.46
502.143	9347.73
502.512	9466.83
502.88	9621.63
503.249	9637.44
503.618	9796.54
503.987	9787.72
504.356	9887.83
504.724	10041.05
505.093	10097.32
505.462	10240.59
505.83	10341.15
506.199	10472.9
506.567	10612.56
506.936	10686.23
507.304	10803.06
507.672	10789.05
508.041	10923.74
508.409	11006.45
508.777	11147.01
509.145	11299.32
509.514	11248.7
509.882	11405.76
510.25	11415.02
510.618	11548.35
510.986	11613.21
511.354	11720.1
511.722	11817.5
512.09	11949.93
512.458	11963.71
512.826	12116.02
513.193	12127.32
513.561	12143.82
513.929	12216.81
514.297	12387.65
514.664	12496.58
515.032	12440.76
515.4	12555.11
515.767	12629.68
516.135	12681.21
516.502	12736.57
516.869	12924.59
517.237	12913.29
517.604	12872.16
517.972	13047.3
518.339	13141.08
518.706	13160.06
519.073	13151.02
519.44	13210.68
519.808	13396.22
520.175	13386.05
520.542	13471.47
520.909	13565.7
521.276	13574.74
521.643	13750.56
522.009	13749.88
522.376	13786.04
522.743	13861.29
523.11	13995.52
523.477	14079.14
523.843	14125.24
524.21	14302.18
524.577	14301.05
524.943	14356.64
525.31	14394.16
525.676	14571.55
526.043	14585.34
526.409	14600.93
526.776	14660.59
527.142	14739.01
527.508	14779.46
527.874	14836.63
528.241	14960.69
528.607	14854.48
528.973	14944.42
529.339	15048.15
529.705	15079.34
530.071	15234.81
530.437	15093.35
530.803	15122.5
531.169	15268.71
531.535	15316.17
531.901	15222.83
532.267	15232.55
532.632	15348.48
532.998	15348.93
533.364	15409.27
533.73	15437.74
534.095	15458.31
534.461	15500.57
534.826	15518.87
535.192	15547.8
535.557	15618.3
535.923	15563.39
536.288	15571.53
536.653	15672.54
537.019	15521.81
537.384	15600.45
537.749	15638.42
538.114	15583.28
538.479	15570.85
538.845	15622.15
539.21	15500.79
539.575	15584.86
539.94	15611.52
540.305	15642.26
540.67	15606.78
541.034	15664.86
541.399	15679.77
541.764	15587.34
542.129	15628.25
542.494	15654.46
542.858	15668.7
543.223	15594.8
543.587	15668.25
543.952	15602.26
544.316	15601.81
544.681	15610.17
545.045	15618.3
545.41	15565.42
545.774	15701.69
546.138	15579.43
546.503	15600.9
546.867	15580.34
547.231	15662.37
547.595	15641.81
547.959	15648.81
548.324	15558.19
548.688	15628.47
549.052	15588.02
549.416	15635.48
549.779	15534.24
550.143	15578.98
550.507	15606.55
550.871	15608.81
551.235	15597.06
551.599	15615.82
551.962	15612.88
552.326	15588.25
552.689	15571.07
553.053	15629.83
553.417	15579.66
553.78	15657.4
554.143	15653.11
554.507	15609.94
554.87	15640.68
555.234	15793.44
555.597	15582.37
555.96	15586.44
556.323	15692.65
556.686	15687.23
557.05	15674.57
557.413	15660.79
557.776	15802.03
558.139	15718.19
558.502	15656.27
558.865	15752.54
559.228	15869.6
559.59	15782.14
559.953	15857.39
560.316	15925.87
560.679	15870.95
561.041	15936.71
561.404	16021.91
561.767	16176.03
562.129	16005.86
562.492	16125.41
562.854	16059.87
563.217	16006.77
563.579	16024.17
563.941	16183.26
564.304	16135.35
564.666	16253.32
565.028	16287.21
565.39	16293.31
565.753	16310.72
566.115	16311.85
566.477	16455.8
566.839	16373.76
567.201	16477.94
567.563	16439.75
567.925	16476.13
568.287	16423.03
568.648	16574.89
569.01	16630.03
569.372	16649.46
569.734	16562.91
570.095	16751.83
570.457	16706.19
570.819	16729.69
571.18	16700.76
571.542	16809.69
571.903	16834.09
572.265	16859.18
572.626	16976.91
572.987	16942.11
573.349	16974.88
573.71	16987.76
574.071	16969.91
574.432	16962.68
574.794	17141.2
575.155	17079.73
575.516	17034.09
575.877	17137.13
576.238	17122.22
576.599	17142.78
576.96	17144.37
577.32	17188.43
577.681	17194.08
578.042	17207.19
578.403	17173.74
578.763	17185.72
579.124	17239.5
579.485	17280.63
579.845	17290.58
580.206	17184.14
580.566	17260.75
580.927	17222.78
581.287	17352.5
581.648	17192.5
582.008	17336
582.368	17283.34
582.728	17311.14
583.089	17283.34
583.449	17243.12
583.809	17266.17
584.169	17370.57
584.529	17241.54
584.889	17309.11
585.249	17217.13
585.609	17159.28
585.969	17280.18
586.329	17188.66
586.688	17327.41
587.048	17275.44
587.408	17216.23
587.768	17193.86
588.127	17162.9
588.487	17122.45
588.846	17267.53
589.206	17133.07
589.565	17154.08
589.925	17254.19
590.284	17257.58
590.643	17193.18
591.003	17198.15
591.362	17196.57
591.721	17124.48
592.08	17185.27
592.44	17236.57
592.799	17146.4
593.158	17174.2
593.517	17197.02
593.876	17226.4
594.235	17166.74
594.593	17119.28
594.952	17142.56
595.311	17101.2
595.67	17191.82
596.029	17341.65
596.387	17302.1
596.746	17246.74
597.104	17104.82
597.463	17166.74
597.822	17227.53
598.18	17133.07
598.538	17140.3
598.897	17234.53
599.255	17013.97
599.613	17289.22
599.972	17156.12
600.33	17208.09
600.688	17188.66
601.046	17180.97
601.404	17270.92
601.762	17199.73
602.12	17293.97
602.478	17209.67
602.836	17204.03
603.194	17136.91
603.552	17206.28
603.91	17130.81
604.268	17246.96
604.625	17166.51
604.983	17241.76
605.341	17228.88
605.698	17247.87
606.056	17305.27
606.413	17293.51
606.771	17360.86
607.128	17437.24
607.485	17293.06
607.843	17223.91
608.2	17342.33
608.557	17505.03
608.914	17339.39
609.272	17404.92
609.629	17413.29
609.986	17479.95
610.343	17366.28
610.7	17547.97
611.057	17472.04
611.414	17534.86
611.771	17522.89
612.127	17561.98
612.484	17629.55
612.841	17608.99
613.198	17487.18
613.554	17569.44
613.911	17670.45
614.267	17655.76
614.624	17669.78
614.98	17684.24
615.337	17743.45
615.693	17678.36
616.05	17772.37
616.406	17809.43
616.762	17684.92
617.118	17802.43
617.475	17759.26
617.831	17794.97
618.187	17755.42
618.543	17723.56
618.899	17864.8
619.255	17795.87
619.611	17804.24
619.967	17912.93
620.323	17919.49
620.678	17835.87
621.034	17830
621.39	17849.21
621.746	17789.09
622.101	17947.28
622.457	17854.18
622.812	17944.34
623.168	18007.85
623.523	17927.85
623.879	18054.85
624.234	17905.7
624.589	17906.38
624.945	17996.77
625.3	17974.85
625.655	17815.99
626.01	17984.34
626.365	17971.24
626.72	17938.47
627.075	17920.39
627.43	17999.94
627.785	17911.35
628.14	18002.65
628.495	18043.1
628.85	17975.53
629.205	17778.02
629.559	17900.5
629.914	17853.05
630.269	17899.37
630.623	17881.97
630.978	17773.28
631.332	17866.38
631.687	17909.54
632.041	17801.3
632.396	17844.01
632.75	17735.99
633.104	17886.27
633.459	17690.11
633.813	17755.42
634.167	17705.03
634.521	17765.59
634.875	17769.89
635.229	17727.85
635.583	17618.7
635.937	17580.29
636.291	17571.02
636.645	17600.62
636.999	17491.25
637.352	17605.37
637.706	17480.85
638.06	17620.29
638.413	17428.43
638.767	17463.45
639.121	17443.34
639.474	17393.17
639.828	17361.08
640.181	17402.44
640.534	17409.9
640.888	17377.81
641.241	17285.38
641.594	17422.55
641.947	17415.32
642.301	17327.64
642.654	17392.72
643.007	17352.72
643.36	17410.8
643.713	17226.17
644.066	17347.07
644.419	17228.21
644.771	17171.71
645.124	16954.31
645.477	16974.2
645.83	16795.45
646.182	16737.6
646.535	16724.04
646.888	16739.86
647.24	16736.47
647.593	16824.37
647.945	16756.58
648.298	16660.54
648.65	16693.98
649.002	16646.98
649.355	16713.42
649.707	16651.95
650.059	16671.61
650.411	16957.03
650.763	16897.59
651.115	17164.03
651.467	17110.47
651.819	17186.85
652.171	17088.1
652.523	17072.5
652.875	16971.94
653.227	16962.9
653.578	17038.15
653.93	17046.29
654.282	16956.8
654.633	16940.3
654.985	17032.28
655.337	17057.81
655.688	17091.26
656.039	16971.94
656.391	16830.25
656.742	16904.82
657.094	16991.38
657.445	17009.45
657.796	16911.6
658.147	17034.31
658.498	17034.54
658.849	17012.84
659.2	17027.31
659.551	16992.73
659.902	17140.07
660.253	16984.14
660.604	17059.85
660.955	16901.89
661.306	17063.24
661.656	17035.44
662.007	17033.18
662.358	17091.94
662.708	17068.66
663.059	16990.7
663.409	16893.75
663.76	17121.77
664.11	16966.74
664.461	17048.1
664.811	17036.12
665.161	17018.72
665.511	16954.31
665.862	17100.75
666.212	17111.82
666.562	17081.77
666.912	17028.21
667.262	17074.76
667.612	17078.83
667.962	17033.63
668.312	17142.56
668.662	17027.98
669.011	17128.77
669.361	17089.45
669.711	17024.59
670.06	17103.69
670.41	17006.97
670.76	16947.08
671.109	16989.79
671.459	16922.9
671.808	17014.43
672.157	17064.82
672.507	16916.57
672.856	16899.63
673.205	16884.03
673.554	17014.43
673.904	16862.57
674.253	17018.95
674.602	16925.61
674.951	16679.07
675.3	16580.76
675.649	16841.32
675.998	16865.28
676.346	16861.89
676.695	17000.64
677.044	16707.31
677.393	16810.36
677.741	16760.19
678.09	16757.48
678.438	16685.62
678.787	16741.44
679.135	16764.04
679.484	16644.27
679.832	16684.04
680.181	16451.28
680.529	16687.2
680.877	16540.31
681.225	16581.67
681.573	16656.47
681.922	16518.85
682.27	16492.63
682.618	16433.2
682.966	16357.95
683.314	16445.63
683.661	16319.3
684.009	16201.34
684.357	16316.82
684.705	16183.94
685.053	16312.07
685.4	16247.89
685.748	16131.28
686.095	16102.81
686.443	16039.31
686.79	16103.49
687.138	16054.68
687.485	16030.95
687.832	15964.96
688.18	15981.68
688.527	15963.61
688.874	15949.82
689.221	15830.28
689.568	15830.95
689.915	15686.1
690.262	15667.57
690.609	15702.37
690.956	15614.69
691.303	15525.2
691.65	15411.08
691.997	15503.05
692.344	15415.15
692.69	15392.32
693.037	15379.89
693.383	15304.41
693.73	15248.14
694.077	15129.05
694.423	15102.39
694.769	15089.73
695.116	15077.53
695.462	15060.8
695.808	14989.85
696.155	14982.84
696.501	14885.44
696.847	14783.98
697.193	14751.21
697.539	14682.06
697.885	14657.43
698.231	14604.77
698.577	14621.27
698.923	14485.68
699.269	14426.24
699.614	14306.7
699.96	14390.99
700.306	14487.71
700.651	14245.91
700.997	14226.7
701.342	14174.73
701.688	14183.31
702.033	14082.98
702.379	14109.42
702.724	14039.59
703.069	14022.87
703.415	13904.9
703.76	13894.73
704.105	13891.8
704.45	13894.73
704.795	13794.4
705.14	13700.61
705.485	13735.42
705.83	13725.02
706.175	13629.88
706.52	13586.27
706.865	13641.41
707.209	13510.34
707.554	13443.67
707.899	13472.82
708.243	13425.59
708.588	13291.36
708.932	13220.4
709.277	13203.68
709.621	13234.19
709.966	13170.68
710.31	13181.31
710.654	13026.28
710.998	13110.57
711.342	13044.59
711.687	12957.13
712.031	12942.44
712.375	12934.53
712.719	12880.75
713.063	12877.36
713.407	12895.44
713.75	12838.49
714.094	12809.34
714.438	12741.09
714.782	12726.85
715.125	12727.76
715.469	12691.83
715.812	12701.54
716.156	12656.57
716.499	12604.82
716.843	12688.66
717.186	12626.52
717.53	12641.21
717.873	12640.98
718.216	12573.86
718.559	12539.97
718.902	12553.75
719.246	12493.87
719.589	12372.74
719.932	12416.81
720.275	12385.39
720.617	12359.63
720.96	12316.02
721.303	12338.62
721.646	12385.17
721.989	12288
722.331	12291.84
722.674	12333.19
723.016	12343.36
723.359	12292.74
723.701	12343.14
724.044	12158.28
724.386	12221.56
724.729	12273.99
725.071	12193.08
725.413	12222.46
725.755	12108.11
726.097	12050.94
726.439	12089.81
726.782	12063.6
727.124	12147.66
727.465	12031.96
727.807	12055.91
728.149	12107.89
728.491	11982.69
728.833	11991.51
729.175	11969.36
729.516	12022.47
729.858	11930.94
730.199	12016.59
730.541	11951.28
730.882	12049.13
731.224	12004.39
731.565	11966.2
731.906	12022.24
732.248	11910.83
732.589	11938.4
732.93	11861.11
733.271	11900.89
733.612	11900.21
733.953	11982.47
734.294	11899.76
734.635	11937.04
734.976	11937.04
735.317	11865.63
735.658	11896.37
735.999	11913.09
736.339	11930.04
736.68	11868.57
737.021	11886.42
737.361	11792.42
737.702	11976.14
738.042	12009.13
738.383	11884.39
738.723	11905.86
739.063	11920.32
739.404	11933.66
739.744	11915.8
740.084	11911.96
740.424	11951.28
740.764	11894.11
741.104	11982.92
741.444	11899.76
741.784	11901.11
742.124	12008.23
742.464	12025.4
742.804	11970.72
743.143	12008.46
743.483	12032.86
743.823	12029.92
744.162	12010.49
744.502	12126.87
744.841	12138.4
745.181	12213.65
745.52	12226.98
745.86	12178.62
746.199	12179.98
746.538	12295.68
746.877	12363.7
747.216	12344.27
747.556	12424.49
747.895	12426.07
748.234	12443.7
748.573	12568.44
748.911	12597.82
749.25	12641.43
749.589	12622.68
749.928	12666.07
750.267	12715.33
750.605	12884.14
750.944	12885.49
751.283	12872.16
751.621	13007.53
751.96	12993.29
752.298	13090.46
752.636	13116
752.975	13247.52
753.313	13287.97
753.651	13430.56
753.989	13510.34
754.327	13517.79
754.666	13586.49
755.004	13711.46
755.342	13836.2
755.679	13964.56
756.017	14010.89
756.355	14124.11
756.693	14108.51
757.031	14360.94
757.368	14393.03
757.706	14519.8
758.044	14574.49
758.381	14686.58
758.719	14711.21
759.056	14862.17
759.394	15014.25
759.731	15065.55
760.068	15160.46
760.405	15266.9
760.743	15381.47
761.08	15545.99
761.417	15517.29
761.754	15661.47
762.091	15769.71
762.428	15875.02
762.765	15938.97
763.102	16106.65
763.438	16112.98
763.775	16084.73
764.112	16295.12
764.449	16491.28
764.785	16479.3
765.122	16531.27
765.458	16536.92
765.795	16707.31
766.131	16785.05
766.467	16817.59
766.804	16832.28
767.14	16882.45
767.476	17004.48
767.812	17160.86
768.148	17141.88
768.485	17154.08
768.821	17171.71
769.157	17258.71
769.492	17241.31
769.828	17377.58
770.164	17292.84
770.5	17412.38
770.836	17464.81
771.171	17413.29
771.507	17489.89
771.842	17456.45
772.178	17554.07
772.513	17498.25
772.849	17597.91
773.184	17510.01
773.519	17579.61
773.855	17528.76
774.19	17558.82
774.525	17623.45
774.86	17608.08
775.195	17614.18
775.53	17561.76
775.865	17545.03
776.2	17455.54
776.535	17444.02
776.87	17458.71
777.205	17371.7
777.539	17447.63
777.874	17525.37
778.209	17296.9
778.543	17410.12
778.878	17363.57
779.212	17315.21
779.547	17194.53
779.881	17296.68
780.215	17227.75
780.55	17246.96
780.884	17224.59
781.218	17159.96
781.552	17173.07
781.886	17069.11
782.22	17033.63
782.554	17093.75
782.888	16969
783.222	16863.7
783.556	16820.53
783.889	16889.01
784.223	16703.47
784.557	16773.75
784.89	16834.09
785.224	16673.87
785.557	16581.22
785.891	16659.63
786.224	16652.4
786.558	16592.06
786.891	16478.85
787.224	16423.25
787.557	16380.09
787.891	16320.66
788.224	16402.24
788.557	16306.65
788.89	16304.61
789.223	16273.65
789.556	16252.19
789.888	16151.4
790.221	16121.12
790.554	16122.25
790.887	16096.26
791.219	15952.76
791.552	15956.6
791.884	15849.03
792.217	15797.96
792.549	15755.48
792.882	15688.81
793.214	15707.79
793.546	15661.92
793.879	15566.78
794.211	15523.39
794.543	15550.96
794.875	15522.04
795.207	15509.83
795.539	15459.89
795.871	15493.34
796.203	15308.48
796.535	15285.88
796.867	15210.41
797.198	15174.47
797.53	15204.53
797.862	15095.61
798.193	15117.07
798.525	15098.32
798.856	15099.22
799.188	14910.53
799.519	14898.55
799.85	14835.95
800.182	14824.43
800.513	14770.64
800.844	14708.5
801.175	14814.26
801.506	14735.16
801.837	14689.29
802.168	14621.72
802.499	14644.32
802.83	14519.35
803.161	14510.31
803.491	14510.31
803.822	14514.6
804.153	14402.06
804.483	14198.45
804.814	14239.36
805.145	14268.73
805.475	14230.32
805.805	14232.58
806.136	14139.02
806.466	14186.03
806.796	14090.66
807.126	14030.32
807.457	14009.53
807.787	13991.68
808.117	13974.96
808.447	13821.06
808.777	13950.78
809.107	13871.23
809.436	13782.42
809.766	13817.67
810.096	13696.09
810.426	13691.8
810.755	13763.66
811.085	13626.27
811.414	13648.41
811.744	13545.14
812.073	13527.51
812.403	13525.25
812.732	13410.23
813.061	13446.16
813.39	13400.06
813.719	13396.89
814.049	13439.38
814.378	13340.62
814.707	13376.33
815.036	13245.49
815.365	13328.87
815.693	13114.87
816.022	13060.41
816.351	13074.87
816.68	12991.71
817.008	13065.83
817.337	12974.53
817.665	12970.46
817.994	12914.87
818.322	12950.13
818.651	12925.49
818.979	12829.9
819.307	12883.69
819.636	12845.72
819.964	12776.12
820.292	12845.5
820.62	12790.36
820.948	12732.28
821.276	12753.75
821.604	12732.73
821.932	12732.28
822.259	12725.72
822.587	12789.9
822.915	12703.8
823.243	12756.23
823.57	12710.81
823.898	12723.69
824.225	12620.42
824.553	12689.57
824.88	12763.69
825.207	12733.86
825.535	12659.74
825.862	12725.5
826.189	12632.62
826.516	12745.61
826.843	12682.56
827.17	12720.3
827.497	12733.18
827.824	12678.04
828.151	12739.74
828.478	12703.13
828.805	12758.94
829.131	12654.77
829.458	12608.21
829.785	12639.17
830.111	12668.33
830.438	12648.66
830.764	12673.3
831.09	12679.62
831.417	12609.8
831.743	12732.5
832.069	12540.19
832.395	12593.75
832.722	12550.81
833.048	12618.38
833.374	12615.45
833.7	12534.54
834.026	12573.86
834.351	12612.73
834.677	12573.64
835.003	12555.33
835.329	12636.69
835.654	12507.2
835.98	12488.89
836.306	12533.64
836.631	12434.66
836.956	12445.51
837.282	12480.76
837.607	12397.82
837.932	12365.73
838.258	12376.81
838.583	12368.67
838.908	12324.38
839.233	12306.53
839.558	12296.13
839.883	12182.01
840.208	12202.8
840.533	12130.49
840.858	12193.76
841.182	12273.53
841.507	12166.19
841.832	12089.58
842.156	12052.75
842.481	12177.94
842.805	12054.56
843.13	11947.44
843.454	12001.22
843.778	12019.98
844.103	11894.11
844.427	11861.11
844.751	11955.35
845.075	11871.74
845.399	11898.18
845.723	11788.57
846.047	11699.54
846.371	11688.69
846.695	11724.4
847.019	11597.62
847.343	11554.46
847.666	11565.76
847.99	11434.91
848.313	11504.74
848.637	11351.3
848.96	11350.62
849.284	11328.93
849.607	11245.54
849.931	11157.18
850.254	11149.72
850.577	11048.03
850.9	11010.74
851.223	10995.15
851.546	10940.46
851.869	10827.47
852.192	10946.11
852.515	10876.73
852.838	10748.38
853.161	10777.3
853.483	10673.58
853.806	10671.09
854.129	10697.98
854.451	10625.89
854.774	10568.49
855.096	10627.25
855.419	10543.64
855.741	10534.37
856.063	10492.79
856.385	10454.6
856.708	10371.89
857.03	10359.69
857.352	10325.11
857.674	10259.35
857.996	10311.78
858.318	10232.68
858.64	10166.24
858.961	10210.76
859.283	10227.49
859.605	10079.92
859.926	10133.7
860.248	10093.7
860.57	10078.34
860.891	10125.57
861.212	9991.56
861.534	9964.44
861.855	9953.82
862.176	9954.95
862.498	9984.55
862.819	9918.79
863.14	9827.5
863.461	9848.06
863.782	9734.84
864.103	9810.32
864.424	9772.36
864.745	9737.33
865.065	9745.01
865.386	9660.72
865.707	9654.62
866.027	9723.09
866.348	9665.24
866.668	9633.38
866.989	9632.25
867.309	9548.86
867.63	9622.3
867.95	9600.38
868.27	9572.81
868.59	9528.07
868.91	9496.88
869.23	9511.35
869.55	9464.12
869.87	9506.6
870.19	9467.96
870.51	9537.56
870.83	9412.37
871.15	9421.4
871.469	9407.62
871.789	9441.52
872.109	9431.57
872.428	9360.39
872.748	9395.64
873.067	9369.2
873.386	9421.86
873.706	9398.35
874.025	9245.14
874.344	9284.23
874.663	9336.21
874.982	9298.7
875.301	9363.55
875.62	9281.52
875.939	9203.11
876.258	9198.13
876.577	9181.19
876.896	9197
877.214	9191.35
877.533	9201.07
877.852	9155.88
878.17	9069.78
878.489	9144.58
878.807	9146.38
879.125	9140.51
879.444	9033.84
879.762	9032.94
880.08	8996.56
880.398	8948.65
880.716	8973.06
881.034	8895.09
881.352	8932.15
881.67	8919.5
881.988	8935.77
882.306	8938.03
882.624	8874.98
882.941	8845.83
883.259	8815.77
883.577	8799.5
883.894	8783.91
884.212	8765.6
884.529	8738.03
884.846	8709.56
885.164	8733.51
885.481	8712.27
885.798	8611.48
886.115	8647.87
886.432	8672.5
886.75	8568.09
887.067	8604.48
887.383	8567.87
887.7	8584.59
888.017	8514.54
888.334	8494.2
888.651	8491.94
888.967	8440.19
889.284	8409
889.6	8404.71
889.917	8301.43
890.233	8369
890.55	8319.96
890.866	8348.44
891.182	8322.68
891.498	8278.38
891.815	8241.1
892.131	8197.03
892.447	8222.79
892.763	8146.41
893.079	8161.1
893.395	8078.62
893.71	8097.6
894.026	8080.42
894.342	8007.88
894.657	8032.29
894.973	7950.71
895.289	7972.4
895.604	8007.2
895.92	7915.68
896.235	7880.88
896.55	7940.31
896.865	7875.68
897.181	7804.5
897.496	7834.33
897.811	7831.39
898.126	7814.89
898.441	7770.37
898.756	7675.24
899.071	7717.49
899.386	7649.7
899.7	7551.85
900.015	7573.09
900.33	7480.21
900.644	7500.55
900.959	7482.7
901.273	7460.1
901.588	7400.44
901.902	7347.34
902.216	7401.8
902.531	7349.37
902.845	7293.33
903.159	7266.21
903.473	7261.01
903.787	7208.81
904.101	7208.58
904.415	7225.53
904.729	7155.7
905.042	7102.37
905.356	7079.09
905.67	7080.9
905.984	7056.5
906.297	7066.66
906.611	6946.44
906.924	7010.85
907.237	6976.27
907.551	6965.2
907.864	6903.5
908.177	6868.03
908.491	6899.66
908.804	6831.87
909.117	6781.93
909.43	6743.06
909.743	6698.99
910.056	6719.1
910.368	6671.42
910.681	6668.48
910.994	6591.42
911.307	6604.98
911.619	6484.31
911.932	6577.64
912.244	6522.95
912.557	6496.51
912.869	6458.54
913.181	6465.32
913.494	6440.47
913.806	6423.52
914.118	6374.71
914.43	6330.64
914.742	6315.27
915.054	6247.03
915.366	6240.02
915.678	6279.11
915.99	6237.08
916.302	6237.53
916.613	6179
916.925	6147.37
917.236	6161.15
917.548	6087.03
917.859	6092
918.171	6034.83
918.482	5973.13
918.794	6003.87
919.105	6007.48
919.416	5919.12
919.727	5979.01
920.038	5882.74
920.349	5837.77
920.66	5851.56
920.971	5829.41
921.282	5783.53
921.593	5782.86
921.903	5765.23
922.214	5719.58
922.525	5719.81
922.835	5698.11
923.146	5683.42
923.456	5660.83
923.767	5592.58
924.077	5620.37
924.387	5549.19
924.697	5533.82
925.008	5549.19
925.318	5481.17
925.628	5464.9
925.938	5481.4
926.248	5378.8
926.558	5374.05
926.867	5415.18
927.177	5355.97
927.487	5339.7
927.796	5277.78
928.106	5287.73
928.416	5290.44
928.725	5245.7
929.034	5215.19
929.344	5245.92
929.653	5212.48
929.962	5133.16
930.271	5147.84
930.581	5117.56
930.89	5087.73
931.199	5049.09
931.508	5084.34
931.817	5024.01
932.125	5010.9
932.434	5013.61
932.743	4952.82
933.051	4967.06
933.36	4977.68
933.669	4936.78
933.977	4896.55
934.286	4858.36
934.594	4887.29
934.902	4811.81
935.21	4778.36
935.519	4857.46
935.827	4771.36
936.135	4730.68
936.443	4728.87
936.751	4721.64
937.059	4682.55
937.367	4660.4
937.674	4628.08
937.982	4604.58
938.29	4621.76
938.597	4623.79
938.905	4568.88
939.213	4572.04
939.52	4524.58
939.827	4494.53
940.135	4485.72
940.442	4469.44
940.749	4445.26
941.056	4483.23
941.363	4421.54
941.67	4444.13
941.977	4373.4
942.284	4366.17
942.591	4386.28
942.898	4332.05
943.205	4361.88
943.511	4319.17
943.818	4287.3
944.125	4237.13
944.431	4269.45
944.738	4205.5
945.044	4181.99
945.35	4194.2
945.657	4141.54
945.963	4146.52
946.269	4114.65
946.575	4164.82
946.881	4125.72
947.187	4056.57
947.493	4085.5
947.799	4038.27
948.105	4005.95
948.41	3994.43
948.716	4000.53
949.022	3984.94
949.327	3947.2
949.633	3932.51
949.938	3939.29
950.244	3946.07
950.549	3875.34
950.854	3875.34
951.16	3863.58
951.465	3835.56
951.77	3807.54
952.075	3805.51
952.38	3804.15
952.685	3762.12
952.99	3740.2
953.294	3746.75
953.599	3738.84
953.904	3677.15
954.209	3697.94
954.513	3658.17
954.818	3660.2
955.122	3644.16
955.426	3640.09
955.731	3600.77
956.035	3619.75
956.339	3604.38
956.643	3581.11
956.948	3567.77
957.252	3546.08
957.556	3507.21
957.86	3497.72
958.163	3510.15
958.467	3497.49
958.771	3453.43
959.075	3468.34
959.378	3394.67
959.682	3465.18
959.985	3445.97
960.289	3411.85
960.592	3370.72
960.896	3383.15
961.199	3348.57
961.502	3355.35
961.805	3321.23
962.108	3277.84
962.411	3301.11
962.714	3273.32
963.017	3277.84
963.32	3270.38
963.623	3247.56
963.926	3261.57
964.228	3206.65
964.531	3184.73
964.833	3204.85
965.136	3169.59
965.438	3133.21
965.741	3138.86
966.043	3141.12
966.345	3126.43
966.648	3107.67
966.95	3047.79
967.252	3059.54
967.554	3125.53
967.856	3059.09
968.158	2989.03
968.46	3008.47
968.761	3003.72
969.063	3009.37
969.365	2988.13
969.666	2953.33
969.968	2966.43
970.269	2947.45
970.571	2931.18
970.872	2938.86
971.174	2903.61
971.475	2942.71
971.776	2888.24
972.077	2879.2
972.378	2883.27
972.679	2818.19
972.98	2815.02
973.281	2837.62
973.582	2822.48
973.883	2803.27
974.183	2771.86
974.484	2755.82
974.785	2772.99
975.085	2759.89
975.386	2751.52
975.686	2726.89
975.986	2719.66
976.287	2710.85
976.587	2690.73
976.887	2686.21
977.187	2674.92
977.487	2669.04
977.787	2652.77
978.087	2629.94
978.387	2625.2
978.687	2640.11
978.987	2596.95
979.286	2582.71
979.586	2581.81
979.885	2574.58
980.185	2560.34
980.484	2536.61
980.784	2522.83
981.083	2554.01
981.382	2527.12
981.682	2502.94
981.981	2484.41
982.28	2481.47
982.579	2447.12
982.878	2488.25
983.177	2456.16
983.475	2465.2
983.774	2393.12
984.073	2434.92
984.372	2397.86
984.67	2425.2
984.969	2363.06
985.267	2388.37
985.566	2375.71
985.864	2347.69
986.162	2348.6
986.461	2347.92
986.759	2306.79
987.057	2288.94
987.355	2281.93
987.653	2283.97
987.951	2276.73
988.249	2285.32
988.547	2281.71
988.844	2269.95
989.142	2226.79
989.44	2220.46
989.737	2222.05
990.035	2219.33
990.332	2213.68
990.63	2170.97
990.927	2210.75
991.224	2195.38
991.521	2144.31
991.819	2132.56
992.116	2126.46
992.413	2135.27
992.71	2096.4
993.006	2101.15
993.303	2111.99
993.6	2075.61
993.897	2093.69
994.193	2112.44
994.49	2053.46
994.787	2089.39
995.083	2048.04
995.379	2057.08
995.676	2027.02
995.972	2054.59
996.268	2007.81
996.565	2004.42
996.861	1974.82
997.157	1973.92
997.453	1972.56
997.749	1968.72
998.044	1963.52
998.34	1944.54
998.636	1947.03
998.932	1917.87
999.227	1924.2
999.523	1912
999.818	1865.67
1000.114	1879
1000.409	1882.39
1000.704	1857.76
1001	1832.45
1001.295	1842.17
1001.59	1858.44
1001.885	1811.66
1002.18	1798.1
1002.475	1795.62
1002.77	1775.96
1003.065	1763.3
1003.359	1799.68
1003.654	1788.16
1003.949	1729.63
1004.243	1752.68
1004.538	1755.62
1004.832	1765.56
1005.127	1705.45
1005.421	1717.2
1005.715	1700.03
1006.009	1694.38
1006.304	1655.96
1006.598	1676.98
1006.892	1676.3
1007.186	1668.16
1007.48	1642.63
1007.773	1634.04
1008.067	1643.76
1008.361	1592.91
1008.655	1595.85
1008.948	1599.24
1009.242	1578.45
1009.535	1574.83
1009.829	1575.28
1010.122	1579.35
1010.415	1542.52
1010.708	1563.08
1011.001	1531.44
1011.295	1523.08
1011.588	1501.84
1011.881	1519.24
1012.173	1516.98
1012.466	1500.94
1012.759	1476.98
1013.052	1486.7
1013.344	1478.11
1013.637	1474.95
1013.93	1465
1014.222	1440.82
1014.514	1463.2
1014.807	1478.11
1015.099	1401.05
1015.391	1437.66
1015.683	1411.67
1015.976	1369.87
1016.268	1396.31
1016.56	1397.21
1016.851	1369.41
1017.143	1358.79
1017.435	1373.25
1017.727	1388.62
1018.018	1373.03
1018.31	1329.41
1018.602	1329.19
1018.893	1316.76
1019.185	1320.6
1019.476	1306.36
1019.767	1301.17
1020.058	1282.18
1020.35	1295.06
1020.641	1279.47
1020.932	1275.18
1021.223	1238.12
1021.514	1253.94
1021.804	1268.17
1022.095	1223.65
1022.386	1249.42
1022.677	1223.88
1022.967	1220.94
1023.258	1214.16
1023.548	1194.28
1023.839	1191.11
1024.129	1180.49
1024.419	1185.01
1024.709	1150.89
1025	1181.4
1025.29	1133.04
1025.58	1149.76
1025.87	1146.59
1026.16	1126.71
1026.449	1106.14
1026.739	1105.69
1027.029	1115.18
1027.319	1095.07
1027.608	1096.2
1027.898	1091.45
1028.187	1084.67
1028.477	1074.51
1028.766	1049.65
1029.055	1031.12
1029.344	1094.39
1029.634	1034.73
1029.923	1030.89
1030.212	1010.33
1030.501	1048.97
1030.79	1025.47
1031.078	1027.5
1031.367	1035.18
1031.656	994.06
1031.945	1005.58
1032.233	1005.81
1032.522	989.99
1032.81	994.28
1033.099	968.07
1033.387	966.26
1033.675	964
1033.963	953.38
1034.251	931.46
1034.54	952.93
1034.828	948.41
1035.116	934.62
1035.403	917.9
1035.691	920.84
1035.979	924.91
1036.267	899.82
1036.554	902.31
1036.842	903.89
1037.129	879.26
1037.417	885.13
1037.704	886.71
1037.992	876.32
1038.279	874.51
1038.566	859.37
1038.853	859.37
1039.14	859.37
