Data from hue_240_FLMS001491_00007.txt Node
Date: Tue Feb 07 16:34:59 GMT 2017
User: dcchb
Spectrometer: FLMS00149
Trigger mode: 0
Integration Time (sec): 2.000000E-2
Scans to average: 10
Electric dark correction enabled: true
Nonlinearity correction enabled: false
Boxcar width: 0
XAxis mode: Wavelengths
Number of Pixels in Spectrum: 2048
>>>>>Begin Spectral Data<<<<<
341.393	-5.06
341.776	-5.06
342.16	-5.06
342.543	-56.58
342.927	-78.73
343.31	-74.66
343.693	-53.87
344.077	-65.62
344.46	-76.01
344.843	-37.15
345.226	-43.02
345.61	-20.65
345.993	-14.32
346.376	-2.34
346.759	25.68
347.142	23.19
347.525	38.78
347.908	37.2
348.291	72.23
348.674	97.77
349.057	92.79
349.44	122.4
349.823	147.26
350.206	156.07
350.588	187.48
350.971	193.36
351.354	226.58
351.737	245.11
352.119	231.32
352.502	266.57
352.884	277.42
353.267	277.87
353.65	281.94
354.032	279
354.414	293.47
354.797	314.48
355.179	299.34
355.562	304.09
355.944	323.52
356.326	309.74
356.709	321.04
357.091	330.08
357.473	342.96
357.855	343.41
358.238	326.46
358.62	322.17
359.002	320.36
359.384	327.59
359.766	346.12
360.148	331.43
360.53	324.43
360.912	338.66
361.294	331.88
361.676	325.33
362.057	333.47
362.439	335.05
362.821	337.76
363.203	315.84
363.584	307.7
363.966	326.01
364.348	320.36
364.729	297.76
365.111	323.75
365.493	313.81
365.874	325.1
366.256	310.64
366.637	282.85
367.019	307.7
367.4	306.35
367.781	298.44
368.163	296.4
368.544	292.11
368.925	278.33
369.306	299.79
369.688	316.29
370.069	321.71
370.45	303.41
370.831	284.65
371.212	289.4
371.593	290.98
371.974	303.86
372.355	314.48
372.736	309.51
373.117	318.55
373.498	295.05
373.879	288.95
374.26	293.92
374.641	296.86
375.021	327.36
375.402	326.91
375.783	340.02
376.163	301.15
376.544	321.26
376.925	285.33
377.305	327.82
377.686	306.12
378.066	320.13
378.447	317.65
378.827	333.92
379.208	332.11
379.588	318.32
379.968	316.97
380.349	329.17
380.729	314.71
381.109	326.23
381.489	337.76
381.87	333.92
382.25	344.54
382.63	330.08
383.01	328.95
383.39	341.15
383.77	356.06
384.15	344.09
384.53	348.38
384.91	328.27
385.29	336.63
385.67	335.73
386.049	350.87
386.429	326.69
386.809	336.4
387.189	339.12
387.568	366.23
387.948	343.64
388.328	349.06
388.707	351.77
389.087	359.23
389.466	351.77
389.846	349.28
390.225	349.51
390.605	361.26
390.984	352.45
391.363	366.91
391.743	386.57
392.122	377.98
392.501	384.76
392.881	361.04
393.26	389.74
393.639	362.17
394.018	378.21
394.397	356.06
394.776	368.27
395.155	365.33
395.534	382.28
395.913	377.08
396.292	373.24
396.671	398.1
397.05	380.02
397.429	387.02
397.808	374.14
398.186	387.02
398.565	377.98
398.944	377.76
399.323	413.01
399.701	424.99
400.08	407.59
400.458	393.35
400.837	420.02
401.215	404.2
401.594	405.78
401.972	419.34
402.351	385.44
402.729	430.86
403.107	410.07
403.486	429.96
403.864	422.95
404.242	435.84
404.62	436.74
404.999	445.55
405.377	434.03
405.755	444.42
406.133	433.35
406.511	450.75
406.889	434.25
407.267	447.36
407.645	446.68
408.023	453.24
408.401	480.35
408.779	456.63
409.156	469.06
409.534	487.36
409.912	487.36
410.29	484.2
410.667	484.2
411.045	504.99
411.422	524.42
411.8	529.84
412.178	504.99
412.555	530.52
412.933	524.65
413.31	523.29
413.687	547.7
414.065	542.27
414.442	560.8
414.819	552.22
415.197	571.88
415.574	575.27
415.951	578.43
416.328	603.29
416.705	587.92
417.082	591.54
417.46	612.33
417.837	596.74
418.214	615.94
418.591	620.24
418.967	646.23
419.344	653.46
419.721	640.8
420.098	642.61
420.475	668.37
420.852	658.65
421.228	669.5
421.605	647.36
421.982	685.09
422.358	673.34
422.735	703.17
423.111	727.13
423.488	710.18
423.864	739.33
424.241	749.73
424.617	766.67
424.994	738.43
425.37	774.13
425.746	779.1
426.123	791.98
426.499	813.91
426.875	763.51
427.251	811.87
427.627	819.78
428.003	837.63
428.379	830.18
428.756	830.18
429.132	845.77
429.507	864.3
429.883	857.07
430.259	874.69
430.635	884.64
431.011	893.23
431.387	927.35
431.763	933.45
432.138	921.02
432.514	938.65
432.89	977.06
433.265	973.9
433.641	984.3
434.016	1010.28
434.392	1014.35
434.767	1056.16
435.143	1036.95
435.518	1044.41
435.894	1071.98
436.269	1066.1
436.644	1115.14
437.02	1094.12
437.395	1117.17
437.77	1127.8
438.145	1162.6
438.52	1192.2
438.895	1190.84
439.271	1201.24
439.646	1207.79
440.021	1211.63
440.395	1239.88
440.77	1255.48
441.145	1284.63
441.52	1293.44
441.895	1300.22
442.27	1304.06
442.645	1294.57
443.019	1329.15
443.394	1342.7
443.769	1367.79
444.143	1330.95
444.518	1345.64
444.892	1340.22
445.267	1373.89
445.641	1387
446.016	1402.82
446.39	1433.32
446.764	1413.66
447.139	1436.94
447.513	1443.72
447.887	1445.53
448.262	1461.12
448.636	1487.56
449.01	1471.74
449.384	1492.53
449.758	1482.14
450.132	1499.99
450.506	1542.47
450.88	1534.11
451.254	1535.24
451.628	1549.93
452.002	1565.98
452.376	1597.61
452.75	1586.54
453.123	1642.81
453.497	1642.81
453.871	1637.16
454.244	1666.09
454.618	1654.34
454.992	1710.15
455.365	1705.86
455.739	1769.36
456.112	1742.92
456.486	1747.44
456.859	1776.59
457.232	1809.13
457.606	1811.17
457.979	1844.84
458.352	1857.27
458.725	1905.18
459.099	1900.88
459.472	1936.59
459.845	1916.02
460.218	1937.27
460.591	1953.76
460.964	1996.25
461.337	1991.73
461.71	2045.06
462.083	2093.42
462.456	2079.18
462.829	2084.15
463.201	2104.94
463.574	2107.88
463.947	2167.77
464.32	2193.08
464.692	2195.56
465.065	2226.3
465.438	2239.18
465.81	2323.47
466.183	2315.79
466.555	2328.22
466.928	2374.09
467.3	2356.01
467.672	2386.97
468.045	2438.27
468.417	2443.01
468.789	2484.37
469.161	2499.06
469.534	2542.45
469.906	2589.68
470.278	2571.6
470.65	2594.88
471.022	2648.21
471.394	2709.22
471.766	2712.84
472.138	2726.62
472.51	2762.33
472.882	2834.19
473.253	2857.92
473.625	2881.2
473.997	2941.76
474.369	2948.54
474.74	2958.03
475.112	3019.5
475.484	3077.35
475.855	3144.24
476.227	3108.08
476.598	3214.97
476.97	3263.33
477.341	3290
477.713	3334.52
478.084	3400.96
478.455	3424.23
478.827	3473.72
479.198	3609.09
479.569	3597.79
479.94	3676.65
480.311	3632.14
480.682	3731.57
481.053	3794.39
481.424	3829.65
481.795	3846.59
482.166	3946.48
482.537	4004.56
482.908	4038.68
483.279	4079.36
483.65	4159.35
484.021	4233.48
484.391	4225.79
484.762	4264.89
485.133	4306.92
485.503	4383.3
485.874	4461.94
486.244	4488.16
486.615	4534.03
486.985	4602.73
487.356	4620.58
487.726	4663.3
488.097	4784.87
488.467	4820.13
488.837	4893.8
489.207	4927.92
489.578	4986
489.948	4995.26
490.318	5047.24
490.688	5094.02
491.058	5198.87
491.428	5231.42
491.798	5224.86
492.168	5301.47
492.538	5366.55
492.908	5367.68
493.278	5474.35
493.648	5492.88
494.017	5542.82
494.387	5565.87
494.757	5631.18
495.126	5684.06
495.496	5654.46
495.866	5717.28
496.235	5767
496.605	5774.45
496.974	5793.21
497.344	5815.13
497.713	5811.29
498.082	5934
498.452	5902.58
498.821	5998.4
499.19	5980.1
499.559	6023.03
499.928	6076.37
500.298	6063.03
500.667	6173.76
501.036	6126.31
501.405	6195.23
501.774	6156.82
502.143	6205.63
502.512	6216.02
502.88	6305.29
503.249	6321.33
503.618	6288.56
503.987	6344.38
504.356	6341.67
504.724	6347.09
505.093	6364.49
505.462	6410.37
505.83	6478.61
506.199	6478.16
506.567	6574.43
506.936	6531.72
507.304	6595
507.672	6599.29
508.041	6606.97
508.409	6652.17
508.777	6723.58
509.145	6743.92
509.514	6712.28
509.882	6740.3
510.25	6745.27
510.618	6768.1
510.986	6762.9
511.354	6832.73
511.722	6828.89
512.09	6873.63
512.458	6833.18
512.826	6900.75
513.193	6912.05
513.561	6914.54
513.929	6895.1
514.297	6957.25
514.664	6991.82
515.032	6967.64
515.4	7090.58
515.767	7012.16
516.135	7023.23
516.502	7062.55
516.869	7113.4
517.237	7093.06
517.604	7071.37
517.972	7119.73
518.339	7190.23
518.706	7143.46
519.073	7199.73
519.44	7165.15
519.808	7204.02
520.175	7244.92
520.542	7232.27
520.909	7266.62
521.276	7245.37
521.643	7277.46
522.009	7354.07
522.376	7331.7
522.743	7365.15
523.11	7382.09
523.477	7495.31
523.843	7430.23
524.21	7510.68
524.577	7523.33
524.943	7516.1
525.31	7505.03
525.676	7575.54
526.043	7605.14
526.409	7598.81
526.776	7603.11
527.142	7613.73
527.508	7707.96
527.874	7700.96
528.241	7722.2
528.607	7649.21
528.973	7771.69
529.339	7689.2
529.705	7729.88
530.071	7793.83
530.437	7780.5
530.803	7764.68
531.169	7838.81
531.535	7797.22
531.901	7757.45
532.267	7747.73
532.632	7818.92
532.998	7788.19
533.364	7842.65
533.73	7814.17
534.095	7812.14
534.461	7877
534.826	7836.09
535.192	7835.19
535.557	7883.78
535.923	7758.58
536.288	7768.3
536.653	7840.16
537.019	7749.09
537.384	7842.42
537.749	7831.35
538.114	7815.3
538.479	7860.05
538.845	7835.64
539.21	7741.41
539.575	7831.12
539.94	7802.65
540.305	7837.68
540.67	7787.28
541.034	7830.67
541.399	7768.3
541.764	7755.42
542.129	7799.48
542.494	7757.45
542.858	7782.54
543.223	7746.15
543.587	7804.46
543.952	7709.77
544.316	7781.41
544.681	7703.44
545.045	7679.71
545.41	7746.6
545.774	7695.76
546.138	7731.46
546.503	7711.35
546.867	7648.3
547.231	7706.61
547.595	7681.07
547.959	7727.62
548.324	7694.18
548.688	7666.15
549.052	7673.39
549.416	7652.37
549.779	7686.27
550.143	7611.47
550.507	7722.2
550.871	7676.1
551.235	7606.49
551.599	7654.86
551.962	7644.46
552.326	7654.4
552.689	7663.22
553.053	7538.93
553.417	7597.91
553.78	7724.01
554.143	7570.11
554.507	7647.62
554.87	7624.57
555.234	7678.81
555.597	7644.46
555.96	7606.27
556.323	7642.43
556.686	7655.31
557.05	7644.46
557.413	7712.03
557.776	7680.84
558.139	7707.28
558.502	7667.74
558.865	7707.51
559.228	7701.86
559.59	7696.44
559.953	7736.66
560.316	7816.66
560.679	7766.26
561.041	7776.21
561.404	7778.24
561.767	7843.55
562.129	7737.11
562.492	7840.61
562.854	7832.93
563.217	7793.83
563.579	7911.57
563.941	7864.79
564.304	7898.24
564.666	7917
565.028	7862.53
565.39	7887.17
565.753	7979.14
566.115	7970.33
566.477	7945.47
566.839	8001.51
567.201	7996.09
567.563	8062.75
567.925	8075.86
568.287	8022.76
568.648	8089.42
569.01	8112.02
569.372	8151.57
569.734	8160.15
570.095	8123.77
570.457	8212.13
570.819	8184.33
571.18	8163.09
571.542	8218.91
571.903	8261.17
572.265	8280.83
572.626	8306.14
572.987	8338.68
573.349	8299.13
573.71	8403.08
574.071	8385.46
574.432	8436.76
574.794	8466.81
575.155	8386.59
575.516	8373.25
575.877	8452.8
576.238	8460.26
576.599	8508.17
576.96	8468.85
577.32	8502.74
577.681	8546.36
578.042	8550.2
578.403	8558.79
578.763	8534.61
579.124	8572.8
579.485	8593.14
579.845	8623.42
580.206	8626.81
580.566	8730.99
580.927	8667.94
581.287	8697.31
581.648	8745.22
582.008	8738.44
582.368	8716.75
582.728	8768.95
583.089	8754.26
583.449	8795.39
583.809	8771.21
584.169	8799.23
584.529	8755.62
584.889	8799.46
585.249	8834.94
585.609	8787.25
585.969	8877.42
586.329	8793.36
586.688	8893.69
587.048	8849.85
587.408	8833.58
587.768	8903.41
588.127	8874.94
588.487	8810.98
588.846	9015.5
589.206	8899.12
589.565	8902.51
589.925	9007.14
590.284	9032.9
590.643	9006.01
591.003	8983.63
591.362	8978.66
591.721	8932.56
592.08	8946.8
592.44	9047.81
592.799	9053.91
593.158	9044.65
593.517	9012.56
593.876	9087.36
594.235	9055.5
594.593	9056.17
594.952	9083.07
595.311	9075.38
595.67	9048.04
596.029	9133.46
596.387	9121.03
596.746	9177.08
597.104	9090.98
597.463	9151.99
597.822	9129.39
598.18	9129.62
598.538	9105.66
598.897	9209.62
599.255	9112.44
599.613	9269.5
599.972	9174.14
600.33	9229.96
600.688	9179.11
601.046	9193.57
601.404	9204.64
601.762	9206.45
602.12	9195.61
602.478	9247.81
602.836	9254.59
603.194	9207.36
603.552	9204.64
603.91	9208.03
604.268	9267.02
604.625	9261.37
604.983	9218.2
605.341	9217.07
605.698	9262.72
606.056	9245.1
606.413	9288.94
606.771	9294.36
607.128	9304.53
607.485	9246
607.843	9291.2
608.2	9351.99
608.557	9400.8
608.914	9285.55
609.272	9380.91
609.629	9443.96
609.986	9424.53
610.343	9436.73
610.7	9420.01
611.057	9445.54
611.414	9408.26
611.771	9401.25
612.127	9332.55
612.484	9441.25
612.841	9416.39
613.198	9392.44
613.554	9378.65
613.911	9476.05
614.267	9496.16
614.624	9460.46
614.98	9409.16
615.337	9553.56
615.693	9502.04
616.05	9483.96
616.406	9577.29
616.762	9528.03
617.118	9544.98
617.475	9490.51
617.831	9520.79
618.187	9560.12
618.543	9560.34
618.899	9644.63
619.255	9587.46
619.611	9629.27
619.967	9644.41
620.323	9633.11
620.678	9556.5
621.034	9576.84
621.39	9616.16
621.746	9576.16
622.101	9619.32
622.457	9570.74
622.812	9589.72
623.168	9689.15
623.523	9558.53
623.879	9702.48
624.234	9590.4
624.589	9566.9
624.945	9612.32
625.3	9664.75
625.655	9576.16
626.01	9649.61
626.365	9650.06
626.72	9553.56
627.075	9609.38
627.43	9547.01
627.785	9603.96
628.14	9515.15
628.495	9541.81
628.85	9566.44
629.205	9581.36
629.559	9621.13
629.914	9593.79
630.269	9584.97
630.623	9521.92
630.978	9516.28
631.332	9536.84
631.687	9545.65
632.041	9472.43
632.396	9470.63
632.75	9560.12
633.104	9460.68
633.459	9457.52
633.813	9388.37
634.167	9435.83
634.521	9449.16
634.875	9488.93
635.229	9464.98
635.583	9462.94
635.937	9383.85
636.291	9369.84
636.645	9406.22
636.999	9321.93
637.352	9363.96
637.706	9334.13
638.06	9334.36
638.413	9310.63
638.767	9335.49
639.121	9311.08
639.474	9284.42
639.828	9223.63
640.181	9292.55
640.534	9268.82
640.888	9230.86
641.241	9205.1
641.594	9254.36
641.947	9266.56
642.301	9161.93
642.654	9211.65
643.007	9312.89
643.36	9109.05
643.713	9192.22
644.066	9184.08
644.419	9161.03
644.771	9101.6
645.124	9036.97
645.477	9031.77
645.83	8961.71
646.182	8906.8
646.535	8824.99
646.888	8919.68
647.24	8833.58
647.593	8905.22
647.945	8852.11
648.298	8815.28
648.65	8833.13
649.002	8789.51
649.355	8804.66
649.707	8806.46
650.059	8877.2
650.411	9002.39
650.763	8970.75
651.115	9034.25
651.467	9051.43
651.819	9041.49
652.171	9004.88
652.523	8988.83
652.875	9055.72
653.227	8965.1
653.578	9058.43
653.93	8998.55
654.282	9028.15
654.633	8956.52
654.985	8955.61
655.337	8973.92
655.688	8986.57
656.039	8965.33
656.391	8966.69
656.742	8978.44
657.094	9031.32
657.445	9069.51
657.796	9002.16
658.147	9007.81
658.498	8953.13
658.849	9040.36
659.2	8981.6
659.551	8966.23
659.902	8983.63
660.253	8954.48
660.604	8991.54
660.955	8934.82
661.306	8931.21
661.656	9006.46
662.007	9001.49
662.358	8897.99
662.708	8983.63
663.059	8956.52
663.409	8944.09
663.76	8952.22
664.11	8999
664.461	9078.09
664.811	8984.54
665.161	8977.53
665.511	8928.27
665.862	8993.58
666.212	8989.28
666.562	8975.72
666.912	9018.89
667.262	8949.74
667.612	8980.24
667.962	8946.57
668.312	8965.1
668.662	8957.42
669.011	8970.75
669.361	8938.44
669.711	8971.66
670.06	8912.9
670.41	8901.6
670.76	8878.55
671.109	8946.57
671.459	8909.74
671.808	8881.49
672.157	8878.1
672.507	8823.86
672.856	8954.93
673.205	8877.65
673.554	8887.37
673.904	8858.44
674.253	8928.49
674.602	8907.7
674.951	8809.4
675.3	8732.34
675.649	8949.28
675.998	8809.63
676.346	8875.39
676.695	8845.56
677.044	8857.99
677.393	8755.62
677.741	8837.2
678.09	8812.11
678.438	8828.61
678.787	8797.65
679.135	8790.64
679.484	8688.73
679.832	8731.21
680.181	8742.28
680.529	8663.87
680.877	8633.81
681.225	8618.22
681.573	8666.58
681.922	8597.88
682.27	8612.12
682.618	8620.93
682.966	8567.83
683.314	8585.9
683.661	8533.7
684.009	8532.8
684.357	8503.42
684.705	8498.67
685.053	8531.22
685.4	8545.45
685.748	8464.1
686.095	8399.02
686.443	8424.78
686.79	8450.99
687.138	8437.89
687.485	8388.4
687.832	8333.71
688.18	8411.45
688.527	8265.23
688.874	8297.32
689.221	8278.57
689.568	8280.15
689.915	8225.01
690.262	8307.04
690.609	8216.42
690.956	8176.88
691.303	8160.15
691.65	8113.83
691.997	8128.74
692.344	8038.8
692.69	8057.78
693.037	8132.58
693.383	7983.66
693.73	8061.85
694.077	7970.78
694.423	7968.97
694.769	7952.25
695.116	7891.91
695.462	7867.05
695.808	7827.28
696.155	7830.44
696.501	7749.54
696.847	7791.8
697.193	7771.46
697.539	7815.3
697.885	7662.54
698.231	7619.6
698.577	7731.46
698.923	7610.11
699.269	7603.78
699.614	7577.8
699.96	7453.96
700.306	7491.7
700.651	7511.81
700.997	7470.45
701.342	7382.32
701.688	7433.84
702.033	7431.81
702.379	7409.66
702.724	7326.05
703.069	7344.58
703.415	7270.01
703.76	7269.33
704.105	7250.8
704.45	7247.41
704.795	7224.81
705.14	7255.54
705.485	7164.92
705.83	7116.11
706.175	7150.69
706.52	7125.15
706.865	7071.82
707.209	7088.09
707.554	7072.5
707.899	7060.97
708.243	7035.66
708.588	7046.28
708.932	6988.21
709.277	6947.3
709.621	7002.89
709.966	6938.26
710.31	6909.34
710.654	6846.29
710.998	6910.92
711.342	6824.37
711.687	6877.7
712.031	6824.59
712.375	6760.64
712.719	6861.88
713.063	6809.45
713.407	6795.89
713.75	6703.47
714.094	6732.85
714.438	6756.8
714.782	6763.81
715.125	6698.72
715.469	6684.49
715.812	6689.46
716.156	6582.34
716.499	6649.68
716.843	6678.84
717.186	6655.11
717.53	6640.87
717.873	6632.06
718.216	6641.32
718.559	6629.57
718.902	6566.07
719.246	6548.22
719.589	6507.31
719.932	6518.16
720.275	6559.74
720.617	6563.58
720.96	6513.64
721.303	6511.16
721.646	6513.42
721.989	6504.38
722.331	6499.86
722.674	6486.75
723.016	6492.4
723.359	6503.02
723.701	6472.74
724.044	6420.09
724.386	6451.95
724.729	6442.68
725.071	6421.22
725.413	6403.14
725.755	6408.11
726.097	6370.37
726.439	6401.1
726.782	6368.11
727.124	6371.5
727.465	6374.89
727.807	6342.12
728.149	6382.35
728.491	6338.73
728.833	6386.87
729.175	6326.08
729.516	6362.91
729.858	6322.91
730.199	6359.07
730.541	6324.49
730.882	6330.14
731.224	6367.66
731.565	6345.06
731.906	6316.59
732.248	6361.1
732.589	6289.69
732.93	6283.14
733.271	6265.74
733.612	6278.85
733.953	6364.72
734.294	6304.61
734.635	6331.73
734.976	6314.33
735.317	6285.63
735.658	6314.33
735.999	6314.33
736.339	6348.67
736.68	6326.3
737.021	6329.92
737.361	6298.28
737.702	6389.8
738.042	6349.58
738.383	6296.25
738.723	6363.14
739.063	6338.96
739.404	6357.26
739.744	6327.21
740.084	6294.21
740.424	6411.05
740.764	6360.88
741.104	6366.75
741.444	6340.31
741.784	6348.22
742.124	6395.68
742.464	6382.8
742.804	6374.89
743.143	6373.76
743.483	6453.53
743.823	6398.17
744.162	6376.02
744.502	6435.23
744.841	6467.32
745.181	6487.65
745.52	6499.86
745.86	6499.86
746.199	6536.69
746.538	6554.09
746.877	6566.07
747.216	6616.92
747.556	6615.33
747.895	6612.62
748.234	6686.52
748.573	6685.62
748.911	6776.46
749.25	6822.33
749.589	6781.66
749.928	6859.85
750.267	6879.73
750.605	6935.55
750.944	6997.02
751.283	7006.96
751.621	7006.28
751.96	7072.95
752.298	7156.79
752.636	7175.32
752.975	7220.06
753.313	7321.76
753.651	7387.52
753.989	7470
754.327	7525.82
754.666	7570.11
755.004	7625.25
755.342	7767.85
755.679	7809.88
756.017	7897.79
756.355	7949.31
756.693	8020.72
757.031	8119.7
757.368	8205.12
757.706	8285.35
758.044	8328.51
758.381	8535.96
758.719	8545.45
759.056	8693.7
759.394	8759.01
759.731	8845.56
760.068	8865.67
760.405	8977.53
760.743	9095.72
761.08	9192.67
761.417	9245.77
761.754	9319.67
762.091	9542.26
762.428	9575.48
762.765	9704.74
763.102	9813.22
763.438	9790.84
763.775	9956.49
764.112	10037.84
764.449	10151.96
764.785	10223.38
765.122	10349.7
765.458	10398.74
765.795	10462.01
766.131	10573.87
766.467	10575.91
766.804	10707.66
767.14	10713.76
767.476	10858.61
767.812	10936.8
768.148	10966.18
768.485	11024.03
768.821	11090.02
769.157	11274.87
769.492	11229.68
769.828	11319.62
770.164	11390.8
770.5	11396.9
770.836	11466.05
771.171	11493.85
771.507	11600.06
771.842	11502.44
772.178	11604.36
772.513	11626.73
772.849	11728.87
773.184	11719.38
773.519	11773.62
773.855	11831.02
774.19	11850.68
774.525	11852.94
774.86	11875.99
775.195	11985.14
775.53	11959.15
775.865	11942.65
776.2	11897
776.535	11936.32
776.87	11965.7
777.205	11992.37
777.539	11930.22
777.874	12096.77
778.209	12017.23
778.543	11938.58
778.878	11959.15
779.212	12031.01
779.547	12028.75
779.881	12102.65
780.215	12075.53
780.55	12078.02
780.884	12052.48
781.218	12071.01
781.552	12064.46
781.886	12010.67
782.22	12041.41
782.554	11970.45
782.888	11947.62
783.222	11914.86
783.556	11915.53
783.889	11884.12
784.223	11843.22
784.557	11942.2
784.89	11897.23
785.224	11843.22
785.557	11838.7
785.891	11828.53
786.224	11810.45
786.558	11867.4
786.891	11655.43
787.224	11632.83
787.557	11619.72
787.891	11678.25
788.224	11721.19
788.557	11700.4
788.89	11717.57
789.223	11686.16
789.556	11587.63
789.888	11581.08
790.221	11590.8
790.554	11498.37
790.887	11523
791.219	11479.16
791.552	11490.91
791.884	11407.98
792.217	11428.77
792.549	11403.01
792.882	11306.74
793.214	11324.36
793.546	11383.34
793.879	11259.51
794.211	11202.33
794.543	11269.68
794.875	11220.41
795.207	11226.06
795.539	11228.32
795.871	11200.75
796.203	11071.26
796.535	11034.43
796.867	11073.3
797.198	11010.7
797.53	11085.27
797.862	10950.36
798.193	11032.62
798.525	10973.19
798.856	10958.05
799.188	10829.24
799.519	10840.53
799.85	10732.06
800.182	10754.89
800.513	10732.74
800.844	10670.6
801.175	10738.39
801.506	10760.76
801.837	10749.24
802.168	10677.83
802.499	10605.96
802.83	10570.71
803.161	10516.47
803.491	10572.07
803.822	10584.95
804.153	10560.09
804.483	10460.21
804.814	10478.51
805.145	10429.02
805.475	10367.78
805.805	10397.83
806.136	10370.72
806.466	10342.69
806.796	10336.59
807.126	10349.02
807.457	10200.1
807.787	10249.36
808.117	10211.17
808.447	10164.85
808.777	10271.28
809.107	10130.27
809.436	10155.13
809.766	10121.01
810.096	10127.11
810.426	10020.89
810.755	10090.05
811.085	10052.31
811.414	10049.14
811.744	9916.72
812.073	9975.47
812.403	9978.41
812.732	9892.31
813.061	9861.58
813.39	9841.01
813.719	9830.84
814.049	9928.92
814.378	9800.79
814.707	9809.6
815.036	9763.27
815.365	9719.89
815.693	9669.27
816.022	9678.98
816.351	9692.32
816.68	9624.75
817.008	9665.42
817.337	9586.1
817.665	9639.89
817.994	9580
818.322	9544.3
818.651	9508.59
818.979	9491.87
819.307	9587.01
819.636	9470.63
819.964	9449.61
820.292	9469.04
820.62	9482.6
820.948	9448.25
821.276	9451.42
821.604	9397.63
821.932	9477.18
822.259	9494.13
822.587	9415.26
822.915	9466.11
823.243	9431.31
823.57	9399.89
823.898	9440.34
824.225	9398.09
824.553	9386.79
824.88	9442.6
825.207	9438.31
825.535	9358.09
825.862	9462.94
826.189	9386.34
826.516	9467.01
826.843	9469.04
827.17	9438.99
827.497	9484.86
827.824	9380.69
828.151	9498.42
828.478	9495.71
828.805	9511.08
829.131	9507.91
829.458	9450.74
829.785	9385.43
830.111	9392.44
830.438	9504.3
830.764	9558.08
831.09	9498.42
831.417	9462.04
831.743	9437.86
832.069	9468.59
832.395	9461.36
832.722	9372.55
833.048	9410.74
833.374	9450.06
833.7	9391.76
834.026	9413.68
834.351	9406.9
834.677	9364.87
835.003	9317.41
835.329	9349.95
835.654	9361.93
835.98	9324.64
836.306	9387.69
836.631	9275.83
836.956	9320.8
837.282	9314.7
837.607	9246.45
837.932	9265.21
838.258	9262.27
838.583	9210.29
838.908	9192.89
839.233	9182.05
839.558	9178.2
839.883	9162.84
840.208	9088.94
840.533	9121.03
840.858	9131.65
841.182	9136.17
841.507	9085.1
841.832	9074.7
842.156	9053.69
842.481	9090.3
842.805	8973.01
843.13	9024.31
843.454	8989.28
843.778	8984.76
844.103	8925.1
844.427	8893.47
844.751	8901.38
845.075	8944.31
845.399	8788.84
845.723	8828.16
846.047	8843.07
846.371	8773.7
846.695	8753.58
847.019	8670.2
847.343	8727.82
847.666	8632.23
847.99	8570.99
848.313	8588.39
848.637	8545.45
848.96	8524.89
849.284	8459.13
849.607	8430.65
849.931	8448.96
850.254	8281.73
850.577	8347.04
850.9	8313.82
851.223	8265.69
851.546	8238.79
851.869	8140.94
852.192	8206.03
852.515	8186.59
852.838	8131.68
853.161	8105.92
853.483	8106.14
853.806	8111.34
854.129	8008.07
854.451	7983.21
854.774	7986.82
855.096	7971.01
855.419	7928.07
855.741	7880.39
856.063	7906.15
856.385	7858.24
856.708	7816.21
857.03	7816.66
857.352	7822.76
857.674	7773.27
857.996	7775.53
858.318	7605.36
858.64	7749.99
858.961	7631.58
859.283	7593.39
859.605	7613.95
859.926	7640.17
860.248	7539.38
860.57	7589.32
860.891	7535.54
861.212	7499.15
861.534	7520.17
861.855	7515.88
862.176	7452.37
862.498	7485.82
862.819	7457.12
863.14	7422.32
863.461	7435.88
863.782	7395.88
864.103	7421.19
864.424	7393.39
864.745	7360.63
865.065	7394.52
865.386	7318.59
865.707	7370.34
866.027	7377.12
866.348	7330.12
866.668	7319.04
866.989	7318.59
867.309	7228.88
867.63	7306.16
867.95	7238.37
868.27	7218.71
868.59	7263
868.91	7222.1
869.23	7143.91
869.55	7153.63
869.87	7182.1
870.19	7112.27
870.51	7168.77
870.83	7138.48
871.15	7139.39
871.469	7096.68
871.789	7167.18
872.109	7126.06
872.428	7087.41
872.748	7070.24
873.067	7096.45
873.386	7150.24
873.706	7090.12
874.025	7038.15
874.344	7046.06
874.663	7001.99
874.982	6987.08
875.301	7013.29
875.62	6905.72
875.939	6934.87
876.258	6974.87
876.577	6892.39
876.896	6920.64
877.214	6971.94
877.533	6905.27
877.852	6907.08
878.17	6888.77
878.489	6874.08
878.807	6856.46
879.125	6875.89
879.444	6853.29
879.762	6841.09
880.08	6842
880.398	6841.32
880.716	6794.76
881.034	6833.63
881.352	6766.52
881.67	6783.01
881.988	6759.51
882.306	6755.22
882.624	6702.11
882.941	6668.89
883.259	6684.94
883.577	6672.51
883.894	6664.37
884.212	6648.1
884.529	6625.96
884.846	6610.81
885.164	6632.96
885.481	6591.38
885.798	6590.48
886.115	6540.99
886.432	6539.86
886.75	6533.53
887.067	6575.11
887.383	6479.07
887.7	6484.94
888.017	6485.85
888.334	6461.44
888.651	6426.86
888.967	6449.01
889.284	6376.24
889.6	6396.58
889.917	6377.83
890.233	6394.55
890.55	6344.83
890.866	6373.98
891.182	6326.75
891.498	6284.95
891.815	6309.13
892.131	6305.06
892.447	6256.25
892.763	6225.74
893.079	6173.54
893.395	6225.29
893.71	6177.38
894.026	6175.35
894.342	6167.66
894.657	6126.99
894.973	6028.91
895.289	6059.42
895.604	6085.86
895.92	6024.84
896.235	5984.62
896.55	5946.43
896.865	5944.84
897.181	5950.72
897.496	5932.64
897.811	5940.78
898.126	5892.19
898.441	5901
898.756	5848.12
899.071	5826.65
899.386	5804.28
899.7	5732.42
900.015	5719.99
900.33	5766.32
900.644	5760.67
900.959	5689.26
901.273	5694
901.588	5674.12
901.902	5636.83
902.216	5712.53
902.531	5634.12
902.845	5570.84
903.159	5616.26
903.473	5526.32
903.787	5483.61
904.101	5498.53
904.415	5514.12
904.729	5510.28
905.042	5454.01
905.356	5454.69
905.67	5430.28
905.984	5410.39
906.297	5452.88
906.611	5346.22
906.924	5287.91
907.237	5325.42
907.551	5313
907.864	5288.82
908.177	5288.36
908.491	5268.25
908.804	5229.61
909.117	5184.86
909.43	5181.47
909.743	5160.46
910.056	5154.58
910.368	5110.06
910.681	5070.97
910.994	5119.1
911.307	5114.81
911.619	5059.67
911.932	5059.44
912.244	5020.57
912.557	4987.35
912.869	4974.93
913.181	4959.33
913.494	4928.6
913.806	4918.2
914.118	4881.59
914.43	4866.45
914.742	4880.69
915.054	4796.17
915.366	4821.03
915.678	4790.3
915.99	4755.5
916.302	4748.26
916.613	4733.8
916.925	4740.58
917.236	4783.97
917.548	4686.35
917.859	4669.4
918.171	4671.66
918.482	4710.75
918.794	4629.4
919.105	4580.81
919.416	4531.32
919.727	4559.8
920.038	4577.2
920.349	4522.28
920.66	4506.24
920.971	4513.24
921.282	4495.39
921.593	4434.15
921.903	4440.48
922.214	4419.91
922.525	4435.96
922.835	4350.99
923.146	4346.47
923.456	4314.83
923.767	4324.77
924.077	4302.63
924.387	4271.44
924.697	4293.36
925.008	4240.03
925.318	4265.57
925.628	4250.42
925.938	4238.9
926.248	4203.65
926.558	4198.67
926.867	4176.08
927.177	4160.71
927.487	4141.95
927.796	4112.12
928.106	4127.49
928.416	4101.73
928.725	4040.49
929.034	4058.57
929.344	4053.14
929.653	3999.36
929.962	3989.64
930.271	3993.48
930.581	3947.38
930.89	3909.87
931.199	3923.43
931.508	3914.61
931.817	3889.76
932.125	3917.55
932.434	3884.56
932.743	3837.33
933.051	3836.65
933.36	3844.11
933.669	3778.35
933.977	3795.97
934.286	3781.74
934.594	3777.67
934.902	3727.5
935.21	3753.49
935.519	3729.76
935.827	3716.2
936.135	3689.54
936.443	3684.79
936.751	3665.13
937.059	3660.84
937.367	3674.39
937.674	3620.84
937.982	3598.46
938.29	3537.68
938.597	3590.56
938.905	3508.52
939.213	3518.69
939.52	3489.54
939.827	3528.41
940.135	3532.25
940.442	3500.61
940.749	3504
941.056	3499.48
941.363	3438.69
941.67	3411.12
941.977	3432.37
942.284	3391.01
942.591	3406.38
942.898	3381.3
943.205	3339.71
943.511	3351.69
943.818	3371.35
944.125	3311.47
944.431	3315.08
944.738	3341.3
945.044	3274.63
945.35	3263.56
945.657	3241.86
945.963	3273.95
946.269	3261.07
946.575	3274.41
946.881	3217.46
947.187	3200.06
947.493	3192.15
947.799	3151.7
948.105	3128.87
948.41	3138.59
948.716	3141.3
949.022	3091.13
949.327	3102.43
949.633	3085.94
949.938	3072.15
950.244	3082.32
950.549	3078.7
950.854	3023.79
951.16	3024.47
951.465	3002.55
951.77	3007.52
952.075	2965.26
952.38	2948.99
952.685	2965.94
952.99	2945.6
953.294	2920.97
953.599	2915.09
953.904	2918.26
954.209	2888.43
954.513	2901.76
954.818	2842.55
955.122	2886.39
955.426	2874.87
955.731	2844.36
956.035	2822.89
956.339	2809.11
956.643	2827.41
956.948	2795.1
957.252	2804.81
957.556	2779.5
957.86	2751.03
958.163	2751.26
958.467	2736.11
958.771	2739.73
959.075	2757.13
959.378	2712.61
959.682	2692.05
959.985	2707.19
960.289	2669.9
960.592	2636.91
960.896	2660.18
961.199	2657.7
961.502	2643.24
961.805	2641.88
962.108	2635.1
962.411	2605.5
962.714	2609.34
963.017	2610.24
963.32	2601.65
963.623	2573.18
963.926	2541.09
964.228	2515.56
964.531	2528.89
964.833	2518.49
965.136	2498.83
965.438	2471.26
965.741	2539.96
966.043	2484.37
966.345	2454.31
966.648	2446.18
966.95	2417.7
967.252	2419.29
967.554	2423.81
967.856	2423.35
968.158	2405.73
968.46	2402.79
968.761	2373.19
969.063	2396.91
969.365	2352.85
969.666	2345.62
969.968	2333.19
970.269	2331.61
970.571	2334.77
970.872	2331.83
971.174	2296.35
971.475	2309.91
971.776	2260.65
972.077	2273.98
972.378	2293.87
972.679	2289.12
972.98	2288.44
973.281	2261.32
973.582	2250.48
973.883	2240.53
974.183	2223.36
974.484	2206.64
974.785	2184.26
975.085	2187.65
975.386	2165.28
975.686	2168.22
975.986	2186.75
976.287	2157.6
976.587	2168.9
976.887	2125.51
977.187	2131.84
977.487	2124.15
977.787	2111.05
978.087	2111.5
978.387	2075.57
978.687	2095
978.987	2051.61
979.286	2070.82
979.586	2073.53
979.885	2058.62
980.185	2071.5
980.484	2046.42
980.784	2004.38
981.083	2008.45
981.382	2001.9
981.682	1989.92
981.981	1991.5
982.28	2016.81
982.579	1992.18
982.878	1981.33
983.177	2004.61
983.475	1938.62
983.774	1934.78
984.073	1893.65
984.372	1923.03
984.67	1923.48
984.969	1930.94
985.267	1917.38
985.566	1907.89
985.864	1888
986.162	1900.66
986.461	1880.32
986.759	1879.87
987.057	1853.88
987.355	1820.43
987.653	1839.64
987.951	1818.85
988.249	1833.09
988.547	1823.82
988.844	1814.56
989.142	1756.25
989.44	1814.78
989.737	1790.6
990.035	1786.76
990.332	1772.52
990.63	1762.35
990.927	1744.73
991.224	1750.38
991.521	1730.72
991.819	1730.72
992.116	1713.54
992.413	1722.36
992.71	1702.47
993.006	1699.76
993.303	1709.7
993.6	1680.1
993.897	1687.78
994.193	1703.37
994.49	1672.87
994.787	1662.7
995.083	1651.85
995.379	1634.9
995.676	1662.24
995.972	1612.98
996.268	1638.74
996.565	1588.35
996.861	1566.65
997.157	1567.11
997.453	1564.62
997.749	1585.86
998.044	1554.68
998.34	1594.9
998.636	1558.07
998.932	1547.67
999.227	1572.08
999.523	1538.63
999.818	1545.64
1000.114	1516.94
1000.409	1507.45
1000.704	1526.2
1001	1507.22
1001.295	1504.28
1001.59	1499.08
1001.885	1494.11
1002.18	1488.69
1002.475	1474.23
1002.77	1455.47
1003.065	1446.88
1003.359	1420.67
1003.654	1420.22
1003.949	1427.9
1004.243	1423.38
1004.538	1418.86
1004.832	1396.49
1005.127	1390.84
1005.421	1375.92
1005.715	1392.2
1006.009	1363.5
1006.304	1376.83
1006.598	1386.09
1006.892	1342.7
1007.186	1335.02
1007.48	1345.19
1007.773	1323.72
1008.067	1347.68
1008.361	1330.95
1008.655	1313.1
1008.948	1314.23
1009.242	1290.95
1009.535	1281.92
1009.829	1277.85
1010.122	1308.81
1010.415	1264.06
1010.708	1280.33
1011.001	1274.01
1011.295	1265.64
1011.588	1287.57
1011.881	1277.17
1012.173	1251.63
1012.466	1205.99
1012.759	1205.31
1013.052	1226.78
1013.344	1207.57
1013.637	1197.4
1013.93	1199.66
1014.222	1173.67
1014.514	1184.97
1014.807	1191.07
1015.099	1191.97
1015.391	1184.97
1015.683	1174.35
1015.976	1157.4
1016.268	1146.33
1016.56	1142.26
1016.851	1132.31
1017.143	1115.14
1017.435	1151.52
1017.727	1114.69
1018.018	1119.43
1018.31	1096.84
1018.602	1094.12
1018.893	1094.8
1019.185	1098.19
1019.476	1072.43
1019.767	1069.94
1020.058	1068.59
1020.35	1089.15
1020.641	1056.16
1020.932	1050.96
1021.223	1051.64
1021.514	1012.54
1021.804	1003.28
1022.095	1012.32
1022.386	1017.97
1022.677	1017.52
1022.967	1000.57
1023.258	1011.19
1023.548	1013.67
1023.839	1012.54
1024.129	977.97
1024.419	994.01
1024.709	982.94
1025	952.88
1025.29	976.39
1025.58	948.14
1025.87	935.48
1026.16	941.36
1026.449	952.43
1026.739	917.86
1027.029	940.23
1027.319	916.5
1027.608	895.71
1027.898	900.46
1028.187	934.35
1028.477	931.87
1028.766	898.87
1029.055	883.73
1029.344	902.49
1029.634	869.95
1029.923	900.91
1030.212	881.02
1030.501	855.26
1030.79	857.07
1031.078	868.82
1031.367	849.38
1031.656	822.94
1031.945	844.64
1032.233	835.83
1032.522	834.47
1032.81	818.65
1033.099	822.04
1033.387	821.81
1033.675	820.46
1033.963	806.22
1034.251	829.72
1034.54	800.12
1034.828	785.43
1035.116	806.45
1035.403	776.39
1035.691	798.99
1035.979	796.73
1036.267	780.46
1036.554	790.18
1036.842	736.39
1037.129	768.26
1037.417	747.01
1037.704	746.56
1037.992	745.43
1038.279	744.98
1038.566	746.56
1038.853	746.56
1039.14	746.56
