Data from hue_38_FLMS001491_00015.txt Node
Date: Tue Feb 07 17:31:07 GMT 2017
User: dcchb
Spectrometer: FLMS00149
Trigger mode: 0
Integration Time (sec): 2.000000E-2
Scans to average: 10
Electric dark correction enabled: true
Nonlinearity correction enabled: false
Boxcar width: 0
XAxis mode: Wavelengths
Number of Pixels in Spectrum: 2048
>>>>>Begin Spectral Data<<<<<
341.393	5.71
341.776	5.71
342.16	5.71
342.543	-44.01
342.927	-59.83
343.31	-85.59
343.693	-56.44
344.077	-65.7
344.46	-58.02
344.843	-50.56
345.226	-51.24
345.61	-33.39
345.993	-15.31
346.376	1.64
346.759	2.77
347.142	24.69
347.525	38.7
347.908	62.65
348.291	75.08
348.674	102.43
349.057	108.3
349.44	121.64
349.823	136.1
350.206	177.68
350.588	187.4
350.971	218.81
351.354	230.78
351.737	234.63
352.119	269.2
352.502	269.43
352.884	276.21
353.267	272.59
353.65	290.22
354.032	304
354.414	315.53
354.797	307.85
355.179	302.87
355.562	319.82
355.944	336.32
356.326	321.18
356.709	351.46
357.091	346.26
357.473	341.74
357.855	358.01
358.238	341.97
358.62	345.58
359.002	331.12
359.384	353.49
359.766	328.86
360.148	340.16
360.53	357.34
360.912	348.3
361.294	342.65
361.676	346.49
362.057	322.76
362.439	341.06
362.821	341.29
363.203	331.8
363.584	327.05
363.966	314.4
364.348	330.44
364.729	320.73
365.111	334.51
365.493	310.1
365.874	311.23
366.256	313.04
366.637	321.63
367.019	319.82
367.4	343.32
367.781	317.56
368.163	299.71
368.544	314.62
368.925	321.63
369.306	325.92
369.688	322.08
370.069	310.1
370.45	322.08
370.831	321.18
371.212	320.27
371.593	302.87
371.974	298.35
372.355	329.31
372.736	328.64
373.117	319.14
373.498	314.4
373.879	294.74
374.26	302.42
374.641	335.64
375.021	323.89
375.402	338.13
375.783	329.09
376.163	327.73
376.544	319.37
376.925	318.01
377.305	331.35
377.686	321.86
378.066	344.68
378.447	343.78
378.827	316.66
379.208	312.36
379.588	338.8
379.968	326.15
380.349	330.22
380.729	358.01
381.109	355.75
381.489	361.63
381.87	330.44
382.25	339.93
382.63	344
383.01	337.67
383.39	347.84
383.77	342.19
384.15	340.61
384.53	350.1
384.91	348.75
385.29	361.85
385.67	344
386.049	362.76
386.429	339.48
386.809	365.92
387.189	357.34
387.568	363.21
387.948	334.96
388.328	377.45
388.707	360.5
389.087	360.05
389.466	367.73
389.846	370.89
390.225	365.24
390.605	354.85
390.984	369.76
391.363	372.48
391.743	367.28
392.122	358.92
392.501	379.93
392.881	389.2
393.26	361.85
393.639	394.62
394.018	366.83
394.397	385.58
394.776	379.03
395.155	388.07
395.534	370.67
395.913	352.82
396.292	386.26
396.671	372.7
397.05	390.55
397.429	391.68
397.808	369.99
398.186	377.9
398.565	389.88
398.944	389.88
399.323	395.3
399.701	407.73
400.08	401.18
400.458	408.63
400.837	409.76
401.215	402.08
401.594	393.49
401.972	391.23
402.351	393.04
402.729	383.1
403.107	402.98
403.486	409.09
403.864	401.85
404.242	432.14
404.62	419.03
404.999	398.46
405.377	427.84
405.755	421.29
406.133	410.44
406.511	429.88
406.889	420.38
407.267	428.07
407.645	434.62
408.023	439.59
408.401	429.88
408.779	432.36
409.156	460.38
409.534	441.17
409.912	447.28
410.29	436.2
410.667	446.6
411.045	470.55
411.422	461.06
411.8	442.76
412.178	460.38
412.555	472.59
412.933	461.51
413.31	492.47
413.687	460.38
414.065	468.29
414.442	477.56
414.819	474.39
415.197	497.67
415.574	475.98
415.951	476.2
416.328	492.92
416.705	492.7
417.082	491.79
417.46	492.7
417.837	511.23
418.214	489.99
418.591	517.33
418.967	526.14
419.344	513.26
419.721	514.39
420.098	515.52
420.475	535.86
420.852	551.23
421.228	518.69
421.605	531.12
421.982	531.12
422.358	535.18
422.735	535.18
423.111	550.1
423.488	555.07
423.864	543.55
424.241	569.53
424.617	572.92
424.994	567.73
425.37	558.01
425.746	572.02
426.123	583.54
426.499	568.63
426.875	556.65
427.251	595.3
427.627	578.35
428.003	600.94
428.379	587.84
428.756	607.95
429.132	596.42
429.507	611.57
429.883	622.64
430.259	634.84
430.635	611.34
431.011	620.15
431.387	645.46
431.763	654.95
432.138	635.75
432.514	629.19
432.89	645.69
433.265	651.11
433.641	658.8
434.016	648.18
434.392	678
434.767	682.75
435.143	671.23
435.518	688.85
435.894	703.09
436.269	690.66
436.644	704.9
437.02	702.18
437.395	704.67
437.77	730.66
438.145	733.37
438.52	723.2
438.895	721.62
439.271	718.91
439.646	755.52
440.021	756.87
440.395	746.48
440.77	732.69
441.145	736.53
441.52	761.62
441.895	761.84
442.27	782.63
442.645	771.34
443.019	781.5
443.394	767.49
443.769	793.71
444.143	776.08
444.518	807.27
444.892	804.33
445.267	828.96
445.641	807.72
446.016	819.92
446.39	824.44
446.764	795.52
447.139	809.98
447.513	824.89
447.887	823.31
448.262	834.84
448.636	824.44
449.01	832.8
449.384	848.85
449.758	841.84
450.132	867.6
450.506	869.64
450.88	862.18
451.254	884.78
451.628	882.52
452.002	905.57
452.376	882.75
452.75	894.5
453.123	900.15
453.497	922.97
453.871	918.9
454.244	931.33
454.618	965.91
454.992	941.05
455.365	935.63
455.739	977.66
456.112	961.61
456.486	994.83
456.859	980.37
457.232	1003.42
457.606	1013.82
457.979	1042.51
458.352	1051.78
458.725	1046.36
459.099	1056.75
459.472	1072.57
459.845	1093.59
460.218	1078.45
460.591	1083.64
460.964	1118.9
461.337	1135.85
461.71	1148.5
462.083	1178.33
462.456	1165.68
462.829	1201.83
463.201	1200.93
463.574	1184.43
463.947	1202.74
464.32	1235.96
464.692	1261.49
465.065	1257.88
465.438	1275.73
465.81	1288.16
466.183	1318.67
466.555	1324.77
466.928	1348.27
467.3	1327.25
467.672	1391.21
468.045	1410.41
468.417	1411.54
468.789	1450.64
469.161	1420.58
469.534	1442.28
469.906	1521.6
470.278	1503.52
470.65	1533.12
471.022	1551.2
471.394	1601.82
471.766	1627.81
472.138	1680.01
472.51	1701.48
472.882	1711.88
473.253	1762.72
473.625	1802.95
473.997	1823.29
474.369	1830.74
474.74	1874.58
475.112	1926.33
475.484	1973.34
475.855	1988.25
476.227	2035.03
476.598	2096.5
476.97	2129.94
477.341	2193.22
477.713	2242.26
478.084	2277.06
478.455	2341.01
478.827	2399.99
479.198	2455.81
479.569	2482.48
479.94	2566.09
480.311	2633.21
480.682	2726.54
481.053	2762.92
481.424	2870.94
481.795	2961.11
482.166	2989.58
482.537	3065.06
482.908	3164.04
483.279	3158.84
483.65	3319.52
484.021	3371.49
484.391	3446.97
484.762	3506.18
485.133	3573.97
485.503	3670.02
485.874	3770.13
486.244	3843.35
486.615	3932.16
486.985	4054.19
487.356	4128.08
487.726	4261.64
488.097	4349.09
488.467	4460.28
488.837	4544.12
489.207	4677.67
489.578	4790.44
489.948	4871.79
490.318	4965.58
490.688	5006.25
491.058	5143.42
491.428	5263.42
491.798	5380.25
492.168	5569.63
492.538	5536.86
492.908	5683.97
493.278	5791.09
493.648	5867.25
494.017	6023.4
494.387	6139.56
494.757	6206.45
495.126	6269.5
495.496	6380
495.866	6449.6
496.235	6618.41
496.605	6690.95
496.974	6782.7
497.344	6887.11
497.713	6965.52
498.082	7040.78
498.452	7206.19
498.821	7259.75
499.19	7341.33
499.559	7484.61
499.928	7522.8
500.298	7630.59
500.667	7743.58
501.036	7768.44
501.405	7890.92
501.774	7887.76
502.143	7988.1
502.512	8139.5
502.88	8209.78
503.249	8188.99
503.618	8351.93
503.987	8436.44
504.356	8507.4
504.724	8663.33
505.093	8671.01
505.462	8732.26
505.83	8816.77
506.199	8904.68
506.567	9052.47
506.936	9081.85
507.304	9189.42
507.672	9289.3
508.041	9290.21
508.409	9352.58
508.777	9482.75
509.145	9535.4
509.514	9556.42
509.882	9715.96
510.25	9706.47
510.618	9820.36
510.986	9833.7
511.354	9933.58
511.722	10168.38
512.09	10195.72
512.458	10121.15
512.826	10322.95
513.193	10336.96
513.561	10436.62
513.929	10484.53
514.297	10534.02
514.664	10657.63
515.032	10696.95
515.4	10789.38
515.767	10818.76
516.135	10874.35
516.502	10848.13
516.869	11106.66
517.237	11023.72
517.604	11099.43
517.972	11213.32
518.339	11344.16
518.706	11334.9
519.073	11434.56
519.44	11488.79
519.808	11558.17
520.175	11533.76
520.542	11728.56
520.909	11870.93
521.276	11767.66
521.643	11966.3
522.009	11999.51
522.376	12095.11
522.743	12080.19
523.11	12325.61
523.477	12387.08
523.843	12463.68
524.21	12565.83
524.577	12608.99
524.943	12707.52
525.31	12822.09
525.676	12896.89
526.043	12956.55
526.409	12977.34
526.776	13139.6
527.142	13134.4
527.508	13268.41
527.874	13277
528.241	13451.23
528.607	13537.1
528.973	13643.54
529.339	13585.46
529.705	13756.98
530.071	13844.44
530.437	13875.17
530.803	13934.15
531.169	14045.56
531.535	14015.06
531.901	14122.4
532.267	14178.44
532.632	14342.28
532.998	14353.8
533.364	14364.88
533.73	14380.7
534.095	14554.25
534.461	14630.41
534.826	14639.22
535.192	14756.05
535.557	14787.46
535.923	14855.26
536.288	14910.85
536.653	14996.5
537.019	14935.71
537.384	15071.3
537.749	15003.73
538.114	15135.25
538.479	15217.28
538.845	15320.78
539.21	15299.99
539.575	15333.21
539.94	15513.55
540.305	15569.36
540.67	15502.02
541.034	15570.27
541.399	15671.73
541.764	15762.35
542.129	15829.02
542.494	15832.18
542.858	15945.4
543.223	15964.16
543.587	16010.71
543.952	16036.7
544.316	16146.75
544.681	16161.21
545.045	16347.65
545.41	16345.39
545.774	16397.37
546.138	16369.12
546.503	16462.9
546.867	16513.29
547.231	16660.64
547.595	16736.57
547.959	16727.07
548.324	16695.66
548.688	16783.57
549.052	16831.48
549.416	16868.54
549.779	16905.83
550.143	16953.96
550.507	17108.31
550.871	17137.68
551.235	17134.52
551.599	17245.25
551.962	17246.61
552.326	17447.73
552.689	17459.94
553.053	17417
553.417	17434.85
553.78	17739.03
554.143	17642.3
554.507	17780.83
554.87	17794.62
555.234	18024.89
555.597	17863.77
555.96	17974.73
556.323	18086.59
556.686	18056.98
557.05	18117.55
557.413	18200.03
557.776	18347.37
558.139	18334.04
558.502	18353.7
558.865	18469.18
559.228	18536.29
559.59	18631.88
559.953	18593.92
560.316	18831.65
560.679	18675.72
561.041	19040.01
561.404	19090.4
561.767	19131.08
562.129	19054.24
562.492	19212.88
562.854	19284.52
563.217	19271.64
563.579	19298.31
563.941	19480
564.304	19510.28
564.666	19682.02
565.028	19617.17
565.39	19829.14
565.753	19899.42
566.115	19903.71
566.477	20031.62
566.839	19995.69
567.201	20135.35
567.563	20272.74
567.925	20297.83
568.287	20350.93
568.648	20457.82
569.01	20557.26
569.372	20737.36
569.734	20559.74
570.095	20681.77
570.457	20838.38
570.819	20940.3
571.18	20967.64
571.542	20988.43
571.903	21127.41
572.265	21211.25
572.626	21254.19
572.987	21498.93
573.349	21487.63
573.71	21549.32
574.071	21651.92
574.432	21850.33
574.794	21907.28
575.155	21999.25
575.516	21961.74
575.877	22103.66
576.238	22277.44
576.599	22368.06
576.96	22480.37
577.32	22410.31
577.681	22594.49
578.042	22780.25
578.403	22798.78
578.763	23073.35
579.124	23138.21
579.485	23379.78
579.845	23554.69
580.206	23532.09
580.566	23666.78
580.927	23872.42
581.287	23974.34
581.648	24097.5
582.008	24351.28
582.368	24463.37
582.728	24633.99
583.089	24700.2
583.449	24912.17
583.809	25231.26
584.169	25377.24
584.529	25380.18
584.889	25846.83
585.249	25649.1
585.609	25893.16
585.969	26220.16
586.329	26268.97
586.688	26546.93
587.048	26695.4
587.408	26900.82
587.768	26995.5
588.127	27136.74
588.487	27282.5
588.846	27767.46
589.206	27725.2
589.565	27964.52
589.925	28249.03
590.284	28455.81
590.643	28620.32
591.003	29018.5
591.362	29175.79
591.721	29261.43
592.08	29437.02
592.44	29824.58
592.799	29949.55
593.158	30126.95
593.517	30490.1
593.876	30541.63
594.235	30717.67
594.593	30841.96
594.952	31079.69
595.311	31279.23
595.67	31495.95
596.029	31853.46
596.387	32137.74
596.746	32231.07
597.104	32342.71
597.463	32400.56
597.822	32816.59
598.18	32864.5
598.538	32975.91
598.897	33258.17
599.255	33385.39
599.613	34001.65
599.972	33741.54
600.33	34024.7
600.688	33988.09
601.046	34376.33
601.404	34624
601.762	34596.66
602.12	34946.03
602.478	35150.54
602.836	35402.74
603.194	35141.96
603.552	35390.31
603.91	35547.6
604.268	35745.33
604.625	35908.49
604.983	36112.78
605.341	36165.21
605.698	36340.57
606.056	36591.86
606.413	36689.71
606.771	36889.93
607.128	37126.54
607.485	37051.06
607.843	37172.64
608.2	37479.52
608.557	37650.59
608.914	37526.53
609.272	37785.73
609.629	38114.08
609.986	38284.93
610.343	38096.23
610.7	38607.63
611.057	38682.2
611.414	38555.65
611.771	38804.23
612.127	39012.36
612.484	39033.38
612.841	39286.48
613.198	39171.46
613.554	39232.02
613.911	39643.31
614.267	39633.59
614.624	39666.58
614.98	39871.55
615.337	40033.13
615.693	39971.21
616.05	40133.24
616.406	40458.43
616.762	40331.2
617.118	40424.53
617.475	40474.25
617.831	40686.9
618.187	40508.37
618.543	40734.8
618.899	40968.02
619.255	41049.6
619.611	41088.69
619.967	41267.45
620.323	41399.65
620.678	41163.72
621.034	41200.78
621.39	41255.69
621.746	41292.76
622.101	41730.71
622.457	41618.17
622.812	41623.37
623.168	41738.62
623.523	41778.39
623.879	41906.75
624.234	41749.47
624.589	41915.11
624.945	42044.37
625.3	42003.92
625.655	42160.76
626.01	42166.86
626.365	42108.1
626.72	42146.74
627.075	42209.34
627.43	42138.61
627.785	42176.35
628.14	42286.63
628.495	42423.35
628.85	42402.78
629.205	42219.74
629.559	42476
629.914	42280.3
630.269	42377.7
630.623	42264.93
630.978	42274.88
631.332	42446.17
631.687	42579.28
632.041	42398.94
632.396	42461.54
632.75	42432.16
633.104	42404.37
633.459	42290.7
633.813	42189.23
634.167	42263.13
634.521	42347.87
634.875	42400.75
635.229	42510.35
635.583	42243.24
635.937	42225.84
636.291	42398.49
636.645	42131.38
636.999	42199.62
637.352	42320.53
637.706	42132.73
638.06	42174.09
638.413	42225.84
638.767	42189.23
639.121	42212.05
639.474	41999.63
639.828	42151.49
640.181	42102
640.534	42167.76
640.888	41903.59
641.241	41907.2
641.594	41821.56
641.947	42044.37
642.301	41888.9
642.654	41819.97
643.007	42047.31
643.36	41987.88
643.713	41927.99
644.066	42130.7
644.419	41798.51
644.771	41537.04
645.124	41279.2
645.477	41143.83
645.83	40819.55
646.182	40670.85
646.535	40730.28
646.888	40759.21
647.24	40704.75
647.593	40682.15
647.945	40660
648.298	40623.62
648.65	40526.22
649.002	40368.71
649.355	40605.99
649.707	40658.2
650.059	40664.07
650.411	41200.56
650.763	41221.35
651.115	41493.2
651.467	41338.63
651.819	41400.78
652.171	41360.78
652.523	41244.62
652.875	41251.85
653.227	41051.86
653.578	41504.73
653.93	41443.94
654.282	41236.94
654.633	41028.81
654.985	41100.44
655.337	41109.26
655.688	41200.1
656.039	41282.81
656.391	40847.8
656.742	41045.53
657.094	41146.55
657.445	41259.08
657.796	41061.35
658.147	41106.55
658.498	40971.63
658.849	41102.93
659.2	41089.37
659.551	40961.24
659.902	41108.13
660.253	40923.27
660.604	41035.14
660.955	40798.76
661.306	41132.76
661.656	41019.99
662.007	40968.7
662.358	40767.8
662.708	41003.27
663.059	40970.96
663.409	40673.79
663.76	40979.09
664.11	40932.54
664.461	40948.58
664.811	41064.06
665.161	40911.07
665.511	40805.31
665.862	40878.76
666.212	40955.36
666.562	40952.2
666.912	40950.84
667.262	40728.93
667.612	40830.85
667.962	40754.92
668.312	40902.26
668.662	40945.19
669.011	40834.46
669.361	40876.5
669.711	40677.86
670.06	40723.73
670.41	40713.56
670.76	40671.98
671.109	40651.19
671.459	40551.08
671.808	40507.92
672.157	40613.23
672.507	40407.13
672.856	40608.93
673.205	40415.27
673.554	40603.73
673.904	40439.67
674.253	40704.07
674.602	40536.62
674.951	40055.5
675.3	39903.87
675.649	40574.13
675.998	40435.83
676.346	40460.01
676.695	40544.98
677.044	40195.16
677.393	40387.02
677.741	40319.45
678.09	40321.93
678.438	40215.95
678.787	40402.38
679.135	40472.44
679.484	39951.1
679.832	40118.78
680.181	39848.27
680.529	40029.06
680.877	40005.33
681.225	39914.94
681.573	40138.44
681.922	39815.51
682.27	39690.09
682.618	39609.86
682.966	39603.76
683.314	39681.27
683.661	39621.84
684.009	39367.83
684.357	39465.46
684.705	39323.99
685.053	39343.88
685.4	39307.95
685.748	39140.95
686.095	39130.1
686.443	38904.57
686.79	38956.32
687.138	39066.6
687.485	39071.35
687.832	38879.49
688.18	39009.43
688.527	38736.67
688.874	38764.91
689.221	38599.27
689.568	38484.47
689.915	38360.4
690.262	38471.14
690.609	38473.4
690.956	38196.79
691.303	38227.07
691.65	38061.43
691.997	38083.35
692.344	37837.25
692.69	37827.31
693.037	37923.81
693.383	37520.88
693.73	37656.02
694.077	37358.85
694.423	37390.03
694.769	37222.35
695.116	37264.61
695.462	37187.33
695.808	37175.35
696.155	37130.15
696.501	36856.71
696.847	36889.26
697.193	36748.47
697.539	36742.14
697.885	36582.82
698.231	36386.22
698.577	36495.37
698.923	36223.28
699.269	36151.2
699.614	35932.22
699.96	35950.07
700.306	36053.8
700.651	35906.46
700.997	35688.16
701.342	35731.55
701.688	35679.57
702.033	35532
702.379	35516.18
702.724	35511.67
703.069	35421.27
703.415	35054.05
703.76	35076.42
704.105	35064.67
704.45	34962.75
704.795	34818.35
705.14	34738.8
705.485	34703.32
705.83	34508.75
706.175	34682.99
706.52	34409.77
706.865	34217.91
707.209	34517.12
707.554	34214.98
707.899	34439.15
708.243	34108.09
708.588	33967.3
708.932	33838.71
709.277	33829.22
709.621	33825.38
709.966	33483.7
710.31	33645.5
710.654	33417.03
710.998	33529.34
711.342	33379.07
711.687	33487.54
712.031	33147.66
712.375	33055.91
712.719	33257.49
713.063	33051.39
713.407	33188.79
713.75	32959.42
714.094	32853.2
714.438	32717.61
714.782	32798.29
715.125	32641.01
715.469	32740.21
715.812	32575.92
716.156	32457.51
716.499	32461.35
716.843	32373.89
717.186	32228.36
717.53	32356.95
717.873	32463.16
718.216	32342.93
718.559	32028.59
718.902	31849.39
719.246	32089.61
719.589	31897.75
719.932	31783.63
720.275	31847.35
720.617	31881.25
720.96	31742.05
721.303	31656.85
721.646	31661.82
721.989	31627.93
722.331	31551.54
722.674	31513.13
723.016	31465.44
723.359	31389.51
723.701	31402.17
724.044	31215.05
724.386	31137.77
724.729	31276.52
725.071	31102.52
725.413	31067.04
725.755	31013.25
726.097	30869.08
726.439	30872.92
726.782	30870.88
727.124	30868.17
727.465	30721.73
727.807	30748.63
728.149	30773.71
728.491	30573.72
728.833	30706.82
729.175	30558.58
729.516	30525.58
729.858	30481.51
730.199	30371.69
730.541	30488.52
730.882	30290.11
731.224	30422.08
731.565	30176.89
731.906	30201.3
732.248	30280.84
732.589	30012.83
732.93	29971.47
733.271	30032.49
733.612	30035.65
733.953	30003.11
734.294	29976.67
734.635	29873.17
734.976	29887.41
735.317	29604.93
735.658	29757.01
735.999	29786.62
736.339	29631.59
736.68	29718.15
737.021	29557.47
737.361	29427.76
737.702	29733.29
738.042	29584.36
738.383	29440.86
738.723	29340.98
739.063	29439.51
739.404	29457.59
739.744	29231.6
740.084	29192.96
740.424	29290.81
740.764	29195.9
741.104	29306.63
741.444	29169.91
741.784	28975.79
742.124	29034.1
742.464	29022.57
742.804	28913.87
743.143	28791.16
743.483	28818.28
743.823	28606.31
744.162	28686.31
744.502	28847.66
744.841	28674.56
745.181	28685.18
745.52	28604.73
745.86	28666.42
746.199	28593.2
746.538	28511.17
746.877	28559.31
747.216	28469.82
747.556	28476.82
747.895	28466.2
748.234	28360.44
748.573	28314.11
748.911	28252.65
749.25	28277.73
749.589	28054.46
749.928	28179.65
750.267	28229.37
750.605	28069.6
750.944	27907.12
751.283	27837.74
751.621	27897.18
751.96	27647.69
752.298	27731.76
752.636	27748.71
752.975	27705.77
753.313	27553.68
753.651	27622.61
753.989	27435.72
754.327	27456.06
754.666	27221.94
755.004	27308.27
755.342	27342.61
755.679	27178.1
756.017	27077.31
756.355	27219.91
756.693	27016.3
757.031	27102.85
757.368	26878.22
757.706	26990.08
758.044	26800.03
758.381	26830.99
758.719	26729.07
759.056	26810.42
759.394	26699.47
759.731	26449.3
760.068	26443.88
760.405	26255.41
760.743	26266.94
761.08	26307.61
761.417	26082.76
761.754	26111.46
762.091	25957.57
762.428	26032.37
762.765	25799.15
763.102	25845.25
763.438	25666.27
763.775	25558.48
764.112	25649.1
764.449	25566.16
764.785	25607.52
765.122	25285.72
765.458	25243.69
765.795	25276
766.131	25191.94
766.467	24972.06
766.804	24978.83
767.14	24917.37
767.476	24823.36
767.812	24848.89
768.148	24732.29
768.485	24621.56
768.821	24502.46
769.157	24440.54
769.492	24366.65
769.828	24415.91
770.164	24273.32
770.5	24098.63
770.836	24090.72
771.171	23930.95
771.507	23905.87
771.842	23622.26
772.178	23713.56
772.513	23533.9
772.849	23536.84
773.184	23421.14
773.519	23518.76
773.855	23312.89
774.19	23311.76
774.525	23160.8
774.86	23102.27
775.195	23016.63
775.53	22879.23
775.865	22814.15
776.2	22678.56
776.535	22538.45
776.87	22499.8
777.205	22435.85
777.539	22248.51
777.874	22404.89
778.209	22048.52
778.543	22076.99
778.878	21987.5
779.212	22136.65
779.547	21829.54
779.881	21855.3
780.215	21726.94
780.55	21816.43
780.884	21645.36
781.218	21580.28
781.552	21699.37
781.886	21413.73
782.22	21429.1
782.554	21267.75
782.888	21083.8
783.222	21030.69
783.556	20975.78
783.889	20945.04
784.223	20679.06
784.557	20707.31
784.89	20764.93
785.224	20576.24
785.557	20598.84
785.891	20487.88
786.224	20317.04
786.558	20369.69
786.891	20235.23
787.224	20072.07
787.557	20058.96
787.891	20079.08
788.224	19964.05
788.557	20076.59
788.89	19939.87
789.223	19856.48
789.556	19783.72
789.888	19688.13
790.221	19691.29
790.554	19504.85
790.887	19522.71
791.219	19394.35
791.552	19370.39
791.884	19243.84
792.217	19141.47
792.549	19072.78
792.882	18949.16
793.214	19019.67
793.546	18860.8
793.879	18814.48
794.211	18763.4
794.543	18739
794.875	18725.67
795.207	18698.55
795.539	18520.7
795.871	18601.15
796.203	18412.68
796.535	18311.89
796.867	18240.93
797.198	18191.67
797.53	18182.4
797.862	18033.48
798.193	18072.8
798.525	17965.69
798.856	17987.61
799.188	17848.17
799.519	17726.37
799.85	17723.21
800.182	17744.22
800.513	17623.77
800.844	17505.13
801.175	17659.25
801.506	17628.97
801.837	17536.09
802.168	17357.11
802.499	17375.19
802.83	17260.62
803.161	17235.54
803.491	17243.22
803.822	17201.41
804.153	17051.81
804.483	16991.7
804.814	16908.31
805.145	16900.4
805.475	16988.54
805.805	16751.03
806.136	16927.3
806.466	16774.3
806.796	16777.24
807.126	16636.46
807.457	16635.55
807.787	16585.38
808.117	16446.86
808.447	16479.62
808.777	16523.69
809.107	16391.26
809.436	16371.83
809.766	16388.1
810.096	16198.27
810.426	16205.73
810.755	16193.08
811.085	16094.1
811.414	16130.48
811.744	15942.46
812.073	15973.2
812.403	15999.18
812.732	15884.38
813.061	15857.72
813.39	15751.73
813.719	15806.19
814.049	15774.56
814.378	15746.76
814.707	15654.33
815.036	15674.45
815.365	15567.78
815.693	15468.12
816.022	15423.15
816.351	15363.72
816.68	15277.17
817.008	15424.28
817.337	15106.55
817.665	15139.32
817.994	15204.4
818.322	15142.48
818.651	15102.71
818.979	15062.49
819.307	15103.16
819.636	15019.1
819.964	15024.97
820.292	15024.97
820.62	14956.27
820.948	14923.05
821.276	14988.14
821.604	14895.03
821.932	14946.56
822.259	14990.17
822.587	14943.39
822.915	14905.88
823.243	14891.42
823.57	14835.6
823.898	14833.79
824.225	14835.15
824.553	14845.77
824.88	14838.54
825.207	14853.23
825.535	14830.18
825.862	14927.12
826.189	14796.96
826.516	14818.65
826.843	14834.02
827.17	14881.47
827.497	14948.82
827.824	14916.27
828.151	14917.4
828.478	14915.14
828.805	14838.76
829.131	14838.54
829.458	14794.02
829.785	14728.71
830.111	14783.85
830.438	14891.64
830.764	14858.65
831.09	14875.37
831.417	14753.34
831.743	14800.35
832.069	14766.45
832.395	14707.01
832.722	14732.1
833.048	14699.78
833.374	14709.5
833.7	14679.67
834.026	14780.68
834.351	14666.34
834.677	14679.44
835.003	14620.24
835.329	14614.59
835.654	14629.95
835.98	14547.24
836.306	14603.29
836.631	14459.34
836.956	14525.1
837.282	14547.47
837.607	14436.74
837.932	14444.65
838.258	14438.77
838.583	14468.83
838.908	14355.39
839.233	14337.76
839.558	14280.13
839.883	14298.89
840.208	14215.05
840.533	14311.32
840.858	14147.48
841.182	14182.73
841.507	14268.38
841.832	14180.25
842.156	14135.73
842.481	14136.41
842.805	13992.23
843.13	14023.42
843.454	13996.07
843.778	13899.58
844.103	13874.95
844.427	13847.6
844.751	13878.56
845.075	13800.82
845.399	13814.16
845.723	13715.85
846.047	13726.48
846.371	13629.3
846.695	13615.29
847.019	13492.13
847.343	13448.52
847.666	13396.77
847.99	13336.65
848.313	13282.19
848.637	13282.42
848.96	13233.83
849.284	13222.31
849.607	13079.49
849.931	13033.84
850.254	12962.2
850.577	12860.06
850.9	12767.18
851.223	12808.53
851.546	12704.13
851.869	12673.85
852.192	12733.28
852.515	12608.54
852.838	12565.15
853.161	12515.21
853.483	12472.04
853.806	12394.08
854.129	12406.28
854.451	12340.07
854.774	12328.09
855.096	12275.89
855.419	12209.45
855.741	12215.78
856.063	12042.9
856.385	12121.09
856.708	12027.31
857.03	12050.14
857.352	12115.67
857.674	12043.36
857.996	11925.62
858.318	11875.45
858.64	11699.64
858.961	11840.42
859.283	11779.86
859.605	11706.64
859.926	11797.94
860.248	11628
860.57	11644.04
860.891	11653.76
861.212	11602.01
861.534	11575.35
861.855	11458.74
862.176	11615.34
862.498	11498.06
862.819	11465.74
863.14	11421.45
863.461	11436.82
863.782	11426.65
864.103	11346.65
864.424	11336.71
864.745	11379.42
865.065	11322.02
865.386	11306.2
865.707	11310.72
866.027	11275.47
866.348	11288.57
866.668	11209.93
866.989	11208.35
867.309	11152.31
867.63	11187.33
867.95	11163.6
868.27	11140.33
868.59	11085.87
868.91	11072.08
869.23	11137.16
869.55	11036.15
869.87	11044.51
870.19	11094.45
870.51	11030.95
870.83	10999.77
871.15	10897.17
871.469	10903.05
871.789	10898.98
872.109	10940.11
872.428	10844.74
872.748	10852.65
873.067	10863.5
873.386	10885.19
873.706	10820.56
874.025	10757.97
874.344	10748.47
874.663	10724.75
874.982	10690.4
875.301	10768.36
875.62	10684.3
875.939	10664.86
876.258	10722.94
876.577	10610.85
876.896	10575.15
877.214	10628.7
877.533	10600.68
877.852	10607.69
878.17	10552.77
878.489	10543.06
878.807	10468.93
879.125	10505.09
879.444	10475.26
879.762	10464.64
880.08	10437.07
880.398	10434.36
880.716	10401.59
881.034	10394.13
881.352	10454.7
881.67	10338.77
881.988	10269.84
882.306	10234.82
882.624	10237.3
882.941	10228.26
883.259	10189.85
883.577	10197.53
883.894	10134.71
884.212	10158.21
884.529	10213.8
884.846	10129.06
885.164	10129.06
885.481	10072.79
885.798	10053.58
886.115	9964.77
886.432	10013.8
886.75	9949.4
887.067	9934.03
887.383	9895.16
887.7	9914.6
888.017	9848.39
888.334	9861.04
888.651	9865.56
888.967	9820.82
889.284	9813.36
889.6	9769.07
889.917	9650.42
890.233	9710.76
890.55	9673.93
890.866	9617.43
891.182	9662.63
891.498	9545.12
891.815	9546.7
892.131	9526.81
892.447	9522.52
892.763	9473.71
893.079	9431.45
893.395	9496.53
893.71	9370.43
894.026	9353.03
894.342	9405.68
894.657	9309.64
894.973	9320.72
895.289	9320.26
895.604	9337.44
895.92	9201.62
896.235	9185.58
896.55	9130.89
896.865	9132.02
897.181	9103.55
897.496	9072.13
897.811	9038.91
898.126	9015.64
898.441	8907.84
898.756	8909.88
899.071	8925.7
899.386	8918.24
899.7	8753.5
900.015	8800.28
900.33	8718.25
900.644	8763.44
900.959	8774.74
901.273	8745.59
901.588	8669.43
901.902	8624.24
902.216	8601.41
902.531	8587.18
902.845	8492.26
903.159	8474.86
903.473	8460.4
903.787	8402.1
904.101	8341.31
904.415	8420.63
904.729	8392.15
905.042	8268.54
905.356	8243.68
905.67	8235.55
905.984	8263.79
906.297	8195.1
906.611	8138.15
906.924	8188.09
907.237	8121.65
907.551	8040.52
907.864	8052.5
908.177	7981.54
908.491	8010.69
908.804	7949.23
909.117	7925.72
909.43	7825.84
909.743	7779.29
910.056	7785.16
910.368	7770.47
910.681	7756.46
910.994	7705.39
911.307	7647.31
911.619	7611.16
911.932	7583.13
912.244	7532.29
912.557	7506.98
912.869	7500.2
913.181	7430.6
913.494	7464.49
913.806	7375
914.118	7375.46
914.43	7372.52
914.742	7359.41
915.054	7281.67
915.366	7291.16
915.678	7262.46
915.99	7181.11
916.302	7130.26
916.613	7132.98
916.925	7101.34
917.236	7053.66
917.548	7058.18
917.859	7101.56
918.171	6976.37
918.482	6994.45
918.794	6962.81
919.105	6969.59
919.416	6915.81
919.727	6891.85
920.038	6864.06
920.349	6822.93
920.66	6765.98
920.971	6833.32
921.282	6772.08
921.593	6674.91
921.903	6649.6
922.214	6620.45
922.525	6608.02
922.835	6550.17
923.146	6561.24
923.456	6529.83
923.767	6464.75
924.077	6439.89
924.387	6472.43
924.697	6398.31
925.008	6410.28
925.318	6388.59
925.628	6291.42
925.938	6341.58
926.248	6262.04
926.558	6237.63
926.867	6213.9
927.177	6183.62
927.487	6168.26
927.796	6101.14
928.106	6098.65
928.416	6044.42
928.725	6134.81
929.034	6028.15
929.344	6032.89
929.653	6018.43
929.962	5958.32
930.271	5907.25
930.581	5895.04
930.89	5875.83
931.199	5806.01
931.508	5823.18
931.817	5822.95
932.125	5822.5
932.434	5764.65
932.743	5749.06
933.051	5702.96
933.36	5671.32
933.669	5643.07
933.977	5615.95
934.286	5624.54
934.594	5599.23
934.902	5540.25
935.21	5498.22
935.519	5463.19
935.827	5510.42
936.135	5482.62
936.443	5411.21
936.751	5458.67
937.059	5417.32
937.367	5338.67
937.674	5374.6
937.982	5394.26
938.29	5301.16
938.597	5344.55
938.905	5257.55
939.213	5253.48
939.52	5196.53
939.827	5240.82
940.135	5180.26
940.442	5171.22
940.749	5124.22
941.056	5129.64
941.363	5090.09
941.67	5078.57
941.977	5047.83
942.284	5021.85
942.591	4980.72
942.898	4956.54
943.205	4993.37
943.511	4878.8
943.818	4904.56
944.125	4878.35
944.431	4843.77
944.738	4877.67
945.044	4855.52
945.35	4795.18
945.657	4787.5
945.963	4776.2
946.269	4716.54
946.575	4747.5
946.881	4695.98
947.187	4695.98
947.493	4679.71
947.799	4593.38
948.105	4631.12
948.41	4567.62
948.716	4583.44
949.022	4588.41
949.327	4587.28
949.633	4560.84
949.938	4550.9
950.244	4534.4
950.549	4461.41
950.854	4431.8
951.16	4463.44
951.465	4446.27
951.77	4381.64
952.075	4379.38
952.38	4397.45
952.685	4334.18
952.99	4281.53
953.294	4318.36
953.599	4246.95
953.904	4290.79
954.209	4245.82
954.513	4266.61
954.818	4184.13
955.122	4172.6
955.426	4178.03
955.731	4145.71
956.035	4147.52
956.339	4127.41
956.643	4095.77
956.948	4076.33
957.252	4079.5
957.556	4018.26
957.86	4010.35
958.163	4022.32
958.467	4038.37
958.771	3965.6
959.075	3962.89
959.378	3929.44
959.682	3906.17
959.985	3905.49
960.289	3902.33
960.592	3871.82
960.896	3859.16
961.199	3841.09
961.502	3800.63
961.805	3801.09
962.108	3754.99
962.411	3764.48
962.714	3727.19
963.017	3717.02
963.32	3760.18
963.623	3674.76
963.926	3705.72
964.228	3704.59
964.531	3691.26
964.833	3679.73
965.136	3592.5
965.438	3588.21
965.741	3596.57
966.043	3609.45
966.345	3557.7
966.648	3541.21
966.95	3523.13
967.252	3497.82
967.554	3474.54
967.856	3517.48
968.158	3470.02
968.46	3447.42
968.761	3468.67
969.063	3416.46
969.365	3419.85
969.666	3379.4
969.968	3385.5
970.269	3345.05
970.571	3357.26
970.872	3327.88
971.174	3306.41
971.475	3309.12
971.776	3293.53
972.077	3293.53
972.378	3274.55
972.679	3240.42
972.98	3221.89
973.281	3206.53
973.582	3212.18
973.883	3217.82
974.183	3188
974.484	3130.6
974.785	3172.63
975.085	3153.42
975.386	3165.17
975.686	3069.58
975.986	3093.76
976.287	3051.95
976.587	3040.2
976.887	3060.54
977.187	3020.09
977.487	3033.88
977.787	3033.42
978.087	2988.68
978.387	2957.72
978.687	2977.83
978.987	2935.8
979.286	2954.78
979.586	2930.83
979.885	2864.39
980.185	2907.78
980.484	2924.73
980.784	2904.84
981.083	2878.4
981.382	2880.43
981.682	2857.61
981.981	2848.12
982.28	2819.87
982.579	2782.81
982.878	2804.73
983.177	2790.04
983.475	2793.43
983.774	2751.4
984.073	2752.98
984.372	2707.78
984.67	2735.13
984.969	2722.47
985.267	2714.56
985.566	2675.69
985.864	2696.26
986.162	2654.45
986.461	2651.29
986.759	2628.24
987.057	2607.67
987.355	2623.04
987.653	2638.63
987.951	2615.58
988.249	2618.97
988.547	2595.69
988.844	2538.75
989.142	2529.93
989.44	2541.01
989.737	2490.39
990.035	2514.57
990.332	2511.63
990.63	2483.16
990.927	2470.73
991.224	2490.39
991.521	2447.22
991.819	2488.13
992.116	2465.3
992.413	2408.58
992.71	2418.52
993.006	2390.05
993.303	2365.87
993.6	2394.8
993.897	2359.09
994.193	2362.48
994.49	2347.34
994.787	2330.39
995.083	2313.67
995.379	2332.2
995.676	2302.37
995.972	2274.35
996.268	2259.88
996.565	2249.04
996.861	2285.65
997.157	2224.63
997.453	2229.6
997.749	2208.81
998.044	2221.69
998.34	2202.71
998.636	2190.96
998.932	2150.73
999.227	2176.72
999.523	2172.88
999.818	2146.21
1000.114	2134.01
1000.409	2149.83
1000.704	2114.13
1001	2083.17
1001.295	2068.93
1001.59	2039.32
1001.885	2095.14
1002.18	2080.91
1002.475	2051.08
1002.77	2012.21
1003.065	2017.63
1003.359	2025.31
1003.654	1997.29
1003.949	1984.64
1004.243	1956.62
1004.538	1991.19
1004.832	1962.26
1005.127	1945.09
1005.421	1914.58
1005.715	1955.94
1006.009	1931.31
1006.304	1910.06
1006.598	1902.61
1006.892	1894.24
1007.186	1900.57
1007.48	1853.79
1007.773	1847.24
1008.067	1872.78
1008.361	1809.95
1008.655	1818.54
1008.948	1817.41
1009.242	1827.58
1009.535	1788.48
1009.829	1770.86
1010.122	1740.12
1010.415	1783.06
1010.708	1738.32
1011.001	1754.81
1011.295	1730.86
1011.588	1738.54
1011.881	1706
1012.173	1705.32
1012.466	1687.47
1012.759	1668.71
1013.052	1670.52
1013.344	1677.3
1013.637	1678.2
1013.93	1643.86
1014.222	1646.11
1014.514	1644.08
1014.807	1609.51
1015.099	1608.38
1015.391	1602.95
1015.683	1587.36
1015.976	1587.13
1016.268	1566.12
1016.56	1546
1016.851	1546.23
1017.143	1519.56
1017.435	1521.6
1017.727	1516.63
1018.018	1522.95
1018.31	1534.03
1018.602	1487.25
1018.893	1519.56
1019.185	1509.4
1019.476	1469.4
1019.767	1474.59
1020.058	1463.52
1020.35	1447.25
1020.641	1404.77
1020.932	1423.97
1021.223	1399.79
1021.514	1403.18
1021.804	1364.99
1022.095	1402.96
1022.386	1372.22
1022.677	1362.51
1022.967	1348.5
1023.258	1319.57
1023.548	1324.32
1023.839	1305.78
1024.129	1322.73
1024.419	1308.27
1024.709	1277.54
1025	1309.4
1025.29	1321.38
1025.58	1294.71
1025.87	1262.62
1026.16	1242.74
1026.449	1258.1
1026.739	1241.15
1027.029	1235.96
1027.319	1221.49
1027.608	1215.39
1027.898	1225.11
1028.187	1195.73
1028.477	1188.73
1028.766	1181.72
1029.055	1164.09
1029.344	1170.87
1029.634	1191.66
1029.923	1175.84
1030.212	1174.94
1030.501	1146.69
1030.79	1104.43
1031.078	1123.42
1031.367	1136.98
1031.656	1118.22
1031.945	1108.73
1032.233	1128.84
1032.522	1084.32
1032.81	1097.88
1033.099	1091.78
1033.387	1065.79
1033.675	1061.27
1033.963	1048.16
1034.251	1058.56
1034.54	1057.66
1034.828	1030.99
1035.116	1011.1
1035.403	1029.18
1035.691	1033.02
1035.979	1025.57
1036.267	1000.26
1036.554	1000.71
1036.842	1000.93
1037.129	998.9
1037.417	976.3
1037.704	969.75
1037.992	958
1038.279	962.52
1038.566	969.97
1038.853	969.97
1039.14	969.97
