Data from hue_150_FLMS001491_00003.txt Node
Date: Tue Feb 07 16:53:33 GMT 2017
User: dcchb
Spectrometer: FLMS00149
Trigger mode: 0
Integration Time (sec): 2.000000E-2
Scans to average: 10
Electric dark correction enabled: true
Nonlinearity correction enabled: false
Boxcar width: 0
XAxis mode: Wavelengths
Number of Pixels in Spectrum: 2048
>>>>>Begin Spectral Data<<<<<
341.393	0.04
341.776	0.04
342.16	0.04
342.543	-60.97
342.927	-46.06
343.31	-68.43
343.693	-63.91
344.077	-62.78
344.46	-60.3
344.843	-37.47
345.226	-57.13
345.61	-44.25
345.993	-16
346.376	-14.65
346.759	13.6
347.142	21.06
347.525	52.47
347.908	57.89
348.291	75.97
348.674	100.83
349.057	103.09
349.44	137.44
349.823	142.41
350.206	143.54
350.588	208.62
350.971	203.88
351.354	214.27
351.737	233.93
352.119	252.47
352.502	279.81
352.884	287.49
353.267	282.29
353.65	277.78
354.032	294.5
354.414	318.45
354.797	316.87
355.179	302.41
355.562	324.55
355.944	353.71
356.326	337.66
356.709	355.06
357.091	343.08
357.473	326.81
357.855	336.3
358.238	337.66
358.62	351.9
359.002	367.26
359.384	348.06
359.766	344.67
360.148	358
360.53	351.9
360.912	334.95
361.294	349.64
361.676	327.27
362.057	343.76
362.439	341.05
362.821	347.15
363.203	327.94
363.584	324.33
363.966	339.24
364.348	313.93
364.729	329.07
365.111	326.59
365.493	336.08
365.874	324.1
366.256	331.56
366.637	329.98
367.019	319.81
367.4	317.55
367.781	341.73
368.163	333.59
368.544	322.52
368.925	329.3
369.306	341.5
369.688	341.95
370.069	309.41
370.45	325.23
370.831	332.69
371.212	325.46
371.593	325.46
371.974	321.84
372.355	307.6
372.736	320.94
373.117	331.56
373.498	307.38
373.879	320.03
374.26	317.32
374.641	327.72
375.021	311.67
375.402	326.59
375.783	326.36
376.163	320.94
376.544	347.38
376.925	330.88
377.305	343.76
377.686	349.64
378.066	324.55
378.447	344.89
378.827	324.55
379.208	334.72
379.588	345.12
379.968	342.86
380.349	339.02
380.729	332.01
381.109	359.35
381.489	356.87
381.87	343.76
382.25	356.19
382.63	341.05
383.01	359.35
383.39	358.68
383.77	351.9
384.15	360.71
384.53	350.09
384.91	345.8
385.29	346.7
385.67	366.81
386.049	362.97
386.429	364.78
386.809	366.81
387.189	362.29
387.568	380.37
387.948	381.28
388.328	343.76
388.707	366.36
389.087	359.81
389.466	382.63
389.846	375.85
390.225	367.49
390.605	376.98
390.984	400.03
391.363	368.17
391.743	361.39
392.122	366.59
392.501	383.31
392.881	390.54
393.26	373.59
393.639	386.92
394.018	382.41
394.397	381.95
394.776	391.44
395.155	376.98
395.534	388.96
395.913	397.09
396.292	386.47
396.671	433.93
397.05	399.13
397.429	397.09
397.808	403.2
398.186	392.8
398.565	396.87
398.944	408.85
399.323	387.15
399.701	402.07
400.08	393.03
400.458	404.1
400.837	431.44
401.215	417.88
401.594	424.66
401.972	424.89
402.351	410.88
402.729	418.79
403.107	417.66
403.486	421.73
403.864	435.06
404.242	428.28
404.62	440.71
404.999	420.14
405.377	425.12
405.755	420.6
406.133	452.91
406.511	446.58
406.889	457.21
407.267	439.13
407.645	445
408.023	460.82
408.401	466.02
408.779	457.21
409.156	456.98
409.534	443.87
409.912	477.09
410.29	467.6
410.667	480.71
411.045	510.31
411.422	492.68
411.8	492.68
412.178	480.93
412.555	506.02
412.933	491.78
413.31	511.22
413.687	509.41
414.065	496.07
414.442	504.21
414.819	507.83
415.197	523.42
415.574	500.14
415.951	520.48
416.328	531.55
416.705	531.78
417.082	540.59
417.46	543.53
417.837	536.98
418.214	527.49
418.591	540.37
418.967	532.23
419.344	515.06
419.721	545.79
420.098	527.71
420.475	557.77
420.852	549.41
421.228	569.52
421.605	569.52
421.982	561.61
422.358	581.04
422.735	593.25
423.111	581.04
423.488	581.95
423.864	596.18
424.241	595.28
424.617	602.51
424.994	621.49
425.37	595.96
425.746	611.33
426.123	590.08
426.499	607.03
426.875	597.54
427.251	635.73
427.627	624.43
428.003	652.68
428.379	635.05
428.756	655.17
429.132	652.68
429.507	644.77
429.883	668.05
430.259	681.61
430.635	685.45
431.011	666.47
431.387	680.7
431.763	703.3
432.138	702.62
432.514	717.99
432.89	703.07
433.265	728.61
433.641	738.33
434.016	727.93
434.392	764.09
434.767	736.07
435.143	746.46
435.518	735.84
435.894	747.82
436.269	777.42
436.644	784.43
437.02	786.46
437.395	795.5
437.77	825.11
438.145	780.36
438.52	783.75
438.895	819
439.271	816.97
439.646	826.24
440.021	851.77
440.395	861.04
440.77	858.1
441.145	877.08
441.52	857.19
441.895	875.5
442.27	857.42
442.645	868.04
443.019	871.43
443.394	866.46
443.769	910.07
444.143	886.8
444.518	905.56
444.892	894.26
445.267	889.74
445.641	889.51
446.016	895.39
446.39	948.94
446.764	937.42
447.139	965.21
447.513	975.84
447.887	943.29
448.262	948.94
448.636	953.01
449.01	980.58
449.384	975.38
449.758	979.68
450.132	995.04
450.506	1014.48
450.88	984.42
451.254	1006.12
451.628	1051.77
452.002	1033.24
452.376	1043.63
452.75	1076.85
453.123	1073.91
453.497	1088.15
453.871	1088.15
454.244	1092.67
454.618	1108.26
454.992	1120.01
455.365	1117.08
455.739	1124.31
456.112	1170.63
456.486	1150.75
456.859	1174.93
457.232	1215.15
457.606	1194.81
457.979	1217.19
458.352	1224.87
458.725	1248.6
459.099	1253.57
459.472	1249.5
459.845	1286.11
460.218	1281.82
460.591	1319.33
460.964	1315.94
461.337	1365.88
461.71	1379.67
462.083	1353.23
462.456	1412.21
462.829	1396.84
463.201	1432.55
463.574	1440
463.947	1459.21
464.32	1509.16
464.692	1504.86
465.065	1527.69
465.438	1550.06
465.81	1565.88
466.183	1605.2
466.555	1617.85
466.928	1625.31
467.3	1639.55
467.672	1662.6
468.045	1726.1
468.417	1754.35
468.789	1757.06
469.161	1800.22
469.534	1830.5
469.906	1848.81
470.278	1893.1
470.65	1894
471.022	1940.33
471.394	1948.24
471.766	1996.6
472.138	2051.97
472.51	2064.85
472.882	2178.74
473.253	2171.51
473.625	2205.41
473.997	2261.68
474.369	2284.05
474.74	2291.96
475.112	2382.58
475.484	2420.32
475.855	2496.25
476.227	2536.02
476.598	2601.56
476.97	2641.78
477.341	2718.16
477.713	2787.09
478.084	2833.87
478.455	2937.14
478.827	2995.9
479.198	3107.08
479.569	3098.27
479.94	3254.65
480.311	3339.16
480.682	3378.03
481.053	3478.82
481.424	3578.93
481.795	3680.4
482.166	3745.25
482.537	3854.86
482.908	3968.07
483.279	4019.15
483.65	4135.3
484.021	4255.75
484.391	4343.66
484.762	4427.04
485.133	4513.82
485.503	4564.89
485.874	4744.1
486.244	4873.59
486.615	4996.3
486.985	5062.06
487.356	5287.81
487.726	5354.7
488.097	5466.79
488.467	5611.42
488.837	5755.82
489.207	5871.98
489.578	5990.62
489.948	6099.77
490.318	6273.55
490.688	6315.58
491.058	6529.36
491.428	6685.06
491.798	6810.94
492.168	6947.43
492.538	7041.67
492.908	7217.71
493.278	7326.4
493.648	7394.42
494.017	7535.44
494.387	7625.15
494.757	7790.35
495.126	7921.42
495.496	8021.3
495.866	8133.16
496.235	8249.54
496.605	8371.35
496.974	8466.03
497.344	8681.62
497.713	8687.72
498.082	8854.95
498.452	9015.62
498.821	9069.18
499.19	9156.19
499.559	9284.09
499.928	9363.41
500.298	9499.91
500.667	9601.15
501.036	9587.13
501.405	9751.42
501.774	9769.5
502.143	9947.35
502.512	10023.28
502.88	10174.69
503.249	10115.03
503.618	10287.46
503.987	10335.82
504.356	10430.05
504.724	10503.95
505.093	10600.22
505.462	10624.4
505.83	10719.31
506.199	10869.59
506.567	10903.71
506.936	10940.77
507.304	11103.25
507.672	11176.7
508.041	11183.03
508.409	11301.67
508.777	11371.27
509.145	11530.59
509.514	11458.95
509.882	11541.66
510.25	11561.32
510.618	11653.75
510.986	11751.37
511.354	11829.34
511.722	11836.79
512.09	12055.09
512.458	11958.6
512.826	12077.46
513.193	12137.58
513.561	12141.64
513.929	12203.79
514.297	12268.65
514.664	12357.23
515.032	12353.16
515.4	12429.55
515.767	12494.18
516.135	12563.78
516.502	12501.41
516.869	12662.99
517.237	12662.31
517.604	12637.45
517.972	12788.86
518.339	12821.85
518.706	12760.38
519.073	12785.24
519.44	12849.42
519.808	12915.86
520.175	12932.58
520.542	13004.9
520.909	13068.4
521.276	12998.34
521.643	13140.49
522.009	13232.46
522.376	13177.1
522.743	13201.05
523.11	13322.86
523.477	13349.75
523.843	13341.16
524.21	13472.23
524.577	13549.06
524.943	13486.02
525.31	13558.1
525.676	13624.99
526.043	13571.89
526.409	13687.82
526.776	13704.99
527.142	13682.85
527.508	13796.74
527.874	13834.71
528.241	13742.05
528.607	13785.89
528.973	13840.36
529.339	13825.89
529.705	13889.85
530.071	13921.48
530.437	13977.3
530.803	13950.41
531.169	13961.26
531.535	13853.69
531.901	13864.99
532.267	13901.82
532.632	13915.61
532.998	13913.12
533.364	13980.69
533.73	13911.99
534.095	14048.94
534.461	13916.06
534.826	14016.4
535.192	13962.39
535.557	13966.23
535.923	13890.75
536.288	13813.46
536.653	13899.34
537.019	13801.94
537.384	13819.11
537.749	13788.61
538.114	13829.96
538.479	13729.85
538.845	13694.15
539.21	13589.29
539.575	13631.55
539.94	13733.01
540.305	13683.07
540.67	13534.6
541.034	13630.19
541.399	13628.84
541.764	13549.06
542.129	13578.22
542.494	13542.29
542.858	13545.9
543.223	13507.26
543.587	13499.8
543.952	13429.75
544.316	13387.94
544.681	13362.85
545.045	13373.93
545.41	13389.29
545.774	13238.56
546.138	13223.2
546.503	13302.07
546.867	13307.72
547.231	13239.24
547.595	13230.65
547.959	13136.87
548.324	13145.69
548.688	13124.9
549.052	13117.66
549.416	13080.83
549.779	12932.58
550.143	13018.01
550.507	13040.83
550.871	12914.05
551.235	12939.82
551.599	12974.16
551.962	12896.88
552.326	12866.6
552.689	12862.53
553.053	12892.13
553.417	12833.15
553.78	12985.46
554.143	12840.61
554.507	12795.64
554.87	12757.67
555.234	12922.41
555.597	12709.76
555.96	12765.36
556.323	12746.83
556.686	12707.5
557.05	12742.98
557.413	12775.53
557.776	12719.03
558.139	12741.18
558.502	12703.21
558.865	12794.73
559.228	12721.97
559.59	12692.82
559.953	12708.41
560.316	12854.39
560.679	12765.81
561.041	12782.31
561.404	12843.55
561.767	12827.73
562.129	12748.63
562.492	12869.76
562.854	12825.47
563.217	12745.02
563.579	12780.27
563.941	12859.82
564.304	12851
564.666	12971.9
565.028	12869.53
565.39	12897.56
565.753	12947.72
566.115	12970.55
566.477	12956.54
566.839	12934.17
567.201	13086.03
567.563	13072.24
567.925	13113.82
568.287	13008.97
568.648	13060.26
569.01	13064.78
569.372	13116.53
569.734	13074.95
570.095	13137.55
570.457	13208.73
570.819	13169.41
571.18	13169.41
571.542	13185.23
571.903	13171.22
572.265	13281.73
572.626	13247.15
572.987	13255.06
573.349	13220.94
573.71	13288.05
574.071	13232.01
574.432	13335.06
574.794	13369.18
575.155	13375.28
575.516	13264.33
575.877	13316.98
576.238	13383.42
576.599	13389.29
576.96	13389.29
577.32	13379.58
577.681	13345.91
578.042	13340.71
578.403	13383.65
578.763	13395.85
579.124	13410.54
579.485	13513.36
579.845	13471.78
580.206	13461.16
580.566	13460.03
580.927	13434.49
581.287	13398.33
581.648	13378.45
582.008	13482.63
582.368	13514.49
582.728	13462.97
583.089	13435.62
583.449	13431.78
583.809	13413.7
584.169	13409.86
584.529	13452.57
584.889	13467.26
585.249	13368.5
585.609	13302.74
585.969	13336.87
586.329	13291.9
586.688	13291.22
587.048	13343.65
587.408	13276.53
587.768	13333.93
588.127	13355.17
588.487	13309.07
588.846	13360.37
589.206	13343.42
589.565	13265.46
589.925	13343.65
590.284	13258
590.643	13302.29
591.003	13311.78
591.362	13267.49
591.721	13268.85
592.08	13209.19
592.44	13312.23
592.799	13329.18
593.158	13302.97
593.517	13289.41
593.876	13252.35
594.235	13227.04
594.593	13189.53
594.952	13207.38
595.311	13173.48
595.67	13226.14
596.029	13273.14
596.387	13293.7
596.746	13280.82
597.104	13179.81
597.463	13199.92
597.822	13208.28
598.18	13188.85
598.538	13161.05
598.897	13265.46
599.255	13062.3
599.613	13291.9
599.972	13210.99
600.33	13269.3
600.688	13169.64
601.046	13201.73
601.404	13288.96
601.762	13294.16
602.12	13249.86
602.478	13265.68
602.836	13265.46
603.194	13190.43
603.552	13247.6
603.91	13220.71
604.268	13245.34
604.625	13234.95
604.983	13278.11
605.341	13198.11
605.698	13250.09
606.056	13247.6
606.413	13270.65
606.771	13334.61
607.128	13254.38
607.485	13232.01
607.843	13270.43
608.2	13344.32
608.557	13407.37
608.914	13308.39
609.272	13301.16
609.629	13353.59
609.986	13353.59
610.343	13315.17
610.7	13450.76
611.057	13418.22
611.414	13387.26
611.771	13316.75
612.127	13414.15
612.484	13404.89
612.841	13330.31
613.198	13446.24
613.554	13400.59
613.911	13457.54
614.267	13388.84
614.624	13479.01
614.98	13434.27
615.337	13507.26
615.693	13508.39
616.05	13492.12
616.406	13609.18
616.762	13523.3
617.118	13570.08
617.475	13454.15
617.831	13551.32
618.187	13609.18
618.543	13567.14
618.899	13607.37
619.255	13683.52
619.611	13534.38
619.967	13587.93
620.323	13684.2
620.678	13618.22
621.034	13664.32
621.39	13607.14
621.746	13594.04
622.101	13688.72
622.457	13623.86
622.812	13650.98
623.168	13652.56
623.523	13630.87
623.879	13683.3
624.234	13591.32
624.589	13652.11
624.945	13626.58
625.3	13631.32
625.655	13657.99
626.01	13677.2
626.365	13592.91
626.72	13690.53
627.075	13714.71
627.43	13644.2
627.785	13560.36
628.14	13589.97
628.495	13627.93
628.85	13569.86
629.205	13544.32
629.559	13569.63
629.914	13549.52
630.269	13554.04
630.623	13546.8
630.978	13494.83
631.332	13495.05
631.687	13608.05
632.041	13488.28
632.396	13528.27
632.75	13501.83
633.104	13476.07
633.459	13486.69
633.813	13441.95
634.167	13441.95
634.521	13395.4
634.875	13450.99
635.229	13407.37
635.583	13346.58
635.937	13324.44
636.291	13346.58
636.645	13320.37
636.999	13240.37
637.352	13282.86
637.706	13199.24
638.06	13281.73
638.413	13165.12
638.767	13132.8
639.121	13244.67
639.474	13180.49
639.828	13223.88
640.181	13225.68
640.534	13212.8
640.888	13158.11
641.241	13065.46
641.594	13072.02
641.947	13171
642.301	13129.19
642.654	13087.61
643.007	13069.3
643.36	13073.6
643.713	13046.93
644.066	13071.11
644.419	12925.35
644.771	12887.39
645.124	12862.53
645.477	12808.75
645.83	12691.01
646.182	12683.78
646.535	12653.72
646.888	12716.09
647.24	12601.74
647.593	12634.51
647.945	12590.45
648.298	12560.84
648.65	12524.23
649.002	12528.75
649.355	12521.97
649.707	12527.4
650.059	12595.42
650.411	12839.7
650.763	12837.22
651.115	12923.54
651.467	12827.73
651.819	12920.83
652.171	12877.44
652.523	12787.95
652.875	12841.51
653.227	12764.9
653.578	12907.5
653.93	12758.35
654.282	12791.57
654.633	12805.81
654.985	12813.94
655.337	12882.19
655.688	12801.51
656.039	12868.18
656.391	12776.66
656.742	12810.78
657.094	12807.39
657.445	12801.97
657.796	12915.63
658.147	12764.45
658.498	12822.98
658.849	12832.25
659.2	12809.88
659.551	12705.7
659.902	12855.75
660.253	12812.81
660.604	12874.05
660.955	12811
661.306	12816.2
661.656	12879.7
662.007	12831.34
662.358	12905.92
662.708	12798.8
663.059	12940.95
663.409	12765.58
663.76	12897.78
664.11	12822.08
664.461	12875.86
664.811	12949.08
665.161	12908.18
665.511	12908.18
665.862	12869.76
666.212	12921.51
666.562	12867.27
666.912	12813.49
667.262	12912.92
667.612	12868.86
667.962	12811.68
668.312	12809.42
668.662	12916.31
669.011	12816.65
669.361	12758.35
669.711	12850.78
670.06	12872.25
670.41	12805.58
670.76	12686.94
671.109	12861.85
671.459	12758.58
671.808	12747.28
672.157	12814.17
672.507	12738.01
672.856	12745.24
673.205	12774.62
673.554	12754.28
673.904	12724.91
674.253	12764.68
674.602	12719.48
674.951	12561.52
675.3	12492.14
675.649	12637
675.998	12682.19
676.346	12611.24
676.695	12658.69
677.044	12596.32
677.393	12594.06
677.741	12590.45
678.09	12608.3
678.438	12622.76
678.787	12626.6
679.135	12552.93
679.484	12494.4
679.832	12532.82
680.181	12488.98
680.529	12479.49
680.877	12456.89
681.225	12435.87
681.573	12524.01
681.922	12378.02
682.27	12321.53
682.618	12440.62
682.966	12349.55
683.314	12366.5
683.661	12354.07
684.009	12265.26
684.357	12310.68
684.705	12236.56
685.053	12271.81
685.4	12256.9
685.748	12144.13
686.095	12210.12
686.443	12155.65
686.79	12115.66
687.138	12069.78
687.485	12086.73
687.832	12048.77
688.18	12031.82
688.527	11981.2
688.874	11953.4
689.221	11942.55
689.568	11777.59
689.915	11873.63
690.262	11829.56
690.609	11734.42
690.956	11741.43
691.303	11674.54
691.65	11592.28
691.997	11630.7
692.344	11613.75
692.69	11537.59
693.037	11562.22
693.383	11363.59
693.73	11413.75
694.077	11307.77
694.423	11358.39
694.769	11293.53
695.116	11306.19
695.462	11292.4
695.808	11244.04
696.155	11228.9
696.501	11196.13
696.847	11094.67
697.193	11037.27
697.539	11087.43
697.885	10978.74
698.231	10996.14
698.577	10997.49
698.923	10933.99
699.269	10852.41
699.614	10799.76
699.96	10704.62
700.306	10741.91
700.651	10696.48
700.997	10686.54
701.342	10598.63
701.688	10628.92
702.033	10646.32
702.379	10578.75
702.724	10461.91
703.069	10546.21
703.415	10433.89
703.76	10418.75
704.105	10382.14
704.45	10301.47
704.795	10354.12
705.14	10297.85
705.485	10216.95
705.83	10178.31
706.175	10194.12
706.52	10152.54
706.865	10117.29
707.209	10156.84
707.554	10021.7
707.899	10079.55
708.243	10021.7
708.588	10016.5
708.932	9894.92
709.277	9942.15
709.621	9908.48
709.966	9804.08
710.31	9903.74
710.654	9786.23
710.998	9789.39
711.342	9816.51
711.687	9756.17
712.031	9768.83
712.375	9709.62
712.719	9722.05
713.063	9635.04
713.407	9682.05
713.75	9626.68
714.094	9673.23
714.438	9564.99
714.782	9665.55
715.125	9516.4
715.469	9581.03
715.812	9536.97
716.156	9532.22
716.499	9548.49
716.843	9502.62
717.186	9402.73
717.53	9450.64
717.873	9535.16
718.216	9409.29
718.559	9371.32
718.902	9357.99
719.246	9426.01
719.589	9327.03
719.932	9280.93
720.275	9279.57
720.617	9267.6
720.96	9308.72
721.303	9292
721.646	9267.37
721.989	9202.51
722.331	9263.98
722.674	9179.91
723.016	9193.25
723.359	9192.8
723.701	9247.71
724.044	9150.08
724.386	9111.22
724.729	9167.03
725.071	9058.56
725.413	9118.9
725.755	9172.91
726.097	9065.34
726.439	9014.95
726.782	9108.5
727.124	9132.01
727.465	9125.9
727.807	9089.07
728.149	9061.73
728.491	9019.69
728.833	9097.88
729.175	8975.4
729.516	9073.25
729.858	9054.27
730.199	9047.71
730.541	9035.51
730.882	9006.59
731.224	9029.86
731.565	9027.38
731.906	8967.72
732.248	9051.78
732.589	8945.12
732.93	8962.52
733.271	8921.39
733.612	8961.16
733.953	8988.28
734.294	8968.17
734.635	8949.64
734.976	8934.72
735.317	8902.86
735.658	8904.44
735.999	8947.15
736.339	8976.3
736.68	8961.16
737.021	8916.64
737.361	8927.94
737.702	8971.56
738.042	9031.9
738.383	8956.87
738.723	8982.63
739.063	8923.65
739.404	8967.94
739.744	8946.47
740.084	8940.37
740.424	9012.46
740.764	9022.4
741.104	8987.15
741.444	9019.01
741.784	8966.36
742.124	9113.25
742.464	9046.36
742.804	9081.61
743.143	9163.64
743.483	9103.76
743.823	9094.27
744.162	9085.68
744.502	9156.64
744.841	9141.5
745.181	9216.07
745.52	9167.26
745.86	9287.48
746.199	9265.11
746.538	9355.95
746.877	9467.59
747.216	9460.13
747.556	9433.47
747.895	9523.18
748.234	9520.24
748.573	9556.18
748.911	9609.51
749.25	9663.52
749.589	9630.98
749.928	9764.53
750.267	9864.19
750.605	9938.54
750.944	9993.45
751.283	10039.1
751.621	10148.7
751.96	10095.6
752.298	10186.22
752.636	10262.6
752.975	10412.2
753.313	10431.86
753.651	10663.04
753.989	10622.36
754.327	10770.61
754.666	10797.27
755.004	10995.69
755.342	11063.25
755.679	11200.65
756.017	11279.07
756.355	11410.36
756.693	11535.11
757.031	11704.37
757.368	11744.37
757.706	11917.92
758.044	12008.99
758.381	12277.46
758.719	12315.65
759.056	12508.19
759.394	12626.15
759.731	12658.47
760.068	12887.84
760.405	12936.43
760.743	13133.48
761.08	13331.67
761.417	13389.07
761.754	13622.06
762.091	13783.63
762.428	13896.17
762.765	13958.32
763.102	14262.49
763.438	14302.94
763.775	14429.49
764.112	14615.25
764.449	14825.87
764.785	14937.5
765.122	15073.09
765.458	15143.15
765.795	15407.32
766.131	15475.79
766.467	15599.86
766.804	15744.49
767.14	15855.67
767.476	15977.02
767.812	16107.42
768.148	16239.62
768.485	16366.62
768.821	16337.92
769.157	16572.71
769.492	16776.1
769.828	16786.49
770.164	16788.75
770.5	16972.48
770.836	17098.8
771.171	17153.72
771.507	17277.1
771.842	17240.72
772.178	17460.37
772.513	17494.72
772.849	17605.91
773.184	17616.98
773.519	17731.1
773.855	17761.16
774.19	17836.41
774.525	17956.41
774.86	18037.31
775.195	17924.99
775.53	18032.79
775.865	18020.36
776.2	18116.18
776.535	18078.66
776.87	18193.01
777.205	18228.49
777.539	18223.74
777.874	18372.21
778.209	18280.24
778.543	18276.85
778.878	18301.03
779.212	18347.58
779.547	18347.81
779.881	18559.78
780.215	18407.24
780.55	18454.47
780.884	18518.88
781.218	18408.82
781.552	18540.35
781.886	18489.73
782.22	18427.58
782.554	18477.75
782.888	18372.89
783.222	18358.66
783.556	18428.94
783.889	18410.18
784.223	18316.4
784.557	18335.61
784.89	18443.4
785.224	18336.96
785.557	18230.3
785.891	18300.35
786.224	18251.54
786.558	18222.39
786.891	18192.11
787.224	18165.21
787.557	18139.68
787.891	18111.66
788.224	18135.38
788.557	18169.28
788.89	18169.96
789.223	18125.89
789.556	18062.17
789.888	18065.78
790.221	17962.73
790.554	17864.66
790.887	17962.51
791.219	17875.5
791.552	17828.05
791.884	17814.04
792.217	17706.47
792.549	17776.98
792.882	17717.54
793.214	17526.59
793.546	17659.24
793.879	17590.77
794.211	17577.66
794.543	17557.55
794.875	17466.7
795.207	17633.93
795.539	17484.78
795.871	17498.11
796.203	17375.86
796.535	17338.8
796.867	17356.87
797.198	17240.49
797.53	17179.25
797.862	17160.27
798.193	17201.62
798.525	17126.82
798.856	17111.91
799.188	16904.68
799.519	16848.41
799.85	16858.36
800.182	16888.41
800.513	16884.57
800.844	16714.41
801.175	16747.4
801.506	16739.94
801.837	16621.98
802.168	16753.27
802.499	16560.28
802.83	16577.69
803.161	16521.87
803.491	16496.33
803.822	16571.36
804.153	16471.7
804.483	16350.57
804.814	16286.62
805.145	16287.52
805.475	16213.85
805.805	16264.47
806.136	16180.41
806.466	16254.08
806.796	16195.77
807.126	16101.31
807.457	16126.17
807.787	16109.45
808.117	15978.61
808.447	15984.71
808.777	15912.84
809.107	15908.1
809.436	15847.76
809.766	15805.05
810.096	15827.42
810.426	15745.62
810.755	15754.43
811.085	15661.55
811.414	15687.77
811.744	15583.59
812.073	15591.95
812.403	15566.41
812.732	15448.9
813.061	15563.93
813.39	15474.44
813.719	15431.5
814.049	15563.02
814.378	15300.43
814.707	15415.68
815.036	15387.66
815.365	15289.81
815.693	15209.59
816.022	15145.41
816.351	15145.86
816.68	15076.26
817.008	15150.6
817.337	14988.8
817.665	14992.19
817.994	15013.43
818.322	14992.19
818.651	14944.73
818.979	14840.78
819.307	14964.17
819.636	14912.42
819.964	14828.58
820.292	14898.18
820.62	14788.13
820.948	14805.75
821.276	14823.61
821.604	14732.76
821.932	14880.1
822.259	14867.45
822.587	14878.07
822.915	14738.19
823.243	14795.13
823.57	14748.81
823.898	14789.26
824.225	14710.39
824.553	14726.66
824.88	14772.54
825.207	14827.9
825.535	14762.37
825.862	14835.36
826.189	14753.55
826.516	14905.87
826.843	14794.91
827.17	14856.15
827.497	14867.45
827.824	14830.39
828.151	14875.36
828.478	14819.09
828.805	14899.31
829.131	14785.87
829.458	14820.9
829.785	14753.33
830.111	14800.11
830.438	14880.56
830.764	14785.64
831.09	14783.38
831.417	14826.55
831.743	14747.23
832.069	14792.42
832.395	14804.62
832.722	14711.97
833.048	14830.84
833.374	14808.01
833.7	14748.81
834.026	14754.68
834.351	14753.1
834.677	14682.14
835.003	14690.5
835.329	14643.5
835.654	14668.58
835.98	14595.59
836.306	14620.22
836.631	14561.47
836.956	14648.24
837.282	14627.68
837.607	14631.97
837.932	14481.24
838.258	14520.79
838.583	14528.7
838.908	14439.89
839.233	14347.69
839.558	14327.58
839.883	14348.59
840.208	14277.18
840.533	14297.75
840.858	14295.49
841.182	14258.88
841.507	14314.47
841.832	14086.23
842.156	14149.73
842.481	14174.81
842.805	14131.2
843.13	14028.6
843.454	14051.88
843.778	13951.31
844.103	13997.64
844.427	13972.78
844.751	13968.94
845.075	13888.72
845.399	13797.42
845.723	13824.09
846.047	13769.85
846.371	13687.37
846.695	13756.52
847.019	13634.49
847.343	13553.58
847.666	13454.15
847.99	13439.46
848.313	13396.53
848.637	13248.06
848.96	13352.91
849.284	13344.55
849.607	13156.31
849.931	13155.18
850.254	13131.9
850.577	13007.61
850.9	12877.9
851.223	12932.36
851.546	12842.64
851.869	12819.14
852.192	12867.5
852.515	12722.42
852.838	12664.34
853.161	12676.77
853.483	12585.7
853.806	12546.38
854.129	12572.59
854.451	12444.91
854.774	12360.4
855.096	12377.34
855.419	12299.61
855.741	12350.45
856.063	12268.42
856.385	12267.74
856.708	12144.36
857.03	12180.74
857.352	12201.98
857.674	12160.63
857.996	12073.62
858.318	12054.64
858.64	11962.21
858.961	11967.19
859.283	11896
859.605	11912.05
859.926	11882.89
860.248	11872.72
860.57	11797.47
860.891	11803.12
861.212	11620.75
861.534	11752.73
861.855	11657.81
862.176	11632.28
862.498	11693.97
862.819	11626.4
863.14	11531.49
863.461	11557.93
863.782	11618.72
864.103	11575.33
864.424	11463.92
864.745	11478.16
865.065	11512.51
865.386	11373.3
865.707	11377.82
866.027	11394.77
866.348	11322.68
866.668	11298.28
866.989	11351.38
867.309	11241.55
867.63	11275.45
867.95	11309.8
868.27	11179.18
868.59	11171.73
868.91	11223.48
869.23	11166.08
869.55	11095.8
869.87	11197.26
870.19	11176.25
870.51	11143.25
870.83	11124.72
871.15	11090.82
871.469	11030.71
871.789	11029.36
872.109	11067.77
872.428	10987.1
872.748	11077.27
873.067	10964.5
873.386	11042.92
873.706	10958.4
874.025	10905.97
874.344	10977.15
874.663	10882.24
874.982	10919.98
875.301	10941.68
875.62	10814
875.939	10886.54
876.258	10826.88
876.577	10753.66
876.896	10749.59
877.214	10786.88
877.533	10722.47
877.852	10739.42
878.17	10643.38
878.489	10705.3
878.807	10672.76
879.125	10686.77
879.444	10664.39
879.762	10596.37
880.08	10631.85
880.398	10550.5
880.716	10537.62
881.034	10481.35
881.352	10508.47
881.67	10526.55
881.988	10510.5
882.306	10513.44
882.624	10436.38
882.941	10367.68
883.259	10343.27
883.577	10326.78
883.894	10410.16
884.212	10306.89
884.529	10337.85
884.846	10232.32
885.164	10275.25
885.481	10187.8
885.798	10267.57
886.115	10111.41
886.432	10150.06
886.75	10125.88
887.067	10122.49
887.383	10051.76
887.7	10072.55
888.017	9973.11
888.334	10047.69
888.651	10061.47
888.967	9942.61
889.284	9910.29
889.6	9863.96
889.917	9823.96
890.233	9894.7
890.55	9809.73
890.866	9774.25
891.182	9666
891.498	9733.35
891.815	9698.54
892.131	9696.06
892.447	9656.74
892.763	9649.05
893.079	9538.1
893.395	9473.01
893.71	9463.52
894.026	9481.15
894.342	9490.19
894.657	9395.5
894.973	9379
895.289	9423.52
895.604	9315.28
895.92	9249.29
896.235	9240.93
896.55	9295.17
896.865	9192.34
897.181	9193.7
897.496	9131.55
897.811	9063.76
898.126	9043.87
898.441	9042.97
898.756	9088.84
899.071	8915.74
899.386	9020.6
899.7	8911.22
900.015	8891.79
900.33	8752.58
900.644	8799.59
900.959	8821.05
901.273	8751
901.588	8706.03
901.902	8676.88
902.216	8691.57
902.531	8631.91
902.845	8607.73
903.159	8527.73
903.473	8521.17
903.787	8514.17
904.101	8360.27
904.415	8417.45
904.729	8419.03
905.042	8364.79
905.356	8354.62
905.67	8330.44
905.984	8289.32
906.297	8287.51
906.611	8269.2
906.924	8164.35
907.237	8153.95
907.551	8150.34
907.864	8078.25
908.177	8112.6
908.491	8003.45
908.804	8007.06
909.117	7916.9
909.43	7898.59
909.743	7894.07
910.056	7866.28
910.368	7837.12
910.681	7751.25
910.994	7768.65
911.307	7714.87
911.619	7620.41
911.932	7681.65
912.244	7588.54
912.557	7518.04
912.869	7514.87
913.181	7471.71
913.494	7506.96
913.806	7459.96
914.118	7461.77
914.43	7403.69
914.742	7351.94
915.054	7382.67
915.366	7394.65
915.678	7280.08
915.99	7240.98
916.302	7178.61
916.613	7194.43
916.925	7128.44
917.236	7207.99
917.548	7144.71
917.859	7070.59
918.171	7056.35
918.482	7088.9
918.794	7011.61
919.105	6964.15
919.416	6937.94
919.727	6953.53
920.038	6908.11
920.349	6812.29
920.66	6841.67
920.971	6787.66
921.282	6809.58
921.593	6805.29
921.903	6676.93
922.214	6684.16
922.525	6691.39
922.835	6653.65
923.146	6593.32
923.456	6575.46
923.767	6542.7
924.077	6539.53
924.387	6526.42
924.697	6441
925.008	6409.14
925.318	6465.18
925.628	6428.12
925.938	6353.77
926.248	6306.77
926.558	6265.41
926.867	6334.79
927.177	6279.65
927.487	6233.32
927.796	6195.81
928.106	6150.39
928.416	6174.57
928.725	6121.92
929.034	6076.04
929.344	6093.44
929.653	6048.47
929.962	6023.84
930.271	5994.69
930.581	5982.94
930.89	5928.93
931.199	5930.96
931.508	5948.81
931.817	5911.53
932.125	5822.49
932.434	5831.53
932.743	5794.01
933.051	5768.7
933.36	5748.59
933.669	5732.32
933.977	5729.16
934.286	5730.06
934.594	5689.16
934.902	5622.04
935.21	5594.92
935.519	5620.46
935.827	5563.06
936.135	5573
936.443	5540.91
936.751	5530.07
937.059	5523.74
937.367	5457.53
937.674	5488.71
937.982	5475.15
938.29	5362.84
938.597	5403.97
938.905	5362.61
939.213	5384.99
939.52	5291.2
939.827	5321.94
940.135	5266.57
940.442	5270.64
940.749	5173.92
941.056	5252.79
941.363	5200.13
941.67	5170.53
941.977	5105.44
942.284	5123.52
942.591	5079.91
942.898	5102.51
943.205	5091.89
943.511	5010.98
943.818	5021.38
944.125	4987.71
944.431	4964.66
944.738	4962.85
945.044	4907.71
945.35	4878.33
945.657	4838.33
945.963	4867.71
946.269	4788.84
946.575	4830.65
946.881	4786.81
947.187	4775.74
947.493	4730.99
947.799	4728.73
948.105	4692.35
948.41	4684.44
948.716	4670.2
949.022	4632.91
949.327	4667.72
949.633	4582.29
949.938	4582.97
950.244	4558.34
950.549	4544.78
950.854	4553.37
951.16	4509.53
951.465	4461.17
951.77	4433.37
952.075	4404.45
952.38	4411.9
952.685	4416.88
952.99	4332.58
953.294	4366.03
953.599	4361.06
953.904	4308.18
954.209	4290.33
954.513	4332.81
954.818	4284.45
955.122	4239.48
955.426	4236.99
955.731	4267.27
956.035	4208.29
956.339	4196.77
956.643	4147.05
956.948	4154.06
957.252	4128.3
957.556	4100.5
957.86	4076.32
958.163	4118.35
958.467	4039.94
958.771	4041.29
959.075	4050.11
959.378	4037.68
959.682	4008.52
959.985	4007.85
960.289	3981.18
960.592	3978.69
960.896	3916.55
961.199	3924.68
961.502	3907.96
961.805	3888.98
962.108	3868.87
962.411	3853.05
962.714	3869.32
963.017	3828.19
963.32	3829.09
963.623	3796.1
963.926	3788.64
964.228	3769.43
964.531	3736.44
964.833	3730.11
965.136	3707.06
965.438	3669.78
965.741	3641.53
966.043	3623.9
966.345	3664.8
966.648	3653.05
966.95	3589.1
967.252	3557.01
967.554	3585.94
967.856	3566.5
968.158	3494.41
968.46	3540.74
968.761	3512.94
969.063	3492.61
969.365	3466.39
969.666	3505.94
969.968	3450.35
970.269	3433.62
970.571	3429.33
970.872	3396.56
971.174	3375.32
971.475	3361.08
971.776	3370.8
972.077	3346.17
972.378	3355.89
972.679	3346.85
972.98	3289.9
973.281	3290.13
973.582	3299.39
973.883	3244.48
974.183	3274.31
974.484	3226.17
974.785	3207.87
975.085	3218.94
975.386	3238.6
975.686	3156.57
975.986	3139.62
976.287	3167.19
976.587	3133.29
976.887	3083.13
977.187	3149.11
977.487	3109.11
977.787	3079.28
978.087	3054.43
978.387	3028.66
978.687	3056.01
978.987	3016.23
979.286	3017.82
979.586	3004.48
979.885	2992.28
980.185	2936.91
980.484	2918.61
980.784	2940.53
981.083	2924.26
981.382	2934.65
981.682	2887.88
981.981	2918.16
982.28	2883.36
982.579	2844.04
982.878	2880.87
983.177	2829.57
983.475	2851.94
983.774	2836.58
984.073	2798.39
984.372	2765.85
984.67	2764.04
984.969	2768.33
985.267	2755
985.566	2767.65
985.864	2736.69
986.162	2746.64
986.461	2712.29
986.759	2714.55
987.057	2663.48
987.355	2696.24
987.653	2658.5
987.951	2697.6
988.249	2618.5
988.547	2665.96
988.844	2637.94
989.142	2600.2
989.44	2593.65
989.737	2549.13
990.035	2555.23
990.332	2579.41
990.63	2553.2
990.927	2564.27
991.224	2531.73
991.521	2512.74
991.819	2541.9
992.116	2506.19
992.413	2479.98
992.71	2481.11
993.006	2478.4
993.303	2434.78
993.6	2440.2
993.897	2429.13
994.193	2428.45
994.49	2429.13
994.787	2374.22
995.083	2387.55
995.379	2361.56
995.676	2391.17
995.972	2338.96
996.268	2312.07
996.565	2338.29
996.861	2291.28
997.157	2304.61
997.453	2264.84
997.749	2271.4
998.044	2245.63
998.34	2247.89
998.636	2235.24
998.932	2228.01
999.227	2214.45
999.523	2202.7
999.818	2216.48
1000.114	2191.85
1000.409	2135.13
1000.704	2126.09
1001	2124.51
1001.295	2121.34
1001.59	2120.89
1001.885	2116.37
1002.18	2101
1002.475	2077.05
1002.77	2085.64
1003.065	2065.07
1003.359	2047.22
1003.654	2039.08
1003.949	2016.49
1004.243	2014.9
1004.538	2011.97
1004.832	1956.38
1005.127	1963.38
1005.421	1990.05
1005.715	1961.12
1006.009	1971.97
1006.304	1921.57
1006.598	1894.68
1006.892	1904.4
1007.186	1912.76
1007.48	1904.63
1007.773	1891.29
1008.067	1887.68
1008.361	1855.36
1008.655	1850.84
1008.948	1837.73
1009.242	1825.08
1009.535	1795.02
1009.829	1787.11
1010.122	1768.13
1010.415	1784.63
1010.708	1788.7
1011.001	1753.22
1011.295	1769.94
1011.588	1745.99
1011.881	1699.21
1012.173	1741.69
1012.466	1702.14
1012.759	1707.34
1013.052	1721.58
1013.344	1665.31
1013.637	1689.26
1013.93	1670.05
1014.222	1649.72
1014.514	1635.93
1014.807	1656.04
1015.099	1616.05
1015.391	1633.67
1015.683	1626.67
1015.976	1626.44
1016.268	1630.28
1016.56	1602.71
1016.851	1611.75
1017.143	1540.57
1017.435	1560.23
1017.727	1544.18
1018.018	1542.37
1018.31	1527.91
1018.602	1506.22
1018.893	1517.74
1019.185	1509.16
1019.476	1493.11
1019.767	1467.8
1020.058	1468.93
1020.35	1441.81
1020.641	1447.91
1020.932	1445.43
1021.223	1429.16
1021.514	1431.19
1021.804	1420.12
1022.095	1412.89
1022.386	1419.21
1022.677	1393.23
1022.967	1378.54
1023.258	1371.53
1023.548	1356.62
1023.839	1348.71
1024.129	1343.51
1024.419	1328.82
1024.709	1330.4
1025	1303.06
1025.29	1286.56
1025.58	1301.03
1025.87	1284.98
1026.16	1273.46
1026.449	1285.43
1026.739	1289.73
1027.029	1241.59
1027.319	1256.51
1027.608	1247.92
1027.898	1224.87
1028.187	1259.22
1028.477	1230.74
1028.766	1196.62
1029.055	1207.47
1029.344	1188.71
1029.634	1194.81
1029.923	1201.37
1030.212	1160.24
1030.501	1174.7
1030.79	1169.5
1031.078	1164.53
1031.367	1132.44
1031.656	1144.19
1031.945	1140.8
1032.233	1142.16
1032.522	1127.24
1032.81	1106.68
1033.099	1104.87
1033.387	1084.08
1033.675	1097.87
1033.963	1066.46
1034.251	1076.17
1034.54	1053.12
1034.828	1064.42
1035.116	1032.11
1035.403	1045.66
1035.691	1027.36
1035.979	1051.31
1036.267	1042.05
1036.554	1021.48
1036.842	1014.48
1037.129	1014.48
1037.417	981.94
1037.704	974.25
1037.992	982.16
1038.279	985.1
1038.566	981.03
1038.853	981.03
1039.14	981.03
