Data from hue_160_FLMS001491_00099.txt Node
Date: Tue Feb 07 16:51:58 GMT 2017
User: dcchb
Spectrometer: FLMS00149
Trigger mode: 0
Integration Time (sec): 2.000000E-2
Scans to average: 10
Electric dark correction enabled: true
Nonlinearity correction enabled: false
Boxcar width: 0
XAxis mode: Wavelengths
Number of Pixels in Spectrum: 2048
>>>>>Begin Spectral Data<<<<<
341.393	4.99
341.776	4.99
342.16	4.99
342.543	-45.63
342.927	-69.81
343.31	-60.1
343.693	-84.96
344.077	-90.38
344.46	-71.62
344.843	-19.19
345.226	-45.86
345.61	-43.37
345.993	-18.29
346.376	-3.38
346.759	11.54
347.142	29.62
347.525	34.59
347.908	69.16
348.291	86.11
348.674	90.41
349.057	115.72
349.44	121.82
349.823	151.87
350.206	154.81
350.588	171.31
350.971	196.62
351.354	199.33
351.737	248.6
352.119	247.69
352.502	256.5
352.884	278.2
353.267	304.86
353.65	283.17
354.032	305.32
354.414	294.24
354.797	314.58
355.179	318.88
355.562	320.91
355.944	308.25
356.326	334.69
356.709	340.8
357.091	336.5
357.473	340.34
357.855	326.79
358.238	327.24
358.62	347.8
359.002	341.47
359.384	334.02
359.766	343.73
360.148	341.7
360.53	353.45
360.912	341.47
361.294	322.94
361.676	337.41
362.057	344.86
362.439	322.27
362.821	344.19
363.203	340.57
363.584	327.24
363.966	330.4
364.348	305.99
364.729	336.28
365.111	344.86
365.493	317.97
365.874	334.24
366.256	312.77
366.637	321.14
367.019	321.14
367.4	322.04
367.781	325.43
368.163	325.43
368.544	317.97
368.925	301.02
369.306	305.99
369.688	312.55
370.069	329.72
370.45	322.94
370.831	344.19
371.212	301.48
371.593	315.26
371.974	310.06
372.355	321.59
372.736	307.58
373.117	321.36
373.498	299.67
373.879	302.61
374.26	304.86
374.641	328.14
375.021	313.68
375.402	320.46
375.783	314.81
376.163	318.42
376.544	332.43
376.925	316.84
377.305	319.55
377.686	328.59
378.066	343.06
378.447	333.79
378.827	345.99
379.208	329.95
379.588	331.53
379.968	347.58
380.349	313.45
380.729	342.38
381.109	328.59
381.489	350.29
381.87	321.14
382.25	330.85
382.63	345.54
383.01	327.24
383.39	339.67
383.77	329.72
384.15	350.51
384.53	366.78
384.91	340.57
385.29	364.98
385.67	358.2
386.049	337.86
386.429	348.48
386.809	346.45
387.189	339.21
387.568	339.44
387.948	359.78
388.328	356.39
388.707	354.58
389.087	346.67
389.466	360.23
389.846	351.42
390.225	370.17
390.605	374.69
390.984	372.66
391.363	364.52
391.743	356.39
392.122	396.39
392.501	375.82
392.881	381.47
393.26	374.24
393.639	386.44
394.018	381.02
394.397	395.03
394.776	371.76
395.155	376.95
395.534	395.03
395.913	369.72
396.292	371.3
396.671	370.17
397.05	402.49
397.429	384.64
397.808	387.57
398.186	390.06
398.565	387.35
398.944	405.43
399.323	391.42
399.701	414.24
400.08	407.91
400.458	407.01
400.837	392.32
401.215	396.61
401.594	396.39
401.972	422.83
402.351	404.07
402.729	396.84
403.107	425.09
403.486	439.78
403.864	450.17
404.242	430.96
404.62	423.28
404.999	434.35
405.377	415.6
405.755	429.16
406.133	429.61
406.511	411.98
406.889	432.09
407.267	441.36
407.645	452.43
408.023	435.48
408.401	454.92
408.779	445.88
409.156	453.56
409.534	444.3
409.912	452.66
410.29	451.3
410.667	477.06
411.045	459.66
411.422	468.7
411.8	460.57
412.178	477.29
412.555	473.67
412.933	496.95
413.31	485.43
413.687	493.56
414.065	497.63
414.442	496.5
414.819	507.12
415.197	488.81
415.574	515.71
415.951	512.32
416.328	529.94
416.705	519.77
417.082	518.19
417.46	520.23
417.837	513.22
418.214	529.72
418.591	509.83
418.967	513.22
419.344	513.67
419.721	543.05
420.098	527.23
420.475	548.7
420.852	542.37
421.228	535.82
421.605	556.38
421.982	544.63
422.358	578.76
422.735	563.39
423.111	553.22
423.488	564.29
423.864	583.28
424.241	585.54
424.617	587.12
424.994	587.12
425.37	592.54
425.746	591.41
426.123	594.12
426.499	620.34
426.875	595.7
427.251	621.92
427.627	625.76
428.003	611.3
428.379	628.25
428.756	642.94
429.132	649.71
429.507	631.86
429.883	639.09
430.259	665.76
430.635	651.3
431.011	645.65
431.387	693.78
431.763	669.38
432.138	693.78
432.514	694.01
432.89	670.05
433.265	703.05
433.641	704.85
434.016	691.75
434.392	716.61
434.767	708.92
435.143	737.4
435.518	756.83
435.894	758.41
436.269	755.93
436.644	768.36
437.02	758.86
437.395	775.13
437.77	786.89
438.145	787.11
438.52	787.11
438.895	786.89
439.271	788.47
439.646	828.01
440.021	842.93
440.395	835.47
440.77	820.11
441.145	844.51
441.52	857.17
441.895	844.74
442.27	836.6
442.645	860.1
443.019	880.89
443.394	879.09
443.769	885.41
444.143	876.6
444.518	898.07
444.892	893.78
445.267	888.58
445.641	926.32
446.016	905.3
446.39	934.9
446.764	915.92
447.139	910.72
447.513	901.69
447.887	945.3
448.262	933.77
448.636	931.06
449.01	948.01
449.384	943.04
449.758	979.88
450.132	956.15
450.506	994.56
450.88	995.47
451.254	1006.54
451.628	1005.19
452.002	1017.84
452.376	1017.16
452.75	1022.36
453.123	1032.08
453.497	1050.61
453.871	1069.14
454.244	1078.18
454.618	1076.82
454.992	1066.65
455.365	1090.15
455.739	1106.65
456.112	1153.43
456.486	1149.36
456.859	1158.85
457.232	1155.24
457.606	1214.22
457.979	1198.17
458.352	1228.91
458.725	1213.09
459.099	1254.44
459.472	1264.84
459.845	1292.86
460.218	1265.29
460.591	1311.39
460.964	1305.74
461.337	1321.34
461.71	1355.46
462.083	1369.24
462.456	1390.71
462.829	1378.51
463.201	1411.28
463.574	1436.59
463.947	1455.34
464.32	1471.16
464.692	1482.91
465.065	1484.95
465.438	1537.15
465.81	1551.84
466.183	1575.11
466.555	1617.6
466.928	1620.08
467.3	1621.89
467.672	1653.98
468.045	1704.15
468.417	1721.55
468.789	1762.68
469.161	1739.86
469.534	1788.89
469.906	1813.07
470.278	1853.3
470.65	1870.93
471.022	1940.75
471.394	1973.75
471.766	1977.14
472.138	2027.98
472.51	2083.8
472.882	2138.94
473.253	2157.47
473.625	2203.35
473.997	2279.05
474.369	2308.88
474.74	2350.23
475.112	2389.56
475.484	2414.19
475.855	2486.95
476.227	2504.81
476.598	2619.83
476.97	2668.64
477.341	2714.97
477.713	2793.61
478.084	2860.28
478.455	2965.81
478.827	2992.25
479.198	3127.39
479.569	3127.39
479.94	3239.7
480.311	3331
480.682	3400.83
481.053	3504.1
481.424	3616.42
481.795	3681.05
482.166	3773.02
482.537	3815.51
482.908	3946.13
483.279	4042.62
483.65	4164.88
484.021	4259.11
484.391	4373.68
484.762	4446
485.133	4542.27
485.503	4656.61
485.874	4800.57
486.244	4906.1
486.615	5077.39
486.985	5108.35
487.356	5295.24
487.726	5337.05
488.097	5502.92
488.467	5581.56
488.837	5768.9
489.207	5865.17
489.578	6003.7
489.948	6115.56
490.318	6319.85
490.688	6348.55
491.058	6460.18
491.428	6636.9
491.798	6720.74
492.168	6903.11
492.538	7005.71
492.908	7087.74
493.278	7276.88
493.648	7383.32
494.017	7583.77
494.387	7645.01
494.757	7770.66
495.126	7888.62
495.496	7976.3
495.866	8087.71
496.235	8244.32
496.605	8358.44
496.974	8359.79
497.344	8551.43
497.713	8662.84
498.082	8741.48
498.452	8828.71
498.821	8945.77
499.19	9048.59
499.559	9190.51
499.928	9225.76
500.298	9324.97
500.667	9440.22
501.036	9452.87
501.405	9585.3
501.774	9595.02
502.143	9717.95
502.512	9831.39
502.88	9978.96
503.249	9925.4
503.618	10079.3
503.987	10056.02
504.356	10214.43
504.724	10260.76
505.093	10335.56
505.462	10379.63
505.83	10485.39
506.199	10583.01
506.567	10738.94
506.936	10614.88
507.304	10823.91
507.672	10836.11
508.041	10877.69
508.409	10955.88
508.777	11012.83
509.145	11072.49
509.514	11107.52
509.882	11189.1
510.25	11273.16
510.618	11260.96
510.986	11269.55
511.354	11342.09
511.722	11503.21
512.09	11519.03
512.458	11556.55
512.826	11675.41
513.193	11630.67
513.561	11706.6
513.929	11754.73
514.297	11790.21
514.664	11917.44
515.032	11826.82
515.4	11960.83
515.767	11975.29
516.135	12049.64
516.502	11893.03
516.869	12100.94
517.237	12129.86
517.604	12079.47
517.972	12152.01
518.339	12123.99
518.706	12205.12
519.073	12219.81
519.44	12294.61
519.808	12359.01
520.175	12231.56
520.542	12411.67
520.909	12397.88
521.276	12384.32
521.643	12486.92
522.009	12538.22
522.376	12524.88
522.743	12514.26
523.11	12632.68
523.477	12718.55
523.843	12688.49
524.21	12774.37
524.577	12812.33
524.943	12806.46
525.31	12841.48
525.676	12878.55
526.043	12960.58
526.409	12876.51
526.776	13005.77
527.142	13040.12
527.508	13011.42
527.874	13032.67
528.241	13030.18
528.607	12990.41
528.973	13052.78
529.339	12992.21
529.705	13143.4
530.071	13111.76
530.437	13118.31
530.803	13142.04
531.169	13112.44
531.535	13048.48
531.901	13046.22
532.267	13034.93
532.632	13057.07
532.998	13047.35
533.364	13125.77
533.73	12998.32
534.095	13058.2
534.461	13056.62
534.826	13043.96
535.192	13037.41
535.557	13029.95
535.923	12971.65
536.288	13045.55
536.653	12981.59
537.019	12920.13
537.384	12846.68
537.749	12855.04
538.114	12915.15
538.479	12747.25
538.845	12796.06
539.21	12779.57
539.575	12776.4
539.94	12719.68
540.305	12789.06
540.67	12679.45
541.034	12661.15
541.399	12675.84
541.764	12672.68
542.129	12607.59
542.494	12586.8
542.858	12536.18
543.223	12550.19
543.587	12505
543.952	12435.85
544.316	12404.21
544.681	12354.94
545.045	12386.13
545.41	12322.4
545.774	12341.84
546.138	12244.21
546.503	12287.6
546.867	12178
547.231	12250.09
547.595	12255.29
547.959	12212.57
548.324	12175.06
548.688	12168.96
549.052	12069.53
549.416	12046.93
549.779	12035.86
550.143	11940.72
550.507	11995.18
550.871	11975.29
551.235	11941.85
551.599	11875.41
551.962	11855.07
552.326	11839.25
552.689	11940.49
553.053	11770.55
553.417	11777.78
553.78	11922.41
554.143	11728.52
554.507	11700.05
554.87	11746.37
555.234	11829.31
555.597	11649.65
555.96	11738.69
556.323	11645.81
556.686	11677.45
557.05	11729.2
557.413	11633.83
557.776	11668.18
558.139	11727.16
558.502	11672.7
558.865	11668.41
559.228	11629.76
559.59	11634.06
559.953	11584.34
560.316	11721.29
560.679	11600.16
561.041	11688.29
561.404	11733.49
561.767	11714.96
562.129	11674.74
562.492	11685.58
562.854	11670.89
563.217	11668.41
563.579	11657.79
563.941	11704.57
564.304	11680.16
564.666	11738.69
565.028	11663.44
565.39	11775.3
565.753	11801.06
566.115	11838.57
566.477	11734.85
566.839	11673.15
567.201	11823.66
567.563	11856.65
567.925	11774.17
568.287	11838.57
568.648	11865.46
569.01	11861.4
569.372	11835.18
569.734	11810.78
570.095	11901.62
570.457	11914.73
570.819	11919.93
571.18	11886.26
571.542	12003.99
571.903	11957.44
572.265	11929.19
572.626	11822.53
572.987	11975.74
573.349	12064.56
573.71	11969.42
574.071	12011.68
574.432	12047.83
574.794	12086.48
575.155	12054.39
575.516	12007.16
575.877	12012.13
576.238	12062.97
576.599	12055.06
576.96	12042.18
577.32	12041.96
577.681	12155.17
578.042	12083.31
578.403	12047.61
578.763	12119.7
579.124	12059.81
579.485	12056.42
579.845	12149.75
580.206	12057.1
580.566	12077.21
580.927	12098
581.287	12058.68
581.648	11976.65
582.008	12135.06
582.368	12080.6
582.728	12048.06
583.089	12090.77
583.449	12070.66
583.809	12084.44
584.169	12048.06
584.529	12031.34
584.889	12076.31
585.249	12072.24
585.609	11942.52
585.969	12028.62
586.329	11969.64
586.688	12031.11
587.048	11946.37
587.408	11980.94
587.768	11913.15
588.127	12013.26
588.487	11924.22
588.846	11998.57
589.206	11986.37
589.565	11918.57
589.925	11937.78
590.284	11893.71
590.643	11844.67
591.003	11965.35
591.362	11963.09
591.721	11954.28
592.08	11877.44
592.44	11891.23
592.799	11915.18
593.158	11910.44
593.517	11885.13
593.876	11871.11
594.235	11857.33
594.593	11853.26
594.952	11879.02
595.311	11754.28
595.67	11803.55
596.029	11849.65
596.387	11881.51
596.746	11938.23
597.104	11840.83
597.463	11782.53
597.822	11905.01
598.18	11825.69
598.538	11796.54
598.897	11876.76
599.255	11744.11
599.613	11919.93
599.972	11773.94
600.33	11913.83
600.688	11752.7
601.046	11822.98
601.404	11857.1
601.762	11835.41
602.12	11852.58
602.478	11857.1
602.836	11831.34
603.194	11731.23
603.552	11786.37
603.91	11798.57
604.268	11768.97
604.625	11774.17
604.983	11834.05
605.341	11761.51
605.698	11806.48
606.056	11868.85
606.413	11794.51
606.771	11916.31
607.128	11938.46
607.485	11865.01
607.843	11832.25
608.2	11877.89
608.557	11935.97
608.914	11933.94
609.272	11934.39
609.629	11949.08
609.986	12028.4
610.343	11944.56
610.7	12014.16
611.057	12023.43
611.414	11964.22
611.771	11983.2
612.127	11991.79
612.484	12010.09
612.841	12011.22
613.198	11993.6
613.554	12022.52
613.911	12096.42
614.267	12033.6
614.624	11939.59
614.98	12060.26
615.337	12085.12
615.693	12021.39
616.05	12007.83
616.406	12122.18
616.762	12062.52
617.118	12006.48
617.475	12128.06
617.831	12097.78
618.187	12141.39
618.543	12094.61
618.899	12208.05
619.255	12193.82
619.611	12153.14
619.967	12258.67
620.323	12227.26
620.678	12227.04
621.034	12107.72
621.39	12167.15
621.746	12160.37
622.101	12248.96
622.457	12106.14
622.812	12181.84
623.168	12207.15
623.523	12134.38
623.879	12236.53
624.234	12169.19
624.589	12204.89
624.945	12170.99
625.3	12187.26
625.655	12199.47
626.01	12243.99
626.365	12241.95
626.72	12250.09
627.075	12189.98
627.43	12066.36
627.785	12092.8
628.14	12124.89
628.495	12113.82
628.85	12128.96
629.205	12178.22
629.559	12189.3
629.914	12111.11
630.269	12118.11
630.623	12045.12
630.978	12062.3
631.332	12182.52
631.687	12058.91
632.041	12053.48
632.396	12114.95
632.75	12019.59
633.104	12044.9
633.459	12001.51
633.813	12038.79
634.167	12007.38
634.521	11958.57
634.875	11988.63
635.229	11874.28
635.583	11883.54
635.937	11885.35
636.291	11881.74
636.645	11803.55
636.999	11806.26
637.352	11850.1
637.706	11804.22
638.06	11872.7
638.413	11792.25
638.767	11775.98
639.121	11858.01
639.474	11705.7
639.828	11761.74
640.181	11778.91
640.534	11766.48
640.888	11736.2
641.241	11723.55
641.594	11682.64
641.947	11709.08
642.301	11651.23
642.654	11680.61
643.007	11676.77
643.36	11657.56
643.713	11569.65
644.066	11700.72
644.419	11571.24
644.771	11474.97
645.124	11420.73
645.477	11434.97
645.83	11373.73
646.182	11277.46
646.535	11250.57
646.888	11344.12
647.24	11295.76
647.593	11274.07
647.945	11228.19
648.298	11204.47
648.65	11137.57
649.002	11162.88
649.355	11255.99
649.707	11239.94
650.059	11259.38
650.411	11397
650.763	11414.63
651.115	11580.27
651.467	11506.83
651.819	11476.77
652.171	11437.91
652.523	11376.21
652.875	11438.58
653.227	11460.73
653.578	11535.98
653.93	11521.07
654.282	11440.17
654.633	11369.43
654.985	11489.66
655.337	11470
655.688	11483.78
656.039	11477.68
656.391	11408.08
656.742	11426.38
657.094	11453.72
657.445	11448.53
657.796	11507.73
658.147	11460.05
658.498	11433.61
658.849	11537.79
659.2	11479.94
659.551	11472.48
659.902	11544.12
660.253	11529.2
660.604	11532.14
660.955	11463.44
661.306	11516.32
661.656	11525.36
662.007	11491.01
662.358	11462.99
662.708	11420.05
663.059	11532.37
663.409	11434.29
663.76	11514.06
664.11	11498.92
664.461	11491.24
664.811	11524.23
665.161	11501.86
665.511	11432.03
665.862	11541.41
666.212	11582.99
666.562	11517.23
666.912	11486.72
667.262	11469.09
667.612	11564.91
667.962	11489.43
668.312	11479.49
668.662	11557.45
669.011	11431.8
669.361	11503.44
669.711	11439.26
670.06	11540.95
670.41	11508.41
670.76	11486.94
671.109	11524.91
671.459	11488.98
671.808	11432.48
672.157	11497.11
672.507	11417.34
672.856	11453.5
673.205	11426.61
673.554	11454.18
673.904	11401.07
674.253	11534.4
674.602	11403.1
674.951	11213.28
675.3	11186.39
675.649	11392.71
675.998	11381.86
676.346	11340.51
676.695	11407.4
677.044	11327.63
677.393	11368.98
677.741	11397.45
678.09	11331.24
678.438	11259.15
678.787	11323.78
679.135	11284.69
679.484	11186.39
679.832	11267.74
680.181	11223.45
680.529	11245.14
680.877	11154.98
681.225	11136.22
681.573	11164.01
681.922	11112.26
682.27	11133.28
682.618	11091.02
682.966	10965.15
683.314	11094.41
683.661	11033.4
684.009	10900.52
684.357	10901.2
684.705	10839.5
685.053	10914.53
685.4	10892.84
685.748	10889.22
686.095	10820.07
686.443	10861.2
686.79	10778.49
687.138	10832.27
687.485	10864.81
687.832	10831.14
688.18	10773.97
688.527	10693.74
688.874	10713.86
689.221	10700.07
689.568	10672.05
689.915	10607.42
690.262	10607.42
690.609	10569.91
690.956	10473.41
691.303	10463.24
691.65	10406.52
691.997	10435.22
692.344	10341.44
692.69	10300.76
693.037	10353.41
693.383	10199.52
693.73	10340.08
694.077	10253.3
694.423	10093.31
694.769	10202.68
695.116	10094.66
695.462	10045.63
695.808	10013.76
696.155	10060.09
696.501	9951.16
696.847	9951.62
697.193	9846.99
697.539	9858.51
697.885	9840.66
698.231	9728.57
698.577	9848.57
698.923	9758.85
699.269	9722.92
699.614	9641.57
699.96	9709.36
700.306	9666.65
700.651	9600.67
700.997	9574.45
701.342	9497.62
701.688	9497.39
702.033	9490.39
702.379	9486.32
702.724	9420.33
703.069	9359.09
703.415	9308.24
703.76	9345.08
704.105	9286.55
704.45	9301.24
704.795	9236.61
705.14	9183.05
705.485	9173.78
705.83	9138.3
706.175	9096.27
706.52	9071.41
706.865	9081.13
707.209	9001.36
707.554	9065.76
707.899	9038.65
708.243	8991.19
708.588	8945.99
708.932	8826.9
709.277	8813.57
709.621	8840.01
709.966	8802.04
710.31	8818.54
710.654	8676.62
710.998	8771.31
711.342	8756.17
711.687	8719.11
712.031	8690.63
712.375	8746.45
712.719	8699.9
713.063	8693.57
713.407	8672.55
713.75	8550.3
714.094	8579
714.438	8583.97
714.782	8510.07
715.125	8493.12
715.469	8511.43
715.812	8541.48
716.156	8422.39
716.499	8489.06
716.843	8435.05
717.186	8414.48
717.53	8414.26
717.873	8440.92
718.216	8414.03
718.559	8383.52
718.902	8355.95
719.246	8401.6
719.589	8368.38
719.932	8259.01
720.275	8270.31
720.617	8299.68
720.96	8253.58
721.303	8302.62
721.646	8321.38
721.989	8243.87
722.331	8208.16
722.674	8216.75
723.016	8272.11
723.359	8180.82
723.701	8250.87
724.044	8202.96
724.386	8178.1
724.729	8221.04
725.071	8221.04
725.413	8176.07
725.755	8173.81
726.097	8127.26
726.439	8151.66
726.782	8118.44
727.124	8174.04
727.465	8164.55
727.807	8179.01
728.149	8105.11
728.491	8103.76
728.833	8194.83
729.175	8111.44
729.516	8173.58
729.858	8132.68
730.199	8134.26
730.541	8155.51
730.882	8074.6
731.224	8152.79
731.565	8032.35
731.906	8057.2
732.248	8118.67
732.589	8095.17
732.93	8041.16
733.271	8048.84
733.612	8058.79
733.953	8091.55
734.294	8055.62
734.635	8041.61
734.976	8063.3
735.317	7994.38
735.658	8068.73
735.999	8070.08
736.339	8054.49
736.68	8087.94
737.021	8090.87
737.361	8065.56
737.702	8095.39
738.042	8053.14
738.383	8080.93
738.723	8098.33
739.063	8067.82
739.404	8083.64
739.744	8098.11
740.084	8063.53
740.424	8123.42
740.764	8122.96
741.104	8157.77
741.444	8150.53
741.784	8186.47
742.124	8183.3
742.464	8216.52
742.804	8269.4
743.143	8222.62
743.483	8217.65
743.823	8212.68
744.162	8290.19
744.502	8320.25
744.841	8334.94
745.181	8456.97
745.52	8371.09
745.86	8429.62
746.199	8458.32
746.538	8493.58
746.877	8535.83
747.216	8580.35
747.556	8628.26
747.895	8666.45
748.234	8661.48
748.573	8778.77
748.911	8806.56
749.25	8851.98
749.589	8854.24
749.928	8941.7
750.267	8999.33
750.605	9018.53
750.944	9136.27
751.283	9200.45
751.621	9281.35
751.96	9295.14
752.298	9439.09
752.636	9471.4
752.975	9614.45
753.313	9679.99
753.651	9788.68
753.989	9831.62
754.327	10030.03
754.666	10052.63
755.004	10182.8
755.342	10295.79
755.679	10410.81
756.017	10508.66
756.355	10721.09
756.693	10832.95
757.031	10926.28
757.368	11095.77
757.706	11212.37
758.044	11228.42
758.381	11392.03
758.719	11521.52
759.056	11673.61
759.394	11858.91
759.731	11967.61
760.068	12229.07
760.405	12281.95
760.743	12427.71
761.08	12531.21
761.417	12721.71
761.754	12900.69
762.091	13058.65
762.428	13185.2
762.765	13286.44
763.102	13456.61
763.438	13717.17
763.775	13779.54
764.112	13967.1
764.449	14135.69
764.785	14226.08
765.122	14369.13
765.458	14403.03
765.795	14578.39
766.131	14834.88
766.467	14940.64
766.804	15021.54
767.14	15131.82
767.476	15225.38
767.812	15402.55
768.148	15510.57
768.485	15613.39
768.821	15675.99
769.157	15935.19
769.492	15958.01
769.828	16062.19
770.164	16073.04
770.5	16256.08
770.836	16311.45
771.171	16465.12
771.507	16543.08
771.842	16577.66
772.178	16688.39
772.513	16817.88
772.849	16898.78
773.184	16917.76
773.519	17018.1
773.855	17062.39
774.19	17125.67
774.525	17247.02
774.86	17402.49
775.195	17331.08
775.53	17479.78
775.865	17465.54
776.2	17397.07
776.535	17460.12
776.87	17548.71
777.205	17559.55
777.539	17549.38
777.874	17821.24
778.209	17570.85
778.543	17718.19
778.878	17588.7
779.212	17675.93
779.547	17708.48
779.881	17846.32
780.215	17777.4
780.55	17778.3
780.884	17831.41
781.218	17780.79
781.552	17785.31
781.886	17802.26
782.22	17776.5
782.554	17758.87
782.888	17736.95
783.222	17746.67
783.556	17704.86
783.889	17677.52
784.223	17604.52
784.557	17615.6
784.89	17708.25
785.224	17670.51
785.557	17616.73
785.891	17615.14
786.224	17680.68
786.558	17612.43
786.891	17478.65
787.224	17520.46
787.557	17519.33
787.891	17535.15
788.224	17476.16
788.557	17556.39
788.89	17534.69
789.223	17447.01
789.556	17401.36
789.888	17368.82
790.221	17371.53
790.554	17268.26
790.887	17339.45
791.219	17245.89
791.552	17192.1
791.884	17197.98
792.217	17098.77
792.549	17150.3
792.882	17128.83
793.214	17083.86
793.546	17052.9
793.879	16898.78
794.211	16889.51
794.543	17019.91
794.875	16899.91
795.207	17013.8
795.539	16936.52
795.871	16911.66
796.203	16788.27
796.535	16724.77
796.867	16720.03
797.198	16626.02
797.53	16701.95
797.862	16585.57
798.193	16643.64
798.525	16474.16
798.856	16564.78
799.188	16361.17
799.519	16351.9
799.85	16221.28
800.182	16384.67
800.513	16371.56
800.844	16159.36
801.175	16253.6
801.506	16258.12
801.837	16144.67
802.168	16068.52
802.499	16089.08
802.83	16045.02
803.161	15994.17
803.491	15976.09
803.822	16035.98
804.153	15865.36
804.483	15843.21
804.814	15811.35
805.145	15777
805.475	15760.96
805.805	15704.46
806.136	15705.82
806.466	15726.15
806.796	15651.81
807.126	15577.01
807.457	15611.81
807.787	15612.48
808.117	15417.01
808.447	15406.16
808.777	15400.29
809.107	15403.22
809.436	15255.88
809.766	15304.47
810.096	15182.67
810.426	15222.89
810.755	15261.08
811.085	15228.54
811.414	15157.58
811.744	15030.58
812.073	15082.1
812.403	14988.77
812.732	14910.81
813.061	14970.69
813.39	14909.68
813.719	14890.02
814.049	14874.43
814.378	14914.88
814.707	14737.71
815.036	14845.73
815.365	14679.85
815.693	14668.1
816.022	14696.8
816.351	14648.89
816.68	14577.03
817.008	14663.13
817.337	14480.99
817.665	14476.02
817.994	14510.37
818.322	14494.77
818.651	14443.25
818.979	14349.92
819.307	14428.56
819.636	14389.92
819.964	14349.47
820.292	14386.75
820.62	14394.21
820.948	14301.56
821.276	14398.28
821.604	14293.65
821.932	14302.91
822.259	14285.97
822.587	14184.95
822.915	14309.69
823.243	14284.61
823.57	14261.11
823.898	14336.13
824.225	14192.86
824.553	14296.36
824.88	14207.78
825.207	14356.25
825.535	14303.59
825.862	14323.93
826.189	14191.28
826.516	14309.47
826.843	14285.29
827.17	14329.58
827.497	14360.54
827.824	14343.37
828.151	14362.57
828.478	14263.37
828.805	14360.99
829.131	14337.72
829.458	14307.66
829.785	14198.74
830.111	14273.54
830.438	14419.07
830.764	14376.36
831.09	14296.81
831.417	14277.15
831.743	14330.03
832.069	14335.46
832.395	14218.17
832.722	14271.73
833.048	14209.36
833.374	14284.84
833.7	14219.3
834.026	14245.29
834.351	14174.1
834.677	14184.95
835.003	14213.65
835.329	14239.64
835.654	14161.9
835.98	14101.34
836.306	14131.62
836.631	14104.95
836.956	14190.83
837.282	14071.96
837.607	14071.73
837.932	14022.24
838.258	14008.01
838.583	14016.82
838.908	13990.38
839.233	13967.33
839.558	13869.71
839.883	13767.79
840.208	13857.73
840.533	13785.19
840.858	13873.1
841.182	13853.44
841.507	13792.19
841.832	13719.43
842.156	13676.49
842.481	13697.28
842.805	13633.1
843.13	13639.66
843.454	13568.92
843.778	13536.38
844.103	13544.06
844.427	13444.18
844.751	13512.2
845.075	13364.63
845.399	13388.36
845.723	13401.02
846.047	13291.19
846.371	13240.34
846.695	13264.07
847.019	13075.15
847.343	13123.06
847.666	13070.4
847.99	12945.66
848.313	12999.67
848.637	12899.34
848.96	12906.79
849.284	12808.94
849.607	12741.37
849.931	12749.96
850.254	12597.87
850.577	12594.03
850.9	12514.04
851.223	12544.09
851.546	12479.69
851.869	12382.74
852.192	12458.44
852.515	12358.33
852.838	12267.26
853.161	12235.85
853.483	12212.8
853.806	12083.76
854.129	12069.75
854.451	12077.21
854.774	11952.02
855.096	11967.84
855.419	11886.26
855.741	11901.4
856.063	11859.14
856.385	11826.6
856.708	11786.6
857.03	11701.85
857.352	11753.83
857.674	11686.94
857.996	11675.19
858.318	11524.68
858.64	11559.94
858.961	11536.66
859.283	11552.93
859.605	11481.52
859.926	11399.26
860.248	11445.81
860.57	11357.46
860.891	11440.17
861.212	11302.09
861.534	11297.8
861.855	11290.79
862.176	11299.38
862.498	11228.42
862.819	11235.42
863.14	11222.09
863.461	11207.4
863.782	11197.91
864.103	11144.58
864.424	11142.77
864.745	11135.31
865.065	11066.39
865.386	11128.76
865.707	11063.68
866.027	11067.97
866.348	11016
866.668	10984.36
866.989	10972.83
867.309	10844.93
867.63	11000.63
867.95	10873.63
868.27	10877.02
868.59	10868.88
868.91	10894.87
869.23	10800.18
869.55	10755.66
869.87	10805.83
870.19	10773.52
870.51	10710.02
870.83	10737.81
871.15	10728.09
871.469	10689.45
871.789	10750.24
872.109	10585.05
872.428	10613.07
872.748	10659.85
873.067	10667.53
873.386	10610.13
873.706	10602.45
874.025	10517.48
874.344	10437.48
874.663	10505.5
874.982	10465.05
875.301	10533.97
875.62	10468.67
875.939	10383.47
876.258	10505.05
876.577	10463.24
876.896	10391.15
877.214	10391.61
877.533	10372.17
877.852	10336.69
878.17	10365.62
878.489	10404.03
878.807	10371.49
879.125	10348.89
879.444	10318.84
879.762	10318.39
880.08	10226.41
880.398	10180.76
880.716	10197.71
881.034	10195.45
881.352	10139.41
881.67	10095.79
881.988	10126.3
882.306	10090.82
882.624	10061.9
882.941	10059.64
883.259	10023.25
883.577	9986.64
883.894	9970.83
884.212	9926.98
884.529	9929.47
884.846	9903.26
885.164	9924.05
885.481	9872.07
885.798	9876.36
886.115	9763.83
886.432	9806.99
886.75	9759.08
887.067	9777.38
887.383	9719.76
887.7	9783.71
888.017	9695.8
888.334	9694.45
888.651	9729.7
888.967	9617.84
889.284	9624.39
889.6	9582.14
889.917	9564.28
890.233	9545.3
890.55	9471.63
890.866	9471.63
891.182	9452.42
891.498	9403.38
891.815	9379.88
892.131	9318.41
892.447	9296.94
892.763	9287.68
893.079	9207.68
893.395	9329.49
893.71	9222.6
894.026	9183.95
894.342	9164.97
894.657	9067.57
894.973	9101.47
895.289	9045.65
895.604	9091.98
895.92	8994.81
896.235	8893.79
896.55	8945.54
896.865	8922.49
897.181	8808.37
897.496	8889.05
897.811	8825.54
898.126	8767.92
898.441	8749.16
898.756	8731.99
899.071	8644.08
899.386	8718.65
899.7	8606.34
900.015	8543.52
900.33	8487.47
900.644	8526.8
900.959	8494.93
901.273	8445.89
901.588	8426.46
901.902	8385.1
902.216	8345.56
902.531	8339.68
902.845	8363.64
903.159	8249.29
903.473	8281.38
903.787	8229.4
904.101	8209.06
904.415	8133.13
904.729	8139.24
905.042	8087.71
905.356	8145.56
905.67	8063.08
905.984	8020.14
906.297	7994.15
906.611	7979.92
906.924	7978.79
907.237	7947.15
907.551	7864.21
907.864	7852.69
908.177	7754.39
908.491	7809.53
908.804	7774.72
909.117	7651.79
909.43	7721.39
909.743	7558.46
910.056	7631.45
910.368	7564.11
910.681	7541.51
910.994	7469.2
911.307	7423.1
911.619	7400.27
911.932	7440.95
912.244	7369.09
912.557	7379.93
912.869	7314.85
913.181	7276.21
913.494	7253.61
913.806	7213.61
914.118	7197.11
914.43	7099.94
914.742	7168.64
915.054	7096.55
915.366	7102.2
915.678	7036.89
915.99	7002.77
916.302	6938.14
916.613	6924.8
916.925	6925.03
917.236	6881.19
917.548	6835.31
917.859	6848.65
918.171	6847.74
918.482	6732.72
918.794	6763.9
919.105	6762.1
919.416	6683.23
919.727	6693.17
920.038	6692.95
920.349	6614.3
920.66	6612.27
920.971	6626.73
921.282	6613.63
921.593	6469.67
921.903	6480.07
922.214	6458.15
922.525	6489.11
922.835	6401.88
923.146	6428.77
923.456	6343.35
923.767	6309
924.077	6329.34
924.387	6258.38
924.697	6271.94
925.008	6229
925.318	6218.61
925.628	6231.04
925.938	6217.93
926.248	6156.46
926.558	6117.14
926.867	6144.03
927.177	6086.41
927.487	6036.47
927.796	6013.19
928.106	6026.3
928.416	5953.53
928.725	5968.9
929.034	5925.73
929.344	5915.34
929.653	5908.56
929.962	5846.64
930.271	5834.66
930.581	5783.14
930.89	5778.39
931.199	5738.62
931.508	5725.97
931.817	5730.94
932.125	5697.94
932.434	5689.58
932.743	5612.75
933.051	5601.45
933.36	5598.51
933.669	5590.15
933.977	5546.08
934.286	5554.44
934.594	5543.15
934.902	5475.58
935.21	5438.74
935.519	5439.87
935.827	5422.02
936.135	5402.58
936.443	5331.63
936.751	5325.52
937.059	5332.08
937.367	5296.37
937.674	5269.03
937.982	5306.77
938.29	5273.32
938.597	5242.81
938.905	5201.69
939.213	5164.85
939.52	5142.7
939.827	5161.23
940.135	5128.24
940.442	5083.72
940.749	5026.1
941.056	5043.27
941.363	4935.93
941.67	4965.31
941.977	4981.13
942.284	4922.14
942.591	4981.35
942.898	4922.82
943.205	4876.95
943.511	4892.77
943.818	4835.59
944.125	4845.99
944.431	4801.24
944.738	4753.79
945.044	4790.85
945.35	4739.32
945.657	4700.68
945.963	4699.55
946.269	4689.38
946.575	4710.62
946.881	4595.6
947.187	4638.76
947.493	4566.22
947.799	4576.62
948.105	4563.51
948.41	4514.02
948.716	4526.67
949.022	4452.55
949.327	4483.29
949.633	4436.51
949.938	4430.18
950.244	4441.48
950.549	4421.14
950.854	4364.42
951.16	4406.9
951.465	4337.53
951.77	4325.78
952.075	4297.75
952.38	4285.78
952.685	4277.87
952.99	4247.36
953.294	4250.3
953.599	4190.19
953.904	4183.41
954.209	4194.48
954.513	4247.13
954.818	4142.5
955.122	4147.02
955.426	4119
955.731	4097.76
956.035	4052.34
956.339	4072
956.643	4050.3
956.948	4060.25
957.252	3981.83
957.556	3990.64
957.86	3948.16
958.163	3954.71
958.467	3928.72
958.771	3874.49
959.075	3926.92
959.378	3898.67
959.682	3872.23
959.985	3856.41
960.289	3839.91
960.592	3882.17
960.896	3815.28
961.199	3748.16
961.502	3822.96
961.805	3755.4
962.108	3723.53
962.411	3750.88
962.714	3691.44
963.017	3717.88
963.32	3677.66
963.623	3652.57
963.926	3651.22
964.228	3580.94
964.531	3638.79
964.833	3665
965.136	3594.04
965.438	3567.83
965.741	3567.15
966.043	3523.76
966.345	3548.85
966.648	3492.35
966.95	3524.89
967.252	3458
967.554	3425.91
967.856	3441.73
968.158	3423.65
968.46	3431.11
968.761	3410.32
969.063	3428.85
969.365	3380.49
969.666	3367.38
969.968	3343.2
970.269	3371.22
970.571	3321.28
970.872	3338.68
971.174	3293.71
971.475	3307.27
971.776	3279.48
972.077	3223.88
972.378	3256.2
972.679	3233.6
972.98	3208.07
973.281	3196.09
973.582	3209.2
973.883	3170.55
974.183	3192.25
974.484	3121.74
974.785	3107.73
975.085	3126.49
975.386	3120.61
975.686	3115.64
975.986	3075.64
976.287	3069.31
976.587	3030.22
976.887	3010.78
977.187	3045.81
977.487	3053.49
977.787	2987.28
978.087	3020.95
978.387	2956.77
978.687	2975.53
978.987	2975.76
979.286	2913.16
979.586	2912.03
979.885	2912.03
980.185	2889.88
980.484	2867.28
980.784	2845.36
981.083	2837.68
981.382	2837.91
981.682	2833.16
981.981	2806.04
982.28	2820.05
982.579	2777.57
982.878	2773.05
983.177	2759.72
983.475	2720.62
983.774	2761.07
984.073	2764.91
984.372	2706.84
984.67	2691.92
984.969	2737.12
985.267	2706.84
985.566	2690.11
985.864	2648.31
986.162	2618.48
986.461	2614.18
986.759	2614.41
987.057	2601.53
987.355	2588.65
987.653	2572.83
987.951	2565.37
988.249	2580.29
988.547	2580.29
988.844	2532.6
989.142	2536.9
989.44	2508.87
989.737	2498.25
990.035	2527.86
990.332	2451.7
990.63	2453.06
990.927	2454.86
991.224	2441.08
991.521	2420.06
991.819	2418.48
992.116	2427.52
992.413	2383.45
992.71	2373.06
993.006	2399.5
993.303	2338.48
993.6	2366.28
993.897	2364.02
994.193	2324.92
994.49	2350.69
994.787	2319.73
995.083	2297.13
995.379	2256.9
995.676	2286.51
995.972	2268.88
996.268	2250.8
996.565	2237.7
996.861	2230.69
997.157	2207.87
997.453	2196.34
997.749	2192.72
998.044	2159.05
998.34	2170.58
998.636	2197.92
998.932	2157.7
999.227	2152.05
999.523	2121.54
999.818	2142.56
1000.114	2098.49
1000.409	2100.07
1000.704	2089.9
1001	2077.93
1001.295	2079.51
1001.59	2079.73
1001.885	2058.94
1002.18	2031.37
1002.475	2006.06
1002.77	2027.76
1003.065	1999.06
1003.359	1990.24
1003.654	1960.64
1003.949	1952.28
1004.243	1982.33
1004.538	1953.86
1004.832	1955.22
1005.127	1915.22
1005.421	1918.16
1005.715	1905.95
1006.009	1911.83
1006.304	1872.73
1006.598	1870.02
1006.892	1884.03
1007.186	1847.42
1007.48	1835.22
1007.773	1841.55
1008.067	1838.84
1008.361	1820.98
1008.655	1755.67
1008.948	1782.11
1009.242	1786.18
1009.535	1773.3
1009.829	1792.96
1010.122	1775.11
1010.415	1718.16
1010.708	1717.71
1011.001	1704.38
1011.295	1694.21
1011.588	1671.61
1011.881	1693.98
1012.173	1677.71
1012.466	1652.63
1012.759	1644.04
1013.052	1661.21
1013.344	1651.27
1013.637	1662.8
1013.93	1631.61
1014.222	1618.05
1014.514	1623.02
1014.807	1589.8
1015.099	1584.15
1015.391	1580.76
1015.683	1587.32
1015.976	1558.39
1016.268	1560.65
1016.56	1536.02
1016.851	1565.17
1017.143	1543.7
1017.435	1519.75
1017.727	1501.9
1018.018	1504.16
1018.31	1479.3
1018.602	1503.93
1018.893	1465.74
1019.185	1475
1019.476	1474.1
1019.767	1453.99
1020.058	1402.24
1020.35	1437.04
1020.641	1426.19
1020.932	1413.31
1021.223	1402.24
1021.514	1404.27
1021.804	1376.93
1022.095	1330.37
1022.386	1367.21
1022.677	1347.55
1022.967	1360.2
1023.258	1329.24
1023.548	1347.1
1023.839	1331.05
1024.129	1309.36
1024.419	1285.63
1024.709	1283.82
1025	1263.48
1025.29	1261.45
1025.58	1282.92
1025.87	1261.9
1026.16	1241.56
1026.449	1267.78
1026.739	1249.25
1027.029	1219.19
1027.319	1212.41
1027.608	1233.88
1027.898	1205.63
1028.187	1199.76
1028.477	1207.21
1028.766	1172.41
1029.055	1179.19
1029.344	1157.05
1029.634	1173.32
1029.923	1156.59
1030.212	1167.22
1030.501	1135.35
1030.79	1136.71
1031.078	1105.3
1031.367	1108.01
1031.656	1121.11
1031.945	1092.41
1032.233	1115.24
1032.522	1064.84
1032.81	1129.25
1033.099	1082.02
1033.387	1051.06
1033.675	1077.27
1033.963	1045.86
1034.251	1059.87
1034.54	1059.87
1034.828	1030.04
1035.116	1011.29
1035.403	1042.02
1035.691	1028.69
1035.979	1005.64
1036.267	999.31
1036.554	1011.74
1036.842	978.52
1037.129	984.4
1037.417	951.4
1037.704	980.1
1037.992	973.77
1038.279	971.06
1038.566	976.26
1038.853	976.26
1039.14	976.26
