Data from hue_110_FLMS001491_00052.txt Node
Date: Tue Feb 07 17:01:31 GMT 2017
User: dcchb
Spectrometer: FLMS00149
Trigger mode: 0
Integration Time (sec): 2.000000E-2
Scans to average: 10
Electric dark correction enabled: true
Nonlinearity correction enabled: false
Boxcar width: 0
XAxis mode: Wavelengths
Number of Pixels in Spectrum: 2048
>>>>>Begin Spectral Data<<<<<
341.393	-22.61
341.776	-22.61
342.16	-22.61
342.543	-71.65
342.927	-72.55
343.31	-49.73
343.693	-91.54
344.077	-77.98
344.46	-61.26
344.843	-51.76
345.226	-63.29
345.61	-28.26
345.993	-14.93
346.376	-0.47
346.759	1.79
347.142	25.3
347.525	59.42
347.908	44.5
348.291	77.95
348.674	108.23
349.057	122.02
349.44	120.66
349.823	132.19
350.206	172.64
350.588	198.85
350.971	209.7
351.354	223.71
351.737	221
352.119	267.32
352.502	257.38
352.884	263.03
353.267	268.68
353.65	290.15
354.032	305.29
354.414	299.19
354.797	299.86
355.179	304.16
355.562	337.83
355.944	306.87
356.326	337.6
356.709	333.08
357.091	337.83
357.473	337.15
357.855	345.74
358.238	331.05
358.62	330.6
359.002	330.15
359.384	339.86
359.766	358.17
360.148	341.45
360.53	334.44
360.912	339.41
361.294	325.18
361.676	325.63
362.057	317.27
362.439	341.22
362.821	328.11
363.203	323.14
363.584	315.01
363.966	308.23
364.348	334.89
364.729	324.27
365.111	315.01
365.493	261.67
365.874	296.25
366.256	319.3
366.637	287.66
367.019	309.13
367.4	303.71
367.781	309.58
368.163	307.55
368.544	327.43
368.925	309.36
369.306	333.99
369.688	299.86
370.069	298.74
370.45	293.09
370.831	319.98
371.212	316.81
371.593	303.03
371.974	307.1
372.355	306.19
372.736	290.37
373.117	313.65
373.498	310.71
373.879	287.21
374.26	307.55
374.641	300.54
375.021	307.77
375.402	307.32
375.783	301.45
376.163	315.46
376.544	318.17
376.925	313.65
377.305	312.75
377.686	305.97
378.066	329.24
378.447	328.11
378.827	308.68
379.208	324.95
379.588	328.79
379.968	321.56
380.349	315.01
380.729	330.82
381.109	306.19
381.489	322.69
381.87	317.49
382.25	311.62
382.63	348.45
383.01	293.76
383.39	328.56
383.77	335.8
384.15	343.25
384.53	323.37
384.91	346.87
385.29	332.41
385.67	346.42
386.049	331.95
386.429	331.73
386.809	362.24
387.189	368.11
387.568	351.16
387.948	358.85
388.328	343.48
388.707	363.59
389.087	358.39
389.466	330.6
389.846	354.1
390.225	377.38
390.605	335.12
390.984	362.69
391.363	359.3
391.743	365.63
392.122	373.54
392.501	356.59
392.881	373.31
393.26	367.89
393.639	363.59
394.018	359.52
394.397	377.6
394.776	348.45
395.155	368.11
395.534	368.11
395.913	369.92
396.292	369.24
396.671	361.11
397.05	352.07
397.429	362.24
397.808	365.63
398.186	369.02
398.565	372.63
398.944	389.81
399.323	390.26
399.701	411.05
400.08	375.12
400.458	388.45
400.837	392.52
401.215	394.78
401.594	405.4
401.972	384.16
402.351	401.78
402.729	407.66
403.107	405.4
403.486	393.87
403.864	415.57
404.242	412.18
404.62	407.21
404.999	411.27
405.377	409.92
405.755	416.25
406.133	414.66
406.511	413.99
406.889	408.79
407.267	441.1
407.645	407.43
408.023	425.96
408.401	431.16
408.779	439.52
409.156	437.71
409.534	428
409.912	434.78
410.29	432.06
410.667	427.09
411.045	445.85
411.422	429.13
411.8	463.7
412.178	445.17
412.555	464.38
412.933	459.18
413.31	466.41
413.687	462.57
414.065	470.26
414.442	450.6
414.819	475.68
415.197	492.18
415.574	465.96
415.951	489.46
416.328	475.68
416.705	484.72
417.082	486.53
417.46	480.65
417.837	483.81
418.214	488.56
418.591	507.54
418.967	488.33
419.344	500.31
419.721	512.06
420.098	509.13
420.475	505.74
420.852	531.27
421.228	529.92
421.605	529.01
421.982	539.41
422.358	504.83
422.735	507.32
423.111	507.32
423.488	544.15
423.864	535.34
424.241	537.37
424.617	523.81
424.994	554.55
425.37	536.02
425.746	562
426.123	535.34
426.499	547.32
426.875	564.94
427.251	572.85
427.627	576.92
428.003	559.29
428.379	606.75
428.756	580.08
429.132	599.29
429.507	589.12
429.883	605.62
430.259	631.61
430.635	606.52
431.011	603.59
431.387	613.53
431.763	644.71
432.138	617.14
432.514	623.7
432.89	631.16
433.265	647.2
433.641	642
434.016	641.78
434.392	675.67
434.767	660.53
435.143	679.74
435.518	662.79
435.894	696.46
436.269	679.29
436.644	691.72
437.02	695.33
437.395	689.23
437.77	698.05
438.145	682.91
438.52	691.49
438.895	701.44
439.271	741.21
439.646	732.4
440.021	749.8
440.395	760.42
440.77	733.53
441.145	733.3
441.52	725.39
441.895	750.7
442.27	761.55
442.645	754.54
443.019	775.78
443.394	773.52
443.769	757.03
444.143	791.83
444.518	806.07
444.892	784.37
445.267	792.73
445.641	787.54
446.016	791.6
446.39	807.2
446.764	813.3
447.139	784.6
447.513	836.35
447.887	829.34
448.262	816.91
448.636	822.11
449.01	846.52
449.384	842
449.758	843.81
450.132	863.01
450.506	854.65
450.88	874.54
451.254	880.87
451.628	921.54
452.002	881.32
452.376	884.93
452.75	910.47
453.123	921.54
453.497	902.79
453.871	943.46
454.244	938.04
454.618	952.96
454.992	955.67
455.365	954.99
455.739	967.64
456.112	973.52
456.486	1007.87
456.859	991.15
457.232	1007.64
457.606	1025.95
457.979	1042.44
458.352	1083.35
458.725	1041.99
459.099	1058.72
459.472	1093.29
459.845	1130.58
460.218	1112.95
460.591	1114.31
460.964	1124.93
461.337	1178.03
461.71	1161.54
462.083	1169.45
462.456	1198.15
462.829	1187.98
463.201	1218.71
463.574	1237.92
463.947	1251.48
464.32	1280.4
464.692	1294.64
465.065	1287.41
465.438	1287.64
465.81	1314.53
466.183	1325.6
466.555	1389.33
466.928	1364.47
467.3	1405.37
467.672	1434.3
468.045	1457.35
468.417	1455.54
468.789	1493.73
469.161	1500.06
469.534	1540.51
469.906	1570.57
470.278	1584.13
470.65	1629.77
471.022	1627.06
471.394	1660.73
471.766	1684.69
472.138	1745.48
472.51	1780.28
472.882	1806.49
473.253	1849.43
473.625	1902.99
473.997	1945.02
474.369	1958.8
474.74	1991.57
475.112	2029.31
475.484	2075.41
475.855	2166.71
476.227	2176.2
476.598	2246.93
476.97	2287.84
477.341	2340.26
477.713	2453.48
478.084	2456.19
478.455	2519.92
478.827	2609.63
479.198	2695.28
479.569	2715.39
479.94	2800.36
480.311	2902.73
480.682	2961.72
481.053	3046.69
481.424	3155.38
481.795	3257.75
482.166	3323.29
482.537	3372.78
482.908	3500.68
483.279	3542.49
483.65	3662.04
484.021	3810.96
484.391	3894.35
484.762	3944.74
485.133	4076.49
485.503	4158.29
485.874	4289.36
486.244	4414.79
486.615	4518.74
486.985	4619.07
487.356	4779.3
487.726	4902.91
488.097	5026.07
488.467	5101.09
488.837	5286.4
489.207	5378.6
489.578	5536.34
489.948	5654.3
490.318	5759.61
490.688	5842.77
491.058	6044.57
491.428	6154.17
491.798	6254.06
492.168	6417.44
492.538	6608.17
492.908	6679.13
493.278	6822.86
493.648	6936.07
494.017	7027.15
494.387	7187.59
494.757	7300.58
495.126	7445.21
495.496	7510.75
495.866	7638.88
496.235	7781.93
496.605	7962.04
496.974	8097.4
497.344	8188.47
497.713	8292.42
498.082	8439.31
498.452	8511.17
498.821	8690.6
499.19	8721.11
499.559	8846.98
499.928	8898.06
500.298	9021.9
500.667	9234.09
501.036	9182.12
501.405	9304.83
501.774	9432.51
502.143	9501.43
502.512	9575.1
502.88	9700.52
503.249	9819.61
503.618	9883.34
503.987	9961.31
504.356	10008.99
504.724	10072.04
505.093	10165.14
505.462	10204.46
505.83	10288.75
506.199	10385.25
506.567	10554.96
506.936	10537.79
507.304	10682.64
507.672	10679.71
508.041	10849.64
508.409	10891.45
508.777	10969.19
509.145	10984.1
509.514	11061.16
509.882	11114.04
510.25	11172.57
510.618	11225.23
510.986	11266.36
511.354	11290.31
511.722	11452.57
512.09	11453.02
512.458	11443.53
512.826	11573.01
513.193	11660.92
513.561	11608.72
513.929	11760.58
514.297	11818.66
514.664	11873.12
515.032	11899.56
515.4	11984.53
515.767	12078.99
516.135	12078.54
516.502	11977.75
516.869	12196.28
517.237	12183.17
517.604	12117.63
517.972	12241.02
518.339	12286.89
518.706	12259.78
519.073	12320.79
519.44	12313.33
519.808	12441.47
520.175	12410.28
520.542	12535.48
520.909	12599.88
521.276	12484.86
521.643	12644.63
522.009	12671.52
522.376	12698.18
522.743	12732.98
523.11	12742.7
523.477	12819.31
523.843	12811.85
524.21	12925.52
524.577	12935.46
524.943	13024.28
525.31	13061.79
525.676	13031.51
526.043	13074.67
526.409	13069.02
526.776	13096.59
527.142	13137.27
527.508	13163.48
527.874	13268.11
528.241	13229.69
528.607	13161.67
528.973	13233.54
529.339	13226.08
529.705	13311.27
530.071	13269.24
530.437	13357.15
530.803	13346.08
531.169	13304.95
531.535	13255.91
531.901	13354.66
532.267	13309.47
532.632	13311.95
532.998	13333.65
533.364	13311.27
533.73	13332.06
534.095	13351.5
534.461	13261.33
534.826	13356.7
535.192	13289.58
535.557	13365.74
535.923	13316.25
536.288	13233.08
536.653	13276.25
537.019	13215.46
537.384	13189.47
537.749	13137.49
538.114	13102.69
538.479	13111.73
538.845	13080.55
539.21	13041.22
539.575	13003.26
539.94	12990.6
540.305	13074.67
540.67	13003.71
541.034	12907.67
541.399	12943.15
541.764	12959.19
542.129	12887.33
542.494	12844.85
542.858	12815.02
543.223	12808.46
543.587	12805.3
543.952	12791.97
544.316	12767.33
544.681	12719.43
545.045	12689.14
545.41	12708.35
545.774	12723.95
546.138	12550.62
546.503	12596.49
546.867	12569.37
547.231	12587
547.595	12527.79
547.959	12418.87
548.324	12465.87
548.688	12408.47
549.052	12392.43
549.416	12360.56
549.779	12363.5
550.143	12307.68
550.507	12289.83
550.871	12281.02
551.235	12257.74
551.599	12287.12
551.962	12135.03
552.326	12194.69
552.689	12195.15
553.053	12076.05
553.417	12114.47
553.78	12222.26
554.143	11999.22
554.507	12092.78
554.87	12098.42
555.234	12144.3
555.597	12074.47
555.96	12033.34
556.323	12060.46
556.686	11933.46
557.05	11958.99
557.413	11992.66
557.776	11923.74
558.139	11974.81
558.502	11964.42
558.865	11869.96
559.228	11953.12
559.59	11980.91
559.953	11935.72
560.316	11997.41
560.679	11991.99
561.041	12018.65
561.404	12015.49
561.767	12067.24
562.129	11951.99
562.492	12095.71
562.854	12000.8
563.217	11899.11
563.579	12034.02
563.941	12082.15
564.304	12001.03
564.666	12083.51
565.028	12089.61
565.39	12082.61
565.753	12149.27
566.115	12107.92
566.477	12157.86
566.839	12190.63
567.201	12195.6
567.563	12130.29
567.925	12210.29
568.287	12149.04
568.648	12219.33
569.01	12217.97
569.372	12266.1
569.734	12232.88
570.095	12287.57
570.457	12350.85
570.819	12282.37
571.18	12280.11
571.542	12362.15
571.903	12281.92
572.265	12358.98
572.626	12337.74
572.987	12307.01
573.349	12392.88
573.71	12406.44
574.071	12415.03
574.432	12376.61
574.794	12456.16
575.155	12452.77
575.516	12364.18
575.877	12358.53
576.238	12372.32
576.599	12398.08
576.96	12422.48
577.32	12390.85
577.681	12384.97
578.042	12483.5
578.403	12437.17
578.763	12407.8
579.124	12440.34
579.485	12512.88
579.845	12553.1
580.206	12487.79
580.566	12530.05
580.927	12458.87
581.287	12504.74
581.648	12411.18
582.008	12511.97
582.368	12361.47
582.728	12482.6
583.089	12391.52
583.449	12423.16
583.809	12394.91
584.169	12447.79
584.529	12396.72
584.889	12459.77
585.249	12412.54
585.609	12364.18
585.969	12423.39
586.329	12411.86
586.688	12386.1
587.048	12279.44
587.408	12365.31
587.768	12345.42
588.127	12268.82
588.487	12301.36
588.846	12415.93
589.206	12298.87
589.565	12250.74
589.925	12278.53
590.284	12246.22
590.643	12211.87
591.003	12225.2
591.362	12274.47
591.721	12233.11
592.08	12193.11
592.44	12241.47
592.799	12199.44
593.158	12272.88
593.517	12238.53
593.876	12176.39
594.235	12099.1
594.593	12141.14
594.952	12238.31
595.311	12136.39
595.67	12205.54
596.029	12236.95
596.387	12273.11
596.746	12245.77
597.104	12203.05
597.463	12175.71
597.822	12266.1
598.18	12146.11
598.538	12154.92
598.897	12172.1
599.255	12079.22
599.613	12301.81
599.972	12184.3
600.33	12200.12
600.688	12165.99
601.046	12107.24
601.404	12202.6
601.762	12197.86
602.12	12267.69
602.478	12193.11
602.836	12180.68
603.194	12215.71
603.552	12186.78
603.91	12154.92
604.268	12159.67
604.625	12123.28
604.983	12185.65
605.341	12068.82
605.698	12211.42
606.056	12213.68
606.413	12176.61
606.771	12166.67
607.128	12199.21
607.485	12147.24
607.843	12171.64
608.2	12221.13
608.557	12306.1
608.914	12255.03
609.272	12289.83
609.629	12242.83
609.986	12291.41
610.343	12224.98
610.7	12353.79
611.057	12261.58
611.414	12307.23
611.771	12289.61
612.127	12322.6
612.484	12337.74
612.841	12266.1
613.198	12354.24
613.554	12327.57
613.911	12382.26
614.267	12403.28
614.624	12396.72
614.98	12387.23
615.337	12414.8
615.693	12427
616.05	12402.82
616.406	12467.45
616.762	12379.32
617.118	12446.44
617.475	12451.86
617.831	12515.81
618.187	12411.41
618.543	12472.43
618.899	12527.34
619.255	12573.89
619.611	12568.47
619.967	12553.55
620.323	12613.44
620.678	12564.4
621.034	12501.13
621.39	12542.93
621.746	12513.33
622.101	12611.18
622.457	12580.22
622.812	12545.42
623.168	12551.52
623.523	12544.97
623.879	12577.28
624.234	12507.23
624.589	12563.72
624.945	12552.88
625.3	12526.66
625.655	12437.4
626.01	12524.85
626.365	12582.71
626.72	12462.48
627.075	12499.09
627.43	12535.25
627.785	12443.73
628.14	12475.14
628.495	12464.06
628.85	12499.32
629.205	12425.2
629.559	12447.34
629.914	12454.8
630.269	12462.03
630.623	12456.38
630.978	12457.29
631.332	12425.2
631.687	12479.21
632.041	12470.84
632.396	12445.76
632.75	12439.21
633.104	12408.93
633.459	12259.1
633.813	12381.36
634.167	12343.39
634.521	12314.69
634.875	12290.06
635.229	12324.41
635.583	12245.99
635.937	12228.14
636.291	12283.05
636.645	12219.55
636.999	12195.37
637.352	12227.69
637.706	12181.81
638.06	12227.01
638.413	12187.01
638.767	12169.61
639.121	12174.13
639.474	12151.98
639.828	12070.85
640.181	12245.99
640.534	12095.94
640.888	12032.89
641.241	12011.65
641.594	12081.7
641.947	12099.78
642.301	12068.6
642.654	12074.02
643.007	12044.19
643.36	12039.67
643.713	12033.79
644.066	12054.36
644.419	11947.24
644.771	11930.52
645.124	11833.8
645.477	11752.45
645.83	11736.4
646.182	11620.7
646.535	11655.5
646.888	11701.15
647.24	11646.69
647.593	11633.58
647.945	11593.58
648.298	11597.65
648.65	11597.65
649.002	11549.06
649.355	11564.43
649.707	11618.89
650.059	11715.16
650.411	11765.33
650.763	11767.59
651.115	11922.16
651.467	11904.98
651.819	11904.76
652.171	11910.63
652.523	11833.8
652.875	11857.98
653.227	11750.86
653.578	11891.65
653.93	11834.25
654.282	11837.87
654.633	11786.12
654.985	11787.7
655.337	11875.83
655.688	11862.05
656.039	11889.84
656.391	11814.82
656.742	11845.55
657.094	11806.23
657.445	11912.67
657.796	11888.03
658.147	11838.32
658.498	11834.93
658.849	11836.28
659.2	11888.26
659.551	11855.49
659.902	11904.31
660.253	11887.58
660.604	11897.07
660.955	11806.23
661.306	11875.61
661.656	11829.73
662.007	11841.48
662.358	11803.97
662.708	11802.84
663.059	11864.31
663.409	11852.56
663.76	11978.2
664.11	11838.54
664.461	11921.48
664.811	11914.93
665.161	11959.9
665.511	11776.17
665.862	11956.96
666.212	11925.32
666.562	11963.97
666.912	11914.7
667.262	11914.25
667.612	11905.21
667.962	11967.13
668.312	11912.22
668.662	11913.57
669.011	11929.62
669.361	11886.9
669.711	11881.03
670.06	11880.35
670.41	11798.55
670.76	11830.18
671.109	11882.16
671.459	11808.26
671.808	11910.41
672.157	11865.44
672.507	11740.47
672.856	11844.19
673.205	11739.79
673.554	11825.89
673.904	11740.24
674.253	11830.64
674.602	11760.13
674.951	11647.59
675.3	11521.26
675.649	11711.09
675.998	11714.48
676.346	11821.6
676.695	11823.63
677.044	11734.59
677.393	11768.04
677.741	11753.12
678.09	11722.16
678.438	11664.31
678.787	11738.66
679.135	11642.62
679.484	11592.9
679.832	11693.01
680.181	11586.8
680.529	11610.53
680.877	11580.47
681.225	11513.13
681.573	11587.25
681.922	11519.46
682.27	11477.2
682.618	11463.41
682.966	11499.34
683.314	11435.62
683.661	11420.93
684.009	11359.24
684.357	11371.66
684.705	11337.09
685.053	11370.08
685.4	11339.12
685.748	11251.67
686.095	11118.34
686.443	11180.03
686.79	11224.78
687.138	11231.1
687.485	11218.45
687.832	11134.16
688.18	11173.7
688.527	10999.24
688.874	11029.98
689.221	11026.14
689.568	10999.7
689.915	10919.92
690.262	10967.16
690.609	10924.9
690.956	10902.52
691.303	10824.79
691.65	10787.72
691.997	10765.35
692.344	10699.82
692.69	10682.42
693.037	10712.7
693.383	10533.72
693.73	10611.91
694.077	10524.23
694.423	10467.96
694.769	10518.13
695.116	10476.77
695.462	10456.66
695.808	10365.14
696.155	10378.24
696.501	10301.64
696.847	10326.49
697.193	10243.56
697.539	10314.74
697.885	10165.14
698.231	10124.01
698.577	10103.22
698.923	10049.21
699.269	10037.24
699.614	10082.88
699.96	9936.45
700.306	9965.15
700.651	9879.05
700.997	9827.07
701.342	9809.22
701.688	9821.87
702.033	9839.28
702.379	9697.81
702.724	9749.56
703.069	9677.25
703.415	9622.78
703.76	9584.14
704.105	9608.09
704.45	9512.05
704.795	9542.56
705.14	9471.6
705.485	9446.29
705.83	9432.96
706.175	9450.81
706.52	9437.03
706.865	9411.49
707.209	9426.86
707.554	9341.66
707.899	9337.59
708.243	9260.53
708.588	9174.21
708.932	9207.65
709.277	9184.83
709.621	9158.39
709.966	9144.6
710.31	9123.59
710.654	9045.17
710.998	9049.01
711.342	9076.58
711.687	9010.6
712.031	8946.42
712.375	8984.38
712.719	8933.76
713.063	8873.88
713.407	8924.05
713.75	8936.47
714.094	8859.87
714.438	8839.53
714.782	8824.39
715.125	8811.73
715.469	8820.54
715.812	8714.11
716.156	8743.71
716.499	8734.22
716.843	8783.94
717.186	8705.52
717.53	8725.63
717.873	8727.89
718.216	8712.07
718.559	8660.55
718.902	8597.95
719.246	8672.3
719.589	8615.13
719.932	8567.67
720.275	8570.38
720.617	8636.59
720.96	8499.2
721.303	8641.34
721.646	8577.16
721.989	8542.81
722.331	8567.67
722.674	8524.51
723.016	8635.92
723.359	8566.31
723.701	8489.25
724.044	8481.34
724.386	8460.78
724.729	8518.18
725.071	8500.78
725.413	8452.87
725.755	8465.75
726.097	8442.02
726.439	8441.8
726.782	8439.31
727.124	8430.5
727.465	8467.33
727.807	8390.73
728.149	8394.34
728.491	8292.65
728.833	8360.22
729.175	8459.42
729.516	8373.55
729.858	8332.65
730.199	8398.86
730.541	8340.78
730.882	8334
731.224	8335.81
731.565	8343.95
731.906	8353.21
732.248	8367.45
732.589	8263.05
732.93	8290.84
733.271	8362.03
733.612	8348.47
733.953	8363.16
734.294	8370.39
734.635	8279.09
734.976	8331.07
735.317	8348.24
735.658	8331.74
735.999	8308.92
736.339	8340.11
736.68	8349.82
737.021	8357.05
737.361	8326.77
737.702	8366.09
738.042	8407
738.383	8332.2
738.723	8377.62
739.063	8377.84
739.404	8427.79
739.744	8437.96
740.084	8483.6
740.424	8444.74
740.764	8426.2
741.104	8448.8
741.444	8457.39
741.784	8453.1
742.124	8522.7
742.464	8526.09
742.804	8481.34
743.143	8511.4
743.483	8583.04
743.823	8555.47
744.162	8509.82
744.502	8650.61
744.841	8583.26
745.181	8672.07
745.52	8666.88
745.86	8721.79
746.199	8687.22
746.538	8807.44
746.877	8894.22
747.216	8911.84
747.556	8941.45
747.895	8953.42
748.234	9081.55
748.573	9102.8
748.911	9166.98
749.25	9237.71
749.589	9205.62
749.928	9406.07
750.267	9418.04
750.605	9378.95
750.944	9499.62
751.283	9589.11
751.621	9658.94
751.96	9695.55
752.298	9836.11
752.636	9970.12
752.975	9981.87
753.313	10034.98
753.651	10156.55
753.989	10310.45
754.327	10344.57
754.666	10443.78
755.004	10607.16
755.342	10684.68
755.679	10847.61
756.017	11006.02
756.355	11070.88
756.693	11215.51
757.031	11335.28
757.368	11414.6
757.706	11566.46
758.044	11746.12
758.381	11895.94
758.719	11998.31
759.056	12200.8
759.394	12385.65
759.731	12424.97
760.068	12540.67
760.405	12697.96
760.743	12854.56
761.08	13025.18
761.417	13148.34
761.754	13329.13
762.091	13475.79
762.428	13606.86
762.765	13652.06
763.102	13918.72
763.438	14120.29
763.775	14151.03
764.112	14350.57
764.449	14627.85
764.785	14633.73
765.122	14774.74
765.458	14843.66
765.795	15066.93
766.131	15221.28
766.467	15334.5
766.804	15365.46
767.14	15537.43
767.476	15645
767.812	15695.17
768.148	15909.17
768.485	15941.04
768.821	16016.74
769.157	16195.94
769.492	16289.05
769.828	16437.97
770.164	16460.57
770.5	16587.8
770.836	16654.69
771.171	16677.29
771.507	16689.72
771.842	16741.92
772.178	16938.98
772.513	17101.46
772.849	17089.71
773.184	17145.3
773.519	17230.04
773.855	17214.67
774.19	17229.82
774.525	17377.16
774.86	17442.01
775.195	17484.72
775.53	17464.39
775.865	17462.35
776.2	17483.82
776.535	17453.54
776.87	17582.57
777.205	17572.18
777.539	17584.61
777.874	17740.76
778.209	17564.72
778.543	17626.19
778.878	17625.74
779.212	17680.65
779.547	17696.02
779.881	17817.6
780.215	17726.07
780.55	17820.99
780.884	17829.12
781.218	17769.46
781.552	17780.08
781.886	17726.53
782.22	17735.34
782.554	17689.24
782.888	17598.85
783.222	17602.01
783.556	17629.13
783.889	17593.42
784.223	17524.27
784.557	17560.2
784.89	17616.02
785.224	17536.47
785.557	17543.93
785.891	17505.74
786.224	17491.96
786.558	17545.29
786.891	17507.77
787.224	17446.31
787.557	17331.96
787.891	17376.25
788.224	17344.16
788.557	17339.42
788.89	17458.06
789.223	17352.52
789.556	17291.73
789.888	17239.08
790.221	17170.16
790.554	17099.42
790.887	17114.34
791.219	17132.87
791.552	16991.4
791.884	16936.49
792.217	16895.13
792.549	16984.62
792.882	16822.37
793.214	16747.79
793.546	16917.96
793.879	16750.51
794.211	16773.78
794.543	16840.45
794.875	16665.54
795.207	16769.94
795.539	16701.24
795.871	16668.47
796.203	16517.74
796.535	16508.03
796.867	16490.4
797.198	16442.94
797.53	16370.18
797.862	16354.81
798.193	16373.57
798.525	16222.38
798.856	16242.95
799.188	16173.57
799.519	16204.53
799.85	15932.9
800.182	16080.02
800.513	16055.83
800.844	15887.03
801.175	16016.06
801.506	15982.39
801.837	15900.13
802.168	15823.98
802.499	15757.76
802.83	15856.97
803.161	15727.93
803.491	15719.57
803.822	15694.94
804.153	15663.98
804.483	15509.63
804.814	15627.82
805.145	15446.13
805.475	15453.14
805.805	15380.15
806.136	15398.9
806.466	15253.82
806.796	15422.41
807.126	15237.33
807.457	15170.89
807.787	15215.18
808.117	15216.31
808.447	15071.23
808.777	15117.33
809.107	15086.37
809.436	15047.5
809.766	15080.04
810.096	15055.86
810.426	14874.62
810.755	14865.58
811.085	14973.6
811.414	14905.36
811.744	14721.41
812.073	14807.73
812.403	14800.27
812.732	14714.85
813.061	14730.67
813.39	14621.97
813.719	14675.53
814.049	14631.92
814.378	14653.16
814.707	14555.99
815.036	14554.63
815.365	14535.2
815.693	14414.97
816.022	14377.91
816.351	14396.9
816.68	14314.64
817.008	14343.11
817.337	14241.42
817.665	14269.89
817.994	14277.58
818.322	14246.16
818.651	14181.08
818.979	14111.48
819.307	14146.73
819.636	14047.07
819.964	14038.03
820.292	14010.01
820.62	14047.07
820.948	14005.72
821.276	14065.15
821.604	13959.62
821.932	14042.1
822.259	14038.71
822.587	13914.42
822.915	13947.42
823.243	14045.04
823.57	13987.64
823.898	13964.14
824.225	13938.38
824.553	13855.67
824.88	13939.73
825.207	14040.52
825.535	13966.17
825.862	13948.55
826.189	13917.81
826.516	14016.11
826.843	13985.15
827.17	14048.43
827.497	14046.17
827.824	13976.79
828.151	14048.43
828.478	14032.39
828.805	14106.28
829.131	14080.07
829.458	13950.35
829.785	13876.01
830.111	13915.55
830.438	14055.44
830.764	14008.43
831.09	14016.57
831.417	13964.59
831.743	13981.77
832.069	13967.75
832.395	13909.45
832.722	13989.22
833.048	13897.47
833.374	13953.52
833.7	13893.41
834.026	13949.68
834.351	13896.34
834.677	13808.89
835.003	13928.21
835.329	13925.72
835.654	13891.6
835.98	13843.69
836.306	13925.72
836.631	13789.45
836.956	13892.95
837.282	13772.51
837.607	13760.98
837.932	13732.28
838.258	13716.24
838.583	13723.24
838.908	13672.62
839.233	13657.25
839.558	13607.09
839.883	13576.13
840.208	13571.61
840.533	13485.28
840.858	13535.68
841.182	13604.6
841.507	13522.34
841.832	13395.57
842.156	13407.99
842.481	13393.31
842.805	13343.14
843.13	13374.78
843.454	13322.35
843.778	13272.63
844.103	13203.48
844.427	13211.16
844.751	13144.27
845.075	13197.38
845.399	13091.62
845.723	13044.16
846.047	13037.61
846.371	12885.97
846.695	12944.05
847.019	12802.81
847.343	12805.52
847.666	12699.76
847.99	12682.59
848.313	12647.11
848.637	12588.81
848.96	12554.46
849.284	12511.07
849.607	12488.7
849.931	12433.78
850.254	12372.54
850.577	12326.67
850.9	12220
851.223	12283.28
851.546	12184.3
851.869	12093.45
852.192	12188.59
852.515	11953.12
852.838	11999.22
853.161	11938.2
853.483	11907.24
853.806	11839.67
854.129	11783.63
854.451	11768.94
854.774	11740.69
855.096	11694.37
855.419	11642.62
855.741	11657.08
856.063	11607.82
856.385	11532.56
856.708	11526.01
857.03	11521.72
857.352	11534.15
857.674	11460.02
857.996	11396.97
858.318	11323.53
858.64	11331.89
858.961	11304.77
859.283	11249.86
859.605	11121.95
859.926	11259.35
860.248	11177.32
860.57	11121.05
860.891	11146.59
861.212	11065.23
861.534	11030.88
861.855	11018.23
862.176	11021.62
862.498	11070.88
862.819	11016.42
863.14	10976.87
863.461	10878.34
863.782	10878.57
864.103	10893.26
864.424	10843.54
864.745	10934.16
865.065	10724.45
865.386	10739.82
865.707	10708.86
866.027	10814.39
866.348	10736.2
866.668	10748.63
866.989	10790.21
867.309	10616.66
867.63	10687.39
867.95	10698.91
868.27	10557.67
868.59	10679.48
868.91	10577.56
869.23	10567.39
869.55	10591.8
869.87	10612.81
870.19	10519.71
870.51	10498.92
870.83	10587.05
871.15	10530.56
871.469	10485.81
871.789	10516.55
872.109	10457.56
872.428	10373.05
872.748	10388.87
873.067	10376.44
873.386	10339.83
873.706	10366.94
874.025	10305.25
874.344	10264.12
874.663	10301.64
874.982	10196.1
875.301	10312.03
875.62	10177.8
875.939	10169.66
876.258	10203.56
876.577	10229.1
876.896	10210.56
877.214	10100.06
877.533	10136.67
877.852	10164.01
878.17	10140.96
878.489	10116.56
878.807	10099.38
879.125	10110.45
879.444	10016.9
879.762	10049.44
880.08	9995.66
880.398	9892.16
880.716	10022.77
881.034	9921.53
881.352	9974.86
881.67	9933.28
881.988	9899.39
882.306	9911.36
882.624	9791.14
882.941	9801.31
883.259	9763.12
883.577	9849.67
883.894	9742.55
884.212	9723.35
884.529	9768.32
884.846	9620.3
885.164	9684.25
885.481	9603.35
885.798	9549.79
886.115	9566.29
886.432	9606.51
886.75	9554.08
887.067	9538.94
887.383	9494.65
887.7	9546.63
888.017	9415.11
888.334	9477.02
888.651	9502.33
888.967	9383.92
889.284	9426.63
889.6	9342.11
889.917	9300.31
890.233	9296.69
890.55	9238.16
890.866	9270.93
891.182	9199.52
891.498	9174.66
891.815	9116.58
892.131	9141.89
892.447	9157.03
892.763	9099.63
893.079	9039.97
893.395	9031.39
893.71	9068.22
894.026	9101.67
894.342	8918.17
894.657	8920.43
894.973	8825.74
895.289	8853.76
895.604	8871.39
895.92	8818.06
896.235	8746.42
896.55	8750.94
896.865	8707.33
897.181	8670.04
897.496	8662.58
897.811	8649.48
898.126	8567.22
898.441	8534.9
898.756	8506.43
899.071	8426.88
899.386	8459.65
899.7	8414.68
900.015	8388.47
900.33	8341.69
900.644	8345.53
900.959	8348.24
901.273	8320.67
901.588	8251.29
901.902	8196.38
902.216	8182.82
902.531	8177.85
902.845	8089.49
903.159	8084.75
903.473	8109.15
903.787	8069.15
904.101	8013.56
904.415	7930.62
904.729	7897.86
905.042	7936.5
905.356	7868.71
905.67	7841.14
905.984	7885.43
906.297	7797.29
906.611	7773.11
906.924	7742.83
907.237	7722.49
907.551	7620.35
907.864	7643.85
908.177	7599.79
908.491	7590.75
908.804	7527.25
909.117	7486.12
909.43	7497.19
909.743	7432.56
910.056	7437.3
910.368	7395.27
910.681	7318.44
910.994	7376.52
911.307	7290.42
911.619	7294.03
911.932	7276.18
912.244	7171.1
912.557	7185.33
912.869	7116.41
913.181	7093.81
913.494	7089.52
913.806	6998.22
914.118	7019.91
914.43	6986.69
914.742	6986.69
915.054	6885.68
915.366	6939.92
915.678	6889.07
915.99	6895.17
916.302	6830.31
916.613	6793.93
916.925	6745.8
917.236	6770.88
917.548	6746.93
917.859	6735.18
918.171	6654.05
918.482	6699.24
918.794	6570.89
919.105	6628.74
919.416	6522.3
919.727	6491.57
920.038	6527.05
920.349	6469.19
920.66	6434.62
920.971	6446.37
921.282	6421.51
921.593	6381.74
921.903	6329.08
922.214	6333.83
922.525	6288.41
922.835	6282.53
923.146	6268.75
923.456	6204.12
923.767	6225.36
924.077	6203.66
924.387	6184.91
924.697	6134.06
925.008	6158.02
925.318	6171.58
925.628	6037.34
925.938	6016.32
926.248	6009.32
926.558	6018.81
926.867	5930
927.177	5905.37
927.487	5925.03
927.796	5828.99
928.106	5850.23
928.416	5829.21
928.725	5789.21
929.034	5766.39
929.344	5796.44
929.653	5750.12
929.962	5705.82
930.271	5676.22
930.581	5649.1
930.89	5607.75
931.199	5564.59
931.508	5591.93
931.817	5610.01
932.125	5536.11
932.434	5520.97
932.743	5521.2
933.051	5444.14
933.36	5423.8
933.669	5412.5
933.977	5380.41
934.286	5393.74
934.594	5338.6
934.902	5332.05
935.21	5304.03
935.519	5284.59
935.827	5273.52
936.135	5240.07
936.443	5251.37
936.751	5204.59
937.059	5132.73
937.367	5205.27
937.674	5159.4
937.982	5151.26
938.29	5146.07
938.597	5149.45
938.905	5064.94
939.213	4993.53
939.52	4977.93
939.827	5042.57
940.135	4989.46
940.442	4944.49
940.749	4931.61
941.056	4911.95
941.363	4931.83
941.67	4856.58
941.977	4844.15
942.284	4830.59
942.591	4771.39
942.898	4779.07
943.205	4754.21
943.511	4751.5
943.818	4709.47
944.125	4702.46
944.431	4718.73
944.738	4646.42
945.044	4627.43
945.35	4598.96
945.657	4556.48
945.963	4584.72
946.269	4563.03
946.575	4535.01
946.881	4485.07
947.187	4464.73
947.493	4507.44
947.799	4504.27
948.105	4457.04
948.41	4405.52
948.716	4456.59
949.022	4434.45
949.327	4350.61
949.633	4341.34
949.938	4317.39
950.244	4327.33
950.549	4321.91
950.854	4282.81
951.16	4299.53
951.465	4250.72
951.77	4231.06
952.075	4224.28
952.38	4207.11
952.685	4182.02
952.99	4134.57
953.294	4163.49
953.599	4127.33
953.904	4075.36
954.209	4034
954.513	4030.61
954.818	4006.43
955.122	4047.79
955.426	4013.44
955.731	4006.89
956.035	4012.08
956.339	3987.45
956.643	3986.1
956.948	3964.63
957.252	3916.04
957.556	3905.87
957.86	3909.49
958.163	3880.11
958.467	3896.83
958.771	3825.42
959.075	3820.45
959.378	3838.08
959.682	3800.11
959.985	3802.82
960.289	3731.64
960.592	3751.53
960.896	3726.44
961.199	3687.8
961.502	3708.81
961.805	3676.73
962.108	3644.41
962.411	3639.89
962.714	3621.36
963.017	3638.76
963.32	3609.16
963.623	3560.34
963.926	3618.2
964.228	3542.04
964.531	3560.8
964.833	3573.23
965.136	3517.86
965.438	3462.72
965.741	3459.1
966.043	3462.27
966.345	3426.56
966.648	3431.99
966.95	3423.17
967.252	3354.93
967.554	3397.18
967.856	3363.29
968.158	3359.9
968.46	3323.97
968.761	3310.41
969.063	3334.14
969.365	3307.02
969.666	3250.52
969.968	3256.17
970.269	3256.17
970.571	3237.41
970.872	3226.12
971.174	3196.96
971.475	3200.35
971.776	3175.95
972.077	3179.79
972.378	3149.73
972.679	3188.38
972.98	3154.03
973.281	3130.98
973.582	3086.46
973.883	3123.07
974.183	3052.33
974.484	3096.4
974.785	3074.48
975.085	3059.57
975.386	3065.44
975.686	3011.66
975.986	2987.48
976.287	3001.49
976.587	2990.64
976.887	2953.13
977.187	2963.3
977.487	2965.33
977.787	2909.06
978.087	2920.81
978.387	2913.58
978.687	2859.35
978.987	2880.59
979.286	2832.91
979.586	2840.82
979.885	2837.43
980.185	2859.57
980.484	2820.25
980.784	2786.58
981.083	2764.43
981.382	2790.87
981.682	2759.91
981.981	2720.37
982.28	2731.44
982.579	2714.04
982.878	2700.03
983.177	2668.84
983.475	2673.14
983.774	2690.99
984.073	2680.82
984.372	2633.14
984.67	2634.27
984.969	2644.89
985.267	2622.06
985.566	2603.99
985.864	2610.99
986.162	2612.12
986.461	2542.29
986.759	2558.79
987.057	2530.54
987.355	2536.87
987.653	2535.06
987.951	2493.71
988.249	2498.68
988.547	2488.96
988.844	2467.27
989.142	2456.87
989.44	2449.41
989.737	2440.6
990.035	2427.94
990.332	2434.05
990.63	2435.63
990.927	2394.05
991.224	2410.32
991.521	2387.27
991.819	2409.41
992.116	2337.78
992.413	2338.68
992.71	2338.23
993.006	2329.87
993.303	2325.8
993.6	2293.71
993.897	2258.23
994.193	2304.11
994.49	2278.34
994.787	2234.5
995.083	2224.79
995.379	2222.75
995.676	2219.59
995.972	2230.89
996.268	2171
996.565	2179.14
996.861	2184.11
997.157	2196.76
997.453	2148.86
997.749	2128.74
998.044	2141.62
998.34	2127.61
998.636	2146.37
998.932	2060.04
999.227	2105.24
999.523	2074.96
999.818	2088.07
1000.114	2068.63
1000.409	2031.57
1000.704	2036.77
1001	2007.84
1001.295	2004.9
1001.59	2013.94
1001.885	2012.81
1002.18	2019.59
1002.475	1975.98
1002.77	1980.5
1003.065	1951.57
1003.359	1915.87
1003.654	1940.95
1003.949	1927.39
1004.243	1938.92
1004.538	1887.17
1004.832	1885.81
1005.127	1870.9
1005.421	1862.54
1005.715	1867.51
1006.009	1817.11
1006.304	1833.38
1006.598	1833.38
1006.892	1823.89
1007.186	1778.92
1007.48	1793.84
1007.773	1801.29
1008.067	1763.56
1008.361	1768.3
1008.655	1744.57
1008.948	1757.45
1009.242	1716.1
1009.535	1728.3
1009.829	1747.06
1010.122	1729.66
1010.415	1679.94
1010.708	1710.9
1011.001	1683.33
1011.295	1678.81
1011.588	1646.04
1011.881	1649.66
1012.173	1660.51
1012.466	1641.3
1012.759	1632.94
1013.052	1626.61
1013.344	1608.31
1013.637	1572.83
1013.93	1579.61
1014.222	1588.87
1014.514	1559.49
1014.807	1549.78
1015.099	1518.14
1015.391	1535.76
1015.683	1524.92
1015.976	1507.06
1016.268	1517.46
1016.56	1505.71
1016.851	1498.48
1017.143	1489.89
1017.435	1470.23
1017.727	1505.93
1018.018	1449.89
1018.31	1488.76
1018.602	1430.46
1018.893	1430
1019.185	1427.52
1019.476	1387.29
1019.767	1418.48
1020.058	1369.67
1020.35	1375.54
1020.641	1357.92
1020.932	1357.69
1021.223	1393.62
1021.514	1346.84
1021.804	1340.06
1022.095	1326.28
1022.386	1353.62
1022.677	1312.49
1022.967	1317.92
1023.258	1321.31
1023.548	1304.13
1023.839	1302.55
1024.129	1266.39
1024.419	1272.27
1024.709	1256.68
1025	1245.83
1025.29	1245.83
1025.58	1252.83
1025.87	1236.56
1026.16	1209.9
1026.449	1219.16
1026.739	1179.39
1027.029	1201.08
1027.319	1212.61
1027.608	1198.82
1027.898	1176.45
1028.187	1170.8
1028.477	1155.89
1028.766	1137.36
1029.055	1136
1029.344	1141.2
1029.634	1124.48
1029.923	1111.82
1030.212	1127.87
1030.501	1076.12
1030.79	1124.93
1031.078	1101.88
1031.367	1044.03
1031.656	1062.56
1031.945	1089.67
1032.233	1067.08
1032.522	1053.07
1032.81	1044.03
1033.099	1053.52
1033.387	1031.37
1033.675	1024.14
1033.963	1013.07
1034.251	1034.99
1034.54	1011.03
1034.828	1001.77
1035.116	1003.35
1035.403	1020.3
1035.691	1013.29
1035.979	981.2
1036.267	974.42
1036.554	976.23
1036.842	986.4
1037.129	944.82
1037.417	949.57
1037.704	922.67
1037.992	933.52
1038.279	936.68
1038.566	931.71
1038.853	931.71
1039.14	931.71
