Data from hue_220_FLMS001491_00016.txt Node
Date: Tue Feb 07 16:38:36 GMT 2017
User: dcchb
Spectrometer: FLMS00149
Trigger mode: 0
Integration Time (sec): 2.000000E-2
Scans to average: 10
Electric dark correction enabled: true
Nonlinearity correction enabled: false
Boxcar width: 0
XAxis mode: Wavelengths
Number of Pixels in Spectrum: 2048
>>>>>Begin Spectral Data<<<<<
341.393	8.84
341.776	8.84
342.16	8.84
342.543	-73.42
342.927	-68.67
343.31	-79.74
343.693	-69.35
344.077	-73.64
344.46	-61.89
344.843	-79.52
345.226	-24.38
345.61	-33.87
345.993	-2.91
346.376	7.49
346.759	16.07
347.142	9.29
347.525	49.07
347.908	52.68
348.291	67.82
348.674	103.53
349.057	119.35
349.44	116.18
349.823	117.54
350.206	185.79
350.588	179.46
350.971	202.51
351.354	229.85
351.737	236.41
352.119	241.38
352.502	269.4
352.884	297.65
353.267	278.21
353.65	276.18
354.032	299.23
354.414	284.09
354.797	308.95
355.179	317.08
355.562	321.83
355.944	310.98
356.326	304.2
356.709	307.59
357.091	337.87
357.473	334.71
357.855	338.1
358.238	341.26
358.62	340.36
359.002	334.03
359.384	337.19
359.766	331.54
360.148	335.39
360.53	343.07
360.912	341.49
361.294	317.53
361.676	314.37
362.057	336.74
362.439	300.36
362.821	327.25
363.203	336.97
363.584	317.53
363.966	313.47
364.348	330.19
364.729	307.14
365.111	316.18
365.493	306.23
365.874	286.8
366.256	297.65
366.637	295.84
367.019	311.21
367.4	301.49
367.781	324.09
368.163	297.65
368.544	302.39
368.925	310.98
369.306	296.52
369.688	306.69
370.069	291.77
370.45	293.13
370.831	297.87
371.212	305.33
371.593	299.91
371.974	306.01
372.355	320.7
372.736	304.2
373.117	319.57
373.498	291.55
373.879	334.93
374.26	309.17
374.641	303.75
375.021	300.59
375.402	303.3
375.783	320.25
376.163	330.64
376.544	317.31
376.925	308.72
377.305	309.17
377.686	316.63
378.066	337.42
378.447	315.27
378.827	330.64
379.208	333.35
379.588	315.5
379.968	311.43
380.349	329.06
380.729	326.35
381.109	314.82
381.489	301.94
381.87	308.04
382.25	330.42
382.63	323.18
383.01	327.25
383.39	318.66
383.77	334.93
384.15	311.66
384.53	344.65
384.91	347.59
385.29	332
385.67	339.23
386.049	358.66
386.429	376.74
386.809	349.62
387.189	333.13
387.568	356.18
387.948	340.58
388.328	355.05
388.707	347.36
389.087	353.01
389.466	346.01
389.846	352.11
390.225	364.99
390.605	350.98
390.984	375.61
391.363	365.44
391.743	371.54
392.122	365.67
392.501	359.11
392.881	366.35
393.26	358.44
393.639	366.57
394.018	364.31
394.397	366.8
394.776	382.84
395.155	386.91
395.534	385.33
395.913	380.81
396.292	399.57
396.671	382.17
397.05	383.97
397.429	361.37
397.808	404.09
398.186	379.45
398.565	397.53
398.944	403.63
399.323	406.35
399.701	397.31
400.08	398.89
400.458	400.92
400.837	396.4
401.215	397.08
401.594	426.68
401.972	409.28
402.351	416.06
402.729	415.61
403.107	419
403.486	417.64
403.864	418.1
404.242	426.91
404.62	441.6
404.999	450.19
405.377	433.92
405.755	425.55
406.133	450.86
406.511	457.42
406.889	486.8
407.267	448.38
407.645	464.42
408.023	471.2
408.401	460.81
408.779	480.02
409.156	483.18
409.534	492.67
409.912	494.93
410.29	506.46
410.667	511.65
411.045	523.18
411.422	530.86
411.8	522.27
412.178	533.57
412.555	552.1
412.933	549.62
413.31	554.59
413.687	560.69
414.065	595.04
414.442	588.71
414.819	590.3
415.197	601.82
415.574	602.72
415.951	620.8
416.328	629.39
416.705	636.62
417.082	622.61
417.46	655.15
417.837	656.51
418.214	669.84
418.591	688.6
418.967	673
419.344	662.84
419.721	687.02
420.098	727.47
420.475	703.74
420.852	712.78
421.228	734.7
421.605	744.19
421.982	762.49
422.358	774.92
422.735	811.08
423.111	785.77
423.488	804.53
423.864	842.49
424.241	825.54
424.617	845.2
424.994	850.63
425.37	867.35
425.746	875.03
426.123	883.62
426.499	932.21
426.875	931.53
427.251	931.76
427.627	948.48
428.003	934.47
428.379	965.65
428.756	985.54
429.132	994.35
429.507	1002.49
429.883	1009.49
430.259	1009.72
430.635	1039.55
431.011	1004.3
431.387	1043.84
431.763	1055.59
432.138	1098.98
432.514	1091.07
432.89	1096.95
433.265	1129.49
433.641	1141.02
434.016	1152.54
434.392	1214.01
434.767	1230.05
435.143	1234.35
435.518	1286.1
435.894	1295.81
436.269	1287.45
436.644	1329.26
437.02	1337.39
437.395	1351.18
437.77	1392.76
438.145	1420.1
438.52	1418.75
438.895	1426.43
439.271	1460.1
439.646	1486.77
440.021	1512.98
440.395	1512.53
440.77	1526.09
441.145	1559.99
441.52	1601.12
441.895	1596.14
442.27	1610.83
442.645	1636.6
443.019	1673.2
443.394	1670.04
443.769	1703.71
444.143	1679.31
444.518	1709.14
444.892	1712.3
445.267	1717.5
445.641	1728.8
446.016	1735.35
446.39	1750.94
446.764	1743.94
447.139	1786.87
447.513	1799.98
447.887	1771.51
448.262	1808.57
448.636	1833.65
449.01	1872.07
449.384	1856.25
449.758	1890.15
450.132	1879.75
450.506	1907.55
450.88	1927.89
451.254	1914.78
451.628	1964.72
452.002	2001.56
452.376	1983.48
452.75	2014.66
453.123	2042.01
453.497	2041.33
453.871	2054.89
454.244	2069.58
454.618	2089.46
454.992	2128.11
455.365	2107.54
455.739	2203.59
456.112	2213.76
456.486	2216.02
456.859	2249.69
457.232	2264.6
457.606	2289.46
457.979	2292.4
458.352	2352.51
458.725	2361.32
459.099	2364.94
459.472	2448.1
459.845	2421.89
460.218	2462.79
460.591	2473.18
460.964	2471.15
461.337	2544.37
461.71	2580.75
462.083	2603.8
462.456	2628.21
462.829	2613.97
463.201	2700.07
463.574	2669.79
463.947	2708.88
464.32	2756.79
464.692	2762.89
465.065	2802.67
465.438	2857.13
465.81	2896
466.183	2902.78
466.555	2982.77
466.928	2979.38
467.3	2979.16
467.672	2978.71
468.045	3062.09
468.417	3065.48
468.789	3130.12
469.161	3146.61
469.534	3228.64
469.906	3245.59
470.278	3253.05
470.65	3309.09
471.022	3336.21
471.394	3423.67
471.766	3397
472.138	3484.23
472.51	3536.88
472.882	3568.3
473.253	3632.7
473.625	3642.87
473.997	3726.71
474.369	3763.32
474.74	3784.34
475.112	3807.61
475.484	3890.55
475.855	3927.61
476.227	3968.74
476.598	4102.52
476.97	4061.39
477.341	4179.81
477.713	4238.56
478.084	4268.62
478.455	4333.7
478.827	4350.65
479.198	4480.59
479.569	4463.87
479.94	4589.06
480.311	4564.65
480.682	4691.2
481.053	4757.42
481.424	4842.61
481.795	4876.96
482.166	4964.19
482.537	4974.81
482.908	5074.25
483.279	5088.26
483.65	5240.79
484.021	5310.17
484.391	5369.6
484.762	5351.75
485.133	5392.43
485.503	5487.79
485.874	5589.94
486.244	5559.43
486.615	5690.05
486.985	5716.94
487.356	5847.56
487.726	5842.13
488.097	5980.21
488.467	5998.97
488.837	6047.33
489.207	6172.3
489.578	6235.34
489.948	6247.1
490.318	6340.43
490.688	6346.75
491.058	6440.76
491.428	6554.66
491.798	6557.82
492.168	6664.71
492.538	6694.32
492.908	6722.79
493.278	6763.24
493.648	6804.14
494.017	6945.83
494.387	6950.58
494.757	6984.93
495.126	7008.21
495.496	7029.22
495.866	7063.57
496.235	7092.05
496.605	7118.49
496.974	7209.78
497.344	7238.26
497.713	7275.32
498.082	7331.36
498.452	7381.53
498.821	7419.27
499.19	7379.04
499.559	7389.21
499.928	7484.58
500.298	7535.42
500.667	7572.71
501.036	7537.91
501.405	7560.96
501.774	7588.08
502.143	7622.65
502.512	7686.83
502.88	7677.11
503.249	7679.83
503.618	7736.32
503.987	7749.88
504.356	7809.77
504.724	7774.06
505.093	7768.19
505.462	7875.75
505.83	7888.18
506.199	7965.47
506.567	7967.28
506.936	7948.97
507.304	8064.22
507.672	7998.91
508.041	8088.63
508.409	8074.84
508.777	8147.61
509.145	8173.82
509.514	8127.05
509.882	8148.51
510.25	8178.57
510.618	8225.12
510.986	8154.84
511.354	8193.49
511.722	8197.1
512.09	8299.47
512.458	8235.97
512.826	8368.85
513.193	8285.69
513.561	8343.31
513.929	8325.46
514.297	8381.95
514.664	8399.13
515.032	8403.65
515.4	8424.44
515.767	8365.01
516.135	8464.44
516.502	8370.2
516.869	8422.86
517.237	8478.68
517.604	8391.9
517.972	8488.84
518.339	8461.05
518.706	8438.68
519.073	8472.12
519.44	8513.25
519.808	8538.56
520.175	8528.17
520.542	8576.07
520.909	8594.6
521.276	8549.63
521.643	8586.7
522.009	8621.27
522.376	8624.89
522.743	8586.24
523.11	8660.59
523.477	8710.76
523.843	8689.74
524.21	8736.75
524.577	8716.18
524.943	8732
525.31	8708.27
525.676	8791.66
526.043	8712.57
526.409	8712.12
526.776	8858.33
527.142	8818.78
527.508	8794.15
527.874	8802.06
528.241	8826.46
528.607	8782.17
528.973	8820.14
529.339	8729.06
529.705	8897.2
530.071	8871.66
530.437	8857.87
530.803	8832.79
531.169	8870.3
531.535	8830.08
531.901	8749.63
532.267	8760.7
532.632	8850.87
532.998	8785.56
533.364	8777.2
533.73	8800.25
534.095	8822.85
534.461	8807.25
534.826	8839.8
535.192	8746.46
535.557	8792.79
535.923	8700.14
536.288	8784.88
536.653	8748.95
537.019	8720.7
537.384	8679.35
537.749	8680.7
538.114	8739.23
538.479	8604.1
538.845	8653.13
539.21	8623.08
539.575	8570.42
539.94	8624.89
540.305	8576.75
540.67	8591.89
541.034	8542.85
541.399	8553.7
541.764	8484.32
542.129	8449.3
542.494	8494.49
542.858	8477.32
543.223	8450.43
543.587	8472.12
543.952	8464.89
544.316	8387.6
544.681	8371.33
545.045	8398.23
545.41	8416.3
545.774	8363.65
546.138	8340.6
546.503	8316.42
546.867	8222.64
547.231	8313.03
547.595	8266.7
547.959	8284.33
548.324	8206.14
548.688	8209.3
549.052	8199.81
549.416	8142.64
549.779	8115.52
550.143	8155.29
550.507	8123.66
550.871	8099.48
551.235	8079.14
551.599	8093.15
551.962	8080.49
552.326	8063.55
552.689	8037.78
553.053	8084.56
553.417	7958.46
553.78	8105.58
554.143	7958.46
554.507	7977.22
554.87	7979.93
555.234	8043.66
555.597	7964.56
555.96	7998.24
556.323	7942.64
556.686	7928.86
557.05	7983.55
557.413	7988.29
557.776	7906.49
558.139	7935.86
558.502	7961.4
558.865	7908.29
559.228	7889.76
559.59	7922.76
559.953	7922.53
560.316	8043.88
560.679	7929.99
561.041	7997.56
561.404	7964.34
561.767	7946.03
562.129	7953.72
562.492	7923.66
562.854	7966.37
563.217	8007.73
563.579	7970.44
563.941	8012.25
564.304	8017.67
564.666	8012.47
565.028	7999.14
565.39	7968.18
565.753	7995.07
566.115	8014.96
566.477	8084.56
566.839	8072.58
567.201	8148.06
567.563	8027.16
567.925	8085.01
568.287	8134.5
568.648	8187.84
569.01	8125.46
569.372	8204.56
569.734	8082.3
570.095	8213.6
570.457	8219.47
570.819	8203.2
571.18	8182.64
571.542	8264.44
571.903	8214.28
572.265	8254.73
572.626	8210.43
572.987	8291.34
573.349	8272.13
573.71	8302.86
574.071	8407.94
574.432	8375.63
574.794	8329.98
575.155	8436.64
575.516	8411.56
575.877	8469.18
576.238	8418.34
576.599	8448.85
576.96	8447.04
577.32	8447.72
577.681	8487.26
578.042	8543.53
578.403	8479.35
578.763	8522.06
579.124	8520.26
579.485	8546.02
579.845	8627.82
580.206	8524.78
580.566	8564.55
580.927	8565.9
581.287	8589.86
581.648	8643.19
582.008	8667.82
582.368	8660.59
582.728	8699.46
583.089	8677.54
583.449	8737.2
583.809	8713.02
584.169	8766.13
584.529	8748.95
584.889	8811.55
585.249	8745.56
585.609	8826.01
585.969	8821.27
586.329	8731.1
586.688	8874.82
587.048	8932
587.408	8835.28
587.768	8827.82
588.127	8866.24
588.487	8873.92
588.846	8934.93
589.206	8856.74
589.565	8904.65
589.925	8934.71
590.284	8952.34
590.643	8929.74
591.003	9003.41
591.362	9022.39
591.721	9014.03
592.08	9020.36
592.44	8997.76
592.799	9024.88
593.158	9082.95
593.517	9047.25
593.876	9084.76
594.235	9083.18
594.593	9053.8
594.952	9144.65
595.311	9103.29
595.67	9067.81
596.029	9165.66
596.387	9098.77
596.746	9151.43
597.104	9138.32
597.463	9143.29
597.822	9140.8
598.18	9113.23
598.538	9133.12
598.897	9235.94
599.255	9126.12
599.613	9273.23
599.972	9214.48
600.33	9124.53
600.688	9136.51
601.046	9214.48
601.404	9234.81
601.762	9188.71
602.12	9236.62
602.478	9230.75
602.836	9247.92
603.194	9201.37
603.552	9258.09
603.91	9251.54
604.268	9229.62
604.625	9226.9
604.983	9254.25
605.341	9182.84
605.698	9306.22
606.056	9233.01
606.413	9296.73
606.771	9317.98
607.128	9364.53
607.485	9290.63
607.843	9371.76
608.2	9397.52
608.557	9339.22
608.914	9382.83
609.272	9355.71
609.629	9411.98
609.986	9431.19
610.343	9378.76
610.7	9360.23
611.057	9439.78
611.414	9464.86
611.771	9402.72
612.127	9444.53
612.484	9389.61
612.841	9517.07
613.198	9415.6
613.554	9438.65
613.911	9501.25
614.267	9495.37
614.624	9481.81
614.98	9449.27
615.337	9520.46
615.693	9469.61
616.05	9524.3
616.406	9570.62
616.762	9600
617.118	9520.91
617.475	9530.17
617.831	9616.05
618.187	9535.6
618.543	9560.23
618.899	9658.53
619.255	9543.96
619.611	9643.62
619.967	9632.54
620.323	9637.97
620.678	9598.42
621.034	9654.46
621.39	9615.82
621.746	9622.83
622.101	9699.89
622.457	9611.75
622.812	9605.65
623.168	9626.67
623.523	9659.44
623.879	9727.23
624.234	9565.43
624.589	9657.4
624.945	9689.49
625.3	9630.28
625.655	9670.06
626.01	9638.87
626.365	9624.41
626.72	9702.37
627.075	9658.31
627.43	9580.57
627.785	9654.24
628.14	9567.23
628.495	9657.63
628.85	9632.54
629.205	9587.57
629.559	9570.85
629.914	9576.5
630.269	9599.32
630.623	9583.51
630.978	9543.73
631.332	9590.96
631.687	9581.7
632.041	9526.78
632.396	9594.13
632.75	9561.13
633.104	9567.91
633.459	9475.49
633.813	9466.45
634.167	9421.25
634.521	9445.88
634.875	9521.13
635.229	9461.93
635.583	9451.76
635.937	9455.82
636.291	9378.09
636.645	9360.23
636.999	9394.58
637.352	9373.34
637.706	9261.71
638.06	9410.85
638.413	9347.13
638.767	9355.04
639.121	9378.09
639.474	9270.74
639.828	9270.07
640.181	9323.17
640.534	9313.46
640.888	9273.46
641.241	9260.12
641.594	9151.2
641.947	9296.73
642.301	9275.49
642.654	9316.85
643.007	9202.95
643.36	9204.31
643.713	9199.11
644.066	9245.66
644.419	9238.88
644.771	9127.7
645.124	9086.12
645.477	9097.64
645.83	8990.98
646.182	9015.84
646.535	8917.99
646.888	8904.43
647.24	8857.65
647.593	8963.86
647.945	8915.73
648.298	8858.33
648.65	8845.22
649.002	8861.94
649.355	8904.2
649.707	8903.52
650.059	8926.35
650.411	9054.03
650.763	9055.38
651.115	9176.51
651.467	9097.87
651.819	9109.17
652.171	9120.01
652.523	9082.28
652.875	9095.83
653.227	9006.57
653.578	9141.71
653.93	9003.86
654.282	9129.05
654.633	8976.29
654.985	9094.48
655.337	9070.75
655.688	9096.29
656.039	9155.27
656.391	9039.11
656.742	9092.67
657.094	9063.52
657.445	9108.94
657.796	9076.17
658.147	9081.6
658.498	9050.19
658.849	9132.22
659.2	9122.95
659.551	9086.79
659.902	9098.09
660.253	9115.95
660.604	9053.12
660.955	9078.66
661.306	9116.4
661.656	9130.41
662.007	9098.55
662.358	9122.05
662.708	9125.89
663.059	9071.88
663.409	9037.76
663.76	9143.06
664.11	9158.66
664.461	9117.53
664.811	9109.39
665.161	9208.15
665.511	9091.99
665.862	9081.82
666.212	9098.09
666.562	9142.84
666.912	9104.2
667.262	9181.26
667.612	9198.66
667.962	9169.73
668.312	9163.4
668.662	9185.78
669.011	9127.92
669.361	9139.67
669.711	9140.58
670.06	9083.41
670.41	9091.77
670.76	9132.9
671.109	9116.4
671.459	9089.05
671.808	9082.28
672.157	9086.57
672.507	9024.65
672.856	9077.98
673.205	9071.65
673.554	9000.92
673.904	9087.92
674.253	9112.33
674.602	9015.61
674.951	8862.62
675.3	8832.56
675.649	8993.24
675.998	8998.44
676.346	9012.45
676.695	9029.62
677.044	8922.05
677.393	8916.4
677.741	8961.83
678.09	8967.02
678.438	8937.19
678.787	8952.11
679.135	8880.7
679.484	8884.31
679.832	8929.96
680.181	8850.19
680.529	8843.41
680.877	8873.47
681.225	8842.96
681.573	8896.07
681.922	8811.1
682.27	8779.68
682.618	8793.24
682.966	8733.81
683.314	8744.88
683.661	8775.62
684.009	8745.56
684.357	8687.94
684.705	8722.51
685.053	8644.09
685.4	8607.26
685.748	8541.5
686.095	8616.75
686.443	8566.36
686.79	8537.66
687.138	8589.18
687.485	8609.52
687.832	8499.01
688.18	8535.62
688.527	8466.25
688.874	8431.44
689.221	8456.98
689.568	8374.5
689.915	8367.72
690.262	8401.84
690.609	8313.03
690.956	8230.32
691.303	8297.21
691.65	8289.53
691.997	8227.61
692.344	8171.79
692.69	8263.09
693.037	8222.41
693.383	8107.16
693.73	8173.6
694.077	8022.19
694.423	8056.09
694.769	7996.65
695.116	7953.04
695.462	7965.24
695.808	7931.8
696.155	7983.55
696.501	7877.56
696.847	7854.74
697.193	7869.2
697.539	7820.39
697.885	7847.05
698.231	7750.33
698.577	7730.9
698.923	7759.15
699.269	7663.56
699.614	7631.92
699.96	7601.41
700.306	7623.56
700.651	7545.37
700.997	7490
701.342	7504.01
701.688	7499.94
702.033	7448.87
702.379	7440.96
702.724	7404.58
703.069	7372.49
703.415	7329.33
703.76	7390.79
704.105	7264.02
704.45	7335.65
704.795	7275.77
705.14	7221.31
705.485	7145.15
705.83	7197.13
706.175	7184.02
706.52	7170.69
706.865	7191.25
707.209	7111.25
707.554	7027.64
707.899	7118.26
708.243	6992.16
708.588	6993.52
708.932	7045.04
709.277	7010.69
709.621	6999.17
709.966	6956.91
710.31	6944.48
710.654	6901.99
710.998	6912.84
711.342	6909
711.687	6847.31
712.031	6811.15
712.375	6800.98
712.719	6795.1
713.063	6760.3
713.407	6832.39
713.75	6840.75
714.094	6815.44
714.438	6724.82
714.782	6765.5
715.125	6744.48
715.469	6736.35
715.812	6699.29
716.156	6681.21
716.499	6692.73
716.843	6660.19
717.186	6626.52
717.53	6639.85
717.873	6651.83
718.216	6656.12
718.559	6565.51
718.902	6553.3
719.246	6668.33
719.589	6584.26
719.932	6554.88
720.275	6527.99
720.617	6520.76
720.96	6560.08
721.303	6539.52
721.646	6535.45
721.989	6496.13
722.331	6522.57
722.674	6460.88
723.016	6490.03
723.359	6523.02
723.701	6483.02
724.044	6441.21
724.386	6445.28
724.729	6469.01
725.071	6450.93
725.413	6415
725.755	6436.24
726.097	6425.85
726.439	6395.34
726.782	6337.49
727.124	6416.81
727.465	6430.82
727.807	6435.34
728.149	6393.76
728.491	6361.22
728.833	6420.42
729.175	6364.38
729.516	6364.38
729.858	6360.76
730.199	6362.8
730.541	6313.31
730.882	6384.95
731.224	6394.89
731.565	6327.55
731.906	6400.76
732.248	6374.55
732.589	6341.78
732.93	6307.66
733.271	6305.17
733.612	6348.11
733.953	6429.92
734.294	6352.18
734.635	6391.27
734.976	6404.15
735.317	6343.14
735.658	6383.59
735.999	6345.62
736.339	6346.08
736.68	6424.72
737.021	6398.5
737.361	6372.74
737.702	6400.54
738.042	6413.87
738.383	6440.76
738.723	6409.8
739.063	6378.84
739.404	6477.6
739.744	6464.94
740.084	6408.67
740.424	6422.01
740.764	6419.52
741.104	6495.22
741.444	6478.73
741.784	6479.41
742.124	6490.93
742.464	6517.82
742.804	6545.84
743.143	6578.39
743.483	6592.62
743.823	6580.42
744.162	6569.35
744.502	6661.55
744.841	6612.74
745.181	6603.92
745.52	6678.72
745.86	6793.75
746.199	6756.23
746.538	6769.34
746.877	6886.85
747.216	6927.76
747.556	6930.47
747.895	6955.78
748.234	6971.37
748.573	7016.11
748.911	7035.1
749.25	7101.54
749.589	7150.35
749.928	7249.33
750.267	7322.32
750.605	7326.62
750.944	7417.46
751.283	7448.65
751.621	7592.6
751.96	7588.3
752.298	7682.31
752.636	7765.47
752.975	7852.03
753.313	7899.71
753.651	8060.38
753.989	8208.4
754.327	8270.09
754.666	8329.07
755.004	8517.54
755.342	8566.36
755.679	8720.02
756.017	8774.71
756.355	8922.96
756.693	9042.95
757.031	9260.8
757.368	9232.78
757.706	9482.49
758.044	9536.95
758.381	9746.66
758.719	9941.69
759.056	10048.35
759.394	10122.25
759.731	10259.65
760.068	10444.27
760.405	10526.98
760.743	10646.98
761.08	11014.65
761.417	11030.47
761.754	11232.05
762.091	11443.12
762.428	11599.72
762.765	11679.04
763.102	11955.42
763.438	12002.42
763.775	12201.29
764.112	12379.59
764.449	12607.83
764.785	12690.99
765.122	12732.12
765.458	12966.92
765.795	13136.41
766.131	13364.65
766.467	13448.49
766.804	13578.43
767.14	13744.53
767.476	13859.55
767.812	13991.3
768.148	14212.54
768.485	14269.03
768.821	14384.73
769.157	14541.34
769.492	14715.12
769.828	14837.83
770.164	14927.55
770.5	15065.17
770.836	15219.52
771.171	15162.34
771.507	15338.16
771.842	15434.42
772.178	15618.37
772.513	15654.31
772.849	15692.95
773.184	15920.74
773.519	15979.95
773.855	15971.81
774.19	16090.9
774.525	16146.72
774.86	16281.86
775.195	16408.41
775.53	16361.41
775.865	16479.59
776.2	16409.77
776.535	16487.96
776.87	16619.25
777.205	16713.04
777.539	16623.55
777.874	16775.41
778.209	16740.61
778.543	16774.05
778.878	16783.32
779.212	16914.61
779.547	16812.24
779.881	17058.34
780.215	16978.11
780.55	17118.22
780.884	17011.33
781.218	17088.84
781.552	17141.5
781.886	17110.99
782.22	17077.55
782.554	17157.32
782.888	17046.81
783.222	17002.29
783.556	17000.26
783.889	17104.66
784.223	17014.72
784.557	17024.67
784.89	17094.72
785.224	17037.55
785.557	16968.62
785.891	17008.85
786.224	16985.12
786.558	17018.79
786.891	16974.27
787.224	16958.9
787.557	16928.62
787.891	16960.49
788.224	17081.16
788.557	17016.08
788.89	16917.78
789.223	16932.69
789.556	16903.54
789.888	16887.27
790.221	16867.38
790.554	16832.35
790.887	16846.82
791.219	16614.28
791.552	16649.31
791.884	16704.67
792.217	16751.68
792.549	16693.6
792.882	16570.44
793.214	16604.34
793.546	16633.72
793.879	16604.79
794.211	16440.95
794.543	16568.18
794.875	16482.53
795.207	16575.19
795.539	16451.8
795.871	16538.12
796.203	16348.75
796.535	16275.08
796.867	16314.18
797.198	16261.52
797.53	16284.12
797.862	16132.26
798.193	16179.26
798.525	16062.88
798.856	16119.38
799.188	16003
799.519	15961.64
799.85	15895.2
800.182	15973.85
800.513	15854.98
800.844	15792.83
801.175	15897.01
801.506	15880.06
801.837	15762.33
802.168	15797.8
802.499	15766.39
802.83	15726.39
803.161	15583.35
803.491	15588.77
803.822	15594.65
804.153	15552.84
804.483	15499.28
804.814	15403.47
805.145	15408.21
805.475	15500.19
805.805	15371.15
806.136	15369.79
806.466	15327.99
806.796	15338.83
807.126	15241.21
807.457	15231.94
807.787	15249.34
808.117	15207.09
808.447	15078.95
808.777	15123.02
809.107	15038.95
809.436	15006.41
809.766	15047.54
810.096	14896.13
810.426	14958.05
810.755	14938.39
811.085	14959.41
811.414	14875.8
811.744	14825.4
812.073	14791.5
812.403	14836.7
812.732	14724.16
813.061	14711.73
813.39	14755.35
813.719	14638.29
814.049	14628.12
814.378	14531.4
814.707	14610.49
815.036	14542.47
815.365	14468.57
815.693	14486.2
816.022	14412.08
816.351	14334.11
816.68	14304.06
817.008	14351.29
817.337	14299.31
817.665	14150.62
817.994	14269.71
818.322	14228.35
818.651	14176.83
818.979	14049.38
819.307	14224.06
819.636	14173.44
819.964	14016.83
820.292	14072.65
820.62	14106.78
820.948	13999.21
821.276	14081.47
821.604	14059.09
821.932	14175.25
822.259	14069.04
822.587	14124.85
822.915	14055.25
823.243	14060.45
823.57	14118.3
823.898	14080.56
824.225	14076.72
824.553	14054.8
824.88	14071.3
825.207	14095.25
825.535	14081.47
825.862	14102.71
826.189	14123.72
826.516	14124.18
826.843	14181.58
827.17	14098.19
827.497	14136.61
827.824	14121.92
828.151	14166.44
828.478	14121.92
828.805	14219.99
829.131	14194.68
829.458	14110.17
829.785	14077.62
830.111	14008.93
830.438	14151.52
830.764	14084.4
831.09	14174.12
831.417	14011.86
831.743	14064.52
832.069	14088.92
832.395	14032.65
832.722	14023.61
833.048	14029.26
833.374	14118.08
833.7	14006.21
834.026	14041.01
834.351	14041.92
834.677	14024.29
835.003	14042.14
835.329	14046.21
835.654	14035.59
835.98	13975.71
836.306	13861.58
836.631	13901.58
836.956	13918.76
837.282	13961.24
837.607	13837.63
837.932	13887.57
838.258	13860.68
838.583	13855.48
838.908	13743.85
839.233	13773.45
839.558	13776.39
839.883	13704.75
840.208	13669.73
840.533	13644.42
840.858	13617.07
841.182	13739.33
841.507	13662.27
841.832	13555.38
842.156	13448.49
842.481	13531.2
842.805	13520.12
843.13	13467.7
843.454	13490.52
843.778	13431.77
844.103	13378.66
844.427	13352.22
844.751	13330.53
845.075	13211.43
845.399	13260.92
845.723	13133.92
846.047	13140.93
846.371	13135.5
846.695	13073.13
847.019	13039.91
847.343	12952.68
847.666	12906.81
847.99	12866.13
848.313	12891.89
848.637	12840.14
848.96	12725.34
849.284	12751.56
849.607	12589.53
849.931	12582.3
850.254	12515.63
850.577	12448.06
850.9	12310.44
851.223	12391.57
851.546	12327.84
851.869	12274.51
852.192	12319.7
852.515	12114.06
852.838	12177.79
853.161	12106.83
853.483	12065.02
853.806	11963.33
854.129	12024.8
854.451	11876.55
854.774	11955.87
855.096	11808.31
855.419	11818.7
855.741	11814.18
856.063	11751.36
856.385	11740.51
856.708	11665.03
857.03	11561.08
857.352	11593.85
857.674	11603.79
857.996	11512.27
858.318	11491.03
858.64	11496.68
858.961	11449.44
859.283	11382.33
859.605	11320.41
859.926	11387.75
860.248	11292.39
860.57	11218.94
860.891	11209.45
861.212	11147.08
861.534	11173.07
861.855	11129
862.176	11168.55
862.498	11138.27
862.819	11136.68
863.14	11070.02
863.461	11089
863.782	11056.46
864.103	10984.15
864.424	10962.68
864.745	10972.62
865.065	10873.41
865.386	10900.76
865.707	10848.56
866.027	10909.12
866.348	10818.95
866.668	10886.52
866.989	10796.35
867.309	10762.23
867.63	10797.71
867.95	10762.46
868.27	10740.31
868.59	10715.9
868.91	10699.86
869.23	10654.44
869.55	10609.47
869.87	10715.68
870.19	10669.13
870.51	10669.13
870.83	10607.43
871.15	10548.9
871.469	10510.26
871.789	10611.5
872.109	10531.28
872.428	10539.86
872.748	10578.96
873.067	10511.84
873.386	10532.63
873.706	10483.82
874.025	10435.69
874.344	10479.07
874.663	10454.67
874.982	10411.05
875.301	10421.68
875.62	10363.15
875.939	10355.24
876.258	10357.72
876.577	10265.75
876.896	10261.91
877.214	10217.39
877.533	10212.19
877.852	10259.42
878.17	10210.83
878.489	10223.71
878.807	10203.15
879.125	10206.31
879.444	10249.93
879.762	10110.95
880.08	10133.55
880.398	10126.77
880.716	10088.12
881.034	10070.95
881.352	10073.21
881.67	9972.87
881.988	9983.27
882.306	9973.1
882.624	9998.18
882.941	9962.48
883.259	9852.2
883.577	9946.66
883.894	9873.44
884.212	9882.03
884.529	9883.84
884.846	9799.32
885.164	9811.52
885.481	9731.52
885.798	9765.87
886.115	9679.32
886.432	9709.15
886.75	9619.21
887.067	9648.14
887.383	9631.64
887.7	9683.62
888.017	9606.33
888.334	9594.13
888.651	9613.33
888.967	9543.73
889.284	9525.43
889.6	9444.75
889.917	9398.65
890.233	9427.8
890.55	9364.75
890.866	9329.95
891.182	9272.1
891.498	9327.69
891.815	9239.56
892.131	9207.47
892.447	9236.85
892.763	9194.36
893.079	9196.4
893.395	9137.64
893.71	9079.34
894.026	9092.22
894.342	9093.35
894.657	8994.37
894.973	8957.76
895.289	8960.24
895.604	8993.46
895.92	8896.74
896.235	8815.62
896.55	8824.2
896.865	8835.5
897.181	8824.65
897.496	8789.4
897.811	8720.25
898.126	8744.43
898.441	8655.62
898.756	8633.93
899.071	8576.07
899.386	8568.84
899.7	8492.01
900.015	8418.11
900.33	8420.82
900.644	8425.8
900.959	8433.48
901.273	8406.13
901.588	8373.14
901.902	8309.19
902.216	8222.86
902.531	8278.23
902.845	8223.09
903.159	8210.89
903.473	8103.54
903.787	8103.09
904.101	8129.08
904.415	8094.28
904.729	8041.85
905.042	8046.14
905.356	7978.12
905.67	7955.98
905.984	7965.24
906.297	7911.23
906.611	7864.68
906.924	7844.57
907.237	7765.47
907.551	7784
907.864	7760.28
908.177	7742.42
908.491	7637.12
908.804	7619.26
909.117	7582.43
909.43	7567.29
909.743	7508.31
910.056	7521.41
910.368	7478.02
910.681	7450.45
910.994	7460.17
911.307	7361.87
911.619	7287.29
911.932	7329.33
912.244	7275.32
912.557	7232.38
912.869	7206.62
913.181	7226.96
913.494	7163.68
913.806	7142.44
914.118	7065.83
914.43	7072.61
914.742	6996.23
915.054	7053.85
915.366	7035.32
915.678	6992.84
915.99	6928.21
916.302	6850.7
916.613	6868.77
916.925	6839.62
917.236	6842.56
917.548	6811.15
917.859	6778.83
918.171	6749.23
918.482	6690.93
918.794	6687.99
919.105	6656.8
919.416	6606.18
919.727	6570.48
920.038	6630.36
920.349	6556.69
920.66	6499.29
920.971	6542
921.282	6525.28
921.593	6472.85
921.903	6424.94
922.214	6418.62
922.525	6402.8
922.835	6394.89
923.146	6335.45
923.456	6287.55
923.767	6269.24
924.077	6260.65
924.387	6231.5
924.697	6197.15
925.008	6147.89
925.318	6171.17
925.628	6116.03
925.938	6077.83
926.248	6043.03
926.558	6077.16
926.867	6032.19
927.177	6018.63
927.487	5990.15
927.796	5902.47
928.106	5960.32
928.416	5886.65
928.725	5869.25
929.034	5857.95
929.344	5859.76
929.653	5798.97
929.962	5782.02
930.271	5747.22
930.581	5739.54
930.89	5700.44
931.199	5683.49
931.508	5651.18
931.817	5675.13
932.125	5611.86
932.434	5624.06
932.743	5532.09
933.051	5554.91
933.36	5535.25
933.669	5504.97
933.977	5490.51
934.286	5469.04
934.594	5468.81
934.902	5410.06
935.21	5377.06
935.519	5400.34
935.827	5408.02
936.135	5298.19
936.443	5282.38
936.751	5273.11
937.059	5254.58
937.367	5215.48
937.674	5216.39
937.982	5190.4
938.29	5151.76
938.597	5185.88
938.905	5150.85
939.213	5080.57
939.52	5079.89
939.827	5073.34
940.135	5052.78
940.442	5023.17
940.749	5027.47
941.056	5001.7
941.363	4912.89
941.67	4935.94
941.977	4951.99
942.284	4901.37
942.591	4867.92
942.898	4871.99
943.205	4911.99
943.511	4824.99
943.818	4819.11
944.125	4764.2
944.431	4755.84
944.738	4754.71
945.044	4756.97
945.35	4687.59
945.657	4618.89
945.963	4666.35
946.269	4648.72
946.575	4660.47
946.881	4585.44
947.187	4591.77
947.493	4520.36
947.799	4490.31
948.105	4508.84
948.41	4451.66
948.716	4488.95
949.022	4507.71
949.327	4447.14
949.633	4441.49
949.938	4420.03
950.244	4422.96
950.549	4340.71
950.854	4331.21
951.16	4290.54
951.465	4288.05
951.77	4285.11
952.075	4256.64
952.38	4209.41
952.685	4215.28
952.99	4203.76
953.294	4172.57
953.599	4177.55
953.904	4175.29
954.209	4154.5
954.513	4158.79
954.818	4098.68
955.122	4086.7
955.426	4068.62
955.731	4059.81
956.035	3999.02
956.339	4051.9
956.643	4040.6
956.948	3973.48
957.252	3943.43
957.556	3971.22
957.86	3944.78
958.163	3886.71
958.467	3911.79
958.771	3860.72
959.075	3864.33
959.378	3846.48
959.682	3835.41
959.985	3813.94
960.289	3841.51
960.592	3822.3
960.896	3775.3
961.199	3742.08
961.502	3784.56
961.805	3725.58
962.108	3723.09
962.411	3722.87
962.714	3685.81
963.017	3670.89
963.32	3671.57
963.623	3654.85
963.926	3623.44
964.228	3613.27
964.531	3611.01
964.833	3576.21
965.136	3551.8
965.438	3571.46
965.741	3527.85
966.043	3503.44
966.345	3481.07
966.648	3467.28
966.95	3477.9
967.252	3460.28
967.554	3473.61
967.856	3434.51
968.158	3420.73
968.46	3382.09
968.761	3375.31
969.063	3368.3
969.365	3347.28
969.666	3360.17
969.968	3308.64
970.269	3287.4
970.571	3279.94
970.872	3276.78
971.174	3284.46
971.475	3253.05
971.776	3227.06
972.077	3182.54
972.378	3207.18
972.679	3212.6
972.98	3210.79
973.281	3157.01
973.582	3150.45
973.883	3143.45
974.183	3138.93
974.484	3175.99
974.785	3128.76
975.085	3071.81
975.386	3042.21
975.686	3033.62
975.986	3049.89
976.287	3048.76
976.587	2991.14
976.887	3004.47
977.187	3015.32
977.487	2976.45
977.787	2944.36
978.087	2951.14
978.387	2929.22
978.687	2991.81
978.987	2895.55
979.286	2922.89
979.586	2902.78
979.885	2844.7
980.185	2858.03
980.484	2838.82
980.784	2829.78
981.083	2788.43
981.382	2803.8
981.682	2776.23
981.981	2800.41
982.28	2810.58
982.579	2736.91
982.878	2751.82
983.177	2732.61
983.475	2741.88
983.774	2688.32
984.073	2683.12
984.372	2708.21
984.67	2686.51
984.969	2652.39
985.267	2651.71
985.566	2655.33
985.864	2624.59
986.162	2588.89
986.461	2567.42
986.759	2572.39
987.057	2557.02
987.355	2506.63
987.653	2517.48
987.951	2557.48
988.249	2514.99
988.547	2495.1
988.844	2501.21
989.142	2477.25
989.44	2465.73
989.737	2459.4
990.035	2414.43
990.332	2428.66
990.63	2438.61
990.927	2451.72
991.224	2456.01
991.521	2414.88
991.819	2384.6
992.116	2393.19
992.413	2355.45
992.71	2376.01
993.006	2360.42
993.303	2357.25
993.6	2364.94
993.897	2349.12
994.193	2311.15
994.49	2318.61
994.787	2269.57
995.083	2258.27
995.379	2242.46
995.676	2242.46
995.972	2243.13
996.268	2200.87
996.565	2162.23
996.861	2185.73
997.157	2219.63
997.453	2200.42
997.749	2159.29
998.044	2158.39
998.34	2158.39
998.636	2142.8
998.932	2125.4
999.227	2101.22
999.523	2096.92
999.818	2101.22
1000.114	2098.73
1000.409	2053.31
1000.704	2046.53
1001	2043.59
1001.295	2063.25
1001.59	2026.19
1001.885	2020.54
1002.18	2042.46
1002.475	2017.83
1002.77	1999.98
1003.065	1974.89
1003.359	2000.43
1003.654	1936.93
1003.949	1949.13
1004.243	1943.25
1004.538	1919.75
1004.832	1910.94
1005.127	1882.69
1005.421	1886.98
1005.715	1898.06
1006.009	1910.71
1006.304	1875.01
1006.598	1852.86
1006.892	1845.63
1007.186	1840.43
1007.48	1805.63
1007.773	1808.79
1008.067	1797.5
1008.361	1791.17
1008.655	1772.64
1008.948	1739.42
1009.242	1757.04
1009.535	1726.31
1009.829	1737.16
1010.122	1724.05
1010.415	1715.24
1010.708	1722.24
1011.001	1683.6
1011.295	1681.57
1011.588	1675.01
1011.881	1656.26
1012.173	1665.3
1012.466	1647.89
1012.759	1621
1013.052	1646.99
1013.344	1596.37
1013.637	1587.56
1013.93	1589.82
1014.222	1591.17
1014.514	1591.85
1014.807	1572.87
1015.099	1584.17
1015.391	1556.37
1015.683	1553.21
1015.976	1566.31
1016.268	1537.61
1016.56	1506.43
1016.851	1517.05
1017.143	1499.2
1017.435	1484.06
1017.727	1484.51
1018.018	1468.69
1018.31	1451.52
1018.602	1458.07
1018.893	1453.55
1019.185	1444.51
1019.476	1433.44
1019.767	1438.63
1020.058	1420.1
1020.35	1390.05
1020.641	1395.02
1020.932	1367
1021.223	1365.64
1021.514	1357.96
1021.804	1363.38
1022.095	1352.99
1022.386	1329.03
1022.677	1333.55
1022.967	1300.11
1023.258	1322.03
1023.548	1315.7
1023.839	1288.81
1024.129	1312.99
1024.419	1265.76
1024.709	1283.61
1025	1263.05
1025.29	1268.02
1025.58	1260.33
1025.87	1228.24
1026.16	1226.21
1026.449	1260.11
1026.739	1210.84
1027.029	1209.26
1027.319	1206.1
1027.608	1181.01
1027.898	1208.58
1028.187	1174.23
1028.477	1161.58
1028.766	1187.34
1029.055	1151.64
1029.344	1144.86
1029.634	1145.99
1029.923	1140.56
1030.212	1120
1030.501	1122.26
1030.79	1113.9
1031.078	1087.23
1031.367	1083.62
1031.656	1098.76
1031.945	1089.94
1032.233	1063.5
1032.522	1079.1
1032.81	1058.31
1033.099	1071.41
1033.387	1063.28
1033.675	1050.62
1033.963	1036.84
1034.251	1007.23
1034.54	1039.32
1034.828	1020.57
1035.116	1003.39
1035.403	993.9
1035.691	984.86
1035.979	970.17
1036.267	1008.59
1036.554	974.47
1036.842	978.31
1037.129	977.63
1037.417	964.3
1037.704	955.71
1037.992	958.87
1038.279	940.12
1038.566	940.79
1038.853	940.79
1039.14	940.79
