Data from hue_270_FLMS001491_00097.txt Node
Date: Tue Feb 07 15:57:57 GMT 2017
User: dcchb
Spectrometer: FLMS00149
Trigger mode: 0
Integration Time (sec): 2.000000E-2
Scans to average: 10
Electric dark correction enabled: true
Nonlinearity correction enabled: false
Boxcar width: 0
XAxis mode: Wavelengths
Number of Pixels in Spectrum: 2048
>>>>>Begin Spectral Data<<<<<
341.393	-7.32
341.776	-7.32
342.16	-7.32
342.543	-48.67
342.927	-52.96
343.31	-46.86
343.693	-57.03
344.077	-52.74
344.46	-66.3
344.843	-55.22
345.226	-58.61
345.61	-21.55
345.993	-12.97
346.376	-20.88
346.759	3.76
347.142	19.35
347.525	41.04
347.908	59.12
348.291	75.17
348.674	92.79
349.057	100.93
349.44	128.27
349.823	142.51
350.206	174.37
350.588	181.61
350.971	187.25
351.354	210.31
351.737	236.97
352.119	250.98
352.502	238.78
352.884	259.34
353.267	272
353.65	286.01
354.032	298.66
354.414	282.17
354.797	298.44
355.179	316.29
355.562	318.78
355.944	310.42
356.326	311.09
356.709	330.08
357.091	335.95
357.473	324.2
357.855	319.23
358.238	328.49
358.62	349.51
359.002	341.6
359.384	345.67
359.766	327.82
360.148	362.62
360.53	332.11
360.912	336.63
361.294	310.64
361.676	328.27
362.057	336.86
362.439	304.09
362.821	319.68
363.203	325.1
363.584	316.29
363.966	304.99
364.348	322.84
364.729	337.76
365.111	309.51
365.493	312.45
365.874	318.55
366.256	321.71
366.637	310.64
367.019	295.05
367.4	306.57
367.781	306.35
368.163	318.1
368.544	302.51
368.925	313.58
369.306	316.07
369.688	306.35
370.069	282.62
370.45	324.65
370.831	299.79
371.212	293.24
371.593	310.42
371.974	323.07
372.355	303.86
372.736	298.66
373.117	305.67
373.498	320.81
373.879	315.39
374.26	329.62
374.641	326.69
375.021	319.45
375.402	335.73
375.783	323.75
376.163	335.95
376.544	324.88
376.925	331.66
377.305	323.97
377.686	305.67
378.066	332.34
378.447	311.09
378.827	322.17
379.208	339.57
379.588	328.27
379.968	321.04
380.349	317.87
380.729	329.17
381.109	342.05
381.489	322.39
381.87	344.09
382.25	335.27
382.63	326.23
383.01	329.85
383.39	343.41
383.77	349.51
384.15	334.6
384.53	348.15
384.91	337.08
385.29	328.72
385.67	342.73
386.049	335.95
386.429	341.83
386.809	344.99
387.189	347.7
387.568	356.97
387.948	342.96
388.328	374.82
388.707	342.05
389.087	346.57
389.466	355.39
389.846	367.36
390.225	356.06
390.605	367.82
390.984	407.36
391.363	353.58
391.743	396.74
392.122	387.48
392.501	386.12
392.881	401.49
393.26	389.28
393.639	382.28
394.018	383.63
394.397	372.56
394.776	403.07
395.155	381.37
395.534	404.42
395.913	392.9
396.292	395.16
396.671	379.11
397.05	400.36
397.429	416.18
397.808	404.88
398.186	413.46
398.565	390.87
398.944	389.28
399.323	413.69
399.701	410.53
400.08	418.44
400.458	428.38
400.837	417.53
401.215	430.86
401.594	433.35
401.972	434.03
402.351	433.12
402.729	412.56
403.107	410.3
403.486	431.09
403.864	427.25
404.242	420.47
404.62	430.86
404.999	453.69
405.377	443.07
405.755	471.09
406.133	487.13
406.511	460.92
406.889	444.65
407.267	462.5
407.645	469.28
408.023	490.52
408.401	475.61
408.779	509.96
409.156	482.84
409.534	495.5
409.912	499.79
410.29	499.11
410.667	505.66
411.045	513.35
411.422	513.57
411.8	542.95
412.178	525.33
412.555	566.91
412.933	551.09
413.31	565.1
413.687	579.79
414.065	583.85
414.442	570.75
414.819	591.76
415.197	606.23
415.574	613.91
415.951	605.32
416.328	618.43
416.705	623.18
417.082	635.83
417.46	647.13
417.837	634.47
418.214	650.97
418.591	653.46
418.967	670.86
419.344	666.11
419.721	654.36
420.098	683.51
420.475	681.25
420.852	688.71
421.228	709.95
421.605	729.39
421.982	725.09
422.358	736.39
422.735	735.94
423.111	759.44
423.488	769.84
423.864	773.45
424.241	799.44
424.617	790.85
424.994	802.38
425.37	803.74
425.746	811.87
426.123	826.56
426.499	818.65
426.875	846.45
427.251	875.15
427.627	890.97
428.003	890.74
428.379	897.97
428.756	914.92
429.132	914.69
429.507	920.34
429.883	937.52
430.259	961.47
430.635	971.87
431.011	963.28
431.387	998.76
431.763	1000.57
432.138	1008.25
432.514	1018.87
432.89	1026.1
433.265	1034.92
433.641	1068.59
434.016	1070.85
434.392	1121.02
434.767	1092.32
435.143	1134.12
435.518	1136.83
435.894	1165.53
436.269	1150.17
436.644	1197.85
437.02	1205.76
437.395	1213.89
437.77	1233.1
438.145	1261.35
438.52	1252.99
438.895	1293.89
439.271	1302.03
439.646	1320.33
440.021	1346.09
440.395	1346.09
440.77	1343.38
441.145	1386.77
441.52	1394.68
441.895	1393.32
442.27	1420.89
442.645	1384.51
443.019	1445.53
443.394	1434.91
443.769	1452.98
444.143	1440.33
444.518	1488.01
444.892	1499.54
445.267	1463.38
445.641	1505.41
446.016	1494.11
446.39	1523.94
446.764	1540.89
447.139	1538.63
447.513	1537.05
447.887	1553.32
448.262	1557.16
448.636	1577.05
449.01	1579.53
449.384	1591.29
449.758	1625.41
450.132	1641.68
450.506	1624.51
450.88	1645.75
451.254	1665.63
451.628	1655.46
452.002	1678.29
452.376	1681.45
452.75	1718.06
453.123	1702.92
453.497	1739.08
453.871	1750.6
454.244	1765.74
454.618	1786.99
454.992	1802.58
455.365	1809.36
455.739	1843.48
456.112	1828.34
456.486	1911.73
456.859	1880.32
457.232	1920.32
457.606	1887.1
457.979	1894.1
458.352	1985.63
458.725	1985.63
459.099	2005.74
459.472	2042.8
459.845	2060.2
460.218	2059.97
460.591	2073.08
460.964	2089.58
461.337	2125.74
461.71	2149.69
462.083	2212.74
462.456	2152.63
462.829	2180.2
463.201	2204.15
463.574	2168.67
463.947	2233.98
464.32	2269.23
464.692	2314.2
465.065	2308.78
465.438	2355.33
465.81	2368.89
466.183	2369.8
466.555	2413.19
466.928	2445.05
467.3	2463.58
467.672	2490.92
468.045	2517.36
468.417	2516.91
468.789	2542.67
469.161	2550.81
469.534	2612.5
469.906	2647.3
470.278	2641.88
470.65	2692.05
471.022	2749.45
471.394	2759.62
471.766	2810.46
472.138	2784.93
472.51	2834.19
472.882	2893.85
473.253	2936.56
473.625	2943.34
473.997	3009.55
474.369	3014.07
474.74	3039.84
475.112	3083.45
475.484	3115.54
475.855	3173.62
476.227	3218.36
476.598	3246.84
476.97	3246.16
477.341	3326.38
477.713	3369.54
478.084	3405.7
478.455	3477.56
478.827	3512.14
479.198	3569.54
479.569	3589.65
479.94	3667.16
480.311	3703.09
480.682	3704.22
481.053	3845.92
481.424	3833.71
481.795	3906.03
482.166	3951.9
482.537	3969.75
482.908	4001.39
483.279	4037.55
483.65	4120.26
484.021	4192.35
484.391	4217.88
484.762	4212.46
485.133	4277.09
485.503	4350.54
485.874	4393.25
486.244	4409.74
486.615	4509.85
486.985	4493.58
487.356	4606.12
487.726	4628.04
488.097	4704.88
488.467	4699.68
488.837	4833.01
489.207	4845.66
489.578	4896.06
489.948	4879.56
490.318	4956.85
490.688	4960.69
491.058	5043.4
491.428	5066.67
491.798	5107.13
492.168	5183.28
492.538	5188.93
492.908	5271.19
493.278	5360
493.648	5246.56
494.017	5386.44
494.387	5380.79
494.757	5432.31
495.126	5482.26
495.496	5500.56
495.866	5552.99
496.235	5560.22
496.605	5621.01
496.974	5650.61
497.344	5680.44
497.713	5722.93
498.082	5706.43
498.452	5804.96
498.821	5730.84
499.19	5800.21
499.559	5840.21
499.928	5835.69
500.298	5890.61
500.667	5968.35
501.036	5916.14
501.405	5931.96
501.774	5951.62
502.143	6018.74
502.512	5990.72
502.88	6069.81
503.249	6076.14
503.618	6107.33
503.987	6075.69
504.356	6116.59
504.724	6192.97
505.093	6202.69
505.462	6175.57
505.83	6190.71
506.199	6277.94
506.567	6325.4
506.936	6267.55
507.304	6348.9
507.672	6307.55
508.041	6359.52
508.409	6414.66
508.777	6444.72
509.145	6437.71
509.514	6425.28
509.882	6459.86
510.25	6463.02
510.618	6507.31
510.986	6466.86
511.354	6543.47
511.722	6679.06
512.09	6616.24
512.458	6612.4
512.826	6602.91
513.193	6626.18
513.561	6642.23
513.929	6679.97
514.297	6730.36
514.664	6762.9
515.032	6749.57
515.4	6759.51
515.767	6776.91
516.135	6791.83
516.502	6720.87
516.869	6835.67
517.237	6878.38
517.604	6832.5
517.972	6827.53
518.339	6880.64
518.706	6862.79
519.073	6882.67
519.44	6958.83
519.808	7005.83
520.175	6941.88
520.542	6975.33
520.909	7030.46
521.276	6974.2
521.643	7002.67
522.009	7116.34
522.376	7130.8
522.743	7103.46
523.11	7118.82
523.477	7224.36
523.843	7190.23
524.21	7237.92
524.577	7271.81
524.943	7256.22
525.31	7258.26
525.676	7336.22
526.043	7319.5
526.409	7372.83
526.776	7398.14
527.142	7356.11
527.508	7422.09
527.874	7500.96
528.241	7451.92
528.607	7464.8
528.973	7527.17
529.339	7498.25
529.705	7569.66
530.071	7562.65
530.437	7597.68
530.803	7621.86
531.169	7619.83
531.535	7615.99
531.901	7694.63
532.267	7631.58
532.632	7727.62
532.998	7672.48
533.364	7761.52
533.73	7693.95
534.095	7800.39
534.461	7714.74
534.826	7776.89
535.192	7775.08
535.557	7782.76
535.923	7837.68
536.288	7811.69
536.653	7824.57
537.019	7788.19
537.384	7841.29
537.749	7842.42
538.114	7851.23
538.479	7847.84
538.845	7896.88
539.21	7839.94
539.575	7952.02
539.94	7872.25
540.305	7924.68
540.67	7880.84
541.034	7905.24
541.399	7919.03
541.764	7946.6
542.129	7956.77
542.494	7960.61
542.858	7975.98
543.223	7978.91
543.587	8004.9
543.952	8000.83
544.316	7987.5
544.681	7989.54
545.045	8018.01
545.41	8052.36
545.774	8049.2
546.138	8017.56
546.503	8048.29
546.867	8000.38
547.231	8050.78
547.595	8069.53
547.959	8086.71
548.324	8063.66
548.688	8122.87
549.052	8114.05
549.416	8056.43
549.779	8084
550.143	8094.17
550.507	8052.58
550.871	8104.11
551.235	8113.6
551.599	8169.64
551.962	8185.46
552.326	8184.56
552.689	8190.43
553.053	8107.27
553.417	8163.99
553.78	8238.34
554.143	8221.62
554.507	8194.5
554.87	8221.17
555.234	8314.05
555.597	8283.09
555.96	8283.54
556.323	8282.41
556.686	8263.65
557.05	8311.79
557.413	8307.95
557.776	8378
558.139	8453.48
558.502	8352.92
558.865	8389.98
559.228	8452.12
559.59	8428.17
559.953	8443.54
560.316	8552.01
560.679	8490.54
561.041	8477.88
561.404	8586.58
561.767	8601.72
562.129	8603.53
562.492	8682.4
562.854	8706.58
563.217	8722.17
563.579	8711.1
563.941	8751.78
564.304	8760.36
564.666	8822.28
565.028	8793.13
565.39	8847.37
565.753	8804.66
566.115	8890.3
566.477	8948.61
566.839	8925.56
567.201	9011.66
567.563	9016.4
567.925	9051.65
568.287	9045.55
568.648	9084.87
569.01	9178.88
569.372	9194.48
569.734	9141.82
570.095	9238.09
570.457	9243.51
570.819	9337.07
571.18	9280.8
571.542	9331.87
571.903	9346.56
572.265	9341.36
572.626	9455.94
572.987	9456.62
573.349	9420.91
573.71	9544.07
574.071	9498.42
574.432	9530.96
574.794	9601.24
575.155	9619.32
575.516	9526.44
575.877	9716.27
576.238	9685.99
576.599	9718.76
576.96	9689.38
577.32	9727.34
577.681	9761.92
578.042	9812.09
578.403	9832.65
578.763	9887.11
579.124	9854.8
579.485	9903.61
579.845	9950.84
580.206	9982.03
580.566	9975.92
580.927	10002.14
581.287	10101.8
581.648	9999.2
582.008	10152.19
582.368	10111.97
582.728	10236.26
583.089	10165.75
583.449	10316.03
583.809	10236.71
584.169	10333.43
584.529	10275.13
584.889	10336.59
585.249	10310.83
585.609	10323.03
585.969	10332.98
586.329	10405.52
586.688	10421.34
587.048	10451.39
587.408	10475.57
587.768	10473.76
588.127	10549.02
588.487	10567.77
588.846	10590.6
589.206	10603.03
589.565	10689.13
589.925	10699.29
590.284	10654.32
590.643	10698.17
591.003	10753.98
591.362	10800.76
591.721	10767.09
592.08	10866.52
592.44	10808.9
592.799	10838.05
593.158	10814.55
593.517	10880.99
593.876	10850.7
594.235	10903.36
594.593	10910.59
594.952	10964.6
595.311	10994.43
595.67	10953.75
596.029	11113.75
596.387	11087.53
596.746	11127.53
597.104	11025.39
597.463	11090.92
597.822	11132.96
598.18	11079.17
598.538	11108.32
598.897	11125.5
599.255	11051.83
599.613	11223.8
599.972	11155.78
600.33	11206.4
600.688	11138.61
601.046	11249.79
601.404	11275.78
601.762	11285.95
602.12	11275.78
602.478	11272.16
602.836	11384.02
603.194	11292.5
603.552	11339.5
603.91	11261.09
604.268	11336.11
604.625	11352.16
604.983	11304.7
605.341	11326.4
605.698	11356.9
606.056	11421.08
606.413	11396.9
606.771	11460.18
607.128	11452.95
607.485	11366.17
607.843	11394.42
608.2	11493.85
608.557	11552.83
608.914	11459.95
609.272	11525.71
609.629	11520.52
609.986	11527.52
610.343	11486.17
610.7	11567.97
611.057	11583.79
611.414	11541.76
611.771	11581.53
612.127	11655.88
612.484	11603.23
612.841	11598.03
613.198	11633.28
613.554	11602.55
613.911	11704.24
614.267	11737.91
614.624	11597.12
614.98	11734.07
615.337	11730.68
615.693	11796.44
616.05	11702.88
616.406	11811.58
616.762	11744.69
617.118	11760.74
617.475	11740.85
617.831	11814.52
618.187	11835.31
618.543	11852.26
618.899	11848.87
619.255	11910.11
619.611	11861.3
619.967	11911.69
620.323	11915.08
620.678	11814.07
621.034	11884.8
621.39	11887.74
621.746	11732.49
622.101	11932.93
622.457	11897
622.812	11872.6
623.168	11945.82
623.523	11940.84
623.879	11928.19
624.234	11823.79
624.589	11897.23
624.945	11909.21
625.3	11948.75
625.655	11946.95
626.01	11904.24
626.365	11981.3
626.72	11841.41
627.075	11862.43
627.43	11894.29
627.785	11882.99
628.14	11845.03
628.495	11894.97
628.85	11864.24
629.205	11772.04
629.559	11906.27
629.914	11918.92
630.269	11861.07
630.623	11830.11
630.978	11771.13
631.332	11817.01
631.687	11803.45
632.041	11781.3
632.396	11813.16
632.75	11745.6
633.104	11762.54
633.459	11703.11
633.813	11692.72
634.167	11693.17
634.521	11678.93
634.875	11704.24
635.229	11645.48
635.583	11628.54
635.937	11608.88
636.291	11639.61
636.645	11625.15
636.999	11605.71
637.352	11658.37
637.706	11617.24
638.06	11591.47
638.413	11539.27
638.767	11547.63
639.121	11531.59
639.474	11466.28
639.828	11568.65
640.181	11519.84
640.534	11514.64
640.888	11437.13
641.241	11399.16
641.594	11536.34
641.947	11526.17
642.301	11461.08
642.654	11435.32
643.007	11530.69
643.36	11432.16
643.713	11386.28
644.066	11462.21
644.419	11362.55
644.771	11315.32
645.124	11198.04
645.477	11180.86
645.83	11135.67
646.182	11083.69
646.535	11003.47
646.888	11082.79
647.24	11027.2
647.593	11081.43
647.945	10979.06
648.298	10959.63
648.65	11003.47
649.002	10931.15
649.355	11043.24
649.707	10997.14
650.059	11050.02
650.411	11277.13
650.763	11145.84
651.115	11257.47
651.467	11241.43
651.819	11239.17
652.171	11222.67
652.523	11196.91
652.875	11240.52
653.227	11171.15
653.578	11204.82
653.93	11209.11
654.282	11212.5
654.633	11140.87
654.985	11208.66
655.337	11148.77
655.688	11204.82
656.039	11236
656.391	11127.98
656.742	11179.73
657.094	11199.17
657.445	11177.02
657.796	11215.44
658.147	11146.97
658.498	11165.27
658.849	11176.57
659.2	11246.63
659.551	11159.17
659.902	11200.98
660.253	11218.38
660.604	11207.76
660.955	11126.4
661.306	11200.75
661.656	11205.72
662.007	11207.53
662.358	11189
662.708	11185.16
663.059	11242.11
663.409	11170.47
663.76	11228.32
664.11	11199.17
664.461	11219.28
664.811	11240.98
665.161	11168.21
665.511	11149.45
665.862	11187.64
666.212	11201.88
666.562	11221.32
666.912	11210.69
667.262	11195.78
667.612	11184.71
667.962	11237.36
668.312	11237.81
668.662	11259.28
669.011	11214.08
669.361	11172.28
669.711	11113.52
670.06	11136.8
670.41	11172.28
670.76	11127.53
671.109	11176.57
671.459	11089.12
671.808	11151.71
672.157	11106.06
672.507	11107.42
672.856	11094.99
673.205	11100.41
673.554	11152.62
673.904	11124.37
674.253	11225.38
674.602	11042.34
674.951	11015.44
675.3	10863.81
675.649	11078.04
675.998	11023.35
676.346	11097.93
676.695	11096.35
677.044	11028.78
677.393	11008.67
677.741	11038.27
678.09	11014.77
678.438	10962.34
678.787	10985.84
679.135	10956.01
679.484	10936.35
679.832	10946.52
680.181	10905.17
680.529	10989.23
680.877	10837.82
681.225	10848.9
681.573	10855.22
681.922	10839.63
682.27	10781.55
682.618	10844.83
682.966	10780.65
683.314	10802.34
683.661	10708.56
684.009	10630.14
684.357	10660.2
684.705	10633.76
685.053	10664.72
685.4	10608.68
685.748	10595.34
686.095	10529.13
686.443	10562.35
686.79	10372.52
687.138	10476.25
687.485	10518.96
687.832	10492.52
688.18	10446.19
688.527	10450.04
688.874	10383.6
689.221	10350.6
689.568	10366.2
689.915	10234.67
690.262	10242.36
690.609	10281.45
690.956	10158.29
691.303	10159.87
691.65	10158.29
691.997	10143.6
692.344	10105.64
692.69	10026.54
693.037	10094.11
693.383	10029.93
693.73	10055.24
694.077	9951.07
694.423	9897.51
694.769	9864.51
695.116	9924.63
695.462	9783.39
695.808	9779.77
696.155	9779.32
696.501	9657.97
696.847	9722.82
697.193	9559.21
697.539	9689.38
697.885	9583.17
698.231	9515.37
698.577	9552.21
698.923	9568.7
699.269	9493.22
699.614	9466.56
699.96	9432.89
700.306	9460.68
700.651	9389.72
700.997	9333.23
701.342	9257.3
701.688	9223.85
702.033	9295.49
702.379	9190.63
702.724	9255.94
703.069	9254.59
703.415	9133.46
703.76	9131.65
704.105	9176.4
704.45	9132.78
704.795	9022.05
705.14	9009.62
705.485	9003.97
705.83	8942.05
706.175	8961.26
706.52	8935.73
706.865	8852.11
707.209	8850.53
707.554	8753.36
707.899	8826.8
708.243	8811.89
708.588	8789.06
708.932	8667.71
709.277	8683.08
709.621	8676.98
709.966	8654.83
710.31	8653.25
710.654	8592.46
710.998	8609.63
711.342	8576.86
711.687	8574.15
712.031	8522.4
712.375	8497.09
712.719	8537.54
713.063	8441.28
713.407	8483.76
713.75	8479.69
714.094	8369.86
714.438	8380.26
714.782	8396.98
715.125	8360.6
715.469	8403.31
715.812	8348.85
716.156	8330.09
716.499	8312.47
716.843	8302.52
717.186	8236.53
717.53	8360.6
717.873	8314.27
718.216	8280.38
718.559	8221.17
718.902	8212.13
719.246	8213.71
719.589	8213.94
719.932	8210.55
720.275	8158.8
720.617	8158.12
720.96	8222.3
721.303	8149.31
721.646	8130.32
721.989	8076.54
722.331	8105.01
722.674	8069.08
723.016	8097.78
723.359	8108.85
723.701	8110.66
724.044	8044.45
724.386	7986.82
724.729	8048.97
725.071	8046.03
725.413	8026.82
725.755	7995.64
726.097	7966.94
726.439	7952.7
726.782	7989.08
727.124	8014.62
727.465	7993.6
727.807	7962.87
728.149	7913.61
728.491	7945.92
728.833	7940.05
729.175	7868.86
729.516	7893.72
729.858	7929.2
730.199	7952.47
730.541	7939.59
730.882	7838.58
731.224	7909.76
731.565	7853.72
731.906	7831.57
732.248	7884.23
732.589	7858.47
732.93	7820.05
733.271	7870.89
733.612	7861.4
733.953	7888.97
734.294	7851.69
734.635	7829.54
734.976	7892.36
735.317	7878.13
735.658	7831.35
735.999	7832.7
736.339	7823.21
736.68	7893.94
737.021	7854.85
737.361	7837
737.702	7889.43
738.042	7871.57
738.383	7852.14
738.723	7910.44
739.063	7874.06
739.404	7850.33
739.744	7876.09
740.084	7882.87
740.424	7862.53
740.764	7905.02
741.104	7945.24
741.444	7884.68
741.784	7921.29
742.124	7950.67
742.464	7976.43
742.804	7971.46
743.143	7926.94
743.483	8028.18
743.823	8024.79
744.162	8019.37
744.502	8094.62
744.841	8001.29
745.181	8130.32
745.52	8132.13
745.86	8197.44
746.199	8210.55
746.538	8228.17
746.877	8207.16
747.216	8326.48
747.556	8295.97
747.895	8350.43
748.234	8381.16
748.573	8418.68
748.911	8417.77
749.25	8550.65
749.589	8541.61
749.928	8627.03
750.267	8690.31
750.605	8684.21
750.944	8760.14
751.283	8837.65
751.621	8953.58
751.96	8909.51
752.298	9060.92
752.636	9094.59
752.975	9185.21
753.313	9289.16
753.651	9388.82
753.989	9391.08
754.327	9551.98
754.666	9574.58
755.004	9707.23
755.342	9852.76
755.679	9905.64
756.017	10069.48
756.355	10200.33
756.693	10224.73
757.031	10484.61
757.368	10534.78
757.706	10649.58
758.044	10737.03
758.381	10917.37
758.719	11038.27
759.056	11181.54
759.394	11345.38
759.731	11399.84
760.068	11593.28
760.405	11823.33
760.743	11876.21
761.08	12021.75
761.417	12090.22
761.754	12412.92
762.091	12419.93
762.428	12559.36
762.765	12749.64
763.102	12927.26
763.438	13117.99
763.775	13166.57
764.112	13334.71
764.449	13531.54
764.785	13669.16
765.122	13798.42
765.458	13855.6
765.795	14080.67
766.131	14212.42
766.467	14335.58
766.804	14420.33
767.14	14619.64
767.476	14704.61
767.812	14830.03
768.148	14931.5
768.485	15053.08
768.821	15139.18
769.157	15290.13
769.492	15417.81
769.828	15559.28
770.164	15643.8
770.5	15700.52
770.836	15808.77
771.171	15853.74
771.507	15878.14
771.842	16018.03
772.178	16141.86
772.513	16295.53
772.849	16360.62
773.184	16397.9
773.519	16509.76
773.855	16509.76
774.19	16574.17
774.525	16623.21
774.86	16728.29
775.195	16837.21
775.53	16752.02
775.865	16857.33
776.2	16805.8
776.535	16844.44
776.87	17030.43
777.205	17055.51
777.539	17025.23
777.874	17187.49
778.209	17059.81
778.543	17142.74
778.878	17149.75
779.212	17133.02
779.547	17216.41
779.881	17286.92
780.215	17238.33
780.55	17302.74
780.884	17246.02
781.218	17307.93
781.552	17298.44
781.886	17307.93
782.22	17281.95
782.554	17314.26
782.888	17254.6
783.222	17227.71
783.556	17134.61
783.889	17286.92
784.223	17115.85
784.557	17157.2
784.89	17304.32
785.224	17239.91
785.557	17160.37
785.891	17105
786.224	17243.53
786.558	17147.94
786.891	17009.64
787.224	17076.3
787.557	16995.17
787.891	17107.26
788.224	17086.7
788.557	17091.44
788.89	17038.34
789.223	17097.77
789.556	16946.14
789.888	16969.86
790.221	16946.36
790.554	16803.54
790.887	16936.65
791.219	16805.12
791.552	16862.07
791.884	16743.88
792.217	16782.52
792.549	16657.78
792.882	16624.56
793.214	16627.27
793.546	16627.73
793.879	16587.73
794.211	16510.22
794.543	16498.46
794.875	16543.21
795.207	16568.52
795.539	16447.39
795.871	16475.41
796.203	16354.51
796.535	16315.19
796.867	16225.25
797.198	16231.13
797.53	16291.46
797.862	16143.9
798.193	16185.48
798.525	16118.14
798.856	16164.69
799.188	15995.2
799.519	15993.17
799.85	15961.08
800.182	15980.96
800.513	15921.98
800.844	15811.25
801.175	15888.09
801.506	15873.85
801.837	15764.02
802.168	15705.04
802.499	15686.28
802.83	15672.27
803.161	15498.26
803.491	15589.79
803.822	15527.42
804.153	15593.4
804.483	15436.8
804.814	15407.65
805.145	15373.52
805.475	15401.09
805.805	15441.54
806.136	15377.14
806.466	15341.43
806.796	15365.16
807.126	15184.37
807.457	15106.18
807.787	15202
808.117	15101.21
808.447	15110.7
808.777	15187.99
809.107	15162.68
809.436	15037.26
809.766	14991.61
810.096	14944.61
810.426	14906.42
810.755	15004.04
811.085	14861.22
811.414	14910.94
811.744	14724.73
812.073	14774.22
812.403	14695.35
812.732	14602.92
813.061	14714.56
813.39	14561.34
813.719	14600.21
814.049	14685.63
814.378	14582.81
814.707	14547.56
815.036	14561.34
815.365	14456.94
815.693	14358.41
816.022	14395.02
816.351	14299.2
816.68	14337.39
817.008	14322.93
817.337	14208.13
817.665	14147.11
817.994	14244.74
818.322	14170.16
818.651	14101.69
818.979	14020.34
819.307	14220.78
819.636	14092.2
819.964	14014.24
820.292	14094.01
820.62	14166.1
820.948	14052.88
821.276	14054.23
821.604	14016.04
821.932	14007.91
822.259	14007.23
822.587	13985.31
822.915	13945.54
823.243	14024.41
823.57	14020.79
823.898	14022.37
824.225	13902.15
824.553	13994.35
824.88	13942.15
825.207	14014.46
825.535	13960.23
825.862	14040.45
826.189	14016.5
826.516	13981.92
826.843	14071.86
827.17	14067.12
827.497	14101.92
827.824	14061.24
828.151	14116.38
828.478	14052.88
828.805	14093.1
829.131	14065.76
829.458	14063.73
829.785	14016.72
830.111	14081.35
830.438	14117.06
830.764	14090.62
831.09	14052.88
831.417	14003.39
831.743	14025.08
832.069	14035.48
832.395	14049.49
832.722	14029.15
833.048	13989.38
833.374	13983.05
833.7	13898.76
834.026	13990.73
834.351	13910.96
834.677	13982.15
835.003	14037.74
835.329	13968.36
835.654	13971.3
835.98	13859.21
836.306	13900.57
836.631	13865.31
836.956	13894.69
837.282	13837.97
837.607	13828.25
837.932	13740.8
838.258	13809.27
838.583	13779.21
838.908	13660.12
839.233	13749.38
839.558	13636.17
839.883	13594.13
840.208	13543.06
840.533	13623.06
840.858	13642.27
841.182	13603.63
841.507	13485.89
841.832	13489.05
842.156	13492.89
842.481	13486.11
842.805	13487.47
843.13	13462.61
843.454	13412.9
843.778	13293.8
844.103	13379.68
844.427	13225.1
844.751	13296.74
845.075	13231.43
845.399	13220.58
845.723	13158.67
846.047	13170.87
846.371	13014.04
846.695	13038.44
847.019	12841.16
847.343	12865.34
847.666	12754.83
847.99	12668.73
848.313	12712.35
848.637	12666.47
848.96	12668.96
849.284	12607.04
849.607	12572.01
849.931	12475.29
850.254	12399.59
850.577	12397.33
850.9	12265.13
851.223	12303.55
851.546	12182.87
851.869	12137.68
852.192	12203.44
852.515	12081.41
852.838	11994.4
853.161	11997.34
853.483	11964.35
853.806	11931.35
854.129	11934.74
854.451	11898.36
854.774	11840.28
855.096	11782.88
855.419	11815.88
855.741	11775.65
856.063	11648.65
856.385	11656.56
856.708	11634.86
857.03	11465.15
857.352	11478.48
857.674	11475.09
857.996	11442.78
858.318	11423.12
858.64	11391.48
858.961	11358.71
859.283	11342.67
859.605	11230.58
859.926	11290.47
860.248	11209.56
860.57	11206.85
860.891	11202.56
861.212	11162.79
861.534	11107.42
861.855	11034.43
862.176	11140.41
862.498	11097.25
862.819	11050.02
863.14	11049.57
863.461	11030.81
863.782	11051.15
864.103	10989
864.424	10899.06
864.745	10902
865.065	10917.82
865.386	10799.41
865.707	10799.18
866.027	10866.52
866.348	10755.34
866.668	10819.07
866.989	10864.71
867.309	10736.13
867.63	10774.1
867.95	10743.36
868.27	10666.08
868.59	10669.92
868.91	10644.16
869.23	10740.65
869.55	10576.59
869.87	10645.29
870.19	10599.41
870.51	10612.07
870.83	10621.78
871.15	10569.58
871.469	10561.22
871.789	10514.44
872.109	10570.26
872.428	10459.98
872.748	10499.3
873.067	10449.58
873.386	10486.65
873.706	10470.15
874.025	10368.91
874.344	10387.66
874.663	10382.24
874.982	10320.32
875.301	10335.91
875.62	10311.28
875.939	10263.83
876.258	10341.79
876.577	10200.1
876.896	10200.55
877.214	10182.02
877.533	10208.69
877.852	10252.3
878.17	10224.28
878.489	10143.15
878.807	10220.89
879.125	10145.86
879.444	10137.05
879.762	10109.25
880.08	10159.65
880.398	10099.08
880.716	10038.3
881.034	10063.61
881.352	10013.66
881.67	9933.44
881.988	9948.35
882.306	9885.98
882.624	9861.35
882.941	9868.13
883.259	9862.71
883.577	9846.44
883.894	9855.48
884.212	9820.9
884.529	9767.79
884.846	9760.34
885.164	9749.49
885.481	9708.13
885.798	9720.56
886.115	9654.58
886.432	9692.09
886.75	9572.09
887.067	9601.24
887.383	9619.55
887.7	9529.16
888.017	9470.17
888.334	9609.61
888.651	9459.55
888.967	9424.75
889.284	9363.06
889.6	9402.38
889.917	9335.04
890.233	9367.58
890.55	9298.65
890.866	9345.21
891.182	9239.67
891.498	9233.57
891.815	9231.54
892.131	9151.77
892.447	9150.41
892.763	9170.3
893.079	9097.53
893.395	9034.93
893.71	9077.42
894.026	8980.02
894.342	9024.99
894.657	8906.35
894.973	8914.94
895.289	8927.59
895.604	8869.74
895.92	8838.78
896.235	8825.22
896.55	8833.36
896.865	8766.46
897.181	8750.42
897.496	8710.42
897.811	8692.79
898.126	8661.38
898.441	8632.46
898.756	8529.63
899.071	8546.81
899.386	8547.04
899.7	8423.87
900.015	8388.85
900.33	8383.65
900.644	8358.34
900.959	8363.09
901.273	8309.3
901.588	8273.37
901.902	8259.13
902.216	8201.96
902.531	8218.46
902.845	8249.42
903.159	8112.92
903.473	8057.78
903.787	8149.31
904.101	8045.13
904.415	7985.69
904.729	8012.81
905.042	7938.24
905.356	7946.15
905.67	7893.49
905.984	7826.38
906.297	7829.31
906.611	7824.34
906.924	7853.49
907.237	7830.44
907.551	7766.49
907.864	7699.15
908.177	7655.53
908.491	7712.25
908.804	7553.16
909.117	7544.8
909.43	7543.9
909.743	7460.74
910.056	7480.85
910.368	7483.79
910.681	7409.66
910.994	7322.66
911.307	7367.18
911.619	7298.71
911.932	7296.22
912.244	7225.71
912.557	7280.63
912.869	7185.04
913.181	7134.42
913.494	7113.4
913.806	7059.16
914.118	7058.03
914.43	7017.13
914.742	7047.19
915.054	7010.35
915.366	6951.6
915.678	6940.75
915.99	6872.05
916.302	6811.26
916.613	6834.76
916.925	6853.29
917.236	6847.19
917.548	6723.81
917.859	6751.38
918.171	6719.74
918.482	6650.36
918.794	6635
919.105	6641.55
919.416	6608.56
919.727	6566.07
920.038	6626.63
920.349	6521.33
920.66	6508.9
920.971	6437.71
921.282	6467.09
921.593	6392.29
921.903	6360.2
922.214	6363.14
922.525	6379.18
922.835	6267.32
923.146	6239.98
923.456	6278.39
923.767	6181.67
924.077	6216.93
924.387	6144.61
924.697	6139.19
925.008	6143.93
925.318	6139.64
925.628	6108
925.938	6101
926.248	6027.1
926.558	6017.16
926.867	5954.11
927.177	5941.91
927.487	5949.36
927.796	5909.82
928.106	5877.27
928.416	5902.58
928.725	5906.88
929.034	5797.28
929.344	5791.4
929.653	5759.54
929.962	5738.75
930.271	5768.35
930.581	5681.8
930.89	5624.17
931.199	5634.12
931.508	5614.23
931.817	5668.69
932.125	5586.66
932.434	5590.28
932.743	5562.71
933.051	5517.96
933.36	5502.14
933.669	5461.01
933.977	5426.44
934.286	5414.46
934.594	5457.4
934.902	5364.75
935.21	5349.61
935.519	5345.99
935.827	5336.72
936.135	5259.44
936.443	5292.88
936.751	5201.36
937.059	5242.26
937.367	5220.57
937.674	5219.44
937.982	5154.13
938.29	5211.76
938.597	5143.96
938.905	5077.3
939.213	5037.07
939.52	5079.33
939.827	5045.21
940.135	5010.86
940.442	5016.28
940.749	4949.62
941.056	5000.46
941.363	4879.33
941.67	4887.7
941.977	4897.19
942.284	4851.99
942.591	4863.52
942.898	4817.64
943.205	4804.99
943.511	4769.73
943.818	4766.34
944.125	4695.84
944.431	4731.99
944.738	4689.51
945.044	4654.48
945.35	4680.92
945.657	4634.37
945.963	4564.54
946.269	4627.14
946.575	4619.91
946.881	4518.67
947.187	4540.59
947.493	4442.51
947.799	4507.37
948.105	4484.32
948.41	4496.97
948.716	4418.1
949.022	4402.29
949.327	4397.77
949.633	4359.12
949.938	4365
950.244	4361.61
950.549	4302.85
950.854	4336.75
951.16	4319.12
951.465	4332
951.77	4244.1
952.075	4228.96
952.38	4245.68
952.685	4214.49
952.99	4162.07
953.294	4176.08
953.599	4087.72
953.904	4116.64
954.209	4097.21
954.513	4067.15
954.818	4058.79
955.122	4078.23
955.426	4052.92
955.731	4033.93
956.035	3987.38
956.339	3970.66
956.643	3976.53
956.948	3987.61
957.252	3887.04
957.556	3921.85
957.86	3930.21
958.163	3898.8
958.467	3912.58
958.771	3853.6
959.075	3841.17
959.378	3831.9
959.682	3842.07
959.985	3823.54
960.289	3717.11
960.592	3732.47
960.896	3763.21
961.199	3753.71
961.502	3743.09
961.805	3726.82
962.108	3643.44
962.411	3635.07
962.714	3628.29
963.017	3670.33
963.32	3631.46
963.623	3603.66
963.926	3589.88
964.228	3572.7
964.531	3565.47
964.833	3509.43
965.136	3553.49
965.438	3507.39
965.741	3514.17
966.043	3426.49
966.345	3457.23
966.648	3499.94
966.95	3447.51
967.252	3468.98
967.554	3402.99
967.856	3383.78
968.158	3352.82
968.46	3372.26
968.761	3369.32
969.063	3316.44
969.365	3303.33
969.666	3309.88
969.968	3273.5
970.269	3261.07
970.571	3296.1
970.872	3253.16
971.174	3205.48
971.475	3237.8
971.776	3210.9
972.077	3183.33
972.378	3179.72
972.679	3183.11
972.98	3143.34
973.281	3156.67
973.582	3138.59
973.883	3112.6
974.183	3139.49
974.484	3085.94
974.785	3071.47
975.085	3097.23
975.386	3063.34
975.686	2988.99
975.986	2989.89
976.287	2976.79
976.587	2971.14
976.887	2984.92
977.187	2936.56
977.487	2933.17
977.787	2914.64
978.087	2939.05
978.387	2904.92
978.687	2882.1
978.987	2841.2
979.286	2869.22
979.586	2848.43
979.885	2836.45
980.185	2860.63
980.484	2847.3
980.784	2806.62
981.083	2796.45
981.382	2799.39
981.682	2752.61
981.981	2788.54
982.28	2750.8
982.579	2730.46
982.878	2718.26
983.177	2734.53
983.475	2694.08
983.774	2661.99
984.073	2665.61
984.372	2657.25
984.67	2654.08
984.969	2641.88
985.267	2647.08
985.566	2601.65
985.864	2593.75
986.162	2606.63
986.461	2589
986.759	2517.36
987.057	2512.17
987.355	2508.32
987.653	2504.26
987.951	2466.29
988.249	2475.1
988.547	2476.01
988.844	2504.03
989.142	2483.01
989.44	2460.19
989.737	2414.32
990.035	2417.25
990.332	2410.47
990.63	2448.44
990.927	2406.86
991.224	2370.25
991.521	2387.42
991.819	2392.85
992.116	2363.24
992.413	2345.39
992.71	2351.27
993.006	2341.1
993.303	2312.62
993.6	2331.61
993.897	2297.93
994.193	2317.14
994.49	2271.72
994.787	2265.39
995.083	2271.72
995.379	2244.6
995.676	2217.03
995.972	2261.1
996.268	2230.14
996.565	2181.33
996.861	2207.77
997.157	2209.8
997.453	2158.05
997.749	2163.93
998.044	2151.72
998.34	2109.69
998.636	2134.32
998.932	2089.35
999.227	2088
999.523	2090.26
999.818	2071.05
1000.114	2050.71
1000.409	2089.58
1000.704	2052.74
1001	2047.55
1001.295	2045.51
1001.59	2022.23
1001.885	1996.7
1002.18	1986.3
1002.475	1970.26
1002.77	1957.83
1003.065	1942.01
1003.359	1923.03
1003.654	1949.69
1003.949	1929.13
1004.243	1958.73
1004.538	1892.07
1004.832	1893.65
1005.127	1871.73
1005.421	1887.78
1005.715	1848
1006.009	1879.41
1006.304	1850.94
1006.598	1841
1006.892	1831.96
1007.186	1774.56
1007.48	1803.26
1007.773	1774.11
1008.067	1762.81
1008.361	1748.8
1008.655	1759.87
1008.948	1753.54
1009.242	1730.94
1009.535	1722.36
1009.829	1719.87
1010.122	1703.83
1010.415	1703.6
1010.708	1672.64
1011.001	1677.39
1011.295	1698.18
1011.588	1698.18
1011.881	1648.46
1012.173	1644.17
1012.466	1653.66
1012.759	1609.14
1013.052	1615.47
1013.344	1620.66
1013.637	1616.6
1013.93	1586.99
1014.222	1575.02
1014.514	1590.38
1014.807	1577.95
1015.099	1554
1015.391	1525.07
1015.683	1530.5
1015.976	1523.94
1016.268	1494.34
1016.56	1501.8
1016.851	1528.69
1017.143	1508.35
1017.435	1497.05
1017.727	1449.37
1018.018	1445.98
1018.31	1453.44
1018.602	1438.3
1018.893	1461.8
1019.185	1453.44
1019.476	1417.96
1019.767	1408.24
1020.058	1396.26
1020.35	1405.08
1020.641	1375.7
1020.932	1347.68
1021.223	1375.25
1021.514	1353.78
1021.804	1349.26
1022.095	1344.51
1022.386	1298.19
1022.677	1321.01
1022.967	1316.26
1023.258	1312.2
1023.548	1302.48
1023.839	1264.29
1024.129	1295.93
1024.419	1269.94
1024.709	1265.64
1025	1249.83
1025.29	1235.14
1025.58	1235.59
1025.87	1212.54
1026.16	1208.7
1026.449	1214.12
1026.739	1216.83
1027.029	1208.02
1027.319	1175.7
1027.608	1166.89
1027.898	1194.23
1028.187	1183.84
1028.477	1147.91
1028.766	1151.52
1029.055	1132.77
1029.344	1145.87
1029.634	1123.05
1029.923	1138.42
1030.212	1118.98
1030.501	1106.78
1030.79	1107.23
1031.078	1087.8
1031.367	1069.27
1031.656	1058.42
1031.945	1072.66
1032.233	1070.85
1032.522	1044.63
1032.81	1035.14
1033.099	1023.84
1033.387	1049.61
1033.675	1049.38
1033.963	1038.31
1034.251	993.56
1034.54	1039.89
1034.828	995.6
1035.116	990.4
1035.403	1011.41
1035.691	995.82
1035.979	994.69
1036.267	973.22
1036.554	989.04
1036.842	951.3
1037.129	967.12
1037.417	953.11
1037.704	967.57
1037.992	946.78
1038.279	937.52
1038.566	921.25
1038.853	921.25
1039.14	921.25
