Data from hue_00_FLMS001491_83.txt Node
Date: Mon Feb 06 15:30:22 GMT 2017
User: dcchb
Spectrometer: FLMS00149
Trigger mode: 0
Integration Time (sec): 2.000000E-2
Scans to average: 10
Electric dark correction enabled: true
Nonlinearity correction enabled: false
Boxcar width: 0
XAxis mode: Wavelengths
Number of Pixels in Spectrum: 2048
>>>>>Begin Spectral Data<<<<<
341.393	-35.56
341.776	-35.56
342.16	-35.56
342.543	-43.25
342.927	-59.52
343.31	-55.9
343.693	-59.74
344.077	-68.33
344.46	-60.2
344.843	-62
345.226	-34.43
345.61	-17.71
345.993	-16.58
346.376	-20.42
346.759	8.73
347.142	30.87
347.525	31.55
347.908	75.62
348.291	81.04
348.674	77.88
349.057	89.63
349.44	130.76
349.823	142.96
350.206	144.09
350.588	190.87
350.971	196.52
351.354	233.58
351.737	246.91
352.119	250.08
352.502	264.54
352.884	253.69
353.267	284.65
353.65	282.85
354.032	281.49
354.414	303.86
354.797	309.06
355.179	308.83
355.562	317.65
355.944	328.95
356.326	333.01
356.709	335.73
357.091	343.64
357.473	338.44
357.855	342.96
358.238	338.89
358.62	347.7
359.002	324.88
359.384	309.29
359.766	329.85
360.148	337.99
360.53	343.18
360.912	342.73
361.294	333.47
361.676	335.05
362.057	331.43
362.439	344.09
362.821	328.27
363.203	331.21
363.584	315.16
363.966	328.72
364.348	332.11
364.729	308.38
365.111	332.56
365.493	316.97
365.874	327.59
366.256	315.84
366.637	289.85
367.019	293.92
367.4	292.79
367.781	298.89
368.163	302.05
368.544	306.35
368.925	300.92
369.306	326.46
369.688	314.03
370.069	297.31
370.45	286.46
370.831	304.77
371.212	290.98
371.593	303.86
371.974	303.18
372.355	301.38
372.736	306.35
373.117	306.8
373.498	319.68
373.879	298.89
374.26	298.44
374.641	296.86
375.021	312.68
375.402	321.49
375.783	313.13
376.163	307.25
376.544	319.45
376.925	326.69
377.305	314.26
377.686	315.84
378.066	326.23
378.447	308.16
378.827	327.36
379.208	326.46
379.588	322.17
379.968	343.18
380.349	339.12
380.729	341.6
381.109	335.05
381.489	339.79
381.87	336.4
382.25	316.52
382.63	316.07
383.01	341.83
383.39	338.21
383.77	333.92
384.15	340.25
384.53	341.6
384.91	335.95
385.29	339.79
385.67	348.61
386.049	344.76
386.429	337.99
386.809	340.92
387.189	352.22
387.568	359.45
387.948	356.06
388.328	350.19
388.707	351.09
389.087	378.66
389.466	333.47
389.846	355.39
390.225	359
390.605	361.49
390.984	356.29
391.363	360.13
391.743	357.87
392.122	371.66
392.501	348.61
392.881	379.79
393.26	370.3
393.639	377.76
394.018	365.78
394.397	361.71
394.776	385.89
395.155	374.59
395.534	371.2
395.913	369.4
396.292	356.74
396.671	381.15
397.05	371.2
397.429	380.92
397.808	370.98
398.186	373.01
398.565	385.67
398.944	384.09
399.323	380.47
399.701	397.87
400.08	390.87
400.458	384.54
400.837	380.24
401.215	365.78
401.594	406.23
401.972	392.9
402.351	394.03
402.729	401.26
403.107	395.84
403.486	396.06
403.864	393.58
404.242	408.72
404.62	396.06
404.999	387.25
405.377	407.59
405.755	398.77
406.133	409.17
406.511	407.14
406.889	426.8
407.267	423.86
407.645	414.14
408.023	432.9
408.401	417.98
408.779	408.94
409.156	443.29
409.534	433.58
409.912	433.8
410.29	433.8
410.667	439.9
411.045	441.49
411.422	434.93
411.8	435.84
412.178	436.51
412.555	480.13
412.933	450.98
413.31	476.74
413.687	458.43
414.065	471.32
414.442	479.68
414.819	469.06
415.197	466.34
415.574	504.53
415.951	470.19
416.328	482.39
416.705	507.92
417.082	499.11
417.46	480.81
417.837	478.77
418.214	493.91
418.591	495.72
418.967	476.29
419.344	506.12
419.721	496.85
420.098	468.15
420.475	499.34
420.852	501.6
421.228	520.35
421.605	532.33
421.982	522.39
422.358	536.85
422.735	525.78
423.111	524.87
423.488	533.69
423.864	540.01
424.241	552.44
424.617	548.83
424.994	557.87
425.37	557.64
425.746	547.92
426.123	542.05
426.499	571.88
426.875	556.28
427.251	555.61
427.627	597.41
428.003	580.46
428.379	564.42
428.756	597.41
429.132	610.75
429.507	593.57
429.883	613.68
430.259	605.1
430.635	603.06
431.011	607.13
431.387	631.54
431.763	644.42
432.138	621.59
432.514	637.19
432.89	634.7
433.265	634.7
433.641	640.12
434.016	662.5
434.392	656.17
434.767	665.43
435.143	659.11
435.518	648.49
435.894	655.49
436.269	673.57
436.644	701.59
437.02	683.29
437.395	712.66
437.77	712.89
438.145	714.47
438.52	712.89
438.895	733.91
439.271	713.79
439.646	733.23
440.021	711.08
440.395	725.32
440.77	715.6
441.145	756.28
441.52	744.75
441.895	732.78
442.27	737.3
442.645	756.28
443.019	766
443.394	771.65
443.769	754.25
444.143	778.65
444.518	795.83
444.892	777.97
445.267	788.82
445.641	784.75
446.016	789.95
446.39	810.29
446.764	788.37
447.139	799.22
447.513	806.45
447.887	802.61
448.262	801.93
448.636	795.15
449.01	848.71
449.384	837.86
449.758	818.88
450.132	830.18
450.506	836.5
450.88	846.67
451.254	848.03
451.628	859.1
452.002	875.15
452.376	864.98
452.75	845.32
453.123	881.02
453.497	868.82
453.871	891.42
454.244	903.62
454.618	913.11
454.992	911.53
455.365	914.02
455.739	939.33
456.112	949.72
456.486	949.04
456.859	963.51
457.232	948.14
457.606	944.75
457.979	971.87
458.352	993.34
458.725	1004.18
459.099	1007.57
459.472	1037.4
459.845	1031.3
460.218	1035.37
460.591	1045.09
460.964	1047.8
461.337	1036.72
461.71	1067.23
462.083	1097.74
462.456	1113.56
462.829	1103.16
463.201	1117.4
463.574	1127.57
463.947	1141.13
464.32	1176.61
464.692	1165.76
465.065	1175.25
465.438	1209.15
465.81	1207.79
466.183	1215.48
466.555	1224.29
466.928	1244.85
467.3	1236.49
467.672	1252.54
468.045	1283.95
468.417	1290.95
468.789	1308.36
469.161	1314.91
469.534	1346.32
469.906	1370.73
470.278	1373.21
470.65	1387
471.022	1404.4
471.394	1424.28
471.766	1436.26
472.138	1457.05
472.51	1481.01
472.882	1508.35
473.253	1532.3
473.625	1521.23
473.997	1590.38
474.369	1572.76
474.74	1592.42
475.112	1645.97
475.484	1669.25
475.855	1691.4
476.227	1721.68
476.598	1752.41
476.97	1756.93
477.341	1811.62
477.713	1850.49
478.084	1856.59
478.455	1898.62
478.827	1900.43
479.198	1948.11
479.569	1972.29
479.94	2026.98
480.311	2038.96
480.682	2062.01
481.053	2115.34
481.424	2148.33
481.795	2179.29
482.166	2212.06
482.537	2250.48
482.908	2268.56
483.279	2318.5
483.65	2408.21
484.021	2405.28
484.391	2425.39
484.762	2478.95
485.133	2514.65
485.503	2538.61
485.874	2609.56
486.244	2633.29
486.615	2679.39
486.985	2706.51
487.356	2787.41
487.726	2783.57
488.097	2857.24
488.467	2845.94
488.837	2913.96
489.207	2981.76
489.578	2995.99
489.948	2987.18
490.318	3080.51
490.688	3090
491.058	3139.04
491.428	3158.48
491.798	3241.86
492.168	3238.93
492.538	3313.95
492.908	3331.13
493.278	3370.22
493.648	3402.09
494.017	3420.39
494.387	3431.01
494.757	3476.21
495.126	3504.68
495.496	3521.63
495.866	3592.36
496.235	3550.33
496.605	3633.94
496.974	3666.49
497.344	3711.23
497.713	3680.72
498.082	3777.9
498.452	3797.56
498.821	3844.79
499.19	3821.74
499.559	3838.23
499.928	3864.22
500.298	3909.42
500.667	3961.39
501.036	3916.42
501.405	3991.9
501.774	4002.97
502.143	4026.25
502.512	4020.37
502.88	4097.89
503.249	4118.45
503.618	4121.16
503.987	4152.12
504.356	4141.73
504.724	4183.08
505.093	4172.46
505.462	4218.11
505.83	4243.65
506.199	4263.98
506.567	4307.6
506.936	4317.54
507.304	4386.69
507.672	4313.93
508.041	4339.69
508.409	4440.93
508.777	4424.88
509.145	4453.36
509.514	4490.42
509.882	4482.06
510.25	4534.49
510.618	4489.74
510.986	4546.24
511.354	4550.3
511.722	4627.14
512.09	4612.68
512.458	4640.92
512.826	4671.43
513.193	4663.3
513.561	4696.74
513.929	4679.57
514.297	4720.92
514.664	4792.11
515.032	4757.53
515.4	4785.55
515.767	4807.47
516.135	4854.48
516.502	4770.86
516.869	4895.83
517.237	4889.05
517.604	4851.99
517.972	4937.41
518.339	4973.12
518.706	4972.21
519.073	4932.21
519.44	5001.37
519.808	5013.57
520.175	4995.49
520.542	5115.94
520.909	5080.01
521.276	5087.69
521.643	5142.15
522.009	5196.16
522.376	5142.6
522.743	5206.56
523.11	5232.55
523.477	5262.15
523.843	5329.49
524.21	5308.02
524.577	5327.01
524.943	5433.22
525.31	5402.03
525.676	5413.78
526.043	5479.55
526.409	5522.03
526.776	5540.11
527.142	5572.88
527.508	5627.56
527.874	5629.82
528.241	5644.96
528.607	5644.74
528.973	5681.12
529.339	5722.7
529.705	5762.93
530.071	5752.53
530.437	5786.2
530.803	5826.43
531.169	5837.73
531.535	5855.35
531.901	5861
532.267	5927.44
532.632	5990.94
532.998	5960.66
533.364	6018.29
533.73	6009.7
534.095	6061.45
534.461	6091.73
534.826	6156.36
535.192	6102.58
535.557	6142.35
535.923	6211.96
536.288	6202.46
536.653	6196.81
537.019	6245.85
537.384	6311.16
537.749	6307.32
538.114	6338.28
538.479	6290.15
538.845	6326.3
539.21	6410.82
539.575	6395.23
539.94	6447.43
540.305	6470.48
540.67	6500.99
541.034	6500.76
541.399	6511.38
541.764	6563.58
542.129	6587.76
542.494	6621.44
542.858	6611.49
543.223	6640.64
543.587	6720.64
543.952	6689.46
544.316	6733.75
544.681	6713.19
545.045	6732.39
545.41	6757.48
545.774	6862.79
546.138	6821.66
546.503	6870.02
546.867	6908.66
547.231	6956.34
547.595	6999.73
547.959	6991.37
548.324	6927.19
548.688	7051.48
549.052	7063.23
549.416	7072.95
549.779	7039.96
550.143	7096.45
550.507	7176.45
550.871	7188.43
551.235	7152.27
551.599	7240.18
551.962	7213.06
552.326	7255.32
552.689	7314.3
553.053	7270.68
553.417	7307.07
553.78	7363.79
554.143	7354.52
554.507	7377.8
554.87	7440.4
555.234	7507.51
555.597	7509.77
555.96	7503.45
556.323	7518.59
556.686	7517.68
557.05	7519.27
557.413	7629.32
557.776	7635.65
558.139	7688.53
558.502	7621.86
558.865	7665.02
559.228	7745.93
559.59	7766.04
559.953	7754.51
560.316	7852.82
560.679	7858.69
561.041	7893.72
561.404	7990.44
561.767	7969.65
562.129	7982.3
562.492	8036.99
562.854	8011.68
563.217	8011.23
563.579	8085.13
563.941	8130.55
564.304	8074.96
564.666	8145.01
565.028	8167.38
565.39	8224.78
565.753	8327.38
566.115	8260.26
566.477	8325.35
566.839	8335.97
567.201	8343.65
567.563	8299.36
567.925	8524.44
568.287	8423.42
568.648	8420.03
569.01	8535.74
569.372	8539.58
569.734	8561.27
570.095	8583.64
570.457	8707.03
570.819	8712.91
571.18	8637.88
571.542	8716.75
571.903	8790.64
572.265	8875.61
572.626	8883.98
572.987	8888.5
573.349	8973.46
573.71	8981.15
574.071	9057.53
574.432	9116.29
574.794	9205.55
575.155	9125.33
575.516	9229.28
575.877	9298.65
576.238	9390.18
576.599	9460.01
576.96	9491.19
577.32	9532.32
577.681	9619.78
578.042	9689.6
578.403	9743.61
578.763	9838.98
579.124	9955.81
579.485	10060.44
579.845	10159.2
580.206	10198.07
580.566	10303.83
580.927	10482.58
581.287	10651.16
581.648	10714.21
582.008	10755.79
582.368	10951.04
582.728	11045.27
583.089	11160.75
583.449	11324.82
583.809	11466.73
584.169	11618.59
584.529	11687.07
584.889	12045.25
585.249	12057.68
585.609	12206.83
585.969	12486.37
586.329	12529.08
586.688	12809.52
587.048	12931.55
587.408	13124.09
587.768	13330.41
588.127	13562.5
588.487	13592.1
588.846	13958.19
589.206	14146.21
589.565	14371.06
589.925	14641.56
590.284	14890.6
590.643	15027.54
591.003	15357.25
591.362	15645.61
591.721	15794.98
592.08	16079.94
592.44	16307.51
592.799	16540.95
593.158	16858.46
593.517	17049.41
593.876	17395.16
594.235	17555.16
594.593	17838.32
594.952	18121.47
595.311	18365.31
595.67	18645.07
596.029	19031.28
596.387	19252.97
596.746	19567.76
597.104	19661.55
597.463	19894.31
597.822	20244.81
598.18	20413.39
598.538	20721.4
598.897	21064.9
599.255	21141.28
599.613	21725.9
599.972	21788.72
600.33	22186.22
600.688	22266.67
601.046	22595.71
601.404	22838.86
601.762	23093.55
602.12	23400.2
602.478	23634.77
602.836	23909.34
603.194	24024.37
603.552	24430.01
603.91	24512.27
604.268	24821.86
604.625	24966.72
604.983	25311.57
605.341	25427.95
605.698	25782.29
606.056	26098.89
606.413	26152
606.771	26445.55
607.128	26728.48
607.485	26744.75
607.843	26945.87
608.2	27350.61
608.557	27680.32
608.914	27641.45
609.272	27988.33
609.629	28209.12
609.986	28524.81
610.343	28609.33
610.7	28986.27
611.057	29075.76
611.414	29108.08
611.771	29458.12
612.127	29670.77
612.484	29703.32
612.841	29957.77
613.198	30118.45
613.554	30267.37
613.911	30531.99
614.267	30673.46
614.624	30717.53
614.98	30910.74
615.337	31152.77
615.693	31286.32
616.05	31279.32
616.406	31704.84
616.762	31630.72
617.118	31765.41
617.475	31923.14
617.831	32214.89
618.187	32253.53
618.543	32456.24
618.899	32677.47
619.255	32776.23
619.611	32857.81
619.967	32957.01
620.323	33136.22
620.678	33048.31
621.034	33100.74
621.39	33237.46
621.746	33401.3
622.101	33837.67
622.457	33428.64
622.812	33628.41
623.168	33809.42
623.523	33925.12
623.879	34141.16
624.234	33975.29
624.589	34156.76
624.945	34251.44
625.3	34381.38
625.655	34428.16
626.01	34471.78
626.365	34519.91
626.72	34547.48
627.075	34622.51
627.43	34683.98
627.785	34665.9
628.14	34881.48
628.495	34973.23
628.85	34843.29
629.205	34730.3
629.559	35072.44
629.914	35016.62
630.269	35046.23
630.623	35050.07
630.978	35023.85
631.332	35299.1
631.687	35343.39
632.041	35142.49
632.396	35314.92
632.75	35108.14
633.104	35323.51
633.459	35172.55
633.813	35168.03
634.167	35231.31
634.521	35219.78
634.875	35291.87
635.229	35373.45
635.583	35133.45
635.937	35305.65
636.291	35181.36
636.645	35280.12
636.999	35201.93
637.352	35309.5
637.706	35080.35
638.06	35235.15
638.413	35243.51
638.767	35088.26
639.121	35274.24
639.474	35058.43
639.828	35053.23
640.181	35233.34
640.534	35306.33
640.888	34989.05
641.241	34999.67
641.594	35037.86
641.947	35277.63
642.301	35063.63
642.654	35106.79
643.007	35187.01
643.36	35175.49
643.713	35089.84
644.066	35154.7
644.419	35116.96
644.771	34748.15
645.124	34539.35
645.477	34483.53
645.83	34306.13
646.182	34179.36
646.535	34147.04
646.888	34093.26
647.24	34007.83
647.593	34147.04
647.945	34117.21
648.298	33997.44
648.65	33892.36
649.002	33909.98
649.355	33906.37
649.707	33867.27
650.059	34207.6
650.411	34573.7
650.763	34560.59
651.115	34898.21
651.467	34707.03
651.819	34750.41
652.171	34629.29
652.523	34681.49
652.875	34612.56
653.227	34501.38
653.578	34715.39
653.93	34680.81
654.282	34410.08
654.633	34390.88
654.985	34513.13
655.337	34527.37
655.688	34478.1
656.039	34576.18
656.391	34304.78
656.742	34587.71
657.094	34490.08
657.445	34511.78
657.796	34354.04
658.147	34442.63
658.498	34358.33
658.849	34582.96
659.2	34505.22
659.551	34331.22
659.902	34404.89
660.253	34466.13
660.604	34516.52
660.955	34276.08
661.306	34507.03
661.656	34386.36
662.007	34457.77
662.358	34354.72
662.708	34442.4
663.059	34270.43
663.409	34057.32
663.76	34476.52
664.11	34455.28
664.461	34327.37
664.811	34347.26
665.161	34327.6
665.511	34186.59
665.862	34352.46
666.212	34289.41
666.562	34326.47
666.912	34384.77
667.262	34297.77
667.612	34353.81
667.962	34307.94
668.312	34282.86
668.662	34428.39
669.011	34251.9
669.361	34178.9
669.711	34258.45
670.06	34159.92
670.41	34107.49
670.76	34157.44
671.109	34256.64
671.459	34317.43
671.808	34051.9
672.157	34233.37
672.507	34005.35
672.856	34093.71
673.205	33958.57
673.554	34107.72
673.904	34026.37
674.253	34185.46
674.602	34055.74
674.951	33535.98
675.3	33444.69
675.649	34037.89
675.998	33906.82
676.346	33978.23
676.695	34182.07
677.044	33777.56
677.393	33882.87
677.741	34094.16
678.09	33909.53
678.438	33742.53
678.787	33819.59
679.135	33954.5
679.484	33636.32
679.832	33781.4
680.181	33566.26
680.529	33637.67
680.877	33600.39
681.225	33616.88
681.573	33688.07
681.922	33534.4
682.27	33448.08
682.618	33422.31
682.966	33367.17
683.314	33377.34
683.661	33382.77
684.009	33128.76
684.357	33167.4
684.705	32940.07
685.053	33085.15
685.4	33018.93
685.748	33013.28
686.095	32932.61
686.443	32821.88
686.79	32799.28
687.138	32847.41
687.485	32971.93
687.832	32611.49
688.18	32606.97
688.527	32450.81
688.874	32589.79
689.221	32514.54
689.568	32385.5
689.915	32224.38
690.262	32317.26
690.609	32294.66
690.956	31986.19
691.303	31979.41
691.65	31799.98
691.997	31879.98
692.344	31746.65
692.69	31752.98
693.037	31682.92
693.383	31413.78
693.73	31523.38
694.077	31434.12
694.423	31414
694.769	31352.54
695.116	31164.75
695.462	31099.89
695.808	31169.72
696.155	31101.92
696.501	30800.91
696.847	30856.73
697.193	30733.34
697.539	30739.22
697.885	30639.34
698.231	30431.66
698.577	30532.45
698.923	30400.25
699.269	30266.46
699.614	30190.76
699.96	30156.86
700.306	30254.49
700.651	30050.65
700.997	29892.69
701.342	29856.31
701.688	29716.87
702.033	29769.75
702.379	29771.79
702.724	29659.25
703.069	29727.5
703.415	29311.01
703.76	29357.79
704.105	29298.81
704.45	29280.73
704.795	29183.55
705.14	28935.88
705.485	29042.32
705.83	28894.75
706.175	28865.37
706.52	28765.71
706.865	28765.94
707.209	28681.65
707.554	28612.72
707.899	28814.3
708.243	28519.39
708.588	28524.14
708.932	28297.93
709.277	28313.07
709.621	28327.76
709.966	28082.79
710.31	28118.27
710.654	27913.53
710.998	28019.74
711.342	27929.12
711.687	28006.64
712.031	27676.93
712.375	27691.16
712.719	27855.91
713.063	27651.39
713.407	27734.33
713.75	27586.99
714.094	27659.75
714.438	27525.07
714.782	27550.6
715.125	27352.64
715.469	27370.5
715.812	27266.09
716.156	27183.38
716.499	27031.29
716.843	27173.21
717.186	27027.68
717.53	27090.28
717.873	27186.55
718.216	27051.18
718.559	26860.9
718.902	26780.91
719.246	26804.18
719.589	26751.53
719.932	26665.2
720.275	26624.53
720.617	26682.83
720.96	26549.05
721.303	26580.01
721.646	26526.45
721.989	26277.64
722.331	26404.87
722.674	26398.54
723.016	26208.49
723.359	26158.55
723.701	26323.52
724.044	26117.87
724.386	25964.66
724.729	26067.25
725.071	25998.55
725.413	25946.13
725.755	26015.5
726.097	25790.2
726.439	25739.13
726.782	25707.04
727.124	25840.14
727.465	25723.53
727.807	25676.75
728.149	25580.71
728.491	25618.22
728.833	25603.08
729.175	25467.27
729.516	25662.74
729.858	25394.28
730.199	25434.73
730.541	25423.43
730.882	25413.03
731.224	25300.49
731.565	25221.17
731.906	25286.48
732.248	25298.69
732.589	25231.79
732.93	24995.87
733.271	25123.1
733.612	25111.57
733.953	25086.26
734.294	25015.98
734.635	24957.23
734.976	25007.39
735.317	24848.53
735.658	24867.06
735.999	24943.89
736.339	24821.41
736.68	24794.74
737.021	24625.03
737.361	24574.64
737.702	24674.97
738.042	24653.96
738.383	24606.5
738.723	24585.48
739.063	24648.98
739.404	24559.27
739.744	24482.89
740.084	24343
740.424	24375.77
740.764	24408.09
741.104	24416.9
741.444	24340.52
741.784	24229.79
742.124	24315.43
742.464	24144.14
742.804	24089.45
743.143	24153.63
743.483	24120.64
743.823	23955.44
744.162	23860.98
744.502	23995.44
744.841	23852.85
745.181	23996.12
745.52	23857.37
745.86	23794.32
746.199	23880.42
746.538	23788.22
746.877	23805.62
747.216	23754.32
747.556	23689.69
747.895	23712.29
748.234	23577.37
748.573	23534.89
748.911	23511.16
749.25	23589.58
749.589	23444.95
749.928	23438.62
750.267	23512.74
750.605	23352.52
750.944	23300.09
751.283	23273.2
751.621	23372.18
751.96	23227.78
752.298	23122.92
752.636	23164.05
752.975	23019.65
753.313	22917.96
753.651	23108.01
753.989	22850.39
754.327	22928.13
754.666	22851.74
755.004	22858.52
755.342	22803.16
755.679	22809.48
756.017	22597.97
756.355	22710.28
756.693	22638.87
757.031	22695.82
757.368	22555.93
757.706	22529.49
758.044	22471.87
758.381	22426.67
758.719	22351.87
759.056	22334.02
759.394	22231.2
759.731	22104.42
760.068	22079.11
760.405	21983.74
760.743	21891.09
761.08	21921.15
761.417	21805.22
761.754	21697.65
762.091	21781.49
762.428	21633.7
762.765	21520.03
763.102	21588.73
763.438	21472.57
763.775	21286.81
764.112	21310.32
764.449	21371.78
764.785	21240.26
765.122	21154.16
765.458	21052.24
765.795	20986.48
766.131	21005.01
766.467	20944
766.804	20707.39
767.14	20706.49
767.476	20694.06
767.812	20593.5
768.148	20752.82
768.485	20620.62
768.821	20383.11
769.157	20413.84
769.492	20453.16
769.828	20359.38
770.164	20152.15
770.5	20092.27
770.836	20196.22
771.171	19983.12
771.507	19939.28
771.842	19918.04
772.178	19805.95
772.513	19911.03
772.849	19678.95
773.184	19635.78
773.519	19651.83
773.855	19543.13
774.19	19417.94
774.525	19357.82
774.86	19314.66
775.195	19214.33
775.53	19205.51
775.865	19174.78
776.2	19047.78
776.535	18831.96
776.87	18926.65
777.205	18946.08
777.539	18687.33
777.874	18759.42
778.209	18478.98
778.543	18584.29
778.878	18392.43
779.212	18425.42
779.547	18372.31
779.881	18337.74
780.215	18313.11
780.55	18269.04
780.884	18057.52
781.218	18034.02
781.552	18029.72
781.886	17938.65
782.22	17858.65
782.554	17787.24
782.888	17669.06
783.222	17647.13
783.556	17536.86
783.889	17455.05
784.223	17469.74
784.557	17377.99
784.89	17360.36
785.224	17251.89
785.557	17158.56
785.891	17162.4
786.224	17067.04
786.558	17062.29
786.891	16869.53
787.224	16840.6
787.557	16754.95
787.891	16757.21
788.224	16739.36
788.557	16679.93
788.89	16627.95
789.223	16547.28
789.556	16426.15
789.888	16426.83
790.221	16388.41
790.554	16254.4
790.887	16225.93
791.219	16263.67
791.552	16133.05
791.884	16130.34
792.217	15971.25
792.549	16060.06
792.882	15861.87
793.214	15820.97
793.546	15780.29
793.879	15728.32
794.211	15574.2
794.543	15669.56
794.875	15576.45
795.207	15681.99
795.539	15551.14
795.871	15519.96
796.203	15468.44
796.535	15297.14
796.867	15302.34
797.198	15281.32
797.53	15236.8
797.862	15143.92
798.193	15116.58
798.525	15036.81
798.856	15009.01
799.188	14888.34
799.519	14808.11
799.85	14847.21
800.182	14793.65
800.513	14824.16
800.844	14653.99
801.175	14703.48
801.506	14739.41
801.837	14588.01
802.168	14597.05
802.499	14529.02
802.83	14465.98
803.161	14397.28
803.491	14393.89
803.822	14383.27
804.153	14316.6
804.483	14212.87
804.814	14210.84
805.145	14197.73
805.475	14126.32
805.805	14057.62
806.136	14026.89
806.466	14115.25
806.796	14016.27
807.126	13901.02
807.457	13818.53
807.787	13792.77
808.117	13907.12
808.447	13838.87
808.777	13744.86
809.107	13753.23
809.436	13706.9
809.766	13650.86
810.096	13623.96
810.426	13559.78
810.755	13507.81
811.085	13523.63
811.414	13459.22
811.744	13456.06
812.073	13334.48
812.403	13352.33
812.732	13265.78
813.061	13289.96
813.39	13183.3
813.719	13188.04
814.049	13199.79
814.378	13192.11
814.707	13039.8
815.036	13085.9
815.365	13050.65
815.693	12920.71
816.022	12935.17
816.351	12947.6
816.68	12831.22
817.008	12818.11
817.337	12791.9
817.665	12588.74
817.994	12695.4
818.322	12740.37
818.651	12722.07
818.979	12586.93
819.307	12659.7
819.636	12578.79
819.964	12545.57
820.292	12568.4
820.62	12485.91
820.948	12434.39
821.276	12554.84
821.604	12439.14
821.932	12541.51
822.259	12490.43
822.587	12485.91
822.915	12491.11
823.243	12540.38
823.57	12466.93
823.898	12469.19
824.225	12347.61
824.553	12466.25
824.88	12454.05
825.207	12496.08
825.535	12419.02
825.862	12419.48
826.189	12418.12
826.516	12529.98
826.843	12428.97
827.17	12396.2
827.497	12447.95
827.824	12477.55
828.151	12503.09
828.478	12485.01
828.805	12505.12
829.131	12383.32
829.458	12411.57
829.785	12304.9
830.111	12368.18
830.438	12509.64
830.764	12350.78
831.09	12406.14
831.417	12380.38
831.743	12450.44
832.069	12392.58
832.395	12317.56
832.722	12338.35
833.048	12301.74
833.374	12393.49
833.7	12291.34
834.026	12280.72
834.351	12245.24
834.677	12300.83
835.003	12275.52
835.329	12271.46
835.654	12248.18
835.98	12160.05
836.306	12253.6
836.631	12096.55
836.956	12150.1
837.282	12178.8
837.607	12011.8
837.932	12098.35
838.258	12050.22
838.583	12105.36
838.908	11952.37
839.233	11997.34
839.558	12063.33
839.883	11889.77
840.208	11921.41
840.533	11968.41
840.858	11873.05
841.182	11906.72
841.507	11909.21
841.832	11822.43
842.156	11805.03
842.481	11835.99
842.805	11747.63
843.13	11793.73
843.454	11763.45
843.778	11619.72
844.103	11682.77
844.427	11639.61
844.751	11629.21
845.075	11571.36
845.399	11546.5
845.723	11484.81
846.047	11553.96
846.371	11405.72
846.695	11408.88
847.019	11331.82
847.343	11244.37
847.666	11207.3
847.99	11222.22
848.313	11188.1
848.637	11109.68
848.96	11027.42
849.284	11031.94
849.607	10955.56
849.931	10907.88
850.254	10835.79
850.577	10762.34
850.9	10714.21
851.223	10768.67
851.546	10721.44
851.869	10607.55
852.192	10685.96
852.515	10649.58
852.838	10541.33
853.161	10483.93
853.483	10465.85
853.806	10436.25
854.129	10405.29
854.451	10395.57
854.774	10394.67
855.096	10274.67
855.419	10255.69
855.741	10277.16
856.063	10199.42
856.385	10224.05
856.708	10086.88
857.03	10132.76
857.352	10104.06
857.674	10041.91
857.996	9999.43
858.318	9984.96
858.64	10008.47
858.961	9876.27
859.283	9919.65
859.605	9829.71
859.926	9883.72
860.248	9797.17
860.57	9778.87
860.891	9816.38
861.212	9739.77
861.534	9744.07
861.855	9728.92
862.176	9738.87
862.498	9745.87
862.819	9651.19
863.14	9636.5
863.461	9628.59
863.782	9612.77
864.103	9569.16
864.424	9520.79
864.745	9561.02
865.065	9460.46
865.386	9451.19
865.707	9398.99
866.027	9502.26
866.348	9470.63
866.668	9512.66
866.989	9384.3
867.309	9314.02
867.63	9369.84
867.95	9384.98
868.27	9358.31
868.59	9332.1
868.91	9359.9
869.23	9270.63
869.55	9238.54
869.87	9311.31
870.19	9225.21
870.51	9269.05
870.83	9224.53
871.15	9210.97
871.469	9237.41
871.789	9135.27
872.109	9189.05
872.428	9111.99
872.748	9146.57
873.067	9132.1
873.386	9126.45
873.706	9060.69
874.025	9086.23
874.344	9036.74
874.663	9041.49
874.982	8989.28
875.301	9067.7
875.62	8988.38
875.939	8993.35
876.258	8972.33
876.577	8895.05
876.896	8972.56
877.214	8897.53
877.533	8876.29
877.852	8888.27
878.17	8908.38
878.489	8881.49
878.807	8797.65
879.125	8858.21
879.444	8833.36
879.762	8810.08
880.08	8813.69
880.398	8759.46
880.716	8811.43
881.034	8724.43
881.352	8756.07
881.67	8685.56
881.988	8685.11
882.306	8690.08
882.624	8628.16
882.941	8593.59
883.259	8594.04
883.577	8557.2
883.894	8567.83
884.212	8633.59
884.529	8558.11
884.846	8507.94
885.164	8539.8
885.481	8555.4
885.798	8486.25
886.115	8431.78
886.432	8434.72
886.75	8397.21
887.067	8352.01
887.383	8361.5
887.7	8343.2
888.017	8295.97
888.334	8303.65
888.651	8290.54
888.967	8313.37
889.284	8256.87
889.6	8221.62
889.917	8134.16
890.233	8197.89
890.55	8115.86
890.866	8072.02
891.182	8152.24
891.498	8065.69
891.815	8064.11
892.131	8062.3
892.447	8029.08
892.763	7964.45
893.079	7908.41
893.395	7956.77
893.71	7890.78
894.026	7897.79
894.342	7886.26
894.657	7810.11
894.973	7818.47
895.289	7774.63
895.604	7753.16
895.92	7717.45
896.235	7643.33
896.55	7720.16
896.865	7673.16
897.181	7599.04
897.496	7647.17
897.811	7594.07
898.126	7512.94
898.441	7498.93
898.756	7465.26
899.071	7466.84
899.386	7472.26
899.7	7398.82
900.015	7363.56
900.33	7361.08
900.644	7295.99
900.959	7295.32
901.273	7344.35
901.588	7292.15
901.902	7212.15
902.216	7216
902.531	7253.51
902.845	7166.05
903.159	7132.16
903.473	7103.46
903.787	7055.55
904.101	7073.63
904.415	7035.44
904.729	7026.62
905.042	6989.34
905.356	6943.46
905.67	6905.04
905.984	6929
906.297	6875.67
906.611	6852.62
906.924	6835.22
907.237	6829.11
907.551	6738.95
907.864	6748.21
908.177	6735.56
908.491	6719.06
908.804	6707.08
909.117	6658.72
909.43	6606.07
909.743	6601.32
910.056	6565.84
910.368	6551.16
910.681	6552.29
910.994	6493.98
911.307	6433.42
911.619	6388.45
911.932	6399.52
912.244	6409.46
912.557	6378.05
912.869	6342.57
913.181	6359.07
913.494	6332.4
913.806	6265.29
914.118	6239.75
914.43	6194.78
914.742	6174.89
915.054	6213.54
915.366	6112.75
915.678	6115.01
915.99	6053.54
916.302	6062.58
916.613	6023.71
916.925	6019.42
917.236	5946.2
917.548	5937.16
917.859	5965.41
918.171	5936.26
918.482	5915.47
918.794	5846.09
919.105	5851.96
919.416	5801.34
919.727	5842.02
920.038	5816.94
920.349	5729.03
920.66	5681.12
920.971	5696.49
921.282	5644.74
921.593	5633.67
921.903	5653.55
922.214	5577.85
922.525	5576.49
922.835	5551.86
923.146	5521.13
923.456	5571.75
923.767	5468.92
924.077	5452.65
924.387	5466.66
924.697	5416.5
925.008	5387.34
925.318	5369.27
925.628	5329.04
925.938	5297.18
926.248	5291.3
926.558	5283.39
926.867	5291.75
927.177	5334.46
927.487	5216.5
927.796	5155.26
928.106	5152.1
928.416	5179.89
928.725	5149.16
929.034	5139.67
929.344	5116.84
929.653	5098.54
929.962	5028.71
930.271	5015.15
930.581	4972.21
930.89	4995.72
931.199	4958.2
931.508	4938.54
931.817	4951.42
932.125	4898.09
932.434	4892.22
932.743	4885.89
933.051	4826.23
933.36	4867.58
933.669	4772.22
933.977	4742.62
934.286	4794.37
934.594	4729.73
934.902	4710.98
935.21	4718.44
935.519	4700.13
935.827	4650.41
936.135	4616.97
936.443	4606.35
936.751	4606.57
937.059	4572.45
937.367	4599.79
937.674	4529.06
937.982	4505.11
938.29	4508.05
938.597	4501.49
938.905	4465.33
939.213	4446.13
939.52	4394.83
939.827	4415.17
940.135	4433.47
940.442	4365.22
940.749	4329.74
941.056	4292.68
941.363	4319.8
941.67	4295.85
941.977	4257.88
942.284	4260.82
942.591	4216.75
942.898	4208.39
943.205	4226.47
943.511	4191.44
943.818	4187.15
944.125	4122.97
944.431	4097.21
944.738	4106.47
945.044	4064.44
945.35	4083.42
945.657	4063.09
945.963	4057.66
946.269	3983.99
946.575	4034.16
946.881	4007.95
947.187	3967.95
947.493	3962.3
947.799	3945.8
948.105	3943.54
948.41	3879.59
948.716	3907.61
949.022	3866.25
949.327	3863.77
949.633	3845.46
949.938	3808.18
950.244	3847.5
950.549	3800.49
950.854	3758.91
951.16	3777.22
951.465	3746.03
951.77	3714.85
952.075	3732.92
952.38	3686.6
952.685	3685.24
952.99	3667.16
953.294	3696.09
953.599	3667.62
953.904	3659.25
954.209	3606.15
954.513	3621.29
954.818	3550.56
955.122	3584
955.426	3521.86
955.731	3529.31
956.035	3519.82
956.339	3508.75
956.643	3502.87
956.948	3449.77
957.252	3429.66
957.556	3465.59
957.86	3450.9
958.163	3410.22
958.467	3383.56
958.771	3389.66
959.075	3419.26
959.378	3348.75
959.682	3355.53
959.985	3343.1
960.289	3332.26
960.592	3296.78
960.896	3299.72
961.199	3239.38
961.502	3236.67
961.805	3247.29
962.108	3211.13
962.411	3234.63
962.714	3168.65
963.017	3202.99
963.32	3187.4
963.623	3183.11
963.926	3163.67
964.228	3154.41
964.531	3122.32
964.833	3138.82
965.136	3090.23
965.438	3075.77
965.741	3049.33
966.043	3054.75
966.345	3054.07
966.648	3068.08
966.95	3018.37
967.252	3050.68
967.554	3006.39
967.856	2984.47
968.158	2934.98
968.46	2941.76
968.761	2949.22
969.063	2921.19
969.365	2908.77
969.666	2922.78
969.968	2878.71
970.269	2844.59
970.571	2872.16
970.872	2856.79
971.174	2812.72
971.475	2791.71
971.776	2821.54
972.077	2797.58
972.378	2810.24
972.679	2773.85
972.98	2751.93
973.281	2767.53
973.582	2728.66
973.883	2732.72
974.183	2723.23
974.484	2691.82
974.785	2668.77
975.085	2661.09
975.386	2708.54
975.686	2703.8
975.986	2641.2
976.287	2616.57
976.587	2602.33
976.887	2624.93
977.187	2634.42
977.487	2593.97
977.787	2596.23
978.087	2567.08
978.387	2570.24
978.687	2584.93
978.987	2537.7
979.286	2482.34
979.586	2511.94
979.885	2542
980.185	2495.67
980.484	2485.95
980.784	2458.61
981.083	2486.4
981.382	2459.29
981.682	2449.34
981.981	2445.05
982.28	2411.83
982.579	2378.61
982.878	2430.36
983.177	2392.39
983.475	2386.75
983.774	2362.11
984.073	2380.19
984.372	2340.42
984.67	2338.38
984.969	2341.77
985.267	2325.73
985.566	2315.79
985.864	2303.81
986.162	2309.69
986.461	2307.43
986.759	2303.81
987.057	2246.41
987.355	2215.22
987.653	2225.62
987.951	2240.76
988.249	2198.05
988.547	2219.74
988.844	2212.29
989.142	2146.53
989.44	2193.98
989.737	2192.85
990.035	2191.5
990.332	2178.84
990.63	2137.71
990.927	2150.59
991.224	2128.45
991.521	2111.95
991.819	2116.24
992.116	2076.7
992.413	2100.65
992.71	2060.65
993.006	2076.02
993.303	2061.33
993.6	2025.17
993.897	2055
994.193	2023.36
994.49	2023.59
994.787	2031.05
995.083	1994.44
995.379	2001.22
995.676	1992.63
995.972	1973.65
996.268	1985.85
996.565	1937.27
996.861	1951.73
997.157	1946.08
997.453	1920.99
997.749	1920.09
998.044	1914.89
998.34	1881.9
998.636	1878.06
998.932	1871.96
999.227	1902.24
999.523	1883.93
999.818	1870.15
1000.114	1859.53
1000.409	1829.7
1000.704	1850.26
1001	1847.32
1001.295	1840.77
1001.59	1826.31
1001.885	1796.7
1002.18	1772.52
1002.475	1760.77
1002.77	1765.29
1003.065	1733.43
1003.359	1721.68
1003.654	1764.39
1003.949	1731.85
1004.243	1731.85
1004.538	1727.33
1004.832	1713.54
1005.127	1727.33
1005.421	1678.52
1005.715	1686.65
1006.009	1672.64
1006.304	1662.7
1006.598	1643.49
1006.892	1634.67
1007.186	1658.63
1007.48	1627.9
1007.773	1609.59
1008.067	1598.97
1008.361	1586.31
1008.655	1615.24
1008.948	1569.59
1009.242	1582.92
1009.535	1571.17
1009.829	1549.48
1010.122	1547.45
1010.415	1553.09
1010.708	1482.14
1011.001	1516.26
1011.295	1527.78
1011.588	1500.44
1011.881	1488.69
1012.173	1466.77
1012.466	1483.72
1012.759	1478.75
1013.052	1474
1013.344	1462.48
1013.637	1448.46
1013.93	1431.06
1014.222	1417.51
1014.514	1417.73
1014.807	1420.89
1015.099	1392.2
1015.391	1386.09
1015.683	1377.28
1015.976	1378.64
1016.268	1370.5
1016.56	1328.92
1016.851	1360.33
1017.143	1356.72
1017.435	1359.88
1017.727	1335.47
1018.018	1330.28
1018.31	1311.07
1018.602	1324.17
1018.893	1295.25
1019.185	1290.28
1019.476	1292.54
1019.767	1309.71
1020.058	1277.62
1020.35	1273.55
1020.641	1247.11
1020.932	1263.16
1021.223	1215.02
1021.514	1227.45
1021.804	1217.51
1022.095	1207.79
1022.386	1200.79
1022.677	1207.34
1022.967	1178.19
1023.258	1191.97
1023.548	1174.8
1023.839	1193.78
1024.129	1148.36
1024.419	1129.6
1024.709	1149.72
1025	1137.51
1025.29	1147.23
1025.58	1148.81
1025.87	1138.42
1026.16	1116.72
1026.449	1114.91
1026.739	1093.67
1027.029	1074.01
1027.319	1041.24
1027.608	1100.68
1027.898	1060.9
1028.187	1070.62
1028.477	1074.24
1028.766	1056.16
1029.055	1055.48
1029.344	1013.45
1029.634	1031.07
1029.923	1056.61
1030.212	1006.67
1030.501	1042.83
1030.79	1015.03
1031.078	994.01
1031.367	996.95
1031.656	1012.77
1031.945	975.26
1032.233	982.94
1032.522	972.77
1032.81	955.82
1033.099	959.89
1033.387	947.91
1033.675	950.4
1033.963	914.02
1034.251	946.78
1034.54	911.08
1034.828	955.6
1035.116	913.56
1035.403	953.79
1035.691	897.74
1035.979	887.8
1036.267	914.92
1036.554	904.75
1036.842	885.32
1037.129	925.99
1037.417	861.36
1037.704	879.67
1037.992	873.56
1038.279	850.29
1038.566	845.99
1038.853	845.99
1039.14	845.99
