Data from hue_300_FLMS001491_00025.txt Node
Date: Tue Feb 07 15:50:30 GMT 2017
User: dcchb
Spectrometer: FLMS00149
Trigger mode: 0
Integration Time (sec): 2.000000E-2
Scans to average: 10
Electric dark correction enabled: true
Nonlinearity correction enabled: false
Boxcar width: 0
XAxis mode: Wavelengths
Number of Pixels in Spectrum: 2048
>>>>>Begin Spectral Data<<<<<
341.393	-6.26
341.776	-6.26
342.16	-6.26
342.543	-74.05
342.927	-77.89
343.31	-82.41
343.693	-72.02
344.077	-46.93
344.46	-63.66
344.843	-55.52
345.226	-50.78
345.61	-3.55
345.993	-15.3
346.376	-8.06
346.759	10.24
347.142	33.29
347.525	39.62
347.908	42.1
348.291	56.79
348.674	100.18
349.057	116
349.44	124.14
349.823	148.77
350.206	165.04
350.588	184.25
350.971	196
351.354	199.61
351.737	238.48
352.119	244.58
352.502	266.73
352.884	264.47
353.267	262.21
353.65	273.51
354.032	284.58
354.414	306.73
354.797	298.37
355.179	329.1
355.562	317.8
355.944	312.38
356.326	318.25
356.709	327.07
357.091	339.72
357.473	343.11
357.855	339.27
358.238	339.95
358.62	322.32
359.002	328.42
359.384	337.69
359.766	326.39
360.148	349.21
360.53	335.88
360.912	321.87
361.294	331.36
361.676	332.04
362.057	309.44
362.439	319.16
362.821	315.09
363.203	326.16
363.584	331.81
363.966	331.36
364.348	318.48
364.729	335.2
365.111	293.85
365.493	301.98
365.874	308.54
366.256	323.9
366.637	311.02
367.019	316.22
367.4	334.75
367.781	319.38
368.163	276.9
368.544	295.88
368.925	319.38
369.306	329.33
369.688	313.73
370.069	292.94
370.45	309.22
370.831	318.48
371.212	325.03
371.593	308.99
371.974	294.98
372.355	310.34
372.736	315.77
373.117	320.51
373.498	309.44
373.879	313.73
374.26	320.29
374.641	320.51
375.021	297.24
375.402	307.18
375.783	299.5
376.163	311.93
376.544	321.64
376.925	310.34
377.305	322.1
377.686	318.03
378.066	320.06
378.447	306.96
378.827	311.93
379.208	300.18
379.588	308.09
379.968	318.25
380.349	318.48
380.729	337.69
381.109	322.1
381.489	326.39
381.87	307.63
382.25	323.68
382.63	334.98
383.01	323.68
383.39	331.36
383.77	342.43
384.15	328.2
384.53	358.48
384.91	338.37
385.29	349.21
385.67	343.11
386.049	337.91
386.429	341.3
386.809	370.23
387.189	358.93
387.568	355.09
387.948	352.15
388.328	360.06
388.707	366.61
389.087	339.95
389.466	379.72
389.846	350.34
390.225	344.92
390.605	380.63
390.984	357.35
391.363	385.6
391.743	377.24
392.122	365.71
392.501	404.35
392.881	369.55
393.26	379.04
393.639	380.17
394.018	378.59
394.397	372.26
394.776	377.01
395.155	378.14
395.534	391.02
395.913	374.3
396.292	391.7
396.671	398.7
397.05	387.41
397.429	396.22
397.808	379.27
398.186	386.73
398.565	388.08
398.944	395.31
399.323	414.97
399.701	421.53
400.08	407.29
400.458	393.28
400.837	430.34
401.215	428.76
401.594	400.51
401.972	426.27
402.351	423.79
402.729	419.27
403.107	445.03
403.486	446.84
403.864	435.77
404.242	463.56
404.62	444.13
404.999	425.6
405.377	446.84
405.755	444.58
406.133	471.24
406.511	470.11
406.889	475.31
407.267	471.47
407.645	450.23
408.023	470.34
408.401	471.92
408.779	476.22
409.156	494.97
409.534	494.97
409.912	497.91
410.29	524.12
410.667	510.11
411.045	531.13
411.422	522.09
411.8	529.1
412.178	550.56
412.555	542.2
412.933	573.39
413.31	578.13
413.687	580.62
414.065	586.95
414.442	586.04
414.819	592.15
415.197	601.86
415.574	612.48
415.951	634.86
416.328	628.08
416.705	656.1
417.082	628.75
417.46	664.91
417.837	640.73
418.214	651.58
418.591	672.14
418.967	675.76
419.344	683.89
419.721	715.08
420.098	704.46
420.475	707.62
420.852	729.99
421.228	739.71
421.605	767.28
421.982	761.41
422.358	762.76
422.735	748.98
423.111	779.71
423.488	786.72
423.864	791.91
424.241	802.76
424.617	813.38
424.994	838.01
425.37	810.9
425.746	833.5
426.123	852.25
426.499	853.83
426.875	843.21
427.251	879.6
427.627	900.39
428.003	926.83
428.379	917.11
428.756	918.46
429.132	925.92
429.507	944
429.883	921.4
430.259	964.11
430.635	959.82
431.011	991.68
431.387	1009.76
431.763	1021.29
432.138	1005.92
432.514	1011.34
432.89	1033.04
433.265	1059.25
433.641	1059.7
434.016	1064.9
434.392	1091.57
434.767	1105.8
435.143	1107.39
435.518	1112.81
435.894	1131.57
436.269	1132.92
436.644	1173.15
437.02	1183.54
437.395	1174.95
437.77	1175.18
438.145	1211.79
438.52	1213.15
438.895	1221.06
439.271	1218.12
439.646	1279.81
440.021	1249.08
440.395	1299.47
440.77	1263.31
441.145	1253.6
441.52	1297.44
441.895	1285.69
442.27	1319.36
442.645	1266.93
443.019	1275.29
443.394	1283.43
443.769	1321.39
444.143	1326.36
444.518	1343.76
444.892	1340.15
445.267	1345.35
445.641	1357.1
446.016	1359.13
446.39	1347.38
446.764	1339.24
447.139	1348.74
447.513	1387.83
447.887	1393.93
448.262	1370.66
448.636	1373.37
449.01	1418.34
449.384	1409.53
449.758	1414.27
450.132	1419.24
450.506	1409.75
450.88	1435.06
451.254	1435.29
451.628	1402.97
452.002	1454.04
452.376	1470.09
452.75	1451.78
453.123	1478.9
453.497	1504.89
453.871	1471.67
454.244	1505.79
454.618	1503.76
454.992	1494.27
455.365	1520.71
455.739	1551.67
456.112	1534.72
456.486	1567.49
456.859	1559.13
457.232	1576.75
457.606	1605.23
457.979	1625.34
458.352	1631.89
458.725	1651.55
459.099	1684.77
459.472	1669.18
459.845	1660.82
460.218	1663.53
460.591	1685.68
460.964	1667.15
461.337	1720.03
461.71	1745.79
462.083	1745.34
462.456	1736.97
462.829	1779.91
463.201	1784.2
463.574	1793.7
463.947	1810.42
464.32	1803.41
464.692	1835.05
465.065	1840.02
465.438	1863.3
465.81	1896.97
466.183	1869.4
466.555	1909.4
466.928	1917.76
467.3	1898.78
467.672	1881.15
468.045	1964.31
468.417	1990.75
468.789	1983.75
469.161	2008.83
469.534	2018.32
469.906	2029.17
470.278	2047.25
470.65	2044.76
471.022	2091.32
471.394	2153.01
471.766	2118.43
472.138	2138.77
472.51	2159.56
472.882	2182.61
473.253	2213.35
473.625	2209.28
473.997	2255.6
474.369	2244.76
474.74	2313.46
475.112	2285.89
475.484	2365.88
475.855	2361.59
476.227	2368.6
476.598	2409.05
476.97	2416.5
477.341	2489.5
477.713	2446.33
478.084	2471.87
478.455	2548.48
478.827	2551.42
479.198	2611.98
479.569	2581.02
479.94	2654.69
480.311	2699.43
480.682	2691.53
481.053	2753.67
481.424	2747.79
481.795	2781.69
482.166	2795.03
482.537	2872.31
482.908	2868.7
483.279	2899.66
483.65	2954.8
484.021	2975.81
484.391	2970.61
484.762	2997.51
485.133	3043.61
485.503	3037.28
485.874	3115.92
486.244	3112.76
486.615	3152.53
486.985	3137.62
487.356	3235.92
487.726	3202.47
488.097	3252.41
488.467	3292.19
488.837	3263.26
489.207	3358.4
489.578	3402.69
489.948	3401.56
490.318	3435.46
490.688	3468.91
491.058	3491.05
491.428	3470.26
491.798	3510.94
492.168	3601.11
492.538	3581.67
492.908	3585.97
493.278	3634.1
493.648	3623.93
494.017	3685.17
494.387	3706.41
494.757	3720.42
495.126	3691.05
495.496	3726.98
495.866	3755
496.235	3793.64
496.605	3809.69
496.974	3831.83
497.344	3893.75
497.713	3863.02
498.082	3888.1
498.452	3930.81
498.821	3913.19
499.19	3913.41
499.559	3966.29
499.928	3942.34
500.298	3968.78
500.667	4023.47
501.036	4001.55
501.405	4029.12
501.774	4069.12
502.143	4059.62
502.512	4044.94
502.88	4098.49
503.249	4075.67
503.618	4092.62
503.987	4108.44
504.356	4154.31
504.724	4175.55
505.093	4161.54
505.462	4159.96
505.83	4234.31
506.199	4271.6
506.567	4257.81
506.936	4289.45
507.304	4256.91
507.672	4301.88
508.041	4297.81
508.409	4326.28
508.777	4336.68
509.145	4341.88
509.514	4315.44
509.882	4341.88
510.25	4332.16
510.618	4369.45
510.986	4399.73
511.354	4427.52
511.722	4417.13
512.09	4488.77
512.458	4446.73
512.826	4497.13
513.193	4490.8
513.561	4495.32
513.929	4486.51
514.297	4558.14
514.664	4532.83
515.032	4537.13
515.4	4579.84
515.767	4602.44
516.135	4605.15
516.502	4548.2
516.869	4587.29
517.237	4622.32
517.604	4659.61
517.972	4625.49
518.339	4611.47
518.706	4649.89
519.073	4656.9
519.44	4704.35
519.808	4717.23
520.175	4728.31
520.542	4736.22
520.909	4750.45
521.276	4752.49
521.643	4792.71
522.009	4803.11
522.376	4839.04
522.743	4817.35
523.11	4846.27
523.477	4933.5
523.843	4933.05
524.21	4957.23
524.577	4965.59
524.943	4958.13
525.31	5007.62
525.676	5052.59
526.043	5104.57
526.409	5032.03
526.776	5082.42
527.142	5115.42
527.508	5161.06
527.874	5179.37
528.241	5172.59
528.607	5199.48
528.973	5264.11
529.339	5252.36
529.705	5267.95
530.071	5327.84
530.437	5303.89
530.803	5355.86
531.169	5415.52
531.535	5364.22
531.901	5451.45
532.267	5466.59
532.632	5444.67
532.998	5490.55
533.364	5520.38
533.73	5538.46
534.095	5559.47
534.461	5541.85
534.826	5574.39
535.192	5650.77
535.557	5664.1
535.923	5651.45
536.288	5627.49
536.653	5694.61
537.019	5712.46
537.384	5744.1
537.749	5801.05
538.114	5759.24
538.479	5782.29
538.845	5837.66
539.21	5790.43
539.575	5847.15
539.94	5888.28
540.305	5885.79
540.67	5905.68
541.034	5928.5
541.399	5985.22
541.764	5981.83
542.129	6003.53
542.494	6012.12
542.858	6055.05
543.223	6029.97
543.587	6130.08
543.952	6149.06
544.316	6124.66
544.681	6159.46
545.045	6129.85
545.41	6247.82
545.774	6248.49
546.138	6264.76
546.503	6260.24
546.867	6283.07
547.231	6347.25
547.595	6310.87
547.959	6407.81
548.324	6426.79
548.688	6436.51
549.052	6425.44
549.416	6476.51
549.779	6493.01
550.143	6515.83
550.507	6515.61
550.871	6580.46
551.235	6542.27
551.599	6608.94
551.962	6610.29
552.326	6638.54
552.689	6666.34
553.053	6596.96
553.417	6652.1
553.78	6733.68
554.143	6684.64
554.507	6730.74
554.87	6695.94
555.234	6799.89
555.597	6771.19
555.96	6830.4
556.323	6863.84
556.686	6851.64
557.05	6851.19
557.413	6904.52
557.776	6909.95
558.139	6914.47
558.502	6930.96
558.865	6978.42
559.228	6996.95
559.59	7034.46
559.953	7019.32
560.316	7091.64
560.679	7064.97
561.041	7100.9
561.404	7161.24
561.767	7183.38
562.129	7168.02
562.492	7249.37
562.854	7225.19
563.217	7223.16
563.579	7234.68
563.941	7307
564.304	7332.76
564.666	7410.27
565.028	7404.4
565.39	7447.78
565.753	7473.55
566.115	7471.29
566.477	7451.63
566.839	7509.03
567.201	7493.66
567.563	7550.38
567.925	7596.71
568.287	7597.61
568.648	7626.08
569.01	7691.62
569.372	7679.19
569.734	7656.59
570.095	7791.96
570.457	7797.61
570.819	7802.8
571.18	7817.49
571.542	7885.06
571.903	7902.91
572.265	8014.78
572.626	8055.9
572.987	8121.89
573.349	8092.06
573.71	8125.73
574.071	8127.09
574.432	8210.93
574.794	8343.35
575.155	8324.82
575.516	8393.07
575.877	8485.95
576.238	8534.31
576.599	8627.19
576.96	8666.28
577.32	8729.33
577.681	8829.67
578.042	8929.78
578.403	8941.98
578.763	9122.09
579.124	9174.52
579.485	9267.17
579.845	9387.39
580.206	9490.44
580.566	9630.33
580.927	9744.45
581.287	9836.42
581.648	9915.29
582.008	10185.11
582.368	10307.82
582.728	10436.41
583.089	10592.33
583.449	10775.15
583.809	10898.77
584.169	11230.06
584.529	11321.58
584.889	11567.45
585.249	11712.31
585.609	11893.77
585.969	12206.08
586.329	12365.85
586.688	12572.17
587.048	12748.21
587.408	12944.81
587.768	13221.19
588.127	13546.61
588.487	13763.32
588.846	14090.77
589.206	14175.07
589.565	14485.57
589.925	14797.65
590.284	15074.7
590.643	15366.22
591.003	15632.43
591.362	15945.19
591.721	16242.58
592.08	16532.29
592.44	16806.63
592.799	17125.95
593.158	17388.31
593.517	17656.78
593.876	18048.64
594.235	18295.86
594.593	18591.9
594.952	18870.08
595.311	19188.04
595.67	19425.32
596.029	19923.61
596.387	20226.66
596.746	20537.16
597.104	20772.41
597.463	21053.3
597.822	21382.33
598.18	21683.57
598.538	21907.29
598.897	22354.06
599.255	22452.59
599.613	23065.45
599.972	23168.95
600.33	23533.24
600.688	23646.45
601.046	24032.66
601.404	24406.43
601.762	24644.39
602.12	25007.55
602.478	25152.18
602.836	25556.91
603.194	25593.75
603.552	26036.67
603.91	26225.14
604.268	26617.45
604.625	26760.27
604.983	27033.26
605.341	27192.8
605.698	27604.99
606.056	27851.32
606.413	28063.06
606.771	28277.52
607.128	28491.07
607.485	28761.35
607.843	28903.04
608.2	29441.33
608.557	29590.7
608.914	29706.18
609.272	30061.88
609.629	30331.7
609.986	30572.15
610.343	30529.66
610.7	30948.64
611.057	31133.49
611.414	31245.58
611.771	31429.75
612.127	31807.82
612.484	31960.59
612.841	32125.55
613.198	32290.97
613.554	32394.47
613.911	32713.11
614.267	32744.97
614.624	33116.71
614.98	33239.42
615.337	33542.47
615.693	33551.05
616.05	33631.73
616.406	34066.29
616.762	34042.34
617.118	34129.57
617.475	34281.2
617.831	34594.64
618.187	34669.67
618.543	34790.34
618.899	35052.48
619.255	35189.43
619.611	35085.7
619.967	35327.73
620.323	35594.39
620.678	35418.35
621.034	35465.13
621.39	35865.12
621.746	35711.9
622.101	36319.12
622.457	36039.12
622.812	36260.36
623.168	36382.84
623.523	36500.13
623.879	36614.93
624.234	36379
624.589	36683.63
624.945	36795.94
625.3	36926.56
625.655	36911.87
626.01	36947.57
626.365	37221.69
626.72	37097.17
627.075	37139.21
627.43	37269.15
627.785	37155.93
628.14	37395.47
628.495	37436.6
628.85	37470.5
629.205	37412.65
629.559	37621.23
629.914	37527.22
630.269	37644.96
630.623	37509.59
630.978	37616.48
631.332	37684.73
631.687	37839.08
632.041	37754.11
632.396	37884.5
632.75	37778.51
633.104	37818.29
633.459	37719.98
633.813	37584.17
634.167	37868.68
634.521	37943.25
634.875	38005.17
635.229	37934.67
635.583	37751.17
635.937	37767.44
636.291	37766.76
636.645	37957.26
636.999	37801.34
637.352	37884.72
637.706	37782.58
638.06	37845.18
638.413	37849.7
638.767	37681.34
639.121	37852.41
639.474	37736.71
639.828	37820.55
640.181	37926.08
640.534	37810.38
640.888	37725.86
641.241	37571.29
641.594	37639.08
641.947	37905.51
642.301	37795.01
642.654	37705.29
643.007	37804.5
643.36	37756.59
643.713	37720.43
644.066	37912.75
644.419	37691.06
644.771	37417.17
645.124	37014.46
645.477	37115.03
645.83	36846.79
646.182	36718.2
646.535	36695.38
646.888	36749.16
647.24	36586
647.593	36791.65
647.945	36754.58
648.298	36581.93
648.65	36558.66
649.002	36581.48
649.355	36568.37
649.707	36553.23
650.059	36819.22
650.411	37216.27
650.763	37120.9
651.115	37555.02
651.467	37425.53
651.819	37504.17
652.171	37447.9
652.523	37344.85
652.875	37375.36
653.227	37289.49
653.578	37384.17
653.93	37393.44
654.282	37229.37
654.633	37150.96
654.985	37204.52
655.337	37232.76
655.688	37269.83
656.039	37382.82
656.391	37246.1
656.742	37188.02
657.094	37188.02
657.445	37258.07
657.796	37230.05
658.147	37247
658.498	37232.76
658.849	37243.61
659.2	37084.07
659.551	36994.58
659.902	37153.22
660.253	37070.28
660.604	37198.41
660.955	36972.21
661.306	37169.94
661.656	37039.32
662.007	37174.01
662.358	37100.79
662.708	37116.61
663.059	37091.98
663.409	36908.7
663.76	37150.73
664.11	37040
664.461	37093.56
664.811	37128.36
665.161	36963.62
665.511	37027.12
665.862	37022.37
666.212	37122.94
666.562	37225.98
666.912	37036.38
667.262	37013.11
667.612	37101.24
667.962	37098.3
668.312	37086.33
668.662	37236.15
669.011	37062.15
669.361	37136.95
669.711	37008.36
670.06	36976.5
670.41	36962.49
670.76	36886.33
671.109	37058.31
671.459	36940.12
671.808	36790.74
672.157	37020.34
672.507	36712.78
672.856	36786.22
673.205	36881.59
673.554	36966.78
673.904	36691.99
674.253	36999.55
674.602	36752.32
674.951	36410.64
675.3	36197.76
675.649	36700.8
675.998	36713
676.346	36730.86
676.695	36838.65
677.044	36461.71
677.393	36682.27
677.741	36863.73
678.09	36574.7
678.438	36592.78
678.787	36506.46
679.135	36599.79
679.484	36298.78
679.832	36402.96
680.181	36154.83
680.529	36307.59
680.877	36256.52
681.225	36331.54
681.573	36368.83
681.922	36219.91
682.27	36023.53
682.618	36116.64
682.966	35983.08
683.314	36043.19
683.661	36039.57
684.009	35873.48
684.357	35826.25
684.705	35772.46
685.053	35903.31
685.4	35630.32
685.748	35526.59
686.095	35500.38
686.443	35463.54
686.79	35364.56
687.138	35346.03
687.485	35441.17
687.832	35299.48
688.18	35361.4
688.527	35058.36
688.874	35150.11
689.221	35064.91
689.568	34779.5
689.915	34804.13
690.262	34768.2
690.609	34693.62
690.956	34610.23
691.303	34589.9
691.65	34507.19
691.997	34417.47
692.344	34375.44
692.69	34203.24
693.037	34201.66
693.383	34047.76
693.73	34141.09
694.077	33979.52
694.423	33966.18
694.769	33822.46
695.116	33818.84
695.462	33782.91
695.808	33675.8
696.155	33690.71
696.501	33406.2
696.847	33513.54
697.193	33221.12
697.539	33250.27
697.885	33050.05
698.231	32993.78
698.577	33008.24
698.923	32907.23
699.269	32777.51
699.614	32580
699.96	32568.71
700.306	32645.99
700.651	32494.13
700.997	32329.84
701.342	32390.63
701.688	32215.27
702.033	32207.59
702.379	32115.61
702.724	32055.72
703.069	32041.71
703.415	31740.25
703.76	31760.14
704.105	31722.63
704.45	31725.11
704.795	31391.56
705.14	31392.01
705.485	31394.95
705.83	31235.63
706.175	31304.11
706.52	31141.17
706.865	30957.9
707.209	30986.83
707.554	31004.68
707.899	30997
708.243	30768.3
708.588	30697.12
708.932	30588.42
709.277	30569.44
709.621	30519.04
709.966	30437.24
710.31	30401.31
710.654	30127.41
710.998	30266.85
711.342	30197.92
711.687	30205.15
712.031	29936.91
712.375	29868.66
712.719	29933.29
713.063	29952.73
713.407	29889.23
713.75	29763.36
714.094	29716.35
714.438	29692.85
714.782	29743.7
715.125	29498.28
715.469	29522.01
715.812	29405.85
716.156	29264.84
716.499	29349.58
716.843	29307.55
717.186	29153.43
717.53	29243.14
717.873	29232.52
718.216	29207.89
718.559	29011.51
718.902	28942.36
719.246	28935.58
719.589	28833.44
719.932	28768.58
720.275	28725.19
720.617	28644.52
720.96	28682.71
721.303	28702.82
721.646	28710.5
721.989	28488.81
722.331	28605.87
722.674	28512.32
723.016	28587.57
723.359	28410.62
723.701	28381.25
724.044	28209.5
724.386	28040.01
724.729	28188.26
725.071	28109.61
725.413	28131.53
725.755	28117.75
726.097	28011.99
726.439	27854.48
726.782	27883.63
727.124	28023.06
727.465	27795.5
727.807	27770.64
728.149	27714.82
728.491	27688.16
728.833	27861.03
729.175	27680.92
729.516	27581.49
729.858	27546.92
730.199	27599.8
730.541	27530.19
730.882	27616.29
731.224	27499.23
731.565	27294.72
731.906	27396.64
732.248	27316.64
732.589	27219.02
732.93	27194.84
733.271	27210.88
733.612	27163.42
733.953	27184.67
734.294	26970.89
734.635	26959.81
734.976	27041.62
735.317	26793.72
735.658	26951
735.999	26864.45
736.339	26773.38
736.68	26927.95
737.021	26701.06
737.361	26702.87
737.702	26868.52
738.042	26688.18
738.383	26674.62
738.723	26805.69
739.063	26608.41
739.404	26586.26
739.744	26584.91
740.084	26494.74
740.424	26438.25
740.764	26378.81
741.104	26594.85
741.444	26461.3
741.784	26272.15
742.124	26370.9
742.464	26248.42
742.804	26267.63
743.143	26212.26
743.483	26175.43
743.823	26115.77
744.162	26043.91
744.502	26115.99
744.841	26005.04
745.181	26153.51
745.52	25982.66
745.86	25973.17
746.199	26087.75
746.538	25991.7
746.877	26131.81
747.216	25960.52
747.556	25955.09
747.895	25933.85
748.234	25763.69
748.573	25753.97
748.911	25690.02
749.25	25605.95
749.589	25692.95
749.928	25721.65
750.267	25751.48
750.605	25586.97
750.944	25531.15
751.283	25459.51
751.621	25584.03
751.96	25429.91
752.298	25558.95
752.636	25358.95
752.975	25216.81
753.313	25178.17
753.651	25283.47
753.989	25186.98
754.327	25150.37
754.666	24998.74
755.004	25092.52
755.342	25147.21
755.679	25060.65
756.017	24975.01
756.355	24997.38
756.693	24917.16
757.031	24967.32
757.368	24815.01
757.706	24745.86
758.044	24652.98
758.381	24755.58
758.719	24716.03
759.056	24669.7
759.394	24599.88
759.731	24345.42
760.068	24413.67
760.405	24423.38
760.743	24283.27
761.08	24424.97
761.417	24189.04
761.754	24273.33
762.091	24155.14
762.428	24116.27
762.765	23959.44
763.102	23987.46
763.438	23883.96
763.775	23816.39
764.112	23932.1
764.449	23834.25
764.785	23750.86
765.122	23556.74
765.458	23503.18
765.795	23481.49
766.131	23375.95
766.467	23299.57
766.804	23255.5
767.14	23175.73
767.476	23135.73
767.812	23042.63
768.148	23034.04
768.485	22843.09
768.821	22833.37
769.157	22829.98
769.492	22702.07
769.828	22673.15
770.164	22455.98
770.5	22421.4
770.836	22460.27
771.171	22293.72
771.507	22363.78
771.842	22150.22
772.178	22181.86
772.513	21983.67
772.849	22011.24
773.184	21906.61
773.519	21952.71
773.855	21683.12
774.19	21765.6
774.525	21666.17
774.86	21655.09
775.195	21537.36
775.53	21525.83
775.865	21213.52
776.2	21206.52
776.535	21105.5
776.87	21162.23
777.205	21056.24
777.539	21029.12
777.874	20906.87
778.209	20744.16
778.543	20713.42
778.878	20600.21
779.212	20671.84
779.547	20549.13
779.881	20559.76
780.215	20385.07
780.55	20415.58
780.884	20237.28
781.218	20341
781.552	20243.83
781.886	20073.44
782.22	19943.73
782.554	19877.29
782.888	19713.45
783.222	19772.88
783.556	19689.27
783.889	19537.86
784.223	19491.99
784.557	19397.53
784.89	19485.43
785.224	19285.67
785.557	19194.14
785.891	19134.48
786.224	19174.26
786.558	19067.37
786.891	18978.55
787.224	18800.03
787.557	18837.54
787.891	18711.89
788.224	18794.15
788.557	18733.14
788.89	18577.44
789.223	18513.03
789.556	18491.56
789.888	18424.67
790.221	18263.09
790.554	18196.43
790.887	18256.09
791.219	18168.18
791.552	18004.12
791.884	18012.25
792.217	17964.12
792.549	17963.89
792.882	17817.23
793.214	17704.92
793.546	17796.66
793.879	17634.41
794.211	17595.31
794.543	17503.11
794.875	17475.32
795.207	17553.73
795.539	17344.02
795.871	17392.83
796.203	17213.18
796.535	17106.74
796.867	17104.71
797.198	17090.47
797.53	17082.33
797.862	16982
798.193	17006.4
798.525	16831.94
798.856	16894.99
799.188	16582.23
799.519	16695.68
799.85	16535
800.182	16663.14
800.513	16641.89
800.844	16342.47
801.175	16507.21
801.506	16464.27
801.837	16416.36
802.168	16317.61
802.499	16262.47
802.83	16172.53
803.161	16162.81
803.491	16111.74
803.822	16057.73
804.153	16035.36
804.483	15846.89
804.814	15914.91
805.145	15903.38
805.475	15842.59
805.805	15823.61
806.136	15698.64
806.466	15724.4
806.796	15652.99
807.126	15584.75
807.457	15506.78
807.787	15503.62
808.117	15475.6
808.447	15365.32
808.777	15489.15
809.107	15341.14
809.436	15351.53
809.766	15238.09
810.096	15233.57
810.426	15149.05
810.755	15175.26
811.085	15117.19
811.414	15129.39
811.744	14999.68
812.073	14962.62
812.403	14948.6
812.732	14873.8
813.061	14875.39
813.39	14767.37
813.719	14751.32
814.049	14784.31
814.378	14770.08
814.707	14691.21
815.036	14630.65
815.365	14579.57
815.693	14447.37
816.022	14510.2
816.351	14475.62
816.68	14354.95
817.008	14456.64
817.337	14215.06
817.665	14238.11
817.994	14267.49
818.322	14212.58
818.651	14129.87
818.979	14086.93
819.307	14168.96
819.636	14144.11
819.964	14148.4
820.292	14062.75
820.62	14015.3
820.948	13997.67
821.276	13869.99
821.604	14009.87
821.932	13957.9
822.259	13933.49
822.587	14051.23
822.915	13901.17
823.243	13965.81
823.57	13871.12
823.898	13896.2
824.225	13888.52
824.553	13894.39
824.88	13986.14
825.207	14012.36
825.535	13953.15
825.862	13982.98
826.189	13926.03
826.516	13979.36
826.843	13952.7
827.17	14006.26
827.497	13935.75
827.824	13962.42
828.151	13953.15
828.478	13925.13
828.805	13966.03
829.131	13889.65
829.458	13885.36
829.785	13926.03
830.111	13918.35
830.438	13958.57
830.764	13816.2
831.09	13839.03
831.417	13825.92
831.743	13878.12
832.069	13876.54
832.395	13834.96
832.722	13908.18
833.048	13754.06
833.374	13788.41
833.7	13738.24
834.026	13792.48
834.351	13821.63
834.677	13749.31
835.003	13773.72
835.329	13665.25
835.654	13638.58
835.98	13527.62
836.306	13662.99
836.631	13590.45
836.956	13661.63
837.282	13634.06
837.607	13586.38
837.932	13524.46
838.258	13552.71
838.583	13528.3
838.908	13490.56
839.233	13449.43
839.558	13430.9
839.883	13353.39
840.208	13390.68
840.533	13308.87
840.858	13376.22
841.182	13337.35
841.507	13245.37
841.832	13317.23
842.156	13189.78
842.481	13302.09
842.805	13274.98
843.13	13131.48
843.454	13061.65
843.778	13049.67
844.103	13041.99
844.427	12983.01
844.751	13041.31
845.075	13003.57
845.399	12912.95
845.723	12839.51
846.047	12901.65
846.371	12723.8
846.695	12678.61
847.019	12613.07
847.343	12575.33
847.666	12482.68
847.99	12502.34
848.313	12414.89
848.637	12367.66
848.96	12373.08
849.284	12352.74
849.607	12220.77
849.931	12245.17
850.254	12146.87
850.577	12113.42
850.9	12076.59
851.223	11990.94
851.546	11913.2
851.869	11872.75
852.192	11874.79
852.515	11825.97
852.838	11744.85
853.161	11711.85
853.483	11742.59
853.806	11653.78
854.129	11630.05
854.451	11588.47
854.774	11538.75
855.096	11526.77
855.419	11496.04
855.741	11451.97
856.063	11411.52
856.385	11355.7
856.708	11298.98
857.03	11356.83
857.352	11257.18
857.674	11229.61
857.996	11235.26
858.318	11214.92
858.64	11139.89
858.961	11111.87
859.283	11066.22
859.605	10978.54
859.926	11049.05
860.248	11018.09
860.57	10994.58
860.891	10934.02
861.212	10955.49
861.534	10907.58
861.855	10783.97
862.176	10843.18
862.498	10828.26
862.819	10866
863.14	10821.26
863.461	10701.71
863.782	10698.55
864.103	10734.03
864.424	10663.52
864.745	10729.28
865.065	10664.87
865.386	10633.46
865.707	10588.27
866.027	10569.06
866.348	10579.45
866.668	10577.19
866.989	10593.92
867.309	10487.93
867.63	10459.91
867.95	10475.28
868.27	10366.8
868.59	10418.78
868.91	10420.81
869.23	10369.06
869.55	10369.52
869.87	10368.16
870.19	10428.27
870.51	10374.26
870.83	10337.88
871.15	10232.34
871.469	10237.99
871.789	10289.29
872.109	10251.33
872.428	10174.27
872.748	10230.54
873.067	10207.49
873.386	10212.23
873.706	10176.53
874.025	10173.14
874.344	10143.53
874.663	10147.6
874.982	10038.68
875.301	10082.29
875.62	10006.36
875.939	10006.59
876.258	10018.56
876.577	10003.2
876.896	10000.26
877.214	9959.81
877.533	9988.51
877.852	9890.21
878.17	9970.88
878.489	9924.33
878.807	9910.77
879.125	9866.25
879.444	9837.78
879.762	9816.54
880.08	9816.08
880.398	9735.18
880.716	9817.21
881.034	9717.1
881.352	9750.55
881.67	9725.24
881.988	9743.54
882.306	9654.96
882.624	9580.84
882.941	9586.03
883.259	9590.55
883.577	9569.76
883.894	9523.66
884.212	9509.65
884.529	9557.33
884.846	9489.99
885.164	9480.05
885.481	9467.17
885.798	9510.33
886.115	9395.98
886.432	9390.56
886.75	9360.73
887.067	9322.99
887.383	9340.16
887.7	9372.03
888.017	9267.85
888.334	9318.02
888.651	9218.81
888.967	9226.04
889.284	9178.13
889.6	9157.34
889.917	9113.5
890.233	9072.83
890.55	9065.14
890.866	9071.7
891.182	9007.52
891.498	9047.97
891.815	8979.72
892.131	8965.26
892.447	8946.73
892.763	8799.16
893.079	8878.71
893.395	8845.49
893.71	8876
894.026	8837.35
894.342	8797.13
894.657	8672.61
894.973	8723.68
895.289	8677.58
895.604	8728.65
895.92	8595.55
896.235	8571.14
896.55	8614.76
896.865	8542.9
897.181	8508.1
897.496	8574.08
897.811	8443.69
898.126	8420.64
898.441	8460.64
898.756	8351.94
899.071	8351.49
899.386	8342.68
899.7	8249.35
900.015	8237.14
900.33	8170.48
900.644	8176.35
900.959	8192.4
901.273	8162.34
901.588	8103.13
901.902	8062.23
902.216	8055.9
902.531	8062.46
902.845	7964.61
903.159	7944.72
903.473	7840.99
903.787	7869.69
904.101	7895
904.415	7869.92
904.729	7806.87
905.042	7813.65
905.356	7689.13
905.67	7775.91
905.984	7723.94
906.297	7687.78
906.611	7608.23
906.924	7622.7
907.237	7620.89
907.551	7556.03
907.864	7565.3
908.177	7535.92
908.491	7448.24
908.804	7465.41
909.117	7387.9
909.43	7369.59
909.743	7319.43
910.056	7351.52
910.368	7320.33
910.681	7306.77
910.994	7189.71
911.307	7144.97
911.619	7103.84
911.932	7180.22
912.244	7076.27
912.557	7059.77
912.869	7032.2
913.181	7059.09
913.494	6940.23
913.806	6954.24
914.118	6923.5
914.43	6904.75
914.742	6828.14
915.054	6790.17
915.366	6837.4
915.678	6760.8
915.99	6743.4
916.302	6756.28
916.613	6710.63
916.925	6740.68
917.236	6705.66
917.548	6673.12
917.859	6629.73
918.171	6598.99
918.482	6538.88
918.794	6487.36
919.105	6505.44
919.416	6443.29
919.727	6437.87
920.038	6435.83
920.349	6338.89
920.66	6346.57
920.971	6297.08
921.282	6340.24
921.593	6265.89
921.903	6251.88
922.214	6214.37
922.525	6197.65
922.835	6140.02
923.146	6122.4
923.456	6142.06
923.767	6081.04
924.077	6137.08
924.387	6103.19
924.697	5995.85
925.008	5960.37
925.318	5960.82
925.628	5953.13
925.938	5927.37
926.248	5828.17
926.558	5876.98
926.867	5855.96
927.177	5801.27
927.487	5776.42
927.796	5700.03
928.106	5729.41
928.416	5737.32
928.725	5699.13
929.034	5686.25
929.344	5679.7
929.653	5641.05
929.962	5592.24
930.271	5556.31
930.581	5498.68
930.89	5547.95
931.199	5462.75
931.508	5454.39
931.817	5498.46
932.125	5445.13
932.434	5420.04
932.743	5356.54
933.051	5338.69
933.36	5324.22
933.669	5233.15
933.977	5270.44
934.286	5260.05
934.594	5267.5
934.902	5236.32
935.21	5172.36
935.519	5211.91
935.827	5211.23
936.135	5155.19
936.443	5107.73
936.751	5080.84
937.059	5082.2
937.367	4993.61
937.674	5061.41
937.982	5001.75
938.29	4957.91
938.597	4991.13
938.905	4936.66
939.213	4900.05
939.52	4911.81
939.827	4904.8
940.135	4870.68
940.442	4841.3
940.749	4834.07
941.056	4807.85
941.363	4758.59
941.67	4804.01
941.977	4754.07
942.284	4669.1
942.591	4631.36
942.898	4682.21
943.205	4666.16
943.511	4648.08
943.818	4599.72
944.125	4607.86
944.431	4578.71
944.738	4542.1
945.044	4541.65
945.35	4453.29
945.657	4468.88
945.963	4490.12
946.269	4441.54
946.575	4452.83
946.881	4402.44
947.187	4401.99
947.493	4341.2
947.799	4341.88
948.105	4327.87
948.41	4291.48
948.716	4327.41
949.022	4261.43
949.327	4300.75
949.633	4247.87
949.938	4245.83
950.244	4169.68
950.549	4170.81
950.854	4157.93
951.16	4147.31
951.465	4122.9
951.77	4118.83
952.075	4077.25
952.38	4055.33
952.685	4052.62
952.99	4053.98
953.294	3976.01
953.599	4011.04
953.904	3995.45
954.209	3972.62
954.513	3981.66
954.818	3929.68
955.122	3910.7
955.426	3919.74
955.731	3896.69
956.035	3861.21
956.339	3858.27
956.643	3822.79
956.948	3829.8
957.252	3791.61
957.556	3810.59
957.86	3747.77
958.163	3784.15
958.467	3773.53
958.771	3720.42
959.075	3746.86
959.378	3687.21
959.682	3707.54
959.985	3670.48
960.289	3632.74
960.592	3591.84
960.896	3633.42
961.199	3600.2
961.502	3551.16
961.805	3549.58
962.108	3566.3
962.411	3526.53
962.714	3504.16
963.017	3500.77
963.32	3533.09
963.623	3445.4
963.926	3499.64
964.228	3467.32
964.531	3417.83
964.833	3365.86
965.136	3397.72
965.438	3372.64
965.741	3345.97
966.043	3340.32
966.345	3340.1
966.648	3317.27
966.95	3318.4
967.252	3275.24
967.554	3305.52
967.856	3225.97
968.158	3218.74
968.46	3227.56
968.761	3220.1
969.063	3210.83
969.365	3182.81
969.666	3178.97
969.968	3143.04
970.269	3135.13
970.571	3139.42
970.872	3114.56
971.174	3075.92
971.475	3125.64
971.776	3085.87
972.077	3079.54
972.378	3098.97
972.679	3028.92
972.98	3036.6
973.281	3013.32
973.582	3015.58
973.883	3020.56
974.183	2989.6
974.484	2969.48
974.785	2932.65
975.085	2958.18
975.386	2921.35
975.686	2894.91
975.986	2919.99
976.287	2900.56
976.587	2865.31
976.887	2886.32
977.187	2862.37
977.487	2799.77
977.787	2788.92
978.087	2813.1
978.387	2801.35
978.687	2792.54
978.987	2807
979.286	2771.3
979.586	2751.86
979.885	2747.57
980.185	2729.04
980.484	2702.82
980.784	2693.33
981.083	2705.31
981.382	2675.71
981.682	2681.13
981.981	2676.16
982.28	2631.87
982.579	2586.22
982.878	2628.93
983.177	2627.8
983.475	2595.26
983.774	2558.2
984.073	2554.81
984.372	2566.78
984.67	2517.29
984.969	2561.81
985.267	2535.82
985.566	2501.7
985.864	2475.03
986.162	2507.8
986.461	2494.47
986.759	2442.49
987.057	2436.62
987.355	2451.31
987.653	2473.23
987.951	2407.01
988.249	2391.19
988.547	2430.74
988.844	2374.92
989.142	2350.97
989.44	2333.12
989.737	2354.58
990.035	2363.17
990.332	2359.78
990.63	2290.63
990.927	2313.91
991.224	2313.23
991.521	2294.25
991.819	2259.45
992.116	2258.99
992.413	2252.44
992.71	2264.19
993.006	2262.38
993.303	2233.01
993.6	2235.04
993.897	2217.87
994.193	2221.71
994.49	2181.71
994.787	2210.86
995.083	2167.92
995.379	2161.14
995.676	2152.56
995.972	2139.45
996.268	2117.76
996.565	2099.68
996.861	2103.74
997.157	2131.09
997.453	2082.95
997.749	2053.12
998.044	2056.29
998.34	2028.49
998.636	2044.54
998.932	2023.97
999.227	2004.09
999.523	2007.25
999.818	2020.58
1000.114	1978.78
1000.409	1973.8
1000.704	1945.1
1001	1937.42
1001.295	1965.67
1001.59	1943.3
1001.885	1890.19
1002.18	1923.86
1002.475	1923.86
1002.77	1896.29
1003.065	1884.09
1003.359	1846.12
1003.654	1883.41
1003.949	1867.82
1004.243	1847.93
1004.538	1853.13
1004.832	1823.3
1005.127	1816.29
1005.421	1826.01
1005.715	1813.13
1006.009	1782.62
1006.304	1774.94
1006.598	1778.33
1006.892	1735.39
1007.186	1750.76
1007.48	1722.96
1007.773	1747.14
1008.067	1699.69
1008.361	1718.44
1008.655	1697.65
1008.948	1686.13
1009.242	1699.01
1009.535	1673.92
1009.829	1635.51
1010.122	1649.29
1010.415	1630.54
1010.708	1642.29
1011.001	1611.55
1011.295	1614.49
1011.588	1626.47
1011.881	1587.15
1012.173	1572.01
1012.466	1547.15
1012.759	1595.28
1013.052	1571.78
1013.344	1562.97
1013.637	1511.44
1013.93	1552.57
1014.222	1539.24
1014.514	1514.38
1014.807	1502.18
1015.099	1523.19
1015.391	1485.91
1015.683	1497.21
1015.976	1447.72
1016.268	1470.54
1016.56	1446.59
1016.851	1463.76
1017.143	1467.83
1017.435	1419.69
1017.727	1420.6
1018.018	1400.94
1018.31	1403.65
1018.602	1405.01
1018.893	1366.36
1019.185	1375.63
1019.476	1353.26
1019.767	1377.44
1020.058	1358.23
1020.35	1347.83
1020.641	1323.43
1020.932	1319.36
1021.223	1313.03
1021.514	1332.01
1021.804	1289.75
1022.095	1272.58
1022.386	1279.36
1022.677	1284.33
1022.967	1296.53
1023.258	1279.58
1023.548	1270.77
1023.839	1234.84
1024.129	1239.36
1024.419	1236.87
1024.709	1225.35
1025	1215.86
1025.29	1196.88
1025.58	1173.6
1025.87	1193.26
1026.16	1171.57
1026.449	1166.14
1026.739	1185.35
1027.029	1147.61
1027.319	1146.48
1027.608	1138.35
1027.898	1127.5
1028.187	1145.8
1028.477	1120.95
1028.766	1125.01
1029.055	1098.57
1029.344	1076.43
1029.634	1131.79
1029.923	1079.14
1030.212	1055.41
1030.501	1057.9
1030.79	1058.8
1031.078	1055.18
1031.367	1078.23
1031.656	1062.64
1031.945	1048.63
1032.233	1027.61
1032.522	1020.38
1032.81	998.91
1033.099	996.2
1033.387	1012.7
1033.675	1002.53
1033.963	982.42
1034.251	984.45
1034.54	984.45
1034.828	983.1
1035.116	955.53
1035.403	970.89
1035.691	947.84
1035.979	944
1036.267	942.19
1036.554	931.12
1036.842	927.5
1037.129	967.5
1037.417	928.41
1037.704	929.54
1037.992	923.89
1038.279	908.07
1038.566	901.52
1038.853	901.52
1039.14	901.52
