Data from hue_26_FLMS001491_00067.txt Node
Date: Tue Feb 07 17:14:21 GMT 2017
User: dcchb
Spectrometer: FLMS00149
Trigger mode: 0
Integration Time (sec): 2.000000E-2
Scans to average: 10
Electric dark correction enabled: true
Nonlinearity correction enabled: false
Boxcar width: 0
XAxis mode: Wavelengths
Number of Pixels in Spectrum: 2048
>>>>>Begin Spectral Data<<<<<
341.393	-20.64
341.776	-20.64
342.16	-20.64
342.543	-65.38
342.927	-69.22
343.31	-49.56
343.693	-75.77
344.077	-75.1
344.46	-51.59
344.843	-59.28
345.226	-52.72
345.61	-35.32
345.993	-12.27
346.376	-3.23
346.759	19.14
347.142	5.13
347.525	32.24
347.908	60.49
348.291	75.63
348.674	94.84
349.057	127.38
349.44	121.51
349.823	134.39
350.206	156.99
350.588	195.63
350.971	211.22
351.354	218.91
351.737	255.52
352.119	243.31
352.502	288.51
352.884	273.37
353.267	289.64
353.65	310.43
354.032	316.98
354.414	303.88
354.797	305.01
355.179	316.31
355.562	342.97
355.944	347.04
356.326	330.77
356.709	345.91
357.091	332.12
357.473	358.11
357.855	353.37
358.238	356.08
358.62	385.91
359.002	356.76
359.384	351.78
359.766	345.91
360.148	348.85
360.53	380.26
360.912	363.54
361.294	352.91
361.676	350.2
362.057	359.24
362.439	332.58
362.821	327.15
363.203	331.9
363.584	343.42
363.966	333.48
364.348	341.84
364.729	326.93
365.111	322.63
365.493	323.76
365.874	332.58
366.256	333.93
366.637	346.36
367.019	343.42
367.4	334.38
367.781	319.92
368.163	323.99
368.544	323.54
368.925	325.57
369.306	323.76
369.688	325.57
370.069	323.99
370.45	349.3
370.831	336.42
371.212	331.9
371.593	321.28
371.974	322.41
372.355	350.88
372.736	335.97
373.117	313.59
373.498	336.87
373.879	339.58
374.26	341.62
374.641	348.62
375.021	335.97
375.402	340.94
375.783	323.31
376.163	347.94
376.544	348.17
376.925	334.16
377.305	338
377.686	334.38
378.066	348.85
378.447	354.27
378.827	333.48
379.208	359.47
379.588	350.2
379.968	361.73
380.349	376.19
380.729	352.24
381.109	351.11
381.489	367.38
381.87	358.56
382.25	379.81
382.63	352.69
383.01	340.03
383.39	373.48
383.77	363.31
384.15	364.44
384.53	366.47
384.91	373.93
385.29	369.86
385.67	357.21
386.049	384.55
386.429	374.61
386.809	396.08
387.189	382.07
387.568	381.84
387.948	384.78
388.328	379.13
388.707	378.45
389.087	385.91
389.466	363.31
389.846	373.7
390.225	386.59
390.605	399.92
390.984	383.2
391.363	378
391.743	397.89
392.122	409.86
392.501	397.43
392.881	410.77
393.26	412.57
393.639	423.2
394.018	411.22
394.397	418
394.776	399.92
395.155	422.74
395.534	408.51
395.913	420.03
396.292	428.17
396.671	395.4
397.05	387.72
397.429	427.49
397.808	420.94
398.186	420.26
398.565	407.15
398.944	432.23
399.323	432.69
399.701	429.07
400.08	446.47
400.458	416.42
400.837	425
401.215	447.83
401.594	437.21
401.972	440.37
402.351	442.63
402.729	436.75
403.107	450.54
403.486	452.8
403.864	453.02
404.242	453.7
404.62	468.39
404.999	454.83
405.377	458.67
405.755	466.81
406.133	462.29
406.511	483.31
406.889	481.95
407.267	465.68
407.645	468.17
408.023	491.22
408.401	481.72
408.779	497.77
409.156	500.03
409.534	490.99
409.912	491.44
410.29	504.1
410.667	510.65
411.045	488.28
411.422	510.65
411.8	506.13
412.178	530.31
412.555	509.07
412.933	536.41
413.31	552.46
413.687	552.46
414.065	562.17
414.442	523.76
414.819	567.15
415.197	544.55
415.574	545.9
415.951	568.5
416.328	560.82
416.705	560.82
417.082	589.74
417.46	580.71
417.837	573.02
418.214	580.48
418.591	589.97
418.967	574.83
419.344	588.16
419.721	600.59
420.098	603.98
420.475	602.17
420.852	593.81
421.228	596.3
421.605	603.53
421.982	623.42
422.358	623.42
422.735	632.68
423.111	617.31
423.488	625.22
423.864	646.47
424.241	638.78
424.617	641.49
424.994	634.26
425.37	658.67
425.746	653.25
426.123	655.51
426.499	670.65
426.875	669.29
427.251	675.39
427.627	692.57
428.003	679.69
428.379	679.69
428.756	698.44
429.132	706.58
429.507	714.71
429.883	715.16
430.259	721.27
430.635	730.53
431.011	722.62
431.387	742.06
431.763	744.09
432.138	772.79
432.514	753.36
432.89	762.62
433.265	774.37
433.641	798.78
434.016	777.54
434.392	821.38
434.767	812.11
435.143	809.4
435.518	804.65
435.894	836.07
436.269	826.35
436.644	828.38
437.02	832.22
437.395	843.3
437.77	866.8
438.145	854.37
438.52	872.67
438.895	885.1
439.271	869.51
439.646	873.8
440.021	928.04
440.395	896.4
440.77	897.76
441.145	904.09
441.52	922.39
441.895	893.92
442.27	944.31
442.645	940.24
443.019	948.61
443.394	939.57
443.769	971.88
444.143	945.67
444.518	949.51
444.892	962.16
445.267	966.68
445.641	959.9
446.016	983.63
446.39	976.85
446.764	1027.47
447.139	998.77
447.513	1012.33
447.887	1037.19
448.262	1008.94
448.636	979.34
449.01	1023.86
449.384	1039.22
449.758	1047.13
450.132	1034.48
450.506	1067.25
450.88	1061.6
451.254	1083.06
451.628	1092.33
452.002	1075.38
452.376	1098.66
452.75	1113.8
453.123	1145.21
453.497	1119.45
453.871	1159.9
454.244	1159.22
454.618	1160.58
454.992	1161.03
455.365	1180.46
455.739	1191.76
456.112	1203.51
456.486	1194.02
456.859	1208.71
457.232	1253.68
457.606	1239.44
457.979	1273.79
458.352	1287.58
458.725	1295.04
459.099	1301.36
459.472	1331.87
459.845	1350.4
460.218	1349.95
460.591	1337.75
460.964	1365.77
461.337	1376.62
461.71	1359.67
462.083	1415.26
462.456	1436.05
462.829	1445.09
463.201	1454.81
463.574	1473.11
463.947	1511.98
464.32	1505.2
464.692	1545.43
465.065	1534.35
465.438	1564.41
465.81	1592.66
466.183	1612.32
466.555	1618.19
466.928	1650.28
467.3	1630.85
467.672	1649.38
468.045	1717.4
468.417	1698.87
468.789	1721.24
469.161	1752.88
469.534	1788.13
469.906	1826.32
470.278	1822.25
470.65	1852.99
471.022	1887.56
471.394	1899.09
471.766	1910.61
472.138	1960.33
472.51	1987.67
472.882	2032.19
473.253	2030.61
473.625	2093.21
473.997	2135.92
474.369	2112.42
474.74	2170.95
475.112	2186.54
475.484	2231.96
475.855	2273.99
476.227	2316.7
476.598	2379.53
476.97	2367.1
477.341	2429.7
477.713	2471.28
478.084	2513.76
478.455	2587.43
478.827	2603.7
479.198	2672.85
479.569	2663.14
479.94	2778.16
480.311	2801.89
480.682	2863.81
481.053	2946.07
481.424	2979.29
481.795	3059.28
482.166	3059.74
482.537	3120.07
482.908	3192.84
483.279	3256.57
483.65	3304.25
484.021	3359.16
484.391	3412.95
484.762	3469.67
485.133	3506.5
485.503	3554.41
485.874	3654.75
486.244	3683
486.615	3778.59
486.985	3843.22
487.356	3903.33
487.726	3943.78
488.097	4007.28
488.467	4094.74
488.837	4153.72
489.207	4173.38
489.578	4285.47
489.948	4305.35
490.318	4381.28
490.688	4386.25
491.058	4472.58
491.428	4600.94
491.798	4596.42
492.168	4705.12
492.538	4786.92
492.908	4783.31
493.278	4879.12
493.648	4863.76
494.017	4991.89
494.387	5011.78
494.757	5066.24
495.126	5096.52
495.496	5161.83
495.866	5146.01
496.235	5256.51
496.605	5323.18
496.974	5355.27
497.344	5419
497.713	5447.7
498.082	5512.55
498.452	5492.89
498.821	5617.18
499.19	5579.67
499.559	5666.45
499.928	5659.67
500.298	5768.37
500.667	5771.08
501.036	5780.12
501.405	5841.36
501.774	5893.33
502.143	5941.02
502.512	5951.41
502.88	6028.47
503.249	5988.02
503.618	6157.28
503.987	6119.09
504.356	6132.88
504.724	6193.44
505.093	6224.17
505.462	6289.48
505.83	6286.32
506.199	6337.62
506.567	6425.52
506.936	6444.73
507.304	6496.03
507.672	6533.32
508.041	6503.94
508.409	6555.69
508.777	6610.83
509.145	6658.74
509.514	6685.4
509.882	6770.82
510.25	6720.43
510.618	6762.24
510.986	6812.63
511.354	6875.45
511.722	6929.92
512.09	6977.37
512.458	6964.27
512.826	6987.54
513.193	7055.56
513.561	7109.35
513.929	7152.74
514.297	7186.41
514.664	7178.27
515.032	7188.44
515.4	7245.39
515.767	7289.23
516.135	7312.96
516.502	7329.23
516.869	7438.83
517.237	7445.16
517.604	7532.16
517.972	7514.08
518.339	7537.36
518.706	7576.91
519.073	7542.78
519.44	7589.56
519.808	7660.07
520.175	7702.33
520.542	7736.22
520.909	7801.76
521.276	7768.09
521.643	7878.37
522.009	7929.66
522.376	7996.1
522.743	8047.63
523.11	8045.59
523.477	8165.59
523.843	8148.42
524.21	8248.75
524.577	8309.32
524.943	8383.66
525.31	8393.38
525.676	8405.36
526.043	8498.24
526.409	8491.68
526.776	8563.55
527.142	8602.64
527.508	8655.97
527.874	8711.79
528.241	8715.41
528.607	8782.07
528.973	8867.04
529.339	8810.09
529.705	8950.2
530.071	9017.32
530.437	9063.19
530.803	9110.2
531.169	9149.97
531.535	9087.83
531.901	9211.66
532.267	9201.95
532.632	9352.23
532.998	9324.43
533.364	9383.41
533.73	9398.1
534.095	9473.58
534.461	9517.42
534.826	9604.42
535.192	9630.64
535.557	9620.02
535.923	9599.45
536.288	9722.16
536.653	9757.64
537.019	9722.16
537.384	9803.06
537.749	9844.42
538.114	9866.79
538.479	9976.84
538.845	9951.98
539.21	10039.44
539.575	9930.97
539.94	10047.12
540.305	10065.43
540.67	10148.59
541.034	10121.7
541.399	10243.73
541.764	10254.12
542.129	10324.86
542.494	10348.58
542.858	10475.13
543.223	10454.34
543.587	10486.21
543.952	10469.48
544.316	10528.92
544.681	10581.35
545.045	10637.39
545.41	10683.72
545.774	10710.38
546.138	10746.54
546.503	10747.22
546.867	10828.35
547.231	10876.71
547.595	10924.39
547.959	10956.03
548.324	10943.37
548.688	10997.15
549.052	11115.8
549.416	11074.89
549.779	11112.86
550.143	11141.78
550.507	11246.87
550.871	11209.35
551.235	11215
551.599	11323.47
551.962	11307.65
552.326	11367.09
552.689	11449.12
553.053	11378.61
553.417	11490.25
553.78	11638.49
554.143	11484.83
554.507	11619.06
554.87	11613.86
555.234	11762.56
555.597	11695.22
555.96	11709.9
556.323	11769.11
556.686	11865.61
557.05	11896.57
557.413	11961.87
557.776	11966.39
558.139	12098.59
558.502	12056.56
558.865	12155.09
559.228	12203.68
559.59	12202.09
559.953	12234.18
560.316	12421.3
560.679	12381.75
561.041	12431.01
561.404	12448.42
561.767	12515.53
562.129	12456.33
562.492	12667.84
562.854	12674.85
563.217	12593.95
563.579	12684.34
563.941	12735.41
564.304	12783.77
564.666	12893.38
565.028	12858.12
565.39	13006.14
565.753	13023.99
566.115	13105.8
566.477	13106.93
566.839	13254.27
567.201	13305.79
567.563	13218.34
567.925	13328.62
568.287	13379.92
568.648	13402.06
569.01	13452.68
569.372	13546.92
569.734	13540.14
570.095	13606.13
570.457	13725.22
570.819	13795.27
571.18	13807.02
571.542	13824.65
571.903	13849.73
572.265	13932.9
572.626	14021.71
572.987	14050.18
573.349	14137.18
573.71	14192.32
574.071	14262.83
574.432	14338.76
574.794	14459.21
575.155	14525.2
575.516	14545.08
575.877	14625.53
576.238	14721.12
576.599	14806.32
576.96	14897.16
577.32	14974.9
577.681	15059.42
578.042	15238.4
578.403	15299.41
578.763	15363.59
579.124	15399.75
579.485	15645.39
579.845	15745.5
580.206	15847.65
580.566	15949.57
580.927	16122.9
581.287	16260.97
581.648	16310.46
582.008	16591.13
582.368	16653.28
582.728	16842.88
583.089	17053.94
583.449	17212.58
583.809	17378.23
584.169	17691.22
584.529	17786.81
584.889	18084.65
585.249	18227.7
585.609	18369.39
585.969	18635.15
586.329	18776.61
586.688	19127.34
587.048	19318.52
587.408	19559.64
587.768	19893.87
588.127	20026.75
588.487	20259.96
588.846	20718.25
589.206	20755.99
589.565	21109.43
589.925	21393.04
590.284	21605.46
590.643	21971.1
591.003	22339.45
591.362	22713
591.721	22927.69
592.08	23228.92
592.44	23586.65
592.799	23844.95
593.158	24264.38
593.517	24474.99
593.876	24889.44
594.235	25163.11
594.593	25399.71
594.952	25799.25
595.311	26111.79
595.67	26568.5
596.029	26926
596.387	27317.63
596.746	27631.97
597.104	27849.14
597.463	28139.3
597.822	28573.87
598.18	28815.89
598.538	29112.38
598.897	29663.1
599.255	29763.67
599.613	30413.14
599.972	30652.46
600.33	30977.87
600.688	31162.05
601.046	31548.25
601.404	31991.86
601.762	32185.07
602.12	32691.05
602.478	33014.88
602.836	33329.9
603.194	33428.43
603.552	33843.33
603.91	34020.05
604.268	34401.06
604.625	34643.76
604.983	35042.17
605.341	35198.78
605.698	35625.89
606.056	35982.03
606.413	36197.17
606.771	36563.71
607.128	36822.24
607.485	36865.17
607.843	37164.38
608.2	37690.69
608.557	38061.08
608.914	37960.29
609.272	38553.94
609.629	38733.37
609.986	39188.96
610.343	39108.96
610.7	39711.65
611.057	39789.17
611.414	39815.61
611.771	40240.91
612.127	40457.85
612.484	40621.01
612.841	40988.68
613.198	41046.76
613.554	41159.3
613.911	41612.39
614.267	41784.82
614.624	41891.48
614.98	42068.2
615.337	42441.53
615.693	42608.75
616.05	42714.29
616.406	43088.74
616.762	42856.88
617.118	43215.74
617.475	43411.22
617.831	43656.63
618.187	43703.86
618.543	43921.03
618.899	44141.82
619.255	44378.42
619.611	44416.16
619.967	44548.36
620.323	44705.87
620.678	44844.4
621.034	44776.83
621.39	44977.05
621.746	45054.79
622.101	45666.3
622.457	45353.99
622.812	45469.92
623.168	45683.47
623.523	45751.72
623.879	45890.25
624.234	45693.87
624.589	45979.06
624.945	46120.3
625.3	46299.73
625.655	46215.66
626.01	46571.59
626.365	46473.06
626.72	46483.23
627.075	46615.2
627.43	46622.88
627.785	46574.52
628.14	46747.17
628.495	46809.55
628.85	46824.46
629.205	46708.53
629.559	47004.34
629.914	46821.98
630.269	46914.18
630.623	46885.02
630.978	46817.46
631.332	46983.33
631.687	47176.32
632.041	47004.12
632.396	47179.93
632.75	46901.52
633.104	47149.42
633.459	47008.86
633.813	47176.54
634.167	47136.32
634.521	47217.44
634.875	47115.53
635.229	47125.02
635.583	47013.16
635.937	47083.21
636.291	47064.68
636.645	46983.33
636.999	47109.2
637.352	47169.08
637.706	47022.87
638.06	47155.53
638.413	47210.67
638.767	47145.13
639.121	47176.32
639.474	46848.87
639.828	47230.1
640.181	46989.2
640.534	47030.78
640.888	46863.78
641.241	46779.72
641.594	46936.1
641.947	47082.76
642.301	46943.33
642.654	46959.82
643.007	46946.27
643.36	46980.61
643.713	46842.54
644.066	47121.85
644.419	46826.04
644.771	46505.83
645.124	46137.7
645.477	46103.12
645.83	45849.57
646.182	45759.86
646.535	45670.59
646.888	45893.19
647.24	45530.03
647.593	45877.37
647.945	45793.3
648.298	45597.83
648.65	45474.89
649.002	45332.07
649.355	45661.55
649.707	45611.39
650.059	45742.23
650.411	46221.09
650.763	46112.39
651.115	46663.11
651.467	46485.94
651.819	46377.47
652.171	46394.87
652.523	46296.79
652.875	46401.87
653.227	46164.59
653.578	46523.23
653.93	46371.82
654.282	46131.82
654.633	46140.64
654.985	46214.76
655.337	46245.95
655.688	46316.23
656.039	46416.56
656.391	46063.35
656.742	46291.14
657.094	46190.58
657.445	46357.81
657.796	46227.41
658.147	46130.02
658.498	46127.08
658.849	46118.49
659.2	46109.23
659.551	46080.98
659.902	46289.79
660.253	45985.16
660.604	46232.16
660.955	45840.53
661.306	46111.03
661.656	45957.59
662.007	46019.96
662.358	46119.39
662.708	45966.18
663.059	46014.09
663.409	45790.36
663.76	46090.92
664.11	46078.49
664.461	46000.08
664.811	45995.78
665.161	46078.27
665.511	45802.34
665.862	45854.77
666.212	45974.77
666.562	45899.51
666.912	45947.42
667.262	45903.13
667.612	45899.51
667.962	45962.56
668.312	45960.3
668.662	46055.89
669.011	45884.37
669.361	45916.01
669.711	45904.49
670.06	45770.93
670.41	45667.66
670.76	45732.74
671.109	45952.85
671.459	45736.35
671.808	45698.61
672.157	45847.09
672.507	45516.92
672.856	45560.77
673.205	45534.55
673.554	45875.56
673.904	45592.18
674.253	45798.27
674.602	45711.5
674.951	44930.73
675.3	44911.52
675.649	45496.59
675.998	45534.55
676.346	45444.38
676.695	45707.88
677.044	45365.29
677.393	45384.72
677.741	45462.46
678.09	45332.97
678.438	45161.91
678.787	45428.34
679.135	45246.42
679.484	45025.64
679.832	45208.91
680.181	44859.77
680.529	45030.38
680.877	44980.89
681.225	44985.41
681.573	45173.43
681.922	44838.52
682.27	44709.94
682.618	44699.32
682.966	44560.34
683.314	44766.21
683.661	44587.01
684.009	44484.41
684.357	44330.97
684.705	44442.15
685.053	44293.68
685.4	44225.43
685.748	44100.46
686.095	44096.62
686.443	43972.56
686.79	43799.91
687.138	44019.56
687.485	43976.63
687.832	43746.12
688.18	43821.6
688.527	43434.72
688.874	43591.78
689.221	43593.36
689.568	43309.3
689.915	43332.12
690.262	43302.97
690.609	43126.93
690.956	43076.31
691.303	43109.3
691.65	42840.16
691.997	42735.75
692.344	42501.86
692.69	42683.33
693.037	42620.73
693.383	42291.47
693.73	42523.33
694.077	42253.28
694.423	42220.06
694.769	42212.6
695.116	41863.01
695.462	41967.41
695.808	41869.79
696.155	41877.02
696.501	41664.82
696.847	41611.72
697.193	41306.41
697.539	41374.66
697.885	41107.1
698.231	41179.86
698.577	41271.84
698.923	40965.18
699.269	40922.24
699.614	40703.94
699.96	40613.78
700.306	40555.93
700.651	40341.02
700.997	40343.28
701.342	40348.02
701.688	40286.55
702.033	40182.15
702.379	40063.06
702.724	39929.73
703.069	40091.3
703.415	39673.91
703.76	39598.21
704.105	39614.71
704.45	39447.71
704.795	39308.73
705.14	39226.69
705.485	39115.74
705.83	38864.22
706.175	38954.39
706.52	38924.78
706.865	38768.4
707.209	38685.92
707.554	38536.77
707.899	38643.89
708.243	38323.67
708.588	38386.26
708.932	38193.5
709.277	38151.69
709.621	38314.4
709.966	37935.2
710.31	38144.01
710.654	37638.49
710.998	37864.47
711.342	37756.68
711.687	37685.27
712.031	37468.32
712.375	37395.56
712.719	37457.02
713.063	37378.83
713.407	37466.51
713.75	37221.1
714.094	37296.12
714.438	36994.44
714.782	37065.85
715.125	36881.67
715.469	37011.39
715.812	36747.89
716.156	36546.54
716.499	36679.64
716.843	36550.83
717.186	36499.99
717.53	36627.21
717.873	36564.17
718.216	36529.14
718.559	36252.08
718.902	36203.05
719.246	36163.5
719.589	36031.07
719.932	35998.76
720.275	35888.03
720.617	35867.69
720.96	35815.26
721.303	35861.81
721.646	35725.32
721.989	35683.51
722.331	35734.58
722.674	35513.35
723.016	35581.37
723.359	35446.68
723.701	35517.64
724.044	35237.19
724.386	35183.86
724.729	35281.04
725.071	35187.03
725.413	35075.62
725.755	35140.25
726.097	34834.04
726.439	34837.66
726.782	34705.68
727.124	34970.08
727.465	34721.05
727.807	34807.15
728.149	34715.85
728.491	34585.01
728.833	34647.38
729.175	34488.29
729.516	34450.55
729.858	34444.22
730.199	34318.8
730.541	34422.75
730.882	34272.25
731.224	34352.02
731.565	34182.99
731.906	34115.64
732.248	34145.47
732.589	33842.88
732.93	33805.59
733.271	33927.17
733.612	33861.86
733.953	33834.52
734.294	33774.86
734.635	33698.25
734.976	33747.06
735.317	33606.28
735.658	33567.41
735.999	33590.68
736.339	33606.73
736.68	33695.31
737.021	33355.44
737.361	33192.73
737.702	33415.77
738.042	33297.13
738.383	33250.58
738.723	33360.41
739.063	33049.46
739.404	33218.04
739.744	33124.26
740.084	32957.71
740.424	33042.9
740.764	32838.61
741.104	33039.74
741.444	32881.55
741.784	32723.81
742.124	32750.48
742.464	32762.01
742.804	32651.5
743.143	32546.87
743.483	32557.49
743.823	32338.74
744.162	32380.77
744.502	32356.59
744.841	32306.65
745.181	32347.1
745.52	32335.12
745.86	32352.75
746.199	32249.93
746.538	32140.33
746.877	32190.04
747.216	32274.79
747.556	32060.33
747.895	32156.82
748.234	31850.17
748.573	31887.45
748.911	31801.81
749.25	31842.03
749.589	31754.35
749.928	31813.33
750.267	31805.87
750.605	31755.93
750.944	31703.5
751.283	31575.82
751.621	31536.73
751.96	31351.87
752.298	31455.15
752.636	31418.76
752.975	31257.41
753.313	31238.2
753.651	31308.71
753.989	31038.44
754.327	31042.95
754.666	30983.75
755.004	30977.42
755.342	30914.82
755.679	30877.31
756.017	30597.54
756.355	30790.08
756.693	30566.58
757.031	30687.03
757.368	30431.67
757.706	30442.74
758.044	30307.38
758.381	30365.91
758.719	30148.97
759.056	30198.23
759.394	30154.39
759.731	29879.14
760.068	29890.89
760.405	29825.36
760.743	29689.32
761.08	29836.88
761.417	29711.24
761.754	29640.05
762.091	29468.76
762.428	29457.91
762.765	29287.29
763.102	29212.27
763.438	29266.96
763.775	29010.01
764.112	29141.76
764.449	29057.02
764.785	28926.85
765.122	28756.46
765.458	28692.28
765.795	28595.79
766.131	28522.8
766.467	28489.12
766.804	28288.23
767.14	28294.1
767.476	28117.38
767.812	28048.68
768.148	28082.13
768.485	27812.98
768.821	27770.05
769.157	27721.46
769.492	27601.01
769.828	27595.14
770.164	27297.74
770.5	27296.84
770.836	27364.63
771.171	27166.67
771.507	27102.72
771.842	26926.68
772.178	26898.43
772.513	26701.15
772.849	26697.76
773.184	26706.12
773.519	26543.64
773.855	26450.76
774.19	26302.97
774.525	26271.1
774.86	26254.15
775.195	26125.57
775.53	26058.68
775.865	25905.24
776.2	25690.55
776.535	25633.83
776.87	25619.37
777.205	25441.75
777.539	25405.82
777.874	25429.09
778.209	25199.04
778.543	25200.85
778.878	24991.36
779.212	25087.86
779.547	24895.09
779.881	24961.53
780.215	24667.76
780.55	24686.29
780.884	24586.85
781.218	24391.6
781.552	24503.01
781.886	24253.53
782.22	24275.22
782.554	24159.75
782.888	23956.14
783.222	23889.24
783.556	23786.42
783.889	23656.93
784.223	23445.19
784.557	23623.26
784.89	23639.08
785.224	23449.48
785.557	23389.37
785.891	23246.32
786.224	23154.57
786.558	23129.94
786.891	22888.82
787.224	22825.32
787.557	22828.71
787.891	22757.07
788.224	22740.8
788.557	22675.27
788.89	22637.07
789.223	22464.88
789.556	22384.43
789.888	22326.57
790.221	22243.19
790.554	22101.72
790.887	22143.75
791.219	22056.98
791.552	21930.2
791.884	21931.78
792.217	21732.69
792.549	21621.06
792.882	21494.51
793.214	21493.83
793.546	21574.05
793.879	21391.68
794.211	21278.69
794.543	21376.54
794.875	21151.46
795.207	21293.83
795.539	21124.12
795.871	21149.66
796.203	20876.22
796.535	20918.7
796.867	20804.81
797.198	20816.33
797.53	20784.92
797.862	20501.99
798.193	20587.86
798.525	20421.31
798.856	20468.09
799.188	20167.76
799.519	20187.87
799.85	19997.82
800.182	20244.37
800.513	20072.62
800.844	19808.45
801.175	19931.61
801.506	20007.76
801.837	19813.42
802.168	19749.92
802.499	19730.03
802.83	19604.39
803.161	19629.47
803.491	19615.01
803.822	19514.44
804.153	19362.81
804.483	19268.58
804.814	19311.74
805.145	19162.59
805.475	19165.08
805.805	19163.27
806.136	19086.66
806.466	19129.82
806.796	19010.5
807.126	18947.68
807.457	18878.98
807.787	18869.26
808.117	18704.3
808.447	18679.44
808.777	18659.78
809.107	18617.97
809.436	18462.95
809.766	18569.38
810.096	18435.6
810.426	18386.34
810.755	18432.89
811.085	18354.93
811.414	18322.84
811.744	18100.7
812.073	18138.66
812.403	18176.4
812.732	17983.86
813.061	18073.58
813.39	17913.81
813.719	17881.27
814.049	17983.86
814.378	17811.89
814.707	17733.47
815.036	17714.72
815.365	17618
815.693	17522.18
816.022	17548.39
816.351	17472.69
816.68	17422.97
817.008	17449.19
817.337	17305.24
817.665	17261.85
817.994	17374.61
818.322	17220.72
818.651	17166.94
818.979	17072.25
819.307	17236.09
819.636	17132.36
819.964	17059.82
820.292	17112.47
820.62	16992.7
820.948	16903.67
821.276	17029.54
821.604	17043.55
821.932	17111.12
822.259	16987.05
822.587	17037.9
822.915	16902.08
823.243	16957.9
823.57	16838.81
823.898	16913.38
824.225	16860.05
824.553	16971.23
824.88	16855.08
825.207	16890.11
825.535	16878.36
825.862	16981.86
826.189	16837.68
826.516	17002.65
826.843	17002.87
827.17	16923.78
827.497	16914.74
827.824	16921.74
828.151	16886.27
828.478	16775.53
828.805	16945.47
829.131	16790.22
829.458	16842.65
829.785	16775.08
830.111	16834.74
830.438	16968.97
830.764	16806.27
831.09	16816.89
831.417	16765.14
831.743	16818.7
832.069	16792.93
832.395	16835.19
832.722	16862.76
833.048	16717.68
833.374	16681.3
833.7	16642.43
834.026	16688.76
834.351	16609.21
834.677	16618.7
835.003	16672.94
835.329	16660.96
835.654	16567.4
835.98	16471.81
836.306	16526.05
836.631	16529.66
836.956	16516.33
837.282	16651.69
837.607	16437.01
837.932	16494.18
838.258	16404.02
838.583	16341.87
838.908	16296.45
839.233	16429.55
839.558	16250.58
839.883	16235.89
840.208	16207.41
840.533	16260.29
840.858	16213.74
841.182	16171.03
841.507	16161.31
841.832	16091.26
842.156	16022.33
842.481	16037.93
842.805	15987.31
843.13	15889.91
843.454	15994.09
843.778	15865.27
844.103	15853.52
844.427	15744.37
844.751	15814.88
845.075	15762.9
845.399	15670.25
845.723	15642
846.047	15615.34
846.371	15449.47
846.695	15506.64
847.019	15315.91
847.343	15341.45
847.666	15155.69
847.99	15127.44
848.313	15131.73
848.637	15046.54
848.96	15030.27
849.284	15042.02
849.607	14827.34
849.931	14785.3
850.254	14808.35
850.577	14650.62
850.9	14586.44
851.223	14613.33
851.546	14453.79
851.869	14359.33
852.192	14446.1
852.515	14212.66
852.838	14261.25
853.161	14247.69
853.483	14224.19
853.806	14149.16
854.129	13984.65
854.451	13987.58
854.774	13955.72
855.096	13933.35
855.419	13991.65
855.741	13823.75
856.063	13737.2
856.385	13771.32
856.708	13714.15
857.03	13666.24
857.352	13760.25
857.674	13586.69
857.996	13565.45
858.318	13539.46
858.64	13502.4
858.961	13494.72
859.283	13433.02
859.605	13335.62
859.926	13428.05
860.248	13302.4
860.57	13223.54
860.891	13353.48
861.212	13192.58
861.534	13161.17
861.855	13200.71
862.176	13190.99
862.498	13193.48
862.819	13126.59
863.14	13032.58
863.461	13081.62
863.782	12987.61
864.103	13025.8
864.424	12880.95
864.745	12908.29
865.065	12823.77
865.386	12876.88
865.707	12783.32
866.027	12814.06
866.348	12809.08
866.668	12770.89
866.989	12823.1
867.309	12619.94
867.63	12750.55
867.95	12745.13
868.27	12539.03
868.59	12621.74
868.91	12502.43
869.23	12577.23
869.55	12558.24
869.87	12512.37
870.19	12534.74
870.51	12568.19
870.83	12497.23
871.15	12462.2
871.469	12461.3
871.789	12473.27
872.109	12458.58
872.428	12290.45
872.748	12392.37
873.067	12321.41
873.386	12375.88
873.706	12295.65
874.025	12281.87
874.344	12271.7
874.663	12237.57
874.982	12198.03
875.301	12240.74
875.62	12161.64
875.939	12133.62
876.258	12092.27
876.577	12060.63
876.896	12093.85
877.214	12094.75
877.533	12050.91
877.852	12063.79
878.17	12034.87
878.489	12018.6
878.807	11950.58
879.125	11904.48
879.444	11904.02
879.762	11906.28
880.08	11881.65
880.398	11806.4
880.716	11861.54
881.034	11787.19
881.352	11809.79
881.67	11742.45
881.988	11829.67
882.306	11746.97
882.624	11689.34
882.941	11600.08
883.259	11596.91
883.577	11647.53
883.894	11504.94
884.212	11531.83
884.529	11549
884.846	11504.26
885.164	11514.65
885.481	11460.42
885.798	11385.84
886.115	11375
886.432	11397.6
886.75	11347.65
887.067	11285.96
887.383	11293.42
887.7	11257.26
888.017	11156.47
888.334	11232.18
888.651	11143.59
888.967	11208.45
889.284	11165.06
889.6	11087.55
889.917	11060.66
890.233	11015.01
890.55	10935.24
890.866	10996.7
891.182	10992.41
891.498	10820.21
891.815	10852.98
892.131	10806.2
892.447	10803.04
892.763	10824.73
893.079	10701.79
893.395	10629.48
893.71	10662.25
894.026	10623.15
894.342	10638.29
894.657	10541.8
894.973	10490.05
895.289	10476.94
895.604	10438.52
895.92	10377.28
896.235	10346.78
896.55	10375.02
896.865	10319.43
897.181	10310.84
897.496	10288.25
897.811	10260.45
898.126	10181.13
898.441	10212.99
898.756	10137.74
899.071	10067.69
899.386	10089.83
899.7	9967.12
900.015	9918.99
900.33	9924.87
900.644	9900.69
900.959	9890.97
901.273	9825.66
901.588	9837.86
901.902	9713.57
902.216	9681.71
902.531	9703.18
902.845	9643.07
903.159	9653.69
903.473	9628.15
903.787	9528.49
904.101	9492.56
904.415	9539.34
904.729	9516.52
905.042	9393.35
905.356	9426.12
905.67	9368.72
905.984	9317.88
906.297	9223.19
906.611	9167.15
906.924	9288.05
907.237	9178.22
907.551	9180.03
907.864	9039.01
908.177	9114.72
908.491	9086.47
908.804	9011.67
909.117	8954.27
909.43	8899.36
909.743	8885.35
910.056	8914.27
910.368	8828.85
910.681	8755.41
910.994	8763.09
911.307	8688.97
911.619	8644.67
911.932	8651.45
912.244	8630.21
912.557	8578.46
912.869	8490.33
913.181	8490.33
913.494	8502.98
913.806	8451.91
914.118	8434.96
914.43	8339.6
914.742	8288.3
915.054	8306.15
915.366	8272.48
915.678	8299.82
915.99	8157.23
916.302	8088.08
916.613	8152.94
916.925	8104.58
917.236	8079.49
917.548	7948.65
917.859	8016.44
918.171	7985.26
918.482	7881.98
918.794	7972.38
919.105	7867.52
919.416	7804.02
919.727	7823.9
920.038	7720.4
920.349	7683.57
920.66	7717.92
920.971	7640.86
921.282	7671.59
921.593	7509.56
921.903	7521.31
922.214	7527.42
922.525	7505.27
922.835	7483.12
923.146	7430.92
923.456	7421.43
923.767	7366.52
924.077	7347.76
924.387	7324.71
924.697	7219.85
925.008	7200.19
925.318	7185.28
925.628	7192.51
925.938	7115.22
926.248	7120.19
926.558	7105.28
926.867	7059.63
927.177	7000.88
927.487	7001.78
927.796	6899.41
928.106	6933.08
928.416	6908.45
928.725	6881.56
929.034	6829.35
929.344	6822.8
929.653	6781.67
929.962	6756.36
930.271	6731.05
930.581	6686.99
930.89	6678.85
931.199	6621.9
931.508	6618.51
931.817	6568.34
932.125	6559.3
932.434	6571.51
932.743	6461.91
933.051	6456.03
933.36	6410.83
933.669	6397.73
933.977	6357.05
934.286	6318.18
934.594	6331.51
934.902	6305.07
935.21	6300.78
935.519	6228.92
935.827	6168.81
936.135	6204.51
936.443	6123.84
936.751	6115.47
937.059	6121.12
937.367	6051.75
937.674	6069.83
937.982	6007.91
938.29	6001.58
938.597	5947.34
938.905	5941.02
939.213	5932.65
939.52	5892.2
939.827	5884.52
940.135	5883.16
940.442	5827.8
940.749	5771.76
941.056	5782.15
941.363	5746.22
941.67	5727.01
941.977	5673.45
942.284	5636.17
942.591	5640.91
942.898	5591.87
943.205	5646.33
943.511	5524.08
943.818	5526.56
944.125	5543.29
944.431	5505.55
944.738	5520.69
945.044	5460.35
945.35	5466.68
945.657	5395.27
945.963	5409.5
946.269	5338.77
946.575	5367.7
946.881	5285.21
947.187	5307.81
947.493	5283.41
947.799	5264.88
948.105	5195.27
948.41	5176.97
948.716	5163.18
949.022	5115.28
949.327	5172.67
949.633	5105.33
949.938	5083.19
950.244	5087.25
950.549	4990.98
950.854	5025.56
951.16	5005.22
951.465	4941.49
951.77	4986.01
952.075	4958.22
952.38	4907.82
952.685	4872.57
952.99	4849.29
953.294	4852.46
953.599	4797.77
953.904	4782.18
954.209	4757.77
954.513	4745.79
954.818	4742.63
955.122	4698.56
955.426	4713.25
955.731	4706.02
956.035	4631.67
956.339	4622.86
956.643	4610.66
956.948	4576.31
957.252	4569.07
957.556	4549.87
957.86	4513.26
958.163	4576.53
958.467	4506.93
958.771	4473.26
959.075	4435.97
959.378	4404.11
959.682	4452.92
959.985	4418.34
960.289	4391.23
960.592	4369.53
960.896	4365.01
961.199	4333.6
961.502	4314.84
961.805	4282.98
962.108	4303.32
962.411	4246.82
962.714	4188.07
963.017	4240.5
963.32	4223.32
963.623	4175.64
963.926	4189.42
964.228	4115.98
964.531	4140.84
964.833	4092.93
965.136	4099.03
965.438	4065.36
965.741	4002.76
966.043	4055.42
966.345	4013.61
966.648	4023.1
966.95	4016.55
967.252	3951.92
967.554	3948.07
967.856	3929.77
968.158	3898.81
968.46	3913.5
968.761	3896.55
969.063	3849.77
969.365	3852.26
969.666	3868.08
969.968	3841.86
970.269	3830.34
970.571	3781.3
970.872	3820.39
971.174	3748.76
971.475	3764.8
971.776	3729.1
972.077	3699.95
972.378	3650
972.679	3648.65
972.98	3617.91
973.281	3640.74
973.582	3639.83
973.883	3560.97
974.183	3620.4
974.484	3585.15
974.785	3534.75
975.085	3517.58
975.386	3532.49
975.686	3485.49
975.986	3461.99
976.287	3475.77
976.587	3405.94
976.887	3445.71
977.187	3459.05
977.487	3389.22
977.787	3373.85
978.087	3408.2
978.387	3355.55
978.687	3333.85
978.987	3336.56
979.286	3336.11
979.586	3289.79
979.885	3309.67
980.185	3283.91
980.484	3263.8
980.784	3220.86
981.083	3247.53
981.382	3203.69
981.682	3219.28
981.981	3197.59
982.28	3153.07
982.579	3149.45
982.878	3129.79
983.177	3122.79
983.475	3123.24
983.774	3100.19
984.073	3116.46
984.372	3075.78
984.67	3082.79
984.969	3069.68
985.267	3021.77
985.566	3029
985.864	3009.79
986.162	3000.53
986.461	2986.07
986.759	2997.82
987.057	2964.82
987.355	2937.71
987.653	2928.67
987.951	2952.85
988.249	2909.23
988.547	2897.48
988.844	2841.66
989.142	2859.06
989.44	2822.68
989.737	2850.25
990.035	2803.7
990.332	2791.72
990.63	2820.87
990.927	2786.07
991.224	2756.47
991.521	2742.91
991.819	2730.71
992.116	2738.16
992.413	2692.74
992.71	2676.24
993.006	2708.33
993.303	2657.03
993.6	2682.57
993.897	2677.15
994.193	2627.43
994.49	2625.85
994.787	2598.51
995.083	2578.17
995.379	2593.08
995.676	2567.77
995.972	2570.26
996.268	2563.7
996.565	2529.13
996.861	2495.23
997.157	2493.65
997.453	2539.3
997.749	2490.49
998.044	2450.03
998.34	2444.61
998.636	2466.76
998.932	2424.05
999.227	2396.25
999.523	2424.5
999.818	2415.46
1000.114	2397.38
1000.409	2363.48
1000.704	2335.24
1001	2369.13
1001.295	2342.69
1001.59	2331.85
1001.885	2336.59
1002.18	2317.38
1002.475	2295.01
1002.77	2281.68
1003.065	2235.8
1003.359	2252.75
1003.654	2220.21
1003.949	2198.74
1004.243	2177.95
1004.538	2206.88
1004.832	2212.3
1005.127	2189.7
1005.421	2179.31
1005.715	2153.32
1006.009	2152.19
1006.304	2161
1006.598	2112.87
1006.892	2122.59
1007.186	2074.45
1007.48	2055.92
1007.773	2056.15
1008.067	2040.55
1008.361	2059.76
1008.655	2037.16
1008.948	2026.54
1009.242	2025.19
1009.535	1991.74
1009.829	1957.84
1010.122	2005.07
1010.415	1984.28
1010.708	1964.62
1011.001	1937.51
1011.295	1931.4
1011.588	1912.42
1011.881	1934.57
1012.173	1900.9
1012.466	1858.64
1012.759	1880.56
1013.052	1855.7
1013.344	1866.1
1013.637	1841.69
1013.93	1818.41
1014.222	1789.94
1014.514	1817.06
1014.807	1779.32
1015.099	1780.45
1015.391	1794.46
1015.683	1761.69
1015.976	1750.84
1016.268	1744.74
1016.56	1710.17
1016.851	1702.94
1017.143	1729.83
1017.435	1718.3
1017.727	1728.02
1018.018	1667.23
1018.31	1674.01
1018.602	1669.04
1018.893	1659.77
1019.185	1669.94
1019.476	1610.06
1019.767	1618.87
1020.058	1612.77
1020.35	1607.57
1020.641	1580.9
1020.932	1575.48
1021.223	1537.52
1021.514	1532.77
1021.804	1515.14
1022.095	1527.35
1022.386	1509.49
1022.677	1516.05
1022.967	1509.72
1023.258	1515.6
1023.548	1474.92
1023.839	1443.73
1024.129	1451.64
1024.419	1466.56
1024.709	1437.41
1025	1434.47
1025.29	1397.41
1025.58	1418.42
1025.87	1397.41
1026.16	1386.56
1026.449	1390.63
1026.739	1402.38
1027.029	1382.27
1027.319	1373
1027.608	1354.24
1027.898	1360.8
1028.187	1311.53
1028.477	1327.35
1028.766	1331.87
1029.055	1301.36
1029.344	1290.06
1029.634	1311.99
1029.923	1284.64
1030.212	1261.14
1030.501	1252.33
1030.79	1248.26
1031.078	1240.8
1031.367	1245.32
1031.656	1238.99
1031.945	1212.33
1032.233	1215.04
1032.522	1215.94
1032.81	1193.57
1033.099	1176.17
1033.387	1173.68
1033.675	1149.05
1033.963	1167.36
1034.251	1170.07
1034.54	1156.28
1034.828	1150.63
1035.116	1132.78
1035.403	1131.2
1035.691	1101.37
1035.979	1125.1
1036.267	1114.25
1036.554	1113.8
1036.842	1055.04
1037.129	1083.29
1037.417	1088.49
1037.704	1057.53
1037.992	1103.63
1038.279	1050.07
1038.566	1034.25
1038.853	1034.25
1039.14	1034.25
