Data from hue_140_FLMS001491_00061.txt Node
Date: Tue Feb 07 16:56:14 GMT 2017
User: dcchb
Spectrometer: FLMS00149
Trigger mode: 0
Integration Time (sec): 2.000000E-2
Scans to average: 10
Electric dark correction enabled: true
Nonlinearity correction enabled: false
Boxcar width: 0
XAxis mode: Wavelengths
Number of Pixels in Spectrum: 2048
>>>>>Begin Spectral Data<<<<<
341.393	-8.15
341.776	-8.15
342.16	-8.15
342.543	-59.67
342.927	-53.12
343.31	-75.94
343.693	-73.23
344.077	-60.8
344.46	-68.49
344.843	-46.11
345.226	-33.69
345.61	-52.22
345.993	-15.15
346.376	-12.67
346.759	22.58
347.142	30.95
347.525	58.29
347.908	52.41
348.291	74.11
348.674	107.33
349.057	92.64
349.44	133.32
349.823	148
350.206	143.26
350.588	187.33
350.971	207.89
351.354	226.65
351.737	221.67
352.119	252.63
352.502	248.11
352.884	270.49
353.267	296.02
353.65	289.7
354.032	282.46
354.414	303.03
354.797	300.77
355.179	298.06
355.562	320.43
355.944	321.33
356.326	324.5
356.709	322.92
357.091	324.27
357.473	328.11
357.855	333.54
358.238	320.88
358.62	336.7
359.002	312.07
359.384	343.25
359.766	332.86
360.148	323.59
360.53	329.02
360.912	332.41
361.294	312.75
361.676	330.82
362.057	310.49
362.439	326.53
362.821	324.27
363.203	325.63
363.584	327.43
363.966	331.95
364.348	299.41
364.729	302.12
365.111	302.58
365.493	322.01
365.874	318.17
366.256	308
366.637	330.6
367.019	313.2
367.4	313.88
367.781	317.49
368.163	325.18
368.544	303.48
368.925	294.44
369.306	324.5
369.688	291.96
370.069	320.88
370.45	310.26
370.831	303.93
371.212	307.55
371.593	308.45
371.974	305.51
372.355	313.2
372.736	307.77
373.117	296.93
373.498	293.76
373.879	290.15
374.26	313.88
374.641	313.65
375.021	307.77
375.402	318.62
375.783	328.11
376.163	336.7
376.544	315.23
376.925	308.23
377.305	303.71
377.686	339.19
378.066	317.94
378.447	328.79
378.827	330.15
379.208	359.98
379.588	349.58
379.968	317.72
380.349	336.02
380.729	315.23
381.109	323.82
381.489	335.34
381.87	316.81
382.25	318.62
382.63	330.6
383.01	334.44
383.39	357.49
383.77	343.71
384.15	358.39
384.53	326.76
384.91	318.85
385.29	357.49
385.67	372.86
386.049	345.74
386.429	355.91
386.809	342.8
387.189	345.74
387.568	342.58
387.948	348.45
388.328	367.21
388.707	357.04
389.087	352.07
389.466	360.88
389.846	369.92
390.225	363.59
390.605	352.74
390.984	366.76
391.363	350.26
391.743	387.77
392.122	364.27
392.501	362.91
392.881	368.79
393.26	365.17
393.639	355.68
394.018	349.81
394.397	385.74
394.776	374.89
395.155	360.43
395.534	373.76
395.913	353.65
396.292	373.08
396.671	366.3
397.05	384.16
397.429	389.13
397.808	370.15
398.186	397.94
398.565	406.08
398.944	401.33
399.323	374.21
399.701	417.83
400.08	394.33
400.458	376.25
400.837	394.1
401.215	415.79
401.594	390.03
401.972	392.74
402.351	411.73
402.729	416.92
403.107	385.74
403.486	386.64
403.864	408.34
404.242	405.4
404.62	418.51
404.999	400.65
405.377	413.76
405.755	415.57
406.133	431.39
406.511	408.34
406.889	430.93
407.267	423.48
407.645	434.1
408.023	423.03
408.401	446.75
408.779	446.75
409.156	450.37
409.534	441.78
409.912	429.13
410.29	435.68
410.667	460.99
411.045	456.25
411.422	462.12
411.8	463.48
412.178	460.09
412.555	469.8
412.933	453.08
413.31	476.36
413.687	480.2
414.065	477.94
414.442	483.14
414.819	479.52
415.197	484.49
415.574	482.01
415.951	489.46
416.328	476.58
416.705	491.5
417.082	502.12
417.46	509.58
417.837	490.37
418.214	514.32
418.591	502.8
418.967	511.84
419.344	508
419.721	524.94
420.098	519.97
420.475	533.53
420.852	524.72
421.228	535.11
421.605	503.48
421.982	526.07
422.358	539.18
422.735	526.07
423.111	533.98
423.488	545.73
423.864	537.15
424.241	553.64
424.617	568.78
424.994	568.11
425.37	571.72
425.746	564.94
426.123	557.94
426.499	559.07
426.875	566.75
427.251	571.5
427.627	600.65
428.003	610.59
428.379	596.13
428.756	623.92
429.132	617.6
429.507	599.52
429.883	628.9
430.259	595.68
430.635	644.94
431.011	612.85
431.387	659.18
431.763	657.37
432.138	659.63
432.514	636.58
432.89	640.42
433.265	671.38
433.641	646.75
434.016	699.4
434.392	707.54
434.767	694.66
435.143	701.89
435.518	715.45
435.894	699.18
436.269	716.35
436.644	722
437.02	710.25
437.395	738.27
437.77	739.63
438.145	729.01
438.52	756.35
438.895	745.95
439.271	762.68
439.646	752.73
440.021	749.57
440.395	778.5
440.77	742.57
441.145	757.71
441.52	777.82
441.895	765.84
442.27	813.75
442.645	803.13
443.019	793.64
443.394	794.77
443.769	835.9
444.143	836.57
444.518	816.69
444.892	820.98
445.267	846.74
445.641	825.95
446.016	850.58
446.39	851.71
446.764	876.8
447.139	860.53
447.513	874.77
447.887	868.21
448.262	883.13
448.636	870.02
449.01	881.09
449.384	904.37
449.758	900.53
450.132	896.01
450.506	915.67
450.88	930.13
451.254	930.81
451.628	916.12
452.002	925.39
452.376	950.92
452.75	955.21
453.123	950.92
453.497	969.68
453.871	979.17
454.244	971.03
454.618	1002.45
454.992	1004.93
455.365	1016.46
455.739	1069.79
456.112	1056.23
456.486	1043.57
456.859	1076.34
457.232	1084.93
457.606	1088.32
457.979	1118.37
458.352	1112.72
458.725	1108.21
459.099	1149.56
459.472	1157.92
459.845	1191.37
460.218	1168.54
460.591	1197.02
460.964	1183.91
461.337	1226.39
461.71	1267.07
462.083	1257.35
462.456	1260.29
462.829	1288.77
463.201	1304.36
463.574	1299.61
463.947	1322.89
464.32	1346.17
464.692	1345.04
465.065	1381.42
465.438	1423.45
465.81	1430.91
466.183	1436.33
466.555	1445.6
466.928	1480.17
467.3	1467.07
467.672	1536.67
468.045	1553.39
468.417	1560.62
468.789	1572.15
469.161	1615.99
469.534	1631.13
469.906	1674.52
470.278	1685.59
470.65	1689.43
471.022	1760.84
471.394	1823.67
471.766	1791.13
472.138	1851.91
472.51	1909.31
472.882	1944.12
473.253	1992.48
473.625	2010.33
473.997	2055.98
474.369	2084.22
474.74	2137.33
475.112	2180.27
475.484	2241.28
475.855	2273.6
476.227	2326.25
476.598	2384.56
476.97	2429.07
477.341	2509.98
477.713	2568.51
478.084	2603.08
478.455	2692.34
478.827	2738.9
479.198	2850.98
479.569	2890.08
479.94	2983.86
480.311	3061.37
480.682	3152.67
481.053	3230.41
481.424	3287.58
481.795	3380.01
482.166	3467.24
482.537	3574.13
482.908	3664.07
483.279	3725.09
483.65	3867.23
484.021	3971.18
484.391	4078.52
484.762	4135.92
485.133	4223.6
485.503	4360.78
485.874	4489.81
486.244	4582.46
486.615	4680.31
486.985	4823.36
487.356	4944.71
487.726	5069.01
488.097	5243.24
488.467	5302.67
488.837	5487.3
489.207	5617.69
489.578	5719.38
489.948	5838.93
490.318	6012.48
490.688	6092.03
491.058	6235.53
491.428	6341.74
491.798	6468.74
492.168	6662.64
492.538	6717.1
492.908	6904.89
493.278	7042.29
493.648	7070.76
494.017	7309.62
494.387	7437.53
494.757	7495.83
495.126	7624.19
495.496	7689.5
495.866	7842.94
496.235	7987.12
496.605	8111.86
496.974	8227.34
497.344	8386.88
497.713	8407.9
498.082	8505.52
498.452	8667.1
498.821	8782.81
499.19	8875.01
499.559	8990.71
499.928	9119.52
500.298	9213.3
500.667	9290.82
501.036	9359.29
501.405	9542.33
501.774	9545.27
502.143	9664.14
502.512	9761.76
502.88	9813.29
503.249	9945.94
503.618	9953.85
503.987	10080.62
504.356	10128.53
504.724	10233.62
505.093	10246.72
505.462	10286.04
505.83	10405.14
506.199	10499.37
506.567	10640.16
506.936	10614.62
507.304	10761.06
507.672	10772.58
508.041	10887.84
508.409	10967.61
508.777	11101.16
509.145	11074.27
509.514	11067.72
509.882	11207.83
510.25	11246.02
510.618	11336.41
510.986	11309.52
511.354	11455.73
511.722	11540.02
512.09	11583.18
512.458	11560.36
512.826	11638.55
513.193	11781.6
513.561	11774.37
513.929	11725.1
514.297	11898.88
514.664	11958.32
515.032	11944.76
515.4	12001.03
515.767	12070.63
516.135	12113.34
516.502	12059.33
516.869	12240.12
517.237	12252.09
517.604	12143.62
517.972	12328.25
518.339	12305.2
518.706	12352.43
519.073	12374.8
519.44	12378.42
519.808	12507.91
520.175	12393.56
520.542	12505.19
520.909	12462.48
521.276	12556.49
521.643	12605.53
522.009	12653.89
522.376	12744.28
522.743	12646.43
523.11	12754.45
523.477	12804.62
523.843	12774.11
524.21	12935.69
524.577	12904.05
524.943	12972.75
525.31	12981.79
525.676	13070.6
526.043	13070.83
526.409	13019.98
526.776	13161.67
527.142	13182.01
527.508	13172.07
527.874	13204.61
528.241	13189.47
528.607	13206.64
528.973	13261.78
529.339	13199.86
529.705	13237.6
530.071	13244.61
530.437	13335.91
530.803	13254.55
531.169	13297.94
531.535	13179.07
531.901	13256.81
532.267	13222.69
532.632	13246.64
532.998	13195.8
533.364	13311.73
533.73	13260.88
534.095	13383.14
534.461	13226.53
534.826	13325.06
535.192	13239.86
535.557	13330.93
535.923	13196.02
536.288	13239.64
536.653	13167.32
537.019	13101.79
537.384	13081.22
537.749	13127.1
538.114	13064.95
538.479	13036.03
538.845	12975.24
539.21	12936.59
539.575	12960.55
539.94	12967.78
540.305	13040.32
540.67	12935.01
541.034	12912.64
541.399	12891.4
541.764	12756.94
542.129	12742.48
542.494	12776.37
542.858	12728.69
543.223	12710.16
543.587	12692.99
543.952	12637.62
544.316	12566.66
544.681	12554.68
545.045	12685.08
545.41	12600.11
545.774	12560.11
546.138	12473.56
546.503	12430.85
546.867	12484.63
547.231	12559.66
547.595	12463.84
547.959	12488.92
548.324	12319.89
548.688	12314.92
549.052	12294.35
549.416	12276.95
549.779	12275.37
550.143	12212.32
550.507	12294.58
550.871	12207.35
551.235	12167.58
551.599	12206.9
551.962	12171.19
552.326	12095.71
552.689	12163.73
553.053	12082.83
553.417	12004.19
553.78	12188.14
554.143	12006.45
554.507	12039.67
554.87	12023.17
555.234	12094.81
555.597	11928.26
555.96	11969.61
556.323	11964.19
556.686	11926.68
557.05	11956.96
557.413	11941.37
557.776	11920.35
558.139	11954.7
558.502	11877.19
558.865	11895.94
559.228	11890.29
559.59	11917.41
559.953	11855.49
560.316	11932.33
560.679	11882.39
561.041	11998.54
561.404	11918.09
561.767	11945.89
562.129	11928.71
562.492	12004.42
562.854	11930.07
563.217	11975.49
563.579	11899.56
563.941	11910.41
564.304	12011.42
564.666	12041.93
565.028	12093.23
565.39	12085.32
565.753	12074.24
566.115	12093.23
566.477	12048.93
566.839	12106.33
567.201	12091.65
567.563	12070.63
567.925	12142.27
568.287	12165.09
568.648	12205.09
569.01	12195.15
569.372	12211.87
569.734	12125.99
570.095	12192.43
570.457	12268.14
570.819	12241.47
571.18	12234.47
571.542	12227.91
571.903	12361.02
572.265	12384.52
572.626	12373.9
572.987	12279.66
573.349	12318.98
573.71	12389.04
574.071	12329.61
574.432	12384.97
574.794	12463.39
575.155	12368.7
575.516	12324.63
575.877	12415.7
576.238	12350.62
576.599	12443.73
576.96	12444.86
577.32	12398.53
577.681	12438.53
578.042	12462.94
578.403	12448.7
578.763	12453.22
579.124	12523.05
579.485	12515.81
579.845	12453.67
580.206	12462.94
580.566	12463.39
580.927	12480.56
581.287	12441.24
581.648	12440.11
582.008	12485.31
582.368	12440.34
582.728	12459.55
583.089	12403.5
583.449	12425.65
583.809	12428.36
584.169	12468.36
584.529	12353.79
584.889	12492.09
585.249	12360.79
585.609	12364.18
585.969	12439.88
586.329	12398.76
586.688	12385.42
587.048	12375.71
587.408	12356.5
587.768	12271.75
588.127	12284.86
588.487	12298.87
588.846	12417.06
589.206	12271.75
589.565	12308.59
589.925	12296.84
590.284	12294.8
590.643	12269.04
591.003	12254.13
591.362	12347.91
591.721	12319.21
592.08	12261.13
592.44	12262.26
592.799	12222.49
593.158	12232.43
593.517	12299.78
593.876	12320.79
594.235	12271.3
594.593	12247.8
594.952	12304.3
595.311	12262.04
595.67	12270.62
596.029	12344.97
596.387	12290.06
596.746	12269.72
597.104	12191.3
597.463	12204.64
597.822	12280.34
598.18	12217.52
598.538	12214.58
598.897	12217.74
599.255	12143.62
599.613	12357.63
599.972	12257.97
600.33	12221.81
600.688	12146.56
601.046	12222.26
601.404	12284.41
601.762	12239.44
602.12	12267.69
602.478	12220.23
602.836	12248.48
603.194	12213.22
603.552	12201.47
603.91	12168.71
604.268	12254.58
604.625	12116.28
604.983	12281.24
605.341	12155.15
605.698	12268.36
606.056	12274.47
606.413	12222.94
606.771	12270.62
607.128	12300.91
607.485	12250.29
607.843	12263.62
608.2	12344.52
608.557	12393.33
608.914	12255.48
609.272	12389.94
609.629	12338.87
609.986	12400.79
610.343	12315.59
610.7	12414.12
611.057	12384.97
611.414	12290.06
611.771	12356.95
612.127	12376.38
612.484	12424.74
612.841	12364.41
613.198	12387
613.554	12426.1
613.911	12487.79
614.267	12443.05
614.624	12356.72
614.98	12350.62
615.337	12529.6
615.693	12436.5
616.05	12541.35
616.406	12511.97
616.762	12568.69
617.118	12461.35
617.475	12499.77
617.831	12561.24
618.187	12503.84
618.543	12578.41
618.899	12661.35
619.255	12640.33
619.611	12546.77
619.967	12641.01
620.323	12641.46
620.678	12668.81
621.034	12664.29
621.39	12599.43
621.746	12581.35
622.101	12747.22
622.457	12592.42
622.812	12643.04
623.168	12624.51
623.523	12615.47
623.879	12713.78
624.234	12633.78
624.589	12618.19
624.945	12653.66
625.3	12698.41
625.655	12599.65
626.01	12659.54
626.365	12656.38
626.72	12598.75
627.075	12562.82
627.43	12636.04
627.785	12587.68
628.14	12554.46
628.495	12534.8
628.85	12549.03
629.205	12552.88
629.559	12626.77
629.914	12572.99
630.269	12507.91
630.623	12514.23
630.978	12540.9
631.332	12566.89
631.687	12515.14
632.041	12458.19
632.396	12484.18
632.75	12548.81
633.104	12454.35
633.459	12452.99
633.813	12388.36
634.167	12420
634.521	12443.5
634.875	12384.74
635.229	12403.28
635.583	12280.57
635.937	12408.93
636.291	12332.32
636.645	12330.74
636.999	12259.32
637.352	12308.59
637.706	12168.25
638.06	12305.43
638.413	12237.4
638.767	12154.24
639.121	12242.6
639.474	12168.71
639.828	12168.25
640.181	12143.85
640.534	12183.85
640.888	12061.36
641.241	12113.11
641.594	12158.76
641.947	12195.82
642.301	12165.99
642.654	12112.21
643.007	12145.66
643.36	12121.02
643.713	12148.14
644.066	12252.77
644.419	12117.63
644.771	12016.85
645.124	11883.74
645.477	11871.54
645.83	11838.32
646.182	11765.33
646.535	11708.6
646.888	11745.21
647.24	11663.41
647.593	11711.32
647.945	11717.87
648.298	11688.04
648.65	11637.42
649.002	11601.94
649.355	11728.27
649.707	11679.45
650.059	11739.79
650.411	11827.47
650.763	11837.87
651.115	11994.47
651.467	11976.85
651.819	11898.43
652.171	11956.06
652.523	11832.67
652.875	11931.65
653.227	11845.78
653.578	11953.12
653.93	11913.34
654.282	11918.09
654.633	11936.85
654.985	11909.5
655.337	11921.03
655.688	11889.62
656.039	11952.44
656.391	11841.71
656.742	11871.54
657.094	11858.66
657.445	11888.49
657.796	11909.28
658.147	11865.21
658.498	11884.19
658.849	11961.48
659.2	11918.99
659.551	11965.32
659.902	11968.94
660.253	11966.22
660.604	11934.81
660.955	11971.65
661.306	11975.49
661.656	11984.53
662.007	11959.9
662.358	11943.63
662.708	11961.48
663.059	11975.04
663.409	11908.6
663.76	12052.55
664.11	11954.7
664.461	11919.22
664.811	11947.92
665.161	11906.34
665.511	11982.72
665.862	11902.72
666.212	11911.31
666.562	11901.37
666.912	11826.57
667.262	11850.3
667.612	11896.85
667.962	11891.88
668.312	11850.75
668.662	11992.44
669.011	11933.46
669.361	11914.7
669.711	11913.8
670.06	11866.57
670.41	11891.65
670.76	11843.06
671.109	11879.22
671.459	11904.08
671.808	11860.92
672.157	11876.51
672.507	11753.58
672.856	11847.36
673.205	11852.56
673.554	11852.78
673.904	11804.42
674.253	11908.83
674.602	11851.2
674.951	11746.12
675.3	11644.88
675.649	11818.66
675.998	11803.52
676.346	11788.38
676.695	11828.38
677.044	11730.07
677.393	11740.24
677.741	11745.67
678.09	11737.08
678.438	11674.93
678.787	11674.71
679.135	11666.35
679.484	11580.47
679.832	11593.35
680.181	11527.37
680.529	11623.18
680.877	11590.19
681.225	11530.3
681.573	11617.76
681.922	11519.46
682.27	11523.98
682.618	11541.83
682.966	11473.13
683.314	11503.41
683.661	11480.81
684.009	11380.25
684.357	11374.38
684.705	11319.24
685.053	11423.19
685.4	11310.87
685.748	11272.23
686.095	11309.74
686.443	11236.3
686.79	11301.16
687.138	11252.57
687.485	11159.01
687.832	11207.15
688.18	11168.73
688.527	11088.51
688.874	11073.37
689.221	11010.77
689.568	10992.01
689.915	10997.21
690.262	11032.92
690.609	10918.34
690.956	10877.21
691.303	10749.99
691.65	10812.13
691.997	10800.83
692.344	10771.45
692.69	10704.79
693.037	10707.27
693.383	10683.09
693.73	10683.55
694.077	10597.22
694.423	10579.59
694.769	10537.34
695.116	10498.69
695.462	10477.9
695.808	10426.6
696.155	10448.07
696.501	10399.26
696.847	10323.56
697.193	10235.42
697.539	10286.95
697.885	10219.83
698.231	10225.25
698.577	10134.63
698.923	10075.65
699.269	10122.66
699.614	10022.32
699.96	10089.89
700.306	9999.95
700.651	10021.87
700.997	9927.63
701.342	9903.91
701.688	9843.57
702.033	9784.14
702.379	9856.22
702.724	9756.11
703.069	9856.9
703.415	9702.78
703.76	9660.75
704.105	9661.2
704.45	9611.03
704.795	9628.43
705.14	9534.42
705.485	9538.94
705.83	9486.06
706.175	9490.36
706.52	9468.21
706.865	9460.53
707.209	9480.19
707.554	9329.68
707.899	9430.02
708.243	9289.69
708.588	9321.77
708.932	9255.56
709.277	9180.54
709.621	9214.43
709.966	9174.66
710.31	9243.81
710.654	9153.64
710.998	9069.8
711.342	9091.27
711.687	9075.45
712.031	8999.07
712.375	8964.95
712.719	9018.73
713.063	8975.34
713.407	8964.72
713.75	8961.78
714.094	8948.23
714.438	8887.66
714.782	8889.02
715.125	8914.78
715.469	8892.63
715.812	8844.73
716.156	8744.84
716.499	8783.48
716.843	8787.78
717.186	8708.68
717.53	8784.84
717.873	8847.66
718.216	8823.48
718.559	8696.71
718.902	8722.69
719.246	8634.34
719.589	8698.74
719.932	8676.59
720.275	8688.34
720.617	8607.44
720.96	8660.32
721.303	8650.61
721.646	8674.11
721.989	8592.98
722.331	8603.6
722.674	8552.53
723.016	8620.78
723.359	8526.32
723.701	8639.31
724.044	8501.68
724.386	8477.96
724.729	8562.92
725.071	8486.54
725.413	8517.5
725.755	8534
726.097	8536.71
726.439	8470.95
726.782	8508.01
727.124	8505.75
727.465	8474.34
727.807	8448.8
728.149	8454.45
728.491	8449.03
728.833	8395.47
729.175	8404.51
729.516	8362.25
729.858	8425.98
730.199	8439.54
730.541	8372.42
730.882	8407.45
731.224	8395.7
731.565	8428.01
731.906	8431.85
732.248	8382.14
732.589	8313.21
732.93	8369.71
733.271	8388.01
733.612	8302.14
733.953	8417.84
734.294	8380.1
734.635	8315.93
734.976	8325.87
735.317	8349.14
735.658	8345.76
735.999	8337.85
736.339	8376.26
736.68	8424.4
737.021	8358.18
737.361	8322.7
737.702	8396.83
738.042	8381.01
738.383	8348.69
738.723	8422.36
739.063	8376.71
739.404	8423.27
739.744	8414.68
740.084	8357.73
740.424	8400.89
740.764	8449.48
741.104	8443.83
741.444	8369.26
741.784	8424.85
742.124	8465.98
742.464	8489.48
742.804	8491.29
743.143	8530.38
743.483	8521.12
743.823	8482.93
744.162	8544.39
744.502	8574.22
744.841	8574
745.181	8663.71
745.52	8668.91
745.86	8714.56
746.199	8763.82
746.538	8764.28
746.877	8861.67
747.216	8899.64
747.556	8921.33
747.895	8930.15
748.234	8938.06
748.573	9051.27
748.911	9086.3
749.25	9144.38
749.589	9186.19
749.928	9251.27
750.267	9256.24
750.605	9349.12
750.944	9428.89
751.283	9531.71
751.621	9625.5
751.96	9611.71
752.298	9716.57
752.636	9857.81
752.975	9899.16
753.313	9954.98
753.651	10086.73
753.989	10196.33
754.327	10237.23
754.666	10281.07
755.004	10489.88
755.342	10586.6
755.679	10614.85
756.017	10822.07
756.355	10897.1
756.693	10931
757.031	11069.75
757.368	11236.3
757.706	11436.3
758.044	11420.48
758.381	11690.98
758.719	11846.23
759.056	11979.11
759.394	12131.42
759.731	12217.97
760.068	12363.05
760.405	12516.72
760.743	12603.27
761.08	12959.87
761.417	13010.49
761.754	13182.24
762.091	13290.48
762.428	13483.25
762.765	13575.22
763.102	13738.16
763.438	13873.07
763.775	14035.78
764.112	14233.51
764.449	14393.28
764.785	14494.75
765.122	14551.02
765.458	14711.92
765.795	14930.67
766.131	15043.21
766.467	15135.41
766.804	15248.17
767.14	15362.52
767.476	15628.73
767.812	15605.23
768.148	15851.09
768.485	15908.95
768.821	15917.08
769.157	16126.57
769.492	16289.5
769.828	16344.87
770.164	16450.85
770.5	16556.61
770.836	16709.83
771.171	16729.49
771.507	16816.27
771.842	16856.94
772.178	16977.84
772.513	17121.12
772.849	17188.69
773.184	17197.95
773.519	17295.8
773.855	17382.13
774.19	17333.54
774.525	17572.63
774.86	17597.04
775.195	17652.86
775.53	17635.68
775.865	17629.35
776.2	17605.85
776.535	17669.8
776.87	17736.02
777.205	17798.16
777.539	17746.64
777.874	17944.37
778.209	17842.91
778.543	17885.84
778.878	17893.98
779.212	17928.33
779.547	17900.31
779.881	18020.98
780.215	17964.26
780.55	18126.97
780.884	17926.52
781.218	18042
781.552	18098.49
781.886	18014.2
782.22	18089.23
782.554	18078.83
782.888	17926.07
783.222	17979.4
783.556	17999.96
783.889	17947.76
784.223	17869.35
784.557	17974.88
784.89	17877.03
785.224	17865.28
785.557	17802
785.891	17849.01
786.224	17787.31
786.558	17811.04
786.891	17679.97
787.224	17718.39
787.557	17784.15
787.891	17735.34
788.224	17739.63
788.557	17730.14
788.89	17713.42
789.223	17727.88
789.556	17557.72
789.888	17616.02
790.221	17574.67
790.554	17515.46
790.887	17402.24
791.219	17457.61
791.552	17378.74
791.884	17349.81
792.217	17344.39
792.549	17286.31
792.882	17241.34
793.214	17274.11
793.546	17299.19
793.879	17114.11
794.211	17124.06
794.543	17118.41
794.875	17015.81
795.207	17159.99
795.539	17024.17
795.871	17012.19
796.203	16947.11
796.535	16920.67
796.867	16846.77
797.198	16808.36
797.53	16806.32
797.862	16648.36
798.193	16767.45
798.525	16596.16
798.856	16746.44
799.188	16411.31
799.519	16516.39
799.85	16388.93
800.182	16502.6
800.513	16521.36
800.844	16319.78
801.175	16402.04
801.506	16402.72
801.837	16289.73
802.168	16283.63
802.499	16212.21
802.83	16112.33
803.161	16175.83
803.491	16144.65
803.822	16139.22
804.153	16089.05
804.483	15952.11
804.814	15902.84
805.145	15910.08
805.475	15867.37
805.805	15793.92
806.136	15862.17
806.466	15875.27
806.796	15765.67
807.126	15670.99
807.457	15691.32
807.787	15684.09
808.117	15575.17
808.447	15519.8
808.777	15667.6
809.107	15472.35
809.436	15488.84
809.766	15362.07
810.096	15343.99
810.426	15370.66
810.755	15340.37
811.085	15325.01
811.414	15300.37
811.744	15129.53
812.073	15127.72
812.403	15214.95
812.732	15048.86
813.061	15141.73
813.39	15057.67
813.719	15023.09
814.049	15091.34
814.378	15016.99
814.707	14905.36
815.036	14947.16
815.365	14990.33
815.693	14783.1
816.022	14808.41
816.351	14727.96
816.68	14705.36
817.008	14738.58
817.337	14695.19
817.665	14671.01
817.994	14655.87
818.322	14590.34
818.651	14563.44
818.979	14555.31
819.307	14585.14
819.636	14507.18
819.964	14443.67
820.292	14544.24
820.62	14564.57
820.948	14537
821.276	14458.59
821.604	14460.62
821.932	14446.39
822.259	14446.61
822.587	14444.8
822.915	14376.78
823.243	14419.49
823.57	14394.86
823.898	14360.29
824.225	14394.86
824.553	14426.05
824.88	14414.97
825.207	14403.67
825.535	14458.81
825.862	14461.98
826.189	14449.1
826.516	14412.94
826.843	14471.7
827.17	14543.33
827.497	14531.36
827.824	14531.13
828.151	14585.14
828.478	14459.94
828.805	14534.29
829.131	14401.19
829.458	14386.27
829.785	14359.38
830.111	14385.6
830.438	14422.21
830.764	14434.63
831.09	14468.08
831.417	14366.39
831.743	14384.69
832.069	14429.44
832.395	14350.12
832.722	14414.3
833.048	14405.48
833.374	14407.97
833.7	14257.92
834.026	14400.74
834.351	14379.49
834.677	14260.4
835.003	14279.16
835.329	14335.65
835.654	14334.52
835.98	14215.66
836.306	14265.83
836.631	14286.62
836.956	14304.69
837.282	14255.2
837.607	14171.59
837.932	14079.84
838.258	14169.78
838.583	14200.06
838.908	14031.03
839.233	14089.78
839.558	14060.18
839.883	14008.43
840.208	14004.59
840.533	13867.64
840.858	13970.24
841.182	13894.08
841.507	13848.21
841.832	13836.23
842.156	13837.81
842.481	13720.3
842.805	13789.91
843.13	13800.98
843.454	13728.21
843.778	13668.78
844.103	13599.18
844.427	13658.61
844.751	13620.64
845.075	13665.39
845.399	13532.74
845.723	13396.24
846.047	13476.24
846.371	13317.6
846.695	13326.87
847.019	13251.61
847.343	13131.17
847.666	13254.33
847.99	13124.39
848.313	13095.91
848.637	13004.39
848.96	12972.98
849.284	12896.6
849.607	12879.65
849.931	12882.13
850.254	12714
850.577	12742.48
850.9	12683.49
851.223	12528.7
851.546	12506.32
851.869	12463.16
852.192	12471.3
852.515	12394.01
852.838	12395.37
853.161	12368.25
853.483	12322.83
853.806	12251.64
854.129	12197.18
854.451	12122.83
854.774	12161.7
855.096	12019.78
855.419	11969.84
855.741	11943.63
856.063	11921.48
856.385	11885.32
856.708	11908.37
857.03	11790.41
857.352	11740.69
857.674	11758.09
857.996	11743.18
858.318	11731.2
858.64	11595.39
858.961	11728.27
859.283	11629.51
859.605	11519.46
859.926	11583.86
860.248	11513.36
860.57	11500.47
860.891	11427.48
861.212	11415.96
861.534	11469.29
861.855	11332.57
862.176	11333.25
862.498	11312.91
862.819	11296.64
863.14	11297.99
863.461	11245.79
863.782	11259.8
864.103	11234.49
864.424	11196.53
864.745	11264.1
865.065	11158.34
865.386	11109.3
865.707	11154.95
866.027	11149.07
866.348	11039.7
866.668	11070.43
866.989	11061.16
867.309	10928.96
867.63	11046.93
867.95	10998.11
868.27	10931
868.59	10957.89
868.91	10997.21
869.23	10945.23
869.55	10891.9
869.87	10884.45
870.19	10922.18
870.51	10937.33
870.83	10902.52
871.15	10783.21
871.469	10813.26
871.789	10800.83
872.109	10760.61
872.428	10722.87
872.748	10762.41
873.067	10726.26
873.386	10789.31
873.706	10694.39
874.025	10630.89
874.344	10597.22
874.663	10690.33
874.982	10601.06
875.301	10576.2
875.62	10584.57
875.939	10535.3
876.258	10557.67
876.577	10506.83
876.896	10479.48
877.214	10409.66
877.533	10510.22
877.852	10462.08
878.17	10499.37
878.489	10441.97
878.807	10373.05
879.125	10397.45
879.444	10386.15
879.762	10337.34
880.08	10406.94
880.398	10246.04
880.716	10296.89
881.034	10227.06
881.352	10270
881.67	10274.52
881.988	10244.24
882.306	10110.23
882.624	10183.67
882.941	10100.29
883.259	10088.31
883.577	10072.94
883.894	10082.66
884.212	10088.99
884.529	10108.87
884.846	10048.31
885.164	10041.53
885.481	9970.35
885.798	10015.09
886.115	9863.91
886.432	9897.8
886.75	9857.81
887.067	9869.1
887.383	9807.19
887.7	9848.99
888.017	9792.72
888.334	9759.73
888.651	9723.8
888.967	9678.83
889.284	9693.06
889.6	9562.67
889.917	9585.95
890.233	9564.25
890.55	9559.96
890.866	9541.88
891.182	9525.39
891.498	9439.06
891.815	9356.58
892.131	9484.03
892.447	9432.73
892.763	9354.54
893.079	9376.91
893.395	9251.95
893.71	9206.07
894.026	9236.13
894.342	9239.74
894.657	9219.86
894.973	9150.03
895.289	9123.81
895.604	9134.21
895.92	9055.12
896.235	9011.95
896.55	9016.92
896.865	8964.04
897.181	8923.14
897.496	8944.84
897.811	8887.66
898.126	8902.35
898.441	8810.83
898.756	8804.73
899.071	8795.01
899.386	8766.76
899.7	8684.28
900.015	8665.07
900.33	8588.69
900.644	8573.55
900.959	8551.4
901.273	8526.32
901.588	8494.9
901.902	8448.35
902.216	8449.71
902.531	8383.27
902.845	8411.97
903.159	8346.66
903.473	8385.98
903.787	8285.19
904.101	8263.05
904.415	8246.77
904.729	8149.38
905.042	8087
905.356	8181.24
905.67	8140.11
905.984	8140.11
906.297	8048.36
906.611	7992.77
906.924	7999.55
907.237	7959.1
907.551	7981.24
907.864	7886.11
908.177	7912.55
908.491	7841.14
908.804	7741.25
909.117	7754.13
909.43	7752.55
909.743	7632.55
910.056	7702.83
910.368	7652.67
910.681	7605.44
910.994	7606.57
911.307	7533.8
911.619	7459.9
911.932	7477.08
912.244	7414.03
912.557	7405.67
912.869	7345.56
913.181	7325.44
913.494	7331.32
913.806	7305.1
914.118	7306.69
914.43	7202.73
914.742	7164.09
915.054	7140.14
915.366	7155.05
915.678	7102.4
915.99	7083.42
916.302	7042.51
916.613	6983.08
916.925	6981.72
917.236	6948.96
917.548	6899.69
917.859	6917.32
918.171	6913.7
918.482	6823.76
918.794	6810.43
919.105	6729.75
919.416	6798.9
919.727	6782.18
920.038	6676.42
920.349	6695.18
920.66	6670.77
920.971	6676.19
921.282	6626.93
921.593	6578.8
921.903	6531.57
922.214	6540.15
922.525	6563.66
922.835	6494.96
923.146	6439.14
923.456	6382.19
923.767	6421.96
924.077	6396.2
924.387	6353.04
924.697	6311.01
925.008	6351.91
925.318	6285.02
925.628	6193.04
925.938	6202.76
926.248	6105.14
926.558	6221.52
926.867	6131.8
927.177	6103.55
927.487	6092.71
927.796	6055.65
928.106	6050
928.416	6009.09
928.725	6050
929.034	5989.88
929.344	5989.21
929.653	5911.24
929.962	5859.04
930.271	5869.44
930.581	5873.96
930.89	5785.14
931.199	5815.2
931.508	5760.06
931.817	5755.77
932.125	5766.39
932.434	5706.5
932.743	5697.46
933.051	5658.59
933.36	5636.9
933.669	5628.31
933.977	5553.51
934.286	5569.1
934.594	5590.57
934.902	5529.56
935.21	5486.4
935.519	5499.28
935.827	5461.54
936.135	5438.94
936.443	5382.9
936.751	5406.17
937.059	5376.12
937.367	5324.37
937.674	5280.07
937.982	5269.9
938.29	5262.67
938.597	5254.54
938.905	5212.96
939.213	5208.66
939.52	5163.69
939.827	5124.6
940.135	5145.61
940.442	5132.96
940.749	5143.13
941.056	5133.41
941.363	5043.7
941.67	5075.56
941.977	5019.97
942.284	4961.21
942.591	4984.04
942.898	4949.46
943.205	4944.71
943.511	4887.31
943.818	4879.86
944.125	4855.23
944.431	4815.68
944.738	4847.77
945.044	4816.81
945.35	4801.44
945.657	4707.66
945.963	4753.53
946.269	4698.62
946.575	4727.77
946.881	4709.69
947.187	4668.34
947.493	4593.31
947.799	4626.76
948.105	4673.99
948.41	4565.06
948.716	4556.25
949.022	4556.02
949.327	4583.59
949.633	4487.55
949.938	4526.65
950.244	4481.68
950.549	4436.93
950.854	4469.47
951.16	4392.41
951.465	4425.18
951.77	4398.06
952.075	4367.1
952.38	4350.15
952.685	4350.15
952.99	4257.28
953.294	4302.47
953.599	4265.64
953.904	4207.33
954.209	4223.38
954.513	4212.08
954.818	4129.37
955.122	4203.49
955.426	4183.83
955.731	4111.52
956.035	4137.73
956.339	4101.12
956.643	4044.63
956.948	4074.68
957.252	4030.16
957.556	4049.82
957.86	4050.73
958.163	4015.7
958.467	3978.19
958.771	3989.03
959.075	3945.64
959.378	3921.69
959.682	3931.18
959.985	3900.22
960.289	3860.68
960.592	3888.47
960.896	3869.26
961.199	3822.48
961.502	3798.53
961.805	3790.62
962.108	3766.89
962.411	3733
962.714	3703.17
963.017	3710.62
963.32	3715.59
963.623	3703.17
963.926	3697.52
964.228	3660.68
964.531	3668.14
964.833	3677.18
965.136	3602.38
965.438	3616.39
965.741	3615.26
966.043	3568.25
966.345	3556.5
966.648	3584.75
966.95	3534.81
967.252	3479.44
967.554	3476.28
967.856	3473.11
968.158	3455.26
968.46	3445.77
968.761	3445.77
969.063	3413.23
969.365	3426.11
969.666	3411.2
969.968	3396.28
970.269	3370.74
970.571	3348.6
970.872	3384.98
971.174	3301.82
971.475	3324.64
971.776	3316.06
972.077	3247.13
972.378	3253.69
972.679	3242.61
972.98	3234.93
973.281	3206.91
973.582	3229.28
973.883	3194.25
974.183	3193.57
974.484	3185.21
974.785	3161.26
975.085	3136.4
975.386	3188.38
975.686	3131.2
975.986	3116.97
976.287	3105.67
976.587	3054.59
976.887	3057.31
977.187	3058.66
977.487	3026.35
977.787	3012.11
978.087	3024.54
978.387	2997.2
978.687	2985.67
978.987	2939.57
979.286	2970.98
979.586	2936.41
979.885	2922.62
980.185	2887.37
980.484	2887.59
980.784	2881.49
981.083	2855.73
981.382	2829.74
981.682	2863.41
981.981	2831.1
982.28	2847.14
982.579	2785.9
982.878	2809.4
983.177	2775.28
983.475	2814.83
983.774	2730.31
984.073	2723.76
984.372	2733.47
984.67	2725.11
984.969	2682.18
985.267	2693.93
985.566	2707.71
985.864	2640.82
986.162	2653.02
986.461	2655.96
986.759	2639.46
987.057	2630.43
987.355	2617.32
987.653	2591.1
987.951	2587.94
988.249	2563.53
988.547	2562.4
988.844	2542.52
989.142	2525.8
989.44	2518.79
989.737	2542.29
990.035	2479.47
990.332	2490.77
990.63	2446.93
990.927	2488.06
991.224	2454.84
991.521	2472.69
991.819	2443.09
992.116	2427.27
992.413	2424.55
992.71	2379.36
993.006	2391.11
993.303	2413.03
993.6	2363.77
993.897	2324.67
994.193	2375.97
994.49	2353.82
994.787	2313.6
995.083	2322.86
995.379	2317.89
995.676	2324.67
995.972	2264.56
996.268	2251
996.565	2253.71
996.861	2253.94
997.157	2206.48
997.453	2242.64
997.749	2250.55
998.044	2190.21
998.34	2202.64
998.636	2193.37
998.932	2149.31
999.227	2160.38
999.523	2130.1
999.818	2128.07
1000.114	2127.61
1000.409	2132.36
1000.704	2102.53
1001	2092.59
1001.295	2118.12
1001.59	2065.69
1001.885	2076.09
1002.18	2059.82
1002.475	2046.03
1002.77	2027.05
1003.065	1990.44
1003.359	2019.14
1003.654	1995.19
1003.949	1973.49
1004.243	1986.15
1004.538	1946.6
1004.832	1990.22
1005.127	1949.09
1005.421	1945.47
1005.715	1940.5
1006.009	1907.28
1006.304	1893.27
1006.598	1896.21
1006.892	1885.59
1007.186	1878.58
1007.48	1839.71
1007.773	1865.93
1008.067	1842.42
1008.361	1818.92
1008.655	1813.72
1008.948	1791.8
1009.242	1808.07
1009.535	1791.35
1009.829	1803.55
1010.122	1762.88
1010.415	1735.76
1010.708	1735.53
1011.001	1746.61
1011.295	1735.53
1011.588	1713.39
1011.881	1684.69
1012.173	1679.49
1012.466	1708.64
1012.759	1672.48
1013.052	1654.63
1013.344	1683.56
1013.637	1631.36
1013.93	1623.45
1014.222	1639.49
1014.514	1621.19
1014.807	1622.09
1015.099	1594.75
1015.391	1619.38
1015.683	1583.22
1015.976	1573.05
1016.268	1555.65
1016.56	1546.61
1016.851	1551.58
1017.143	1540.51
1017.435	1515.43
1017.727	1493.05
1018.018	1500.06
1018.31	1487.4
1018.602	1495.54
1018.893	1486.73
1019.185	1454.86
1019.476	1463.9
1019.767	1445.6
1020.058	1446.28
1020.35	1424.13
1020.641	1414.86
1020.932	1413.51
1021.223	1398.37
1021.514	1378.03
1021.804	1384.81
1022.095	1366.28
1022.386	1353.62
1022.677	1358.59
1022.967	1317.92
1023.258	1336.22
1023.548	1346.17
1023.839	1305.71
1024.129	1299.61
1024.419	1290.57
1024.709	1276.79
1025	1282.44
1025.29	1287.86
1025.58	1274.98
1025.87	1255.55
1026.16	1269.56
1026.449	1238.37
1026.739	1255.09
1027.029	1223.91
1027.319	1228.65
1027.608	1208.09
1027.898	1190.69
1028.187	1194.76
1028.477	1183.68
1028.766	1214.87
1029.055	1189.11
1029.344	1167.41
1029.634	1188.43
1029.923	1143.68
1030.212	1176.45
1030.501	1162.44
1030.79	1124.93
1031.078	1102.78
1031.367	1104.14
1031.656	1133.97
1031.945	1059.85
1032.233	1080.41
1032.522	1070.47
1032.81	1098.26
1033.099	1072.5
1033.387	1063.46
1033.675	1072.27
1033.963	1061.2
1034.251	1063.23
1034.54	1057.59
1034.828	1026.85
1035.116	1018.94
1035.403	1022.56
1035.691	1024.14
1035.979	1002.22
1036.267	1002.22
1036.554	984.82
1036.842	980.07
1037.129	979.17
1037.417	971.26
1037.704	948.66
1037.992	980.75
1038.279	950.47
1038.566	963.8
1038.853	963.8
1039.14	963.8
