Data from hue_220_FLMS001491_00052.txt Node
Date: Tue Feb 07 16:39:38 GMT 2017
User: dcchb
Spectrometer: FLMS00149
Trigger mode: 0
Integration Time (sec): 2.000000E-2
Scans to average: 10
Electric dark correction enabled: true
Nonlinearity correction enabled: false
Boxcar width: 0
XAxis mode: Wavelengths
Number of Pixels in Spectrum: 2048
>>>>>Begin Spectral Data<<<<<
341.393	-22.47
341.776	-22.47
342.16	-22.47
342.543	-69.48
342.927	-68.35
343.31	-74.22
343.693	-68.8
344.077	-76.03
344.46	-61.34
344.843	-66.99
345.226	-41.23
345.61	-24.96
345.993	-22.92
346.376	7.36
346.759	12.33
347.142	29.28
347.525	39
347.908	65.89
348.291	74.48
348.674	97.53
349.057	110.63
349.44	125.55
349.823	138.2
350.206	158.77
350.588	183.4
350.971	199.67
351.354	224.3
351.737	223.85
352.119	249.16
352.502	253
352.884	278.09
353.267	285.54
353.65	276.05
354.032	264.98
354.414	295.71
354.797	298.88
355.179	313.79
355.562	335.49
355.944	309.95
356.326	310.18
356.709	328.03
357.091	311.53
357.473	336.16
357.855	322.15
358.238	313.11
358.62	340.01
359.002	343.85
359.384	325.32
359.766	337.07
360.148	328.71
360.53	326.9
360.912	315.6
361.294	333
361.676	320.57
362.057	320.8
362.439	321.7
362.821	308.82
363.203	309.72
363.584	311.31
363.966	312.66
364.348	313.79
364.729	322.6
365.111	302.04
365.493	317.41
365.874	303.4
366.256	285.09
366.637	303.85
367.019	297.07
367.4	297.29
367.781	293.23
368.163	320.57
368.544	301.59
368.925	294.36
369.306	305.66
369.688	292.55
370.069	310.85
370.45	297.52
370.831	301.81
371.212	295.49
371.593	278.99
371.974	310.85
372.355	305.66
372.736	309.5
373.117	309.95
373.498	307.92
373.879	300.46
374.26	297.52
374.641	298.42
375.021	308.14
375.402	325.32
375.783	324.41
376.163	322.83
376.544	318.99
376.925	320.12
377.305	325.09
377.686	323.06
378.066	298.2
378.447	306.11
378.827	325.77
379.208	320.12
379.588	319.89
379.968	290.51
380.349	351.98
380.729	325.99
381.109	326.45
381.489	337.07
381.87	330.74
382.25	346.56
382.63	348.14
383.01	339.33
383.39	318.08
383.77	325.54
384.15	327.8
384.53	334.13
384.91	342.49
385.29	365.32
385.67	340.68
386.049	351.98
386.429	330.51
386.809	317.18
387.189	329.84
387.568	340.46
387.948	338.2
388.328	347.46
388.707	344.52
389.087	329.61
389.466	348.14
389.846	351.98
390.225	363.96
390.605	367.12
390.984	357.18
391.363	355.15
391.743	371.42
392.122	355.6
392.501	354.92
392.881	382.04
393.26	366.22
393.639	349.72
394.018	373.9
394.397	393.11
394.776	369.16
395.155	371.42
395.534	386.33
395.913	385.43
396.292	389.27
396.671	386.33
397.05	378.65
397.429	391.3
397.808	378.42
398.186	415.03
398.565	374.58
398.944	383.62
399.323	373.9
399.701	392.89
400.08	397.86
400.458	414.13
400.837	390.17
401.215	400.12
401.594	401.47
401.972	392.89
402.351	410.29
402.729	400.12
403.107	420.68
403.486	407.35
403.864	425.2
404.242	435.6
404.62	421.81
404.999	448.25
405.377	435.14
405.755	441.7
406.133	457.52
406.511	443.05
406.889	432.43
407.267	442.6
407.645	460.91
408.023	484.63
408.401	486.44
408.779	491.64
409.156	478.08
409.534	478.98
409.912	479.89
410.29	509.27
410.667	513.56
411.045	539.1
411.422	522.6
411.8	513.56
412.178	522.6
412.555	553.56
412.933	535.48
413.31	566.21
413.687	566.21
414.065	574.8
414.442	579.55
414.819	566.44
415.197	591.3
415.574	612.77
415.951	598.98
416.328	592.2
416.705	620
417.082	628.13
417.46	631.52
417.837	667.23
418.214	658.87
418.591	670.62
418.967	617.06
419.344	656.61
419.721	692.99
420.098	693.67
420.475	706.55
420.852	704.74
421.228	688.47
421.605	721.92
421.982	742.93
422.358	741.12
422.735	781.58
423.111	773.89
423.488	778.41
423.864	785.19
424.241	828.81
424.617	801.69
424.994	831.52
425.37	846.66
425.746	863.61
426.123	873.32
426.499	862.25
426.875	893.66
427.251	897.96
427.627	928.24
428.003	908.13
428.379	920.78
428.756	956.49
429.132	942.7
429.507	961.46
429.883	975.24
430.259	992.19
430.635	1017.95
431.011	1009.14
431.387	1045.07
431.763	1037.39
432.138	1038.97
432.514	1069.03
432.89	1070.38
433.265	1096.14
433.641	1137.72
434.016	1170.04
434.392	1160.77
434.767	1204.62
435.143	1196.93
435.518	1230.83
435.894	1217.5
436.269	1273.09
436.644	1249.36
437.02	1308.12
437.395	1317.61
437.77	1317.83
438.145	1392.18
438.52	1376.81
438.895	1382.01
439.271	1420.43
439.646	1424.95
440.021	1467.43
440.395	1470.14
440.77	1484.16
441.145	1494.55
441.52	1517.83
441.895	1532.52
442.27	1575.23
442.645	1548.33
443.019	1586.3
443.394	1590.59
443.769	1638.28
444.143	1603.25
444.518	1662.46
444.892	1652.74
445.267	1637.6
445.641	1693.64
446.016	1705.39
446.39	1687.54
446.764	1720.53
447.139	1744.49
447.513	1743.81
447.887	1747.43
448.262	1754.88
448.636	1767.09
449.01	1796.01
449.384	1831.72
449.758	1803.02
450.132	1834.88
450.506	1846.41
450.88	1864.94
451.254	1869.68
451.628	1911.26
452.002	1932.51
452.376	1909.23
452.75	1956.01
453.123	1990.36
453.497	1974.99
453.871	1985.39
454.244	2025.38
454.618	2042.11
454.992	2080.07
455.365	2040.75
455.739	2116.68
456.112	2110.81
456.486	2152.16
456.859	2142.9
457.232	2209.79
457.606	2218.6
457.979	2238.71
458.352	2240.29
458.725	2282.55
459.099	2293.63
459.472	2357.35
459.845	2341.31
460.218	2387.41
460.591	2372.49
460.964	2398.48
461.337	2451.36
461.71	2491.36
462.083	2495.2
462.456	2494.98
462.829	2533.85
463.201	2593.51
463.574	2590.57
463.947	2624.46
464.32	2692.71
464.692	2682.54
465.065	2690
465.438	2718.47
465.81	2792.14
466.183	2780.39
466.555	2833.5
466.928	2875.98
467.3	2839.83
467.672	2909.2
468.045	2973.83
468.417	2970.44
468.789	3024.23
469.161	3059.03
469.534	3053.61
469.906	3130.67
470.278	3156.43
470.65	3158.46
471.022	3198.01
471.394	3293.15
471.766	3275.52
472.138	3329.76
472.51	3413.37
472.882	3438.23
473.253	3444.33
473.625	3492.24
473.997	3604.1
474.369	3574.04
474.74	3629.41
475.112	3664.21
475.484	3682.29
475.855	3780.82
476.227	3799.8
476.598	3909.4
476.97	3927.71
477.341	3969.74
477.713	4026.01
478.084	4031.66
478.455	4161.37
478.827	4180.58
479.198	4302.16
479.569	4248.15
479.94	4376.74
480.311	4442.04
480.682	4477.52
481.053	4613.11
481.424	4685.65
481.795	4709.16
482.166	4758.19
482.537	4819.66
482.908	4843.84
483.279	4905.53
483.65	4981.24
484.021	5056.49
484.391	5121.12
484.762	5138.98
485.133	5166.32
485.503	5212.87
485.874	5276.15
486.244	5339.42
486.615	5472.75
486.985	5512.98
487.356	5564.73
487.726	5616.93
488.097	5684.72
488.467	5667.77
488.837	5795.68
489.207	5865.51
489.578	5921.55
489.948	5995.45
490.318	6011.95
490.688	6049.69
491.058	6154.77
491.428	6226.18
491.798	6257.59
492.168	6308.21
492.538	6336.91
492.908	6450.35
493.278	6491.93
493.648	6465.27
494.017	6525.61
494.387	6566.96
494.757	6617.13
495.126	6680.4
495.496	6729.44
495.866	6708.88
496.235	6766.73
496.605	6833.17
496.974	6837.91
497.344	6880.17
497.713	6908.42
498.082	6972.37
498.452	7003.56
498.821	6985.71
499.19	7039.04
499.559	7074.07
499.928	7120.17
500.298	7166.04
500.667	7161.75
501.036	7175.08
501.405	7200.39
501.774	7172.59
502.143	7263.21
502.512	7280.61
502.88	7322.19
503.249	7310.22
503.618	7379.37
503.987	7358.35
504.356	7467.28
504.724	7435.41
505.093	7430.89
505.462	7423.89
505.83	7441.29
506.199	7503.21
506.567	7559.02
506.936	7504.34
507.304	7594.96
507.672	7589.76
508.041	7608.97
508.409	7604.67
508.777	7688.74
509.145	7670.43
509.514	7779.58
509.882	7719.92
510.25	7732.13
510.618	7724.67
510.986	7724.9
511.354	7771.9
511.722	7815.97
512.09	7854.16
512.458	7801.96
512.826	7892.12
513.193	7890.54
513.561	7873.59
513.929	7920.6
514.297	7926.92
514.664	7871.78
515.032	7941.61
515.4	7992.91
515.767	7997.43
516.135	7993.14
516.502	7921.27
516.869	8033.14
517.237	8030.88
517.604	7978
517.972	8015.06
518.339	7975.06
518.706	8046.47
519.073	7968.96
519.44	8072.91
519.808	8029.97
520.175	8058.9
520.542	8064.55
520.909	8043.76
521.276	8021.61
521.643	8128.73
522.009	8073.81
522.376	8124.66
522.743	8122.63
523.11	8142.74
523.477	8249.18
523.843	8183.64
524.21	8191.32
524.577	8232.23
524.943	8208.5
525.31	8204.21
525.676	8262.51
526.043	8275.84
526.409	8243.98
526.776	8278.33
527.142	8311.1
527.508	8326.69
527.874	8263.41
528.241	8280.81
528.607	8273.81
528.973	8304.99
529.339	8237.65
529.705	8363.07
530.071	8334.82
530.437	8309.29
530.803	8324.88
531.169	8336.18
531.535	8251.21
531.901	8240.14
532.267	8231.78
532.632	8256.18
532.998	8242.4
533.364	8258.44
533.73	8270.87
534.095	8279.01
534.461	8268.61
534.826	8268.16
535.192	8233.81
535.557	8284.88
535.923	8177.31
536.288	8176.86
536.653	8172.79
537.019	8158.78
537.384	8204.21
537.749	8192.91
538.114	8133.92
538.479	8112.91
538.845	8117.88
539.21	8072.01
539.575	8001.72
539.94	8022.97
540.305	8067.94
540.67	7984.78
541.034	7992.01
541.399	8039.46
541.764	7938
542.129	7948.62
542.494	7914.95
542.858	7946.81
543.223	7874.95
543.587	7926.47
543.952	7922.86
544.316	7893.93
544.681	7838.34
545.045	7887.6
545.41	7838.57
545.774	7839.92
546.138	7724.9
546.503	7819.36
546.867	7758.79
547.231	7743.43
547.595	7720.38
547.959	7697.33
548.324	7691.45
548.688	7642.41
549.052	7643.32
549.416	7565.35
549.779	7598.57
550.143	7573.49
550.507	7560.61
550.871	7559.7
551.235	7568.97
551.599	7536.2
551.962	7538.69
552.326	7535.97
552.689	7452.81
553.053	7417.11
553.417	7424.11
553.78	7447.16
554.143	7395.86
554.507	7436.77
554.87	7423.66
555.234	7436.99
555.597	7390.89
555.96	7393.15
556.323	7384.11
556.686	7312.48
557.05	7361.74
557.413	7357
557.776	7373.27
558.139	7383.89
558.502	7313.38
558.865	7338.01
559.228	7385.92
559.59	7325.36
559.953	7336.43
560.316	7403.55
560.679	7358.13
561.041	7329.88
561.404	7389.76
561.767	7409.65
562.129	7366.04
562.492	7382.76
562.854	7408.97
563.217	7395.86
563.579	7336.43
563.941	7385.7
564.304	7443.77
564.666	7418.69
565.028	7397.45
565.39	7385.47
565.753	7476.09
566.115	7450.1
566.477	7472.47
566.839	7531.45
567.201	7514.05
567.563	7535.75
567.925	7542.08
568.287	7506.6
568.648	7552.92
569.01	7616.65
569.372	7611.68
569.734	7608.74
570.095	7637.21
570.457	7657.33
570.819	7621.17
571.18	7606.48
571.542	7653.26
571.903	7662.75
572.265	7696.87
572.626	7711.34
572.987	7735.74
573.349	7783.65
573.71	7715.4
574.071	7751.79
574.432	7768.96
574.794	7841.73
575.155	7832.24
575.516	7794.5
575.877	7790.66
576.238	7840.37
576.599	7880.37
576.96	7852.35
577.32	7869.3
577.681	7951.1
578.042	7887.38
578.403	7867.26
578.763	7957.43
579.124	7949.97
579.485	8008.73
579.845	7951.78
580.206	8039.01
580.566	7975.96
580.927	8087.15
581.287	8106.81
581.648	8023.19
582.008	8094.38
582.368	8069.52
582.728	8086.69
583.089	8076.52
583.449	8153.59
583.809	8128.95
584.169	8175.51
584.529	8118.56
584.889	8212.34
585.249	8214.83
585.609	8161.72
585.969	8267.03
586.329	8164.43
586.688	8219.35
587.048	8183.87
587.408	8236.97
587.768	8214.15
588.127	8274.49
588.487	8310.42
588.846	8315.39
589.206	8268.16
589.565	8288.72
589.925	8374.37
590.284	8332.56
590.643	8344.77
591.003	8416.63
591.362	8424.09
591.721	8402.17
592.08	8363.97
592.44	8468.15
592.799	8425.67
593.158	8441.71
593.517	8418.89
593.876	8467.93
594.235	8406.69
594.593	8473.58
594.952	8551.99
595.311	8442.84
595.67	8479
596.029	8535.5
596.387	8514.71
596.746	8580.47
597.104	8496.85
597.463	8499.56
597.822	8560.81
598.18	8516.51
598.538	8614.82
598.897	8597.87
599.255	8507.47
599.613	8612.56
599.972	8559.45
600.33	8619.11
600.688	8571.43
601.046	8658.2
601.404	8590.86
601.762	8636.74
602.12	8625.44
602.478	8613.91
602.836	8654.59
603.194	8646.45
603.552	8641.03
603.91	8603.29
604.268	8640.58
604.625	8678.77
604.983	8716.73
605.341	8591.09
605.698	8654.81
606.056	8720.8
606.413	8669.5
606.771	8704.31
607.128	8745.89
607.485	8741.37
607.843	8730.97
608.2	8764.87
608.557	8790.18
608.914	8748.82
609.272	8766
609.629	8821.14
609.986	8849.16
610.343	8762.61
610.7	8804.87
611.057	8793.12
611.414	8815.04
611.771	8836.96
612.127	8861.59
612.484	8831.08
612.841	8888.71
613.198	8806.68
613.554	8879.67
613.911	8880.57
614.267	8873.57
614.624	8866.33
614.98	8876.28
615.337	8918.08
615.693	8890.51
616.05	8874.7
616.406	8972.77
616.762	8962.6
617.118	8878.99
617.475	8892.1
617.831	9012.09
618.187	8996.05
618.543	8979.1
618.899	8942.49
619.255	8998.53
619.611	8911.76
619.967	8971.64
620.323	9045.31
620.678	8939.55
621.034	8950.4
621.39	8928.71
621.746	8932.1
622.101	9129.6
622.457	8930.97
622.812	9046.67
623.168	8959.44
623.523	9005.09
623.879	9075.14
624.234	8985.88
624.589	9034.47
624.945	9043.51
625.3	9060.23
625.655	9015.48
626.01	9045.09
626.365	9000.12
626.72	9028.36
627.075	8969.83
627.43	8981.36
627.785	8949.95
628.14	8978.87
628.495	9017.74
628.85	8944.3
629.205	8972.77
629.559	8952.21
629.914	8902.04
630.269	8927.12
630.623	8943.62
630.978	8930.51
631.332	8932.55
631.687	8861.59
632.041	8886.22
632.396	8897.75
632.75	8870.18
633.104	8915.6
633.459	8744.08
633.813	8810.74
634.167	8810.06
634.521	8833.79
634.875	8768.26
635.229	8797.64
635.583	8816.17
635.937	8774.36
636.291	8803.51
636.645	8741.59
636.999	8743.85
637.352	8769.39
637.706	8757.86
638.06	8725.55
638.413	8690.29
638.767	8737.75
639.121	8722.84
639.474	8661.59
639.828	8651.43
640.181	8655.49
640.534	8683.51
640.888	8674.02
641.241	8613.91
641.594	8623.18
641.947	8627.7
642.301	8628.6
642.654	8660.01
643.007	8614.14
643.36	8590.41
643.713	8604.65
644.066	8632.89
644.419	8589.96
644.771	8526.46
645.124	8460.02
645.477	8457.08
645.83	8395.84
646.182	8364.43
646.535	8354.71
646.888	8342.73
647.24	8295.95
647.593	8319.23
647.945	8343.64
648.298	8278.33
648.65	8321.04
649.002	8248.27
649.355	8295.95
649.707	8349.74
650.059	8301.83
650.411	8475.38
650.763	8442.17
651.115	8542.73
651.467	8431.09
651.819	8515.61
652.171	8488.27
652.523	8492.79
652.875	8546.8
653.227	8464.31
653.578	8470.64
653.93	8499.79
654.282	8467.7
654.633	8455.5
654.985	8444.65
655.337	8432
655.688	8498.66
656.039	8497.76
656.391	8414.14
656.742	8427.25
657.094	8554.25
657.445	8518.77
657.796	8508.38
658.147	8526.68
658.498	8438.78
658.849	8506.8
659.2	8511.77
659.551	8514.25
659.902	8410.3
660.253	8491.2
660.604	8537.98
660.955	8494.14
661.306	8560.13
661.656	8486.91
662.007	8483.97
662.358	8543.18
662.708	8583.18
663.059	8509.06
663.409	8481.26
663.76	8575.72
664.11	8560.81
664.461	8548.38
664.811	8532.11
665.161	8489.4
665.511	8513.35
665.862	8546.57
666.212	8613.46
666.562	8532.78
666.912	8573.24
667.262	8570.07
667.612	8493.01
667.962	8569.39
668.312	8592.9
668.662	8571.65
669.011	8536.4
669.361	8583.18
669.711	8540.47
670.06	8486.23
670.41	8504.99
670.76	8436.06
671.109	8537.98
671.459	8516.06
671.808	8472.67
672.157	8452.33
672.507	8455.05
672.856	8418.21
673.205	8428.83
673.554	8495.95
673.904	8491.66
674.253	8468.38
674.602	8478.77
674.951	8341.83
675.3	8276.75
675.649	8419.34
675.998	8397.65
676.346	8421.83
676.695	8438.1
677.044	8311.77
677.393	8414.6
677.741	8371.66
678.09	8424.54
678.438	8302.06
678.787	8374.6
679.135	8406.23
679.484	8323.75
679.832	8344.31
680.181	8248.27
680.529	8265.22
680.877	8272.68
681.225	8246.24
681.573	8328.04
681.922	8228.16
682.27	8187.26
682.618	8178.44
682.966	8236.52
683.314	8204.66
683.661	8181.61
684.009	8167.37
684.357	8127.37
684.705	8087.82
685.053	8096.86
685.4	8127.15
685.748	8023.87
686.095	8080.14
686.443	8045.11
686.79	7990.43
687.138	7992.91
687.485	8040.37
687.832	7903.2
688.18	7938.9
688.527	7887.38
688.874	7873.37
689.221	7892.57
689.568	7817.77
689.915	7804.67
690.262	7759.25
690.609	7777.1
690.956	7721.51
691.303	7726.7
691.65	7760.15
691.997	7640.83
692.344	7604.45
692.69	7628.18
693.037	7685.8
693.383	7501.4
693.73	7535.07
694.077	7523.55
694.423	7526.03
694.769	7473.6
695.116	7461.17
695.462	7414.4
695.808	7406.49
696.155	7419.59
696.501	7352.93
696.847	7318.35
697.193	7262.54
697.539	7313.61
697.885	7244.46
698.231	7285.13
698.577	7248.98
698.923	7214.63
699.269	7160.16
699.614	7147.51
699.96	7128.98
700.306	7052.82
700.651	7052.6
700.997	7043.33
701.342	7043.78
701.688	7029.77
702.033	7022.77
702.379	6966.05
702.724	6957.46
703.069	6961.53
703.415	6859.61
703.76	6854.41
704.105	6831.36
704.45	6827.74
704.795	6761.53
705.14	6765.82
705.485	6794.52
705.83	6706.62
706.175	6735.09
706.52	6717.46
706.865	6686.05
707.209	6737.13
707.554	6593.4
707.899	6625.04
708.243	6619.84
708.588	6607.86
708.932	6519.5
709.277	6547.75
709.621	6538.71
709.966	6505.94
710.31	6465.72
710.654	6465.49
710.998	6496.23
711.342	6444.48
711.687	6394.76
712.031	6391.37
712.375	6411.26
712.719	6411.94
713.063	6397.25
713.407	6418.04
713.75	6424.59
714.094	6282
714.438	6330.36
714.782	6339.85
715.125	6270.24
715.469	6289.45
715.812	6243.58
716.156	6263.69
716.499	6228.21
716.843	6211.04
717.186	6216.69
717.53	6282.67
717.873	6256.69
718.216	6240.64
718.559	6175.33
718.902	6176.91
719.246	6185.73
719.589	6182.34
719.932	6173.07
720.275	6114.99
720.617	6118.16
720.96	6111.38
721.303	6150.7
721.646	6095.11
721.989	6110.93
722.331	6150.02
722.674	6133.53
723.016	6128.33
723.359	6094.2
723.701	6108.89
724.044	6027.54
724.386	6035.9
724.729	6120.87
725.071	6023.02
725.413	6106.41
725.755	6081.1
726.097	6059.63
726.439	6045.62
726.782	6057.37
727.124	6073.19
727.465	6044.71
727.807	6015.79
728.149	6053.98
728.491	5977.82
728.833	6037.26
729.175	6020.08
729.516	6025.51
729.858	5995.9
730.199	6007.43
730.541	6079.52
730.882	6043.81
731.224	6037.48
731.565	5971.72
731.906	6005.17
732.248	6032.51
732.589	5989.8
732.93	5979.4
733.271	5950.03
733.612	5972.63
733.953	6019.4
734.294	6032.06
734.635	6001.55
734.976	6000.65
735.317	5981.21
735.658	6024.83
735.999	6038.16
736.339	6075
736.68	6006.07
737.021	6024.83
737.361	6056.47
737.702	6053.53
738.042	6092.17
738.383	6067.54
738.723	6053.3
739.063	6075.9
739.404	6075.9
739.744	6087.88
740.084	6084.71
740.424	6063.47
740.764	6089.46
741.104	6079.74
741.444	6122.9
741.784	6131.04
742.124	6176.91
742.464	6167.65
742.804	6136.91
743.143	6134.2
743.483	6186.86
743.823	6206.07
744.162	6281.09
744.502	6258.49
744.841	6258.27
745.181	6307.98
745.52	6321.54
745.86	6329.9
746.199	6383.69
746.538	6413.74
746.877	6460.07
747.216	6442.44
747.556	6479.05
747.895	6565.83
748.234	6617.81
748.573	6641.53
748.911	6699.16
749.25	6742.77
749.589	6806.5
749.928	6888.31
750.267	6941.19
750.605	6944.13
750.944	7024.58
751.283	7082.65
751.621	7177.57
751.96	7260.95
752.298	7288.52
752.636	7394.73
752.975	7521.74
753.313	7512.25
753.651	7726.03
753.989	7733.94
754.327	7900.26
754.666	7949.07
755.004	8038.79
755.342	8188.61
755.679	8307.93
756.017	8368.27
756.355	8613.91
756.693	8595.61
757.031	8830.86
757.368	8892.1
757.706	9092.54
758.044	9179.55
758.381	9349.03
758.719	9438.75
759.056	9692.53
759.394	9842.35
759.731	9909.47
760.068	10048.68
760.405	10205.73
760.743	10327.77
761.08	10591.71
761.417	10706.29
761.754	10902.89
762.091	11077.35
762.428	11244.13
762.765	11277.8
763.102	11609.09
763.438	11751
763.775	11810.66
764.112	12069.41
764.449	12233.03
764.785	12357.77
765.122	12493.36
765.458	12653.81
765.795	12796.85
766.131	13031.42
766.467	13095.15
766.804	13221.47
767.14	13406.33
767.476	13581.92
767.812	13695.36
768.148	13828.46
768.485	13912.08
768.821	14090.6
769.157	14166.08
769.492	14359.07
769.828	14545.96
770.164	14618.05
770.5	14745.95
770.836	14873.41
771.171	14981.65
771.507	15099.39
771.842	15109.79
772.178	15298.71
772.513	15460.74
772.849	15486.5
773.184	15565.37
773.519	15625.03
773.855	15668.42
774.19	15869.99
774.525	15886.26
774.86	16055.98
775.195	16057.11
775.53	16097.56
775.865	16148.86
776.2	16165.13
776.535	16086.71
776.87	16261.62
777.205	16312.01
777.539	16343.43
777.874	16455.51
778.209	16443.54
778.543	16654.15
778.878	16525.57
779.212	16646.24
779.547	16580.93
779.881	16742.29
780.215	16635.17
780.55	16752.45
780.884	16725.11
781.218	16754.94
781.552	16825.67
781.886	16744.32
782.22	16816.41
782.554	16820.7
782.888	16792
783.222	16711.55
783.556	16747.94
783.889	16805.79
784.223	16800.59
784.557	16799.01
784.89	16868.16
785.224	16738.44
785.557	16797.65
785.891	16756.3
786.224	16761.95
786.558	16749.07
786.891	16591.56
787.224	16615.28
787.557	16643.31
787.891	16677.65
788.224	16724.89
788.557	16681.04
788.89	16727.14
789.223	16722.85
789.556	16557.66
789.888	16677.88
790.221	16597.66
790.554	16497.09
790.887	16606.92
791.219	16475.63
791.552	16471.33
791.884	16436.53
792.217	16418.9
792.549	16377.55
792.882	16362.41
793.214	16423.65
793.546	16402.63
793.879	16206.25
794.211	16238.34
794.543	16314.27
794.875	16229.08
795.207	16262.75
795.539	16180.94
795.871	16179.59
796.203	16135.3
796.535	16015.07
796.867	16036.99
797.198	15937.11
797.53	16063.21
797.862	16006.26
798.193	15939.37
798.525	15806.49
798.856	15881.07
799.188	15700.73
799.519	15712.71
799.85	15604.69
800.182	15678.13
800.513	15581.64
800.844	15597.01
801.175	15712.26
801.506	15706.61
801.837	15546.39
802.168	15541.87
802.499	15518.59
802.83	15403.79
803.161	15393.17
803.491	15362.21
803.822	15506.84
804.153	15339.84
804.483	15253.06
804.814	15322.66
805.145	15217.58
805.475	15241.08
805.805	15140.29
806.136	15106.85
806.466	15132.61
806.796	15175.32
807.126	14958.83
807.457	14921.54
807.787	15002.44
808.117	14887.19
808.447	14910.02
808.777	14991.37
809.107	14792.28
809.436	14737.59
809.766	14905.72
810.096	14793.41
810.426	14747.54
810.755	14835.22
811.085	14718.61
811.414	14610.14
811.744	14572.85
812.073	14584.15
812.403	14553.42
812.732	14500.99
813.061	14471.16
813.39	14428.45
813.719	14336.7
814.049	14454.44
814.378	14458.05
814.707	14333.08
815.036	14275.01
815.365	14266.87
815.693	14133.54
816.022	14277.27
816.351	14324.5
816.68	14152.98
817.008	14187.78
817.337	14014.22
817.665	14001.34
817.994	14112.52
818.322	14045.86
818.651	14029.36
818.979	14012.87
819.307	14064.84
819.636	13957.73
819.964	13976.93
820.292	13950.27
820.62	13942.36
820.948	13843.83
821.276	14002.7
821.604	13944.62
821.932	13964.73
822.259	13987.33
822.587	13931.74
822.915	13866.43
823.243	13910.95
823.57	13865.53
823.898	13878.41
824.225	13813.32
824.553	13883.15
824.88	13919.76
825.207	13832.08
825.535	13881.57
825.862	13967.44
826.189	13816.26
826.516	13968.8
826.843	13998.4
827.17	13913.43
827.497	13946.88
827.824	14001.34
828.151	13977.16
828.478	13877.5
828.805	14004.5
829.131	13906.65
829.458	13876.6
829.785	13860.1
830.111	13990.27
830.438	13904.17
830.764	13905.3
831.09	13936.48
831.417	13946.2
831.743	13974.67
832.069	13913.89
832.395	13851.51
832.722	13932.42
833.048	13797.28
833.374	13877.05
833.7	13802.02
834.026	13854.23
834.351	13924.05
834.677	13850.61
835.003	13744.85
835.329	13854
835.654	13802.25
835.98	13759.54
836.306	13736.49
836.631	13716.6
836.956	13755.7
837.282	13765.41
837.607	13721.57
837.932	13625.31
838.258	13685.87
838.583	13611.29
838.908	13554.12
839.233	13609.49
839.558	13538.75
839.883	13504.86
840.208	13477.96
840.533	13518.42
840.858	13431.64
841.182	13432.77
841.507	13444.07
841.832	13450.62
842.156	13361.36
842.481	13458.53
842.805	13342.83
843.13	13380.11
843.454	13313
843.778	13270.29
844.103	13253.56
844.427	13268.7
844.751	13146.67
845.075	13131.08
845.399	13105.09
845.723	12994.36
846.047	13055.15
846.371	12969.96
846.695	12996.4
847.019	12859.22
847.343	12791.43
847.666	12676.18
847.99	12595.28
848.313	12622.85
848.637	12551.66
848.96	12637.31
849.284	12494.49
849.607	12459.23
849.931	12415.62
850.254	12281.84
850.577	12291.1
850.9	12226.7
851.223	12247.26
851.546	12190.32
851.869	12111.45
852.192	12097.66
852.515	11952.58
852.838	11952.13
853.161	11957.55
853.483	11874.84
853.806	11845.69
854.129	11771.57
854.451	11758.24
854.774	11709.65
855.096	11680.95
855.419	11581.07
855.741	11608.41
856.063	11534.06
856.385	11556.66
856.708	11476.89
857.03	11462.42
857.352	11428.53
857.674	11398.47
857.996	11301.3
858.318	11291.13
858.64	11335.2
858.961	11301.3
859.283	11136.33
859.605	11252.03
859.926	11174.07
860.248	11168.42
860.57	11069.89
860.891	11090.91
861.212	11026.73
861.534	10966.84
861.855	10960.97
862.176	11014.53
862.498	11054.53
862.819	10977.24
863.14	10924.81
863.461	10931.59
863.782	10917.13
864.103	10850.46
864.424	10885.72
864.745	10901.08
865.065	10830.12
865.386	10785.15
865.707	10723.23
866.027	10785.61
866.348	10739.73
866.668	10763.46
866.989	10729.79
867.309	10597.14
867.63	10716.46
867.95	10712.39
868.27	10592.84
868.59	10587.65
868.91	10632.16
869.23	10593.07
869.55	10482.34
869.87	10556.91
870.19	10592.39
870.51	10581.32
870.83	10560.08
871.15	10435.56
871.469	10466.74
871.789	10458.61
872.109	10465.61
872.428	10433.3
872.748	10378.16
873.067	10399.4
873.386	10482.11
873.706	10408.22
874.025	10345.17
874.344	10258.84
874.663	10305.62
874.982	10279.63
875.301	10240.31
875.62	10264.94
875.939	10151.27
876.258	10225.39
876.577	10191.27
876.896	10240.31
877.214	10193.31
877.533	10173.64
877.852	10140.65
878.17	10066.08
878.489	10130.03
878.807	10098.39
879.125	10040.99
879.444	10054.78
879.762	10015.91
880.08	10074.89
880.398	9989.24
880.716	9974.55
881.034	9943.59
881.352	9973.42
881.67	9905.18
881.988	9877.61
882.306	9896.59
882.624	9782.69
882.941	9752.41
883.259	9790.83
883.577	9798.97
883.894	9761
884.212	9760.55
884.529	9667.9
884.846	9692.53
885.164	9692.53
885.481	9604.39
885.798	9613.43
886.115	9591.29
886.432	9581.34
886.75	9535.24
887.067	9546.77
887.383	9500.22
887.7	9522.14
888.017	9485.98
888.334	9449.6
888.651	9420.9
888.967	9412.53
889.284	9337.06
889.6	9299.09
889.917	9230.39
890.233	9312.65
890.55	9171.64
890.866	9274.23
891.182	9252.09
891.498	9169.83
891.815	9150.17
892.131	9077.4
892.447	9072.43
892.763	9059.1
893.079	9070.4
893.395	9025.2
893.71	8987.24
894.026	8963.96
894.342	8900.23
894.657	8857.07
894.973	8848.26
895.289	8822.27
895.604	8799.67
895.92	8698.2
896.235	8762.16
896.55	8713.12
896.865	8645.1
897.181	8653.68
897.496	8674.93
897.811	8669.05
898.126	8554.25
898.441	8511.77
898.756	8532.78
899.071	8486.23
899.386	8473.12
899.7	8399.91
900.015	8402.62
900.33	8281.94
900.644	8331.89
900.959	8312.22
901.273	8295.05
901.588	8274.49
901.902	8152.46
902.216	8145
902.531	8136.18
902.845	8144.77
903.159	8114.04
903.473	8022.52
903.787	8033.81
904.101	7972.57
904.415	7976.41
904.729	7933.25
905.042	7876.3
905.356	7910.65
905.67	7876.53
905.984	7847.15
906.297	7783.43
906.611	7766.48
906.924	7715.86
907.237	7699.13
907.551	7656.87
907.864	7650.32
908.177	7625.92
908.491	7564
908.804	7517.22
909.117	7423.43
909.43	7440.16
909.743	7443.32
910.056	7402.87
910.368	7356.32
910.681	7315.64
910.994	7305.02
911.307	7302.76
911.619	7311.12
911.932	7282.42
912.244	7160.16
912.557	7185.47
912.869	7092.82
913.181	7149.32
913.494	7076.55
913.806	7037.68
914.118	7027.29
914.43	6997.91
914.742	6994.97
915.054	6910.91
915.366	6959.04
915.678	6897.57
915.99	6808.76
916.302	6770.8
916.613	6818.03
916.925	6834.3
917.236	6706.39
917.548	6712.72
917.859	6765.6
918.171	6667.97
918.482	6632.04
918.794	6605.83
919.105	6656.68
919.416	6573.74
919.727	6562.21
920.038	6540.29
920.349	6460.3
920.66	6458.04
920.971	6505.04
921.282	6407.42
921.593	6338.49
921.903	6384.59
922.214	6336.01
922.525	6332.16
922.835	6231.15
923.146	6224.6
923.456	6248.32
923.767	6220.53
924.077	6242.22
924.387	6123.58
924.697	6120.87
925.008	6101.44
925.318	6040.19
925.628	6068.67
925.938	6056.24
926.248	5976.69
926.558	5973.3
926.867	5942.12
927.177	5952.29
927.487	5861.22
927.796	5832.52
928.106	5875
928.416	5816.92
928.725	5807.88
929.034	5738.51
929.344	5825.28
929.653	5771.27
929.962	5680.43
930.271	5701.22
930.581	5686.31
930.89	5623.71
931.199	5639.07
931.508	5632.97
931.817	5554.33
932.125	5531.73
932.434	5539.87
932.743	5505.29
933.051	5502.36
933.36	5451.06
933.669	5401.57
933.977	5406.31
934.286	5404.05
934.594	5356.37
934.902	5347.56
935.21	5320.89
935.519	5306.2
935.827	5305.07
936.135	5286.77
936.443	5216.04
936.751	5217.62
937.059	5189.14
937.367	5147.79
937.674	5180.56
937.982	5135.36
938.29	5108.02
938.597	5078.86
938.905	5029.15
939.213	5035.25
939.52	5023.27
939.827	5014.46
940.135	4989.37
940.442	4952.31
940.749	4946.89
941.056	4986.89
941.363	4891.52
941.67	4920.45
941.977	4868.93
942.284	4813.79
942.591	4843.62
942.898	4795.93
943.205	4769.72
943.511	4747.57
943.818	4786.22
944.125	4748.25
944.431	4709.38
944.738	4697.18
945.044	4636.62
945.35	4667.35
945.657	4618.08
945.963	4615.37
946.269	4582.83
946.575	4620.12
946.881	4527.01
947.187	4528.6
947.493	4457.86
947.799	4525.66
948.105	4429.84
948.41	4433.91
948.716	4436.39
949.022	4383.06
949.327	4435.04
949.633	4367.92
949.938	4322.73
950.244	4370.18
950.549	4333.57
950.854	4290.64
951.16	4303.74
951.465	4254.25
951.77	4243.41
952.075	4202.73
952.38	4164.31
952.685	4168.83
952.99	4181.03
953.294	4108.95
953.599	4142.84
953.904	4110.53
954.209	4082.96
954.513	4063.52
954.818	4075.5
955.122	4042.73
955.426	4019.46
955.731	4002.73
956.035	4002.73
956.339	3957.09
956.643	3954.83
956.948	3957.99
957.252	3928.39
957.556	3899.91
957.86	3903.98
958.163	3905.11
958.467	3855.84
958.771	3819.69
959.075	3855.62
959.378	3769.75
959.682	3785.56
959.985	3770.88
960.289	3730.2
960.592	3765.68
960.896	3730.2
961.199	3699.01
961.502	3701.72
961.805	3699.24
962.108	3638.9
962.411	3642.74
962.714	3582.41
963.017	3636.42
963.32	3606.13
963.623	3579.47
963.926	3584.21
964.228	3548.96
964.531	3509.19
964.833	3558
965.136	3529.53
965.438	3525.01
965.741	3511
966.043	3444.56
966.345	3475.74
966.648	3454.05
966.95	3423.31
967.252	3395.07
967.554	3393.26
967.856	3372.02
968.158	3374.95
968.46	3380.38
968.761	3346.71
969.063	3340.15
969.365	3297.22
969.666	3331.11
969.968	3263.09
970.269	3252.47
970.571	3276.43
970.872	3235.3
971.174	3208.63
971.475	3251.79
971.776	3184
972.077	3185.81
972.378	3158.24
972.679	3136.99
972.98	3134.28
973.281	3099.48
973.582	3135.19
973.883	3094.74
974.183	3086.15
974.484	3046.37
974.785	3051.35
975.085	3047.73
975.386	3040.27
975.686	3023.1
975.986	2999.6
976.287	2997.56
976.587	2944.23
976.887	2990.1
977.187	2909.66
977.487	2934.74
977.787	2911.46
978.087	2924.34
978.387	2867.4
978.687	2897.23
978.987	2878.47
979.286	2864.91
979.586	2860.84
979.885	2886.6
980.185	2810.67
980.484	2827.62
980.784	2794.18
981.083	2825.36
981.382	2784.91
981.682	2766.38
981.981	2747.63
982.28	2737.68
982.579	2713.73
982.878	2721.41
983.177	2721.86
983.475	2717.12
983.774	2701.98
984.073	2676.44
984.372	2591.47
984.67	2616.1
984.969	2649.32
985.267	2621.98
985.566	2633.73
985.864	2603
986.162	2587.63
986.461	2618.14
986.759	2567.07
987.057	2541.98
987.355	2518.03
987.653	2532.04
987.951	2496.33
988.249	2503.56
988.547	2530.46
988.844	2502.21
989.142	2473.73
989.44	2457.24
989.737	2454.07
990.035	2435.77
990.332	2418.82
990.63	2424.47
990.927	2363.68
991.224	2422.89
991.521	2413.85
991.819	2385.6
992.116	2309.44
992.413	2322.78
992.71	2334.75
993.006	2347.64
993.303	2300.63
993.6	2303.12
993.897	2274.42
994.193	2301.08
994.49	2242.1
994.787	2306.73
995.083	2266.73
995.379	2226.74
995.676	2256.56
995.972	2228.09
996.268	2168.66
996.565	2190.13
996.861	2176.12
997.157	2161.43
997.453	2130.24
997.749	2136.34
998.044	2112.61
998.34	2113.07
998.636	2125.04
998.932	2087.3
999.227	2117.59
999.523	2092.73
999.818	2087.08
1000.114	2082.56
1000.409	2042.79
1000.704	2044.59
1001	2027.87
1001.295	2022.67
1001.59	2004.82
1001.885	1989.45
1002.18	1984.03
1002.475	1991.94
1002.77	1987.42
1003.065	1923.92
1003.359	1940.64
1003.654	1921.21
1003.949	1943.58
1004.243	1923.47
1004.538	1861.1
1004.832	1901.77
1005.127	1890.92
1005.421	1867.42
1005.715	1849.8
1006.009	1869.91
1006.304	1840.08
1006.598	1825.62
1006.892	1832.85
1007.186	1818.16
1007.48	1793.3
1007.773	1786.75
1008.067	1796.01
1008.361	1743.13
1008.655	1735.67
1008.948	1744.26
1009.242	1725.28
1009.535	1741.78
1009.829	1732.96
1010.122	1730.25
1010.415	1692.74
1010.708	1669.91
1011.001	1681.66
1011.295	1671.95
1011.588	1670.37
1011.881	1640.54
1012.173	1633.76
1012.466	1645.73
1012.759	1599.18
1013.052	1626.3
1013.344	1611.61
1013.637	1595.11
1013.93	1541.33
1014.222	1576.81
1014.514	1553.31
1014.807	1537.94
1015.099	1528.45
1015.391	1562.12
1015.683	1522.35
1015.976	1551.27
1016.268	1542.46
1016.56	1491.84
1016.851	1486.64
1017.143	1477.15
1017.435	1469.02
1017.727	1472.86
1018.018	1448.45
1018.31	1483.25
1018.602	1449.13
1018.893	1446.87
1019.185	1440.99
1019.476	1393.08
1019.767	1405.29
1020.058	1390.6
1020.35	1405.51
1020.641	1385.63
1020.932	1345.18
1021.223	1350.15
1021.514	1326.87
1021.804	1346.53
1022.095	1317.15
1022.386	1342.46
1022.677	1323.48
1022.967	1311.73
1023.258	1305.18
1023.548	1312.63
1023.839	1301.34
1024.129	1286.87
1024.419	1258.85
1024.709	1247.1
1025	1253.88
1025.29	1241.68
1025.58	1192.86
1025.87	1215.24
1026.16	1222.92
1026.449	1220.43
1026.739	1218.17
1027.029	1193.32
1027.319	1189.25
1027.608	1179.76
1027.898	1161.45
1028.187	1153.32
1028.477	1156.93
1028.766	1158.97
1029.055	1138.4
1029.344	1114.9
1029.634	1115.13
1029.923	1123.94
1030.212	1114.9
1030.501	1129.14
1030.79	1104.5
1031.078	1112.19
1031.367	1080.1
1031.656	1094.56
1031.945	1052.53
1032.233	1083.94
1032.522	1050.49
1032.81	1040.78
1033.099	1035.58
1033.387	1049.14
1033.675	1037.61
1033.963	1011.85
1034.251	1027.9
1034.54	992.64
1034.828	969.14
1035.116	989.93
1035.403	963.04
1035.691	1009.59
1035.979	1003.72
1036.267	979.31
1036.554	977.5
1036.842	940.44
1037.129	950.38
1037.417	928.69
1037.704	914.45
1037.992	938.63
1038.279	948.58
1038.566	930.27
1038.853	930.27
1039.14	930.27
