Data from hue_20_FLMS001491_41.txt Node
Date: Mon Feb 06 15:34:10 GMT 2017
User: dcchb
Spectrometer: FLMS00149
Trigger mode: 0
Integration Time (sec): 2.000000E-2
Scans to average: 10
Electric dark correction enabled: true
Nonlinearity correction enabled: false
Boxcar width: 0
XAxis mode: Wavelengths
Number of Pixels in Spectrum: 2048
>>>>>Begin Spectral Data<<<<<
341.393	-0.72
341.776	-0.72
342.16	-0.72
342.543	-61.28
342.927	-65.13
343.31	-80.94
343.693	-63.54
344.077	-51.79
344.46	-70.55
344.843	-60.38
345.226	-61.74
345.61	-42.75
345.993	-34.39
346.376	28.43
346.759	2.67
347.142	32.05
347.525	32.27
347.908	72.95
348.291	84.93
348.674	101.42
349.057	111.37
349.44	121.08
349.823	134.42
350.206	153.63
350.588	184.81
350.971	212.61
351.354	245.83
351.737	227.97
352.119	239.73
352.502	249.44
352.884	282.66
353.267	285.83
353.65	313.4
354.032	312.72
354.414	323.11
354.797	325.37
355.179	330.8
355.562	321.98
355.944	329.44
356.326	359.72
356.709	334.64
357.091	348.65
357.473	360.85
357.855	339.61
358.238	356.33
358.62	357.91
359.002	366.73
359.384	347.29
359.766	339.61
360.148	345.26
360.53	348.2
360.912	333.73
361.294	325.6
361.676	336.45
362.057	332.6
362.439	309.1
362.821	338.48
363.203	332.6
363.584	335.54
363.966	327.63
364.348	341.42
364.729	315.2
365.111	327.86
365.493	333.06
365.874	318.59
366.256	338.25
366.637	305.26
367.019	306.84
367.4	311.14
367.781	329.67
368.163	321.31
368.544	330.34
368.925	313.85
369.306	317.46
369.688	310.91
370.069	339.16
370.45	325.37
370.831	320.4
371.212	329.89
371.593	332.83
371.974	323.11
372.355	293.51
372.736	329.44
373.117	331.02
373.498	302.77
373.879	311.81
374.26	311.81
374.641	324.69
375.021	338.93
375.402	322.89
375.783	338.25
376.163	321.08
376.544	320.18
376.925	329.89
377.305	333.73
377.686	370.57
378.066	326.5
378.447	334.19
378.827	338.48
379.208	337.8
379.588	332.6
379.968	344.81
380.349	335.99
380.729	361.53
381.109	330.8
381.489	352.04
381.87	347.52
382.25	365.82
382.63	338.48
383.01	331.7
383.39	351.36
383.77	353.85
384.15	360.4
384.53	361.98
384.91	363.56
385.29	342.55
385.67	360.4
386.049	386.39
386.429	368.76
386.809	354.98
387.189	363.11
387.568	393.85
387.948	356.11
388.328	360.4
388.707	362.66
389.087	359.95
389.466	385.71
389.846	357.91
390.225	357.69
390.605	360.63
390.984	382.09
391.363	374.86
391.743	374.86
392.122	377.57
392.501	385.03
392.881	386.84
393.26	395.43
393.639	397.24
394.018	388.65
394.397	383.22
394.776	393.39
395.155	392.49
395.534	396.78
395.913	411.7
396.292	402.66
396.671	395.2
397.05	406.95
397.429	396.33
397.808	402.88
398.186	396.33
398.565	416.44
398.944	416.22
399.323	407.63
399.701	396.56
400.08	413.96
400.458	432.26
400.837	416.22
401.215	418.03
401.594	425.71
401.972	424.58
402.351	424.58
402.729	431.81
403.107	441.53
403.486	422.09
403.864	435.43
404.242	438.82
404.62	444.24
404.999	436.56
405.377	427.07
405.755	448.53
406.133	444.92
406.511	443.79
406.889	464.58
407.267	468.65
407.645	476.1
408.023	440.4
408.401	465.71
408.779	469.1
409.156	457.35
409.534	457.57
409.912	465.93
410.29	454.18
410.667	479.49
411.045	482.2
411.422	473.17
411.8	513.84
412.178	496.89
412.555	498.25
412.933	480.17
413.31	482.66
413.687	510
414.065	501.19
414.442	516.55
414.819	519.04
415.197	527.85
415.574	526.95
415.951	501.64
416.328	531.92
416.705	510.68
417.082	520.62
417.46	541.41
417.837	548.42
418.214	538.47
418.591	543.9
418.967	545.93
419.344	538.02
419.721	530.34
420.098	547.06
420.475	559.94
420.852	560.39
421.228	553.16
421.605	565.37
421.982	560.17
422.358	558.14
422.735	571.47
423.111	580.06
423.488	579.6
423.864	583.22
424.241	600.17
424.617	598.59
424.994	594.07
425.37	599.94
425.746	618.02
426.123	605.14
426.499	595.2
426.875	627.74
427.251	594.29
427.627	629.77
428.003	636.1
428.379	627.74
428.756	650.34
429.132	624.57
429.507	664.35
429.883	649.21
430.259	667.06
430.635	678.13
431.011	672.03
431.387	675.87
431.763	700.05
432.138	697.11
432.514	703.22
432.89	681.75
433.265	693.95
433.641	703.67
434.016	736.89
434.392	734.85
434.767	738.02
435.143	742.99
435.518	759.49
435.894	749.32
436.269	768.3
436.644	776.21
437.02	780.95
437.395	764.68
437.77	774.4
438.145	797.22
438.52	777.11
438.895	777.34
439.271	813.5
439.646	799.48
440.021	831.12
440.395	840.61
440.77	800.39
441.145	819.37
441.52	846.72
441.895	842.2
442.27	833.61
442.645	832.03
443.019	854.85
443.394	860.95
443.769	861.4
444.143	843.1
444.518	860.73
444.892	883.32
445.267	864.34
445.641	879.26
446.016	886.94
446.39	897.34
446.764	902.08
447.139	916.54
447.513	924
447.887	898.47
448.262	920.39
448.636	929.42
449.01	922.65
449.384	933.49
449.758	953.15
450.132	946.37
450.506	974.85
450.88	980.72
451.254	963.32
451.628	965.36
452.002	960.16
452.376	987.28
452.75	998.8
453.123	1026.82
453.497	1013.04
453.871	1028.86
454.244	1036.99
454.618	1056.88
454.992	1074.28
455.365	1051.23
455.739	1089.42
456.112	1088.97
456.486	1109.08
456.859	1105.69
457.232	1110.44
457.606	1089.87
457.979	1157.89
458.352	1159.7
458.725	1156.99
459.099	1153.15
459.472	1172.36
459.845	1184.33
460.218	1208.97
460.591	1211.9
460.964	1227.72
461.337	1255.52
461.71	1223.2
462.083	1276.76
462.456	1266.82
462.829	1234.95
463.201	1305.69
463.574	1310.21
463.947	1326.25
464.32	1344.56
464.692	1356.53
465.065	1362.86
465.438	1400.6
465.81	1416.87
466.183	1433.14
466.555	1431.56
466.928	1450.31
467.3	1476.08
467.672	1470.88
468.045	1554.72
468.417	1520.37
468.789	1540.71
469.161	1564.89
469.534	1582.06
469.906	1594.27
470.278	1622.06
470.65	1642.17
471.022	1636.75
471.394	1681.5
471.766	1723.53
472.138	1703.19
472.51	1783.19
472.882	1793.36
473.253	1837.42
473.625	1841.94
473.997	1883.3
474.369	1914.94
474.74	1908.16
475.112	1975.72
475.484	1985.67
475.855	2079.22
476.227	2039.9
476.598	2060.24
476.97	2092.56
477.341	2155.83
477.713	2168.49
478.084	2256.17
478.455	2278.32
478.827	2305.21
479.198	2347.24
479.569	2369.61
479.94	2418.65
480.311	2509.5
480.682	2531.64
481.053	2568.03
481.424	2652.77
481.795	2624.75
482.166	2672.2
482.537	2744.74
482.908	2775.93
483.279	2791.3
483.65	2915.59
484.021	2937.28
484.391	2987.68
484.762	3020.67
485.133	3045.3
485.503	3091.4
485.874	3175.02
486.244	3205.07
486.615	3263.83
486.985	3306.09
487.356	3381.11
487.726	3385.86
488.097	3485.74
488.467	3549.92
488.837	3561.9
489.207	3623.82
489.578	3740.2
489.948	3714.44
490.318	3786.98
490.688	3835.79
491.058	3865.17
491.428	3919.85
491.798	3979.29
492.168	4065.61
492.538	4068.55
492.908	4159.4
493.278	4166.85
493.648	4177.47
494.017	4229
494.387	4290.47
494.757	4323.46
495.126	4325.95
495.496	4375.44
495.866	4436.23
496.235	4535.43
496.605	4507.86
496.974	4606.39
497.344	4600.51
497.713	4629.67
498.082	4692.72
498.452	4736.33
498.821	4745.6
499.19	4736.1
499.559	4808.19
499.928	4856.78
500.298	4934.97
500.667	4955.08
501.036	4944.01
501.405	5053.16
501.774	4994.85
502.143	5092.93
502.512	5043.89
502.88	5110.56
503.249	5097.68
503.618	5151.69
503.987	5200.27
504.356	5222.87
504.724	5192.82
505.093	5280.27
505.462	5251.12
505.83	5335.41
506.199	5395.75
506.567	5413.15
506.936	5403.21
507.304	5478.46
507.672	5495.18
508.041	5547.16
508.409	5528.63
508.777	5593.26
509.145	5611.79
509.514	5647.27
509.882	5610.43
510.25	5616.99
510.618	5733.14
510.986	5762.74
511.354	5779.24
511.722	5858.79
512.09	5869.63
512.458	5855.4
512.826	5913.7
513.193	5947.6
513.561	6016.52
513.929	5984.43
514.297	6023.3
514.664	6078.44
515.032	6112.57
515.4	6152.79
515.767	6162.06
516.135	6176.07
516.502	6145.11
516.869	6216.52
517.237	6247.25
517.604	6245.22
517.972	6305.1
518.339	6347.81
518.706	6373.8
519.073	6407.7
519.44	6392.33
519.808	6456.06
520.175	6476.17
520.542	6537.19
520.909	6523.18
521.276	6503.74
521.643	6645.66
522.009	6616.28
522.376	6698.09
522.743	6742.15
523.11	6758.2
523.477	6844.52
523.843	6878.65
524.21	6900.57
524.577	6942.83
524.943	6934.46
525.31	7000
525.676	7014.01
526.043	7082.48
526.409	7118.87
526.776	7194.8
527.142	7150.28
527.508	7198.41
527.874	7289.48
528.241	7327.22
528.607	7368.8
528.973	7421.23
529.339	7378.07
529.705	7521.34
530.071	7587.33
530.437	7568.35
530.803	7615.58
531.169	7734.67
531.535	7735.12
531.901	7738.74
532.267	7751.84
532.632	7830.26
532.998	7848.79
533.364	7875.68
533.73	7908
534.095	7956.36
534.461	7948.9
534.826	7996.36
535.192	8069.12
535.557	8076.81
535.923	8110.48
536.288	8145.28
536.653	8166.3
537.019	8101.44
537.384	8184.15
537.749	8246.97
538.114	8290.36
538.479	8320.42
538.845	8342.34
539.21	8346.63
539.575	8452.39
539.94	8463.46
540.305	8471.37
540.67	8468.44
541.034	8460.3
541.399	8540.52
541.764	8619.62
542.129	8621.88
542.494	8709.56
542.858	8717.47
543.223	8746.39
543.587	8764.7
543.952	8764.92
544.316	8788.43
544.681	8880.85
545.045	8839.73
545.41	8961.3
545.774	8933.96
546.138	8966.28
546.503	8964.69
546.867	9038.59
547.231	9053.73
547.595	9128.53
547.959	9149.32
548.324	9131.24
548.688	9264.35
549.052	9309.32
549.416	9186.83
549.779	9300.05
550.143	9356.55
550.507	9305.7
550.871	9378.69
551.235	9359.26
551.599	9463.44
551.962	9560.16
552.326	9535.75
552.689	9592.25
553.053	9549.09
553.417	9587.95
553.78	9709.08
554.143	9609.87
554.507	9752.92
554.87	9780.94
555.234	9806.71
555.597	9827.5
555.96	9792.92
556.323	9782.3
556.686	9903.43
557.05	9896.42
557.413	10001.73
557.776	10007.6
558.139	10039.47
558.502	10061.39
558.865	10136.41
559.228	10205.56
559.59	10232.23
559.953	10204.44
560.316	10324.21
560.679	10307.26
561.041	10353.13
561.404	10423.64
561.767	10458.89
562.129	10388.84
562.492	10483.07
562.854	10541.83
563.217	10506.35
563.579	10559.45
563.941	10693.91
564.304	10667.02
564.666	10788.15
565.028	10793.12
565.39	10753.57
565.753	10804.65
566.115	10918.99
566.477	10910.63
566.839	10946.34
567.201	10986.34
567.563	11023.17
567.925	11093
568.287	11020.68
568.648	11199.44
569.01	11244.63
569.372	11270.85
569.734	11303.16
570.095	11379.77
570.457	11389.04
570.819	11431.52
571.18	11442.59
571.542	11493.21
571.903	11589.71
572.265	11622.25
572.626	11724.17
572.987	11701.34
573.349	11714
573.71	11830.61
574.071	11884.84
574.432	11865.86
574.794	12065.18
575.155	12055.01
575.516	12046.87
575.877	12110.37
576.238	12242.57
576.599	12323.02
576.96	12335.9
577.32	12425.39
577.681	12490.02
578.042	12604.15
578.403	12638.27
578.763	12791.26
579.124	12817.93
579.485	13089.33
579.845	13131.59
580.206	13178.37
580.566	13315.09
580.927	13377.01
581.287	13554.63
581.648	13582.88
582.008	13740.84
582.368	13976.31
582.728	14005.69
583.089	14128.4
583.449	14323.65
583.809	14488.39
584.169	14625.79
584.529	14842.28
584.889	15109.39
585.249	15204.53
585.609	15320.23
585.969	15573.33
586.329	15693.78
586.688	15942.14
587.048	16204.96
587.408	16340.09
587.768	16566.53
588.127	16784.15
588.487	16886.29
588.846	17384.13
589.206	17516.33
589.565	17758.13
589.925	18077.45
590.284	18234.73
590.643	18634.5
591.003	18955.84
591.362	19168.27
591.721	19490.29
592.08	19701.59
592.44	20060.9
592.799	20251.85
593.158	20598.29
593.517	20925.51
593.876	21187.65
594.235	21438.94
594.593	21764.13
594.952	22062.2
595.311	22273.04
595.67	22646.59
596.029	23090.42
596.387	23351.66
596.746	23693.57
597.104	23884.3
597.463	24280.68
597.822	24772.87
598.18	25034.78
598.538	25093.76
598.897	25658.49
599.255	25804.48
599.613	26393.84
599.972	26600.16
600.33	27006.93
600.688	27074.27
601.046	27477.43
601.404	27934.36
601.762	28102.27
602.12	28629.94
602.478	28909.48
602.836	29155.12
603.194	29264.27
603.552	29671.95
603.91	29793.3
604.268	30306.05
604.625	30359.84
604.983	30819.49
605.341	30870.56
605.698	31333.6
606.056	31716.64
606.413	31998.44
606.771	32331.76
607.128	32686.78
607.485	32752.54
607.843	32980.33
608.2	33359.98
608.557	33761.78
608.914	33938.73
609.272	34378.49
609.629	34529.22
609.986	34734.64
610.343	34822.54
610.7	35294.4
611.057	35432.7
611.414	35682.86
611.771	35944.55
612.127	36332.79
612.484	36381.15
612.841	36717.64
613.198	36756.28
613.554	37028.14
613.911	37356.04
614.267	37483.72
614.624	37621.57
614.98	38020.2
615.337	38182.46
615.693	38322.34
616.05	38474.88
616.406	38703.35
616.762	38884.81
617.118	38888.88
617.475	39187.85
617.831	39405.25
618.187	39566.37
618.543	39817.44
618.899	40094.72
619.255	40130.43
619.611	40214.04
619.967	40325.23
620.323	40680.7
620.678	40597.76
621.034	40714.59
621.39	40803.4
621.746	40991.42
622.101	41477.29
622.457	41187.8
622.812	41418.53
623.168	41501.01
623.523	41672.53
623.879	41912.3
624.234	41757.05
624.589	41966.76
624.945	42021.23
625.3	42273.87
625.655	42213.54
626.01	42316.81
626.365	42272.97
626.72	42406.98
627.075	42476.81
627.43	42552.96
627.785	42480.87
628.14	42744.6
628.495	42874.54
628.85	42886.51
629.205	42777.59
629.559	43072.95
629.914	42986.85
630.269	43088.99
630.623	42976.23
630.978	43077.24
631.332	43256.22
631.687	43271.14
632.041	43166.73
632.396	43401.53
632.75	43182.33
633.104	43338.03
633.459	43182.33
633.813	43257.8
634.167	43173.74
634.521	43196.34
634.875	43233.4
635.229	43154.08
635.583	43118.82
635.937	43191.59
636.291	43200.63
636.645	43244.47
636.999	43308.42
637.352	43476.55
637.706	43177.81
638.06	43281.31
638.413	43369.89
638.767	43220.29
639.121	43390.68
639.474	43205.6
639.828	43269.55
640.181	43297.35
640.534	43423.45
640.888	43261.42
641.241	43153.85
641.594	43169.67
641.947	43350.23
642.301	43290.34
642.654	43148.43
643.007	43176.22
643.36	43169.9
643.713	43092.16
644.066	43303
644.419	43028.2
644.771	42749.57
645.124	42459.86
645.477	42268.68
645.83	42230.49
646.182	42182.13
646.535	41944.39
646.888	42032.52
647.24	41898.07
647.593	42176.25
647.945	42022.81
648.298	41815.58
648.65	41608.13
649.002	41641.8
649.355	41778.75
649.707	41850.16
650.059	42055.57
650.411	42378.73
650.763	42457.82
651.115	42832.28
651.467	42799.74
651.819	42769.45
652.171	42759.96
652.523	42709.57
652.875	42835.44
653.227	42550.7
653.578	42914.54
653.93	42709.34
654.282	42485.17
654.633	42456.02
654.985	42696.69
655.337	42586.18
655.688	42621.66
656.039	42668.21
656.391	42246.76
656.742	42351.16
657.094	42482.46
657.445	42400.2
657.796	42569.23
658.147	42355.91
658.498	42455.34
658.849	42436.81
659.2	42376.7
659.551	42312.52
659.902	42535.11
660.253	42284.5
660.604	42472.29
660.955	42234.1
661.306	42431.38
661.656	42275.68
662.007	42296.92
662.358	42285.85
662.708	42282.91
663.059	42303.03
663.409	41979.87
663.76	42290.6
664.11	42219.64
664.461	42276.81
664.811	42234.55
665.161	42176.93
665.511	42128.57
665.862	42223.71
666.212	42371.95
666.562	42298.73
666.912	42080.89
667.262	42157.27
667.612	42244.72
667.962	42300.54
668.312	42107.33
668.662	42392.29
669.011	42225.97
669.361	42180.77
669.711	42114.78
670.06	42061.45
670.41	41960.21
670.76	42138.51
671.109	42137.38
671.459	42139.64
671.808	41938.29
672.157	42045.18
672.507	41934.9
672.856	41941.45
673.205	41990.49
673.554	42007.21
673.904	42011.96
674.253	42069.36
674.602	41862.13
674.951	41390.28
675.3	41194.35
675.649	41849.93
675.998	41770.61
676.346	41685.64
676.695	41956.14
677.044	41688.35
677.393	41805.64
677.741	41754.11
678.09	41708.47
678.438	41525.19
678.787	41689.48
679.135	41629.37
679.484	41301.7
679.832	41561.58
680.181	41407.46
680.529	41438.19
680.877	41379.43
681.225	41289.04
681.573	41578.75
681.922	41297.85
682.27	41189.61
682.618	41183.96
682.966	41120.01
683.314	41055.38
683.661	40962.95
684.009	40867.36
684.357	40761.6
684.705	40573.13
685.053	40739.23
685.4	40654.93
685.748	40479.35
686.095	40557.99
686.443	40352.57
686.79	40371.1
687.138	40480.25
687.485	40353.92
687.832	40297.43
688.18	40362.96
688.527	40065.12
688.874	40029.41
689.221	39928.17
689.568	39896.31
689.915	39745.13
690.262	39823.09
690.609	39574.96
690.956	39494.74
691.303	39463.1
691.65	39348.3
691.997	39335.19
692.344	39176.33
692.69	39106.73
693.037	38921.65
693.383	38845.94
693.73	38839.84
694.077	38581.32
694.423	38684.14
694.769	38650.01
695.116	38383.81
695.462	38494.54
695.808	38378.61
696.155	38332.74
696.501	38088.22
696.847	38086.41
697.193	37818.62
697.539	38059.75
697.885	37640.1
698.231	37642.13
698.577	37770.49
698.923	37560.1
699.269	37321.91
699.614	37166.66
699.96	37165.53
700.306	37114.91
700.651	37020.23
700.997	36839.44
701.342	36946.78
701.688	36958.76
702.033	36693.91
702.379	36648.71
702.724	36530.3
703.069	36563.97
703.415	36062.29
703.76	36250.08
704.105	36401.49
704.45	36092.12
704.795	35982.74
705.14	35828.39
705.485	35796.98
705.83	35653.71
706.175	35774.16
706.52	35711.34
706.865	35564.22
707.209	35496.2
707.554	35306.37
707.899	35502.53
708.243	35268.86
708.588	35182.31
708.932	34929.43
709.277	34844.92
709.621	35001.75
709.966	34823
710.31	34886.05
710.654	34470.01
710.998	34565.38
711.342	34658.26
711.687	34540.97
712.031	34319.73
712.375	34301.88
712.719	34347.76
713.063	34264.59
713.407	34335.55
713.75	34017.37
714.094	34071.38
714.438	34053.98
714.782	34013.3
715.125	33861.44
715.469	33925.85
715.812	33762.46
716.156	33597.72
716.499	33548.68
716.843	33526.08
717.186	33415.12
717.53	33435.46
717.873	33552.75
718.216	33413.32
718.559	33206.09
718.902	32971.52
719.246	33091.74
719.589	33026.89
719.932	32896.27
720.275	32891.75
720.617	33006.32
720.96	32802.71
721.303	32757.74
721.646	32828.47
721.989	32564.75
722.331	32710.74
722.674	32506.22
723.016	32606.11
723.359	32484.75
723.701	32476.39
724.044	32287.47
724.386	32208.6
724.729	32305.32
725.071	32269.39
725.413	32079.79
725.755	32114.14
726.097	31966.12
726.439	31734.49
726.782	31871.21
727.124	32042.05
727.465	31760.93
727.807	31804.77
728.149	31670.54
728.491	31649.07
728.833	31626.24
729.175	31533.14
729.516	31564.78
729.858	31535.17
730.199	31580.82
730.541	31441.84
730.882	31349.87
731.224	31536.53
731.565	31072.36
731.906	31206.14
732.248	31317.1
732.589	31075.98
732.93	31038.01
733.271	30951.69
733.612	31118.01
733.953	30968.41
734.294	30874.17
734.635	30859.03
734.976	30868.3
735.317	30661.98
735.658	30651.13
735.999	30767.06
736.339	30727.96
736.68	30699.94
737.021	30438.48
737.361	30504.01
737.702	30762.09
738.042	30475.77
738.383	30263.79
738.723	30487.07
739.063	30248.65
739.404	30421.98
739.744	30301.08
740.084	30117.36
740.424	30113.74
740.764	30264.47
741.104	30122.78
741.444	30000.75
741.784	29916.01
742.124	29992.62
742.464	29920.98
742.804	29887.08
743.143	29760.31
743.483	29829
743.823	29686.18
744.162	29735.45
744.502	29832.62
744.841	29487.54
745.181	29643.02
745.52	29498.84
745.86	29507.43
746.199	29567.54
746.538	29451.39
746.877	29488.22
747.216	29491.16
747.556	29339.75
747.895	29330.94
748.234	29194.9
748.573	29252.75
748.911	29141.56
749.25	29104.5
749.589	29038.97
749.928	28938.41
750.267	29038.52
750.605	28960.78
750.944	28929.82
751.283	28818.63
751.621	28770.05
751.96	28626.78
752.298	28735.93
752.636	28568.25
752.975	28594.46
753.313	28372.32
753.651	28648.02
753.989	28352.88
754.327	28396.5
754.666	28274.69
755.004	28228.14
755.342	28212.32
755.679	28144.75
756.017	28070.18
756.355	28181.59
756.693	28031.08
757.031	28056.4
757.368	27817.08
757.706	27843.52
758.044	27731.43
758.381	27765.33
758.719	27662.96
759.056	27656.86
759.394	27606.46
759.731	27384.77
760.068	27347.49
760.405	27297.77
760.743	27072.24
761.08	27333.48
761.417	27121.05
761.754	26973.26
762.091	27100.04
762.428	26839.25
762.765	26712.48
763.102	26768.07
763.438	26680.84
763.775	26573.95
764.112	26470.22
764.449	26557.9
764.785	26270.45
765.122	26373.73
765.458	26117.91
765.795	26189.1
766.131	26096.45
766.467	25888.32
766.804	25806.74
767.14	25786.85
767.476	25804.02
767.812	25707.53
768.148	25640.41
768.485	25429.12
768.821	25279.07
769.157	25309.35
769.492	25321.78
769.828	25215.57
770.164	24959.53
770.5	25000.43
770.836	25084.04
771.171	24745.52
771.507	24783.26
771.842	24615.58
772.178	24569.71
772.513	24494.68
772.849	24365.87
773.184	24340.33
773.519	24260.56
773.855	24160.45
774.19	24094.92
774.525	23986.9
774.86	24052.21
775.195	23927.46
775.53	23782.16
775.865	23657.64
776.2	23500.13
776.535	23404.09
776.87	23387.82
777.205	23290.64
777.539	23184.66
777.874	23191.89
778.209	22985.79
778.543	23033.02
778.878	22827.38
779.212	22880.71
779.547	22802.3
779.881	22686.82
780.215	22553.94
780.55	22589.19
780.884	22480.04
781.218	22412.48
781.552	22392.82
781.886	22252.03
782.22	22109.66
782.554	22126.38
782.888	21821.98
783.222	21838.71
783.556	21692.49
783.889	21693.4
784.223	21545.83
784.557	21448.43
784.89	21575.44
785.224	21429.45
785.557	21288.89
785.891	21259.96
786.224	21192.62
786.558	21145.16
786.891	20933.19
787.224	20829.92
787.557	20793.76
787.891	20760.99
788.224	20805.29
788.557	20695.68
788.89	20649.36
789.223	20636.7
789.556	20450.72
789.888	20328.01
790.221	20264.28
790.554	20134.12
790.887	20185.87
791.219	20162.14
791.552	20051.18
791.884	19970.73
792.217	19843.73
792.549	19843.05
792.882	19679.21
793.214	19621.36
793.546	19652.1
793.879	19553.12
794.211	19394.48
794.543	19543.4
794.875	19364.87
795.207	19524.19
795.539	19345.89
795.871	19298.66
796.203	19099.34
796.535	19008.05
796.867	19017.08
797.198	18890.08
797.53	18911.32
797.862	18664.33
798.193	18744.78
798.525	18636.53
798.856	18657.09
799.188	18496.87
799.519	18505.69
799.85	18324.45
800.182	18364.9
800.513	18362.64
800.844	18199.71
801.175	18255.07
801.506	18215.3
801.837	18126.49
802.168	18034.29
802.499	17953.61
802.83	17946.83
803.161	17911.8
803.491	17811.69
803.822	17811.01
804.153	17654.41
804.483	17565.82
804.814	17487.18
805.145	17564.69
805.475	17509.1
805.805	17390.01
806.136	17406.73
806.466	17350.01
806.796	17311.59
807.126	17146.4
807.457	17256.23
807.787	17127.64
808.117	17037.02
808.447	17024.82
808.777	16969.23
809.107	16924.94
809.436	16890.81
809.766	16924.48
810.096	16760.65
810.426	16803.36
810.755	16825.5
811.085	16699.18
811.414	16659.86
811.744	16528.11
812.073	16531.05
812.403	16639.52
812.732	16450.15
813.061	16478.85
813.39	16281.11
813.719	16378.06
814.049	16333.99
814.378	16335.57
814.707	16188.46
815.036	16225.29
815.365	16079.76
815.693	15922.48
816.022	15991.4
816.351	15958.18
816.68	15882.48
817.008	15921.57
817.337	15752.76
817.665	15813.78
817.994	15811.75
818.322	15710.05
818.651	15599.1
818.979	15709.6
819.307	15693.78
819.636	15624.18
819.964	15517.74
820.292	15508.25
820.62	15559.55
820.948	15471.64
821.276	15474.8
821.604	15435.94
821.932	15517.74
822.259	15510.51
822.587	15453.34
822.915	15449.04
823.243	15428.7
823.57	15362.94
823.898	15483.84
824.225	15322.49
824.553	15336.96
824.88	15335.83
825.207	15491.3
825.535	15393
825.862	15457.86
826.189	15336.73
826.516	15464.64
826.843	15416.95
827.17	15440.91
827.497	15355.03
827.824	15361.59
828.151	15432.09
828.478	15339.89
828.805	15387.12
829.131	15333.11
829.458	15287.47
829.785	15258.77
830.111	15343.51
830.438	15285.21
830.764	15327.69
831.09	15328.14
831.417	15210.18
831.743	15362.27
832.069	15336.96
832.395	15227.13
832.722	15343.06
833.048	15253.12
833.374	15295.15
833.7	15184.19
834.026	15091.54
834.351	15195.94
834.677	15209.05
835.003	15290.86
835.329	15175.15
835.654	15195.94
835.98	15110.07
836.306	15106.68
836.631	15048.83
836.956	15013.57
837.282	15028.94
837.607	15020.35
837.932	14973.58
838.258	14940.81
838.583	14846.35
838.908	14819.91
839.233	14871.43
839.558	14911.2
839.883	14745.33
840.208	14768.83
840.533	14719.12
840.858	14738.1
841.182	14720.93
841.507	14659.01
841.832	14631.21
842.156	14543.53
842.481	14540.37
842.805	14538.11
843.13	14506.02
843.454	14480.48
843.778	14461.05
844.103	14416.75
844.427	14311.67
844.751	14359.58
845.075	14373.82
845.399	14230.32
845.723	14176.99
846.047	14231.67
846.371	14062.86
846.695	14104.9
847.019	14003.43
847.343	13989.87
847.666	13810.44
847.99	13741.74
848.313	13820.84
848.637	13629.66
848.96	13686.38
849.284	13633.5
849.607	13539.94
849.931	13480.96
850.254	13457
850.577	13461.3
850.9	13242.55
851.223	13295.43
851.546	13180.63
851.869	13082.55
852.192	13173.62
852.515	13002.78
852.838	12982.44
853.161	13059.95
853.483	12959.16
853.806	12833.52
854.129	12856.79
854.451	12787.87
854.774	12734.09
855.096	12659.29
855.419	12727.98
855.741	12523.7
856.063	12566.86
856.385	12589.46
856.708	12584.03
857.03	12413.64
857.352	12437.6
857.674	12425.17
857.996	12319.18
858.318	12294.78
858.64	12249.35
858.961	12254.32
859.283	12273.08
859.605	12143.82
859.926	12146.53
860.248	12158.73
860.57	12093.2
860.891	12114.89
861.212	12039.42
861.534	11888.23
861.855	11973.2
862.176	12029.25
862.498	11940.43
862.819	11956.71
863.14	11902.92
863.461	11873.09
863.782	11775.92
864.103	11843.94
864.424	11743.6
864.745	11792.64
865.065	11743.6
865.386	11655.47
865.707	11720.1
866.027	11710.38
866.348	11695.24
866.668	11605.53
866.989	11547.68
867.309	11490.05
867.63	11567.79
867.95	11575.02
868.27	11445.31
868.59	11540.9
868.91	11503.38
869.23	11449.6
869.55	11412.99
869.87	11457.28
870.19	11421.13
870.51	11400.56
870.83	11390.62
871.15	11322.6
871.469	11288.25
871.789	11351.3
872.109	11289.83
872.428	11306.55
872.748	11277.4
873.067	11208.7
873.386	11223.39
873.706	11206.44
874.025	11181.81
874.344	11155.14
874.663	11154.92
874.982	11116.95
875.301	11060.68
875.62	11091.19
875.939	11131.87
876.258	10961.48
876.577	10970.74
876.896	10972.1
877.214	10958.99
877.533	10954.25
877.852	10986.79
878.17	10986.11
878.489	10910.86
878.807	10943.17
879.125	10864.76
879.444	10843.06
879.762	10842.16
880.08	10876.96
880.398	10774.14
880.716	10849.16
881.034	10725.1
881.352	10737.08
881.67	10704.08
881.988	10748.15
882.306	10682.84
882.624	10638.55
882.941	10628.6
883.259	10602.16
883.577	10557.87
883.894	10487.37
884.212	10573.24
884.529	10493.24
884.846	10424.54
885.164	10527.36
885.481	10439.23
885.798	10441.72
886.115	10350.87
886.432	10345.67
886.75	10363.07
887.067	10353.81
887.383	10274.49
887.7	10321.49
888.017	10232.68
888.334	10210.99
888.651	10189.29
888.967	10172.57
889.284	10090.31
889.6	10118.34
889.917	9999.69
890.233	9999.69
890.55	9969.86
890.866	9987.04
891.182	9965.12
891.498	9894.61
891.815	9845.8
892.131	9877.66
892.447	9856.87
892.763	9822.3
893.079	9778.23
893.395	9737.33
893.71	9713.83
894.026	9648.97
894.342	9725.8
894.657	9631.57
894.973	9564.68
895.289	9573.04
895.604	9528.75
895.92	9537.11
896.235	9498.24
896.55	9477.9
896.865	9431.57
897.181	9366.04
897.496	9428.86
897.811	9376.21
898.126	9290.56
898.441	9261.64
898.756	9242.65
899.071	9167.63
899.386	9137.34
899.7	9072.04
900.015	9086.05
900.33	8993.62
900.644	9033.17
900.959	9019.16
901.273	8966.95
901.588	8915.66
901.902	8876.56
902.216	8861.42
902.531	8848.54
902.845	8839.27
903.159	8724.7
903.473	8760.86
903.787	8732.38
904.101	8688.99
904.415	8612.16
904.729	8612.16
905.042	8547.3
905.356	8535.55
905.67	8489.68
905.984	8536.46
906.297	8439.28
906.611	8411.94
906.924	8425.95
907.237	8339.85
907.551	8341.21
907.864	8356.12
908.177	8304.15
908.491	8298.27
908.804	8168.78
909.117	8153.42
909.43	8118.16
909.743	8136.24
910.056	8087.88
910.368	8061.44
910.681	7978.05
910.994	7933.99
911.307	7917.26
911.619	7835.91
911.932	7932.86
912.244	7845.63
912.557	7758.62
912.869	7760.43
913.181	7762.69
913.494	7769.92
913.806	7674.78
914.118	7631.17
914.43	7566.76
914.742	7521.12
915.054	7538.06
915.366	7550.72
915.678	7445.19
915.99	7430.27
916.302	7409.93
916.613	7395.7
916.925	7368.58
917.236	7387.79
917.548	7284.51
917.859	7311.4
918.171	7270.5
918.482	7198.86
918.794	7160
919.105	7149.6
919.416	7045.42
919.727	7122.48
920.038	7037.06
920.349	6997.97
920.66	7036.16
920.971	7015.14
921.282	6966.55
921.593	6899.89
921.903	6890.85
922.214	6871.19
922.525	6861.02
922.835	6783.51
923.146	6775.37
923.456	6742.38
923.767	6765.88
924.077	6630.97
924.387	6720.91
924.697	6609.95
925.008	6605.43
925.318	6559.79
925.628	6584.42
925.938	6535.38
926.248	6477.08
926.558	6447.92
926.867	6439.79
927.177	6406.79
927.487	6341.71
927.796	6329.28
928.106	6328.83
928.416	6331.09
928.725	6283.41
929.034	6190.76
929.344	6197.99
929.653	6174.26
929.962	6221.94
930.271	6156.18
930.581	6156.86
930.89	6089.29
931.199	6045.45
931.508	6065.56
931.817	6077.09
932.125	5993.02
932.434	5946.92
932.743	5904.66
933.051	5900.59
933.36	5848.17
933.669	5830.76
933.977	5878.22
934.286	5799.81
934.594	5772.01
934.902	5779.69
935.21	5701.05
935.519	5736.3
935.827	5700.15
936.135	5655.4
936.443	5577.66
936.751	5609.08
937.059	5599.36
937.367	5517.55
937.674	5494.05
937.982	5515.52
938.29	5422.87
938.597	5511
938.905	5379.48
939.213	5412.7
939.52	5384.67
939.827	5414.5
940.135	5362.53
940.442	5359.36
940.749	5296.99
941.056	5270.55
941.363	5244.79
941.67	5234.4
941.977	5178.58
942.284	5211.8
942.591	5197.79
942.898	5127.28
943.205	5101.97
943.511	5090.9
943.818	5112.37
944.125	5092.03
944.431	5084.12
944.738	5043.89
945.044	5006.38
945.35	4981.97
945.657	4961.41
945.963	4890.22
946.269	4893.39
946.575	4907.4
946.881	4882.77
947.187	4850.23
947.493	4829.89
947.799	4815.65
948.105	4741.08
948.41	4741.53
948.716	4689.1
949.022	4723.22
949.327	4731.36
949.633	4617.24
949.938	4680.29
950.244	4658.37
950.549	4599.84
950.854	4583.11
951.16	4549.67
951.465	4508.77
951.77	4559.84
952.075	4502.21
952.38	4475.32
952.685	4514.42
952.99	4430.8
953.294	4451.37
953.599	4411.59
953.904	4425.15
954.209	4418.82
954.513	4356.91
954.818	4339.73
955.122	4381.31
955.426	4304.25
955.731	4275.55
956.035	4234.87
956.339	4237.81
956.643	4228.32
956.948	4181.99
957.252	4189.68
957.556	4229.68
957.86	4135.44
958.163	4128.66
958.467	4157.59
958.771	4121.21
959.075	4081.88
959.378	4069.46
959.682	4048.89
959.985	4052.05
960.289	4047.76
960.592	3979.97
960.896	3985.62
961.199	3984.71
961.502	3939.52
961.805	3904.26
962.108	3918.95
962.411	3862.68
962.714	3842.79
963.017	3870.82
963.32	3873.3
963.623	3799.41
963.926	3790.14
964.228	3766.41
964.531	3764.6
964.833	3791.27
965.136	3714.21
965.438	3720.99
965.741	3738.62
966.043	3713.98
966.345	3704.49
966.648	3703.14
966.95	3661.56
967.252	3601.22
967.554	3626.3
967.856	3631.05
968.158	3584.95
968.46	3559.41
968.761	3560.54
969.063	3517.83
969.365	3525.97
969.666	3535.23
969.968	3495.91
970.269	3481.22
970.571	3459.75
970.872	3438.96
971.174	3417.04
971.475	3438.51
971.776	3392.86
972.077	3377.5
972.378	3333.2
972.679	3363.03
972.98	3343.6
973.281	3336.82
973.582	3326.65
973.883	3329.14
974.183	3301.79
974.484	3259.98
974.785	3238.52
975.085	3233.09
975.386	3215.47
975.686	3198.52
975.986	3229.03
976.287	3215.47
976.587	3141.57
976.887	3153.1
977.187	3149.03
977.487	3106.09
977.787	3110.16
978.087	3078.07
978.387	3059.54
978.687	3072.87
978.987	3061.35
979.286	3012.99
979.586	3011.63
979.885	2991.74
980.185	2969.82
980.484	2972.76
980.784	2938.19
981.083	3000.56
981.382	2945.42
981.682	2944.29
981.981	2947.22
982.28	2875.36
982.579	2873.78
982.878	2874.23
983.177	2918.98
983.475	2863.84
983.774	2838.53
984.073	2827
984.372	2800.11
984.67	2813.22
984.969	2785.65
985.267	2785.42
985.566	2757.17
985.864	2756.27
986.162	2759.21
986.461	2739.55
986.759	2731.19
987.057	2689.38
987.355	2670.17
987.653	2682.15
987.951	2676.5
988.249	2675.14
988.547	2596.73
988.844	2654.13
989.142	2651.41
989.44	2619.1
989.737	2609.61
990.035	2583.17
990.332	2538.87
990.63	2569.83
990.927	2548.37
991.224	2536.61
991.521	2565.31
991.819	2507.46
992.116	2514.47
992.413	2497.75
992.71	2481.93
993.006	2452.55
993.303	2426.56
993.6	2492.1
993.897	2405.32
994.193	2431.53
994.49	2407.13
994.787	2422.27
995.083	2382.04
995.379	2402.61
995.676	2378.2
995.972	2359.67
996.268	2380.01
996.565	2382.49
996.861	2302.72
997.157	2290.29
997.453	2281.71
997.749	2301.14
998.044	2252.78
998.34	2289.61
998.636	2286.68
998.932	2250.29
999.227	2224.08
999.523	2229.73
999.818	2196.51
1000.114	2201.93
1000.409	2187.47
1000.704	2149.73
1001	2151.09
1001.295	2151.31
1001.59	2153.57
1001.885	2135.27
1002.18	2096.17
1002.475	2068.6
1002.77	2071.54
1003.065	2077.19
1003.359	2072.45
1003.654	2052.33
1003.949	2055.72
1004.243	2040.13
1004.538	2022.73
1004.832	2013.46
1005.127	2015.5
1005.421	2003.97
1005.715	1967.14
1006.009	1980.7
1006.304	1968.04
1006.598	1935.5
1006.892	1937.08
1007.186	1952
1007.48	1928.95
1007.773	1895.73
1008.067	1862.06
1008.361	1879.91
1008.655	1869.06
1008.948	1860.02
1009.242	1855.05
1009.535	1847.82
1009.829	1823.19
1010.122	1820.02
1010.415	1808.27
1010.708	1777.99
1011.001	1810.08
1011.295	1783.41
1011.588	1771.21
1011.881	1736.86
1012.173	1749.97
1012.466	1733.92
1012.759	1758.1
1013.052	1718.56
1013.344	1732.34
1013.637	1714.26
1013.93	1697.99
1014.222	1679.91
1014.514	1682.85
1014.807	1641.95
1015.099	1622.29
1015.391	1658.22
1015.683	1661.61
1015.976	1632.68
1016.268	1585.45
1016.56	1619.35
1016.851	1599.01
1017.143	1577.54
1017.435	1575.74
1017.727	1549.52
1018.018	1552.23
1018.31	1527.38
1018.602	1531.44
1018.893	1547.49
1019.185	1526.92
1019.476	1496.42
1019.767	1505.45
1020.058	1481.27
1020.35	1473.82
1020.641	1455.06
1020.932	1468.39
1021.223	1453.25
1021.514	1467.49
1021.804	1395.63
1022.095	1430.88
1022.386	1421.62
1022.677	1403.54
1022.967	1399.69
1023.258	1374.38
1023.548	1350.88
1023.839	1364.89
1024.129	1352.69
1024.419	1355.63
1024.709	1364.22
1025	1336.19
1025.29	1309.3
1025.58	1318.12
1025.87	1314.73
1026.16	1309.53
1026.449	1285.12
1026.739	1280.15
1027.029	1263.65
1027.319	1251
1027.608	1237.89
1027.898	1251
1028.187	1232.24
1028.477	1234.73
1028.766	1210.32
1029.055	1206.25
1029.344	1224.56
1029.634	1222.98
1029.923	1200.38
1030.212	1211.9
1030.501	1153.6
1030.79	1160.61
1031.078	1182.75
1031.367	1145.69
1031.656	1153.37
1031.945	1127.84
1032.233	1145.24
1032.522	1097.33
1032.81	1105.24
1033.099	1091
1033.387	1074.73
1033.675	1093.71
1033.963	1087.39
1034.251	1074.05
1034.54	1068.86
1034.828	1069.53
1035.116	1060.04
1035.403	1053.94
1035.691	1035.41
1035.979	1049.2
1036.267	1041.51
1036.554	1014.85
1036.842	1014.17
1037.129	1009.42
1037.417	1020.5
1037.704	1001.51
1037.992	1006.71
1038.279	988.41
1038.566	971.01
1038.853	971.01
1039.14	971.01
