Data from hue_22_FLMS001491_00007.txt Node
Date: Tue Feb 07 17:09:25 GMT 2017
User: dcchb
Spectrometer: FLMS00149
Trigger mode: 0
Integration Time (sec): 2.000000E-2
Scans to average: 10
Electric dark correction enabled: true
Nonlinearity correction enabled: false
Boxcar width: 0
XAxis mode: Wavelengths
Number of Pixels in Spectrum: 2048
>>>>>Begin Spectral Data<<<<<
341.393	-32.17
341.776	-32.17
342.16	-32.17
342.543	-56.58
342.927	-69.46
343.31	-74.89
343.693	-68.78
344.077	-70.59
344.46	-61.1
344.843	-58.39
345.226	-51.16
345.61	-37.6
345.993	-28.33
346.376	2.63
346.759	14.6
347.142	27.94
347.525	30.42
347.908	81.5
348.291	78.78
348.674	82.62
349.057	132.34
349.44	108.61
349.823	158.1
350.206	177.76
350.588	193.36
350.971	208.72
351.354	246.01
351.737	234.49
352.119	251.21
352.502	271.32
352.884	293.47
353.267	275.16
353.65	286.01
354.032	312.22
354.414	303.41
354.797	312.68
355.179	310.19
355.562	318.32
355.944	320.58
356.326	324.43
356.709	326.91
357.091	316.97
357.473	341.83
357.855	346.12
358.238	325.78
358.62	343.64
359.002	346.35
359.384	351.54
359.766	345.22
360.148	335.73
360.53	317.2
360.912	336.18
361.294	335.95
361.676	356.52
362.057	331.43
362.439	321.04
362.821	318.78
363.203	313.58
363.584	329.17
363.966	337.99
364.348	312
364.729	326.46
365.111	310.87
365.493	322.17
365.874	317.87
366.256	336.86
366.637	317.87
367.019	320.36
367.4	342.28
367.781	346.57
368.163	312.45
368.544	309.74
368.925	313.58
369.306	322.62
369.688	310.64
370.069	335.27
370.45	301.6
370.831	310.42
371.212	321.49
371.593	306.57
371.974	330.3
372.355	326.01
372.736	310.64
373.117	314.03
373.498	312.68
373.879	310.19
374.26	328.95
374.641	328.27
375.021	323.75
375.402	326.91
375.783	309.51
376.163	347.25
376.544	338.21
376.925	307.7
377.305	323.07
377.686	337.31
378.066	331.66
378.447	338.89
378.827	312
379.208	327.82
379.588	329.17
379.968	313.58
380.349	323.07
380.729	329.85
381.109	323.07
381.489	324.88
381.87	345.44
382.25	337.53
382.63	357.42
383.01	321.49
383.39	324.88
383.77	319.68
384.15	330.08
384.53	339.79
384.91	350.64
385.29	365.1
385.67	334.6
386.049	363.75
386.429	353.35
386.809	339.79
387.189	344.76
387.568	337.76
387.948	354.93
388.328	340.47
388.707	351.77
389.087	359
389.466	356.06
389.846	355.16
390.225	369.4
390.605	357.87
390.984	347.02
391.363	344.76
391.743	343.41
392.122	361.26
392.501	366.01
392.881	359.23
393.26	382.05
393.639	375.27
394.018	362.62
394.397	365.1
394.776	393.13
395.155	396.51
395.534	354.71
395.913	388.83
396.292	393.8
396.671	365.78
397.05	399.45
397.429	375.5
397.808	372.11
398.186	379.79
398.565	378.66
398.944	381.83
399.323	372.33
399.701	406.01
400.08	382.28
400.458	383.41
400.837	403.07
401.215	418.44
401.594	395.39
401.972	392
402.351	415.95
402.729	394.26
403.107	411.43
403.486	417.53
403.864	405.33
404.242	406.46
404.62	433.8
404.999	406.91
405.377	406.46
405.755	396.97
406.133	426.12
406.511	412.79
406.889	405.33
407.267	425.89
407.645	431.77
408.023	440.81
408.401	440.13
408.779	443.52
409.156	426.34
409.534	430.64
409.912	427.7
410.29	464.31
410.667	437.19
411.045	440.36
411.422	440.13
411.8	438.1
412.178	453.46
412.555	459.11
412.933	459.56
413.31	451.65
413.687	449.17
414.065	476.06
414.442	470.64
414.819	447.81
415.197	501.37
415.574	462.95
415.951	501.6
416.328	485.1
416.705	486
417.082	487.59
417.46	493.01
417.837	482.61
418.214	515.16
418.591	497.08
418.967	508.15
419.344	511.09
419.721	477.87
420.098	492.56
420.475	515.16
420.852	540.92
421.228	503.18
421.605	518.77
421.982	516.96
422.358	549.28
422.735	541.37
423.111	510.64
423.488	536.4
423.864	522.84
424.241	540.01
424.617	518.77
424.994	549.51
425.37	539.11
425.746	541.6
426.123	551.54
426.499	528.26
426.875	541.82
427.251	562.39
427.627	581.14
428.003	574.59
428.379	560.58
428.756	601.93
429.132	561.03
429.507	559.22
429.883	592.44
430.259	591.99
430.635	587.47
431.011	609.62
431.387	602.84
431.763	600.35
432.138	642.61
432.514	629.5
432.89	628.6
433.265	661.59
433.641	625.44
434.016	648.71
434.392	657.75
434.767	652.55
435.143	651.88
435.518	655.72
435.894	659.78
436.269	666.34
436.644	665.66
437.02	670.18
437.395	667.02
437.77	686.45
438.145	704.98
438.52	702.95
438.895	690.74
439.271	692.78
439.646	700.46
440.021	720.57
440.395	715.83
440.77	710.41
441.145	730.52
441.52	739.33
441.895	711.76
442.27	733.68
442.645	741.82
443.019	739.33
443.394	770.52
443.769	750.4
444.143	748.82
444.518	759.22
444.892	747.92
445.267	766.45
445.641	746.34
446.016	758.77
446.39	749.27
446.764	810.97
447.139	775.71
447.513	777.3
447.887	770.74
448.262	780.46
448.636	817.07
449.01	811.19
449.384	822.04
449.758	800.35
450.132	797.18
450.506	801.25
450.88	813.68
451.254	833.79
451.628	838.99
452.002	811.65
452.376	842.83
452.75	853.68
453.123	843.06
453.497	876.73
453.871	880.12
454.244	886.22
454.618	890.29
454.992	893.9
455.365	872.89
455.739	915.6
456.112	907.01
456.486	916.73
456.859	936.39
457.232	942.04
457.606	947.69
457.979	972.55
458.352	954.92
458.725	977.06
459.099	978.19
459.472	980.23
459.845	1000.34
460.218	1027.01
460.591	1020.91
460.964	1011.64
461.337	1034.24
461.71	1055.71
462.083	1064.07
462.456	1069.94
462.829	1059.77
463.201	1118.76
463.574	1078.98
463.947	1113.56
464.32	1132.09
464.692	1137.51
465.065	1145.65
465.438	1153.56
465.81	1176.61
466.183	1187.23
466.555	1215.48
466.928	1208.02
467.3	1211.41
467.672	1240.56
468.045	1238.98
468.417	1252.76
468.789	1264.51
469.161	1274.01
469.534	1297.06
469.906	1315.13
470.278	1326.89
470.65	1338.64
471.022	1360.33
471.394	1401.01
471.766	1375.25
472.138	1416.83
472.51	1446.43
472.882	1462.7
473.253	1460.67
473.625	1489.37
473.997	1535.92
474.369	1520.33
474.74	1533.89
475.112	1593.77
475.484	1629.93
475.855	1599.65
476.227	1679.19
476.598	1686.42
476.97	1712.41
477.341	1725.75
477.713	1793.77
478.084	1773.88
478.455	1876.48
478.827	1850.71
479.198	1904.95
479.569	1945.63
479.94	1988.56
480.311	1995.79
480.682	2061.1
481.053	2073.76
481.424	2098.84
481.795	2137.26
482.166	2190.14
482.537	2242.12
482.908	2245.96
483.279	2258.84
483.65	2309.23
484.021	2336.8
484.391	2411.6
484.762	2445.95
485.133	2500.87
485.503	2490.7
485.874	2526.63
486.244	2609.56
486.615	2627.42
486.985	2692.27
487.356	2730.24
487.726	2777.24
488.097	2819.28
488.467	2841.42
488.837	2862.89
489.207	2912.16
489.578	2996.45
489.948	2990.8
490.318	3056.78
490.688	3071.47
491.058	3102.43
491.428	3198.02
491.798	3203.22
492.168	3273.05
492.538	3311.92
492.908	3345.14
493.278	3368.41
493.648	3352.14
494.017	3425.14
494.387	3491.57
494.757	3516.88
495.126	3584.23
495.496	3566.38
495.866	3638.46
496.235	3668.52
496.605	3692.47
496.974	3741.96
497.344	3734.28
497.713	3758.46
498.082	3803.66
498.452	3867.84
498.821	3908.06
499.19	3859.25
499.559	3902.86
499.928	3947.61
500.298	4005.01
500.667	4029.64
501.036	4074.38
501.405	4087.94
501.774	4077.1
502.143	4121.84
502.512	4106.7
502.88	4178.56
503.249	4166.13
503.618	4207.49
503.987	4206.81
504.356	4236.87
504.724	4280.03
505.093	4294.49
505.462	4350.31
505.83	4361.83
506.199	4411.78
506.567	4428.95
506.936	4451.32
507.304	4480.7
507.672	4496.75
508.041	4540.13
508.409	4543.75
508.777	4575.39
509.145	4596.18
509.514	4660.81
509.882	4664.65
510.25	4666.91
510.618	4706.91
510.986	4695.16
511.354	4689.96
511.722	4783.97
512.09	4797.76
512.458	4830.75
512.826	4823.97
513.193	4835.49
513.561	4925.44
513.929	4850.41
514.297	4895.83
514.664	4937.64
515.032	4972.44
515.4	4978.54
515.767	5006.79
516.135	5043.62
516.502	5024.19
516.869	5098.09
517.237	5117.52
517.604	5066.45
517.972	5120.91
518.339	5153
518.706	5141.93
519.073	5179.21
519.44	5222.38
519.808	5261.47
520.175	5261.25
520.542	5312.54
520.909	5338.76
521.276	5327.91
521.643	5335.59
522.009	5394.35
522.376	5454.91
522.743	5454.24
523.11	5470.05
523.477	5501.24
523.843	5587.11
524.21	5628.92
524.577	5630.05
524.943	5661.24
525.31	5634.8
525.676	5714.79
526.043	5727.45
526.409	5759.54
526.776	5832.08
527.142	5792.31
527.508	5830.5
527.874	5908.69
528.241	5962.02
528.607	5988.23
528.973	6019.64
529.339	6036.14
529.705	6052.64
530.071	6101.9
530.437	6107.33
530.803	6143.71
531.169	6209.7
531.535	6196.59
531.901	6171.05
532.267	6210.6
532.632	6291.73
532.998	6289.47
533.364	6334.66
533.73	6292.41
534.095	6365.62
534.461	6435.9
534.826	6410.82
535.192	6464.15
535.557	6527.65
535.923	6523.81
536.288	6569.46
536.653	6582.79
537.019	6627.76
537.384	6613.98
537.749	6578.95
538.114	6640.64
538.479	6677.48
538.845	6703.69
539.21	6693.3
539.575	6745.73
539.94	6813.52
540.305	6792.05
540.67	6818.04
541.034	6866.63
541.399	6915.67
541.764	6914.31
542.129	6900.3
542.494	6969.68
542.858	7024.82
543.223	7013.97
543.587	7103.91
543.952	6999.96
544.316	7056.9
544.681	7093.51
545.045	7118.82
545.41	7147.07
545.774	7207.64
546.138	7235.21
546.503	7186.39
546.867	7248.54
547.231	7316.56
547.595	7333.51
547.959	7357.01
548.324	7404.69
548.688	7366.05
549.052	7418.7
549.416	7489.21
549.779	7439.27
550.143	7484.69
550.507	7522.2
550.871	7520.85
551.235	7590.45
551.599	7597.91
551.962	7659.37
552.326	7633.16
552.689	7710.9
553.053	7667.51
553.417	7733.72
553.78	7799.71
554.143	7857.56
554.507	7805.36
554.87	7865.25
555.234	7890.33
555.597	7859.37
555.96	7886.71
556.323	7978.91
556.686	7989.31
557.05	8007.16
557.413	8030.89
557.776	8012.36
558.139	8139.36
558.502	8144.79
558.865	8170.77
559.228	8165.58
559.59	8220.94
559.953	8236.31
560.316	8295.06
560.679	8269.08
561.041	8276.31
561.404	8377.32
561.767	8387.72
562.129	8391.78
562.492	8461.39
562.854	8450.77
563.217	8473.59
563.579	8547.26
563.941	8519.24
564.304	8561.5
564.666	8661.61
565.028	8629.52
565.39	8629.74
565.753	8682.17
566.115	8711.32
566.477	8766.24
566.839	8863.19
567.201	8862.06
567.563	8900.25
567.925	8903.64
568.287	8993.8
568.648	8903.86
569.01	9000.58
569.372	9027.02
569.734	9114.03
570.095	9123.97
570.457	9205.1
570.819	9157.41
571.18	9247.13
571.542	9323.06
571.903	9330.52
572.265	9382.95
572.626	9436.96
572.987	9429.72
573.349	9541.81
573.71	9555.14
574.071	9560.34
574.432	9599.21
574.794	9759.43
575.155	9681.69
575.516	9795.59
575.877	9850.73
576.238	9954.23
576.599	9970.73
576.96	10019.31
577.32	10055.92
577.681	10209.82
578.042	10269.02
578.403	10371.62
578.763	10429.02
579.124	10451.84
579.485	10613.87
579.845	10713.31
580.206	10787.65
580.566	10925.73
580.927	11011.83
581.287	11135.67
581.648	11248.66
582.008	11373.63
582.368	11489.33
582.728	11546.28
583.089	11793.28
583.449	11882.31
583.809	12054.29
584.169	12273.94
584.529	12360.95
584.889	12607.49
585.249	12750.77
585.609	12799.58
585.969	13134.26
586.329	13279.79
586.688	13511.42
587.048	13706.9
587.408	13929.04
587.768	14140.11
588.127	14279.77
588.487	14508.01
588.846	14848.56
589.206	14977.15
589.565	15239.97
589.925	15591.6
590.284	15776
590.643	16097.35
591.003	16349.99
591.362	16717.44
591.721	16912.46
592.08	17125.57
592.44	17535.27
592.799	17781.14
593.158	18081.7
593.517	18300.23
593.876	18678.97
594.235	18881.9
594.593	19284.83
594.952	19660.87
595.311	19698.61
595.67	20112.83
596.029	20584.46
596.387	20905.13
596.746	21212.69
597.104	21377.88
597.463	21712.11
597.822	22142.16
598.18	22305.54
598.538	22702.6
598.897	23116.14
599.255	23257.16
599.613	23858.04
599.972	23961.32
600.33	24436.56
600.688	24594.07
601.046	25021.4
601.404	25426.82
601.762	25562.86
602.12	26135.05
602.478	26294.14
602.836	26622.27
603.194	26806.89
603.552	27167.56
603.91	27229.26
604.268	27749.92
604.625	28022.91
604.983	28369.11
605.341	28521.43
605.698	28963.9
606.056	29288.86
606.413	29414.06
606.771	29887.04
607.128	30163.87
607.485	30270.98
607.843	30515.27
608.2	30896.5
608.557	31152.32
608.914	31288.36
609.272	31737.39
609.629	31979.87
609.986	32222.34
610.343	32348.44
610.7	32806.28
611.057	32828.2
611.414	33065.49
611.771	33392.94
612.127	33662.98
612.484	33814.39
612.841	34257.09
613.198	34253.93
613.554	34528.27
613.911	34815.72
614.267	34958.54
614.624	35173.91
614.98	35344.07
615.337	35598.98
615.693	35763.49
616.05	35844.85
616.406	36369.58
616.762	36295.68
617.118	36446.64
617.475	36487.54
617.831	36779.74
618.187	36970.24
618.543	37174.31
618.899	37518.7
619.255	37635.76
619.611	37639.6
619.967	37877.34
620.323	38097.44
620.678	38056.77
621.034	38046.15
621.39	38235.07
621.746	38323.88
622.101	38847.71
622.457	38566.81
622.812	38819.23
623.168	38980.59
623.523	39176.51
623.879	39277.98
624.234	39190.75
624.589	39408.37
624.945	39504.64
625.3	39668.93
625.655	39618.31
626.01	39727.46
626.365	39868.02
626.72	39833.9
627.075	39878.41
627.43	40010.39
627.785	40017.62
628.14	40264.85
628.495	40256.03
628.85	40369.25
629.205	40212.42
629.559	40593.2
629.914	40358.4
630.269	40525.4
630.623	40352.3
630.978	40437.27
631.332	40702.57
631.687	40719.3
632.041	40708.9
632.396	40863.02
632.75	40559.07
633.104	40724.27
633.459	40712.29
633.813	40759.97
634.167	40730.82
634.521	40684.95
634.875	40917.26
635.229	40863.93
635.583	40741.22
635.937	40788
636.291	40673.42
636.645	40746.41
636.999	40742.35
637.352	40877.48
637.706	40737.38
638.06	40900.76
638.413	40839.07
638.767	40738.51
639.121	40651.05
639.474	40640.2
639.828	40743.7
640.181	40698.05
640.534	40691.05
640.888	40588.68
641.241	40564.95
641.594	40663.93
641.947	40762.46
642.301	40797.26
642.654	40702.12
643.007	40765.17
643.36	40643.14
643.713	40561.11
644.066	40781.89
644.419	40666.19
644.771	40310.72
645.124	40015.36
645.477	39923.39
645.83	39752.77
646.182	39611.53
646.535	39541.25
646.888	39528.59
647.24	39408.14
647.593	39676.39
647.945	39632.32
648.298	39389.39
648.65	39388.71
649.002	39216.29
649.355	39435.26
649.707	39358.65
650.059	39686.56
650.411	39945.76
650.763	40062.14
651.115	40400.21
651.467	40260.1
651.819	40363.15
652.171	40150.27
652.523	40237.5
652.875	40169.71
653.227	40113.44
653.578	40479.53
653.93	40295.58
654.282	40242.7
654.633	40047.22
654.985	40203.15
655.337	40118.18
655.688	40174
656.039	40201.57
656.391	39981.46
656.742	40154.57
657.094	39943.5
657.445	40212.87
657.796	40244.96
658.147	40081.35
658.498	40110.72
658.849	40174.23
659.2	40025.76
659.551	39880.45
659.902	40030.95
660.253	39971.75
660.604	40003.84
660.955	39959.32
661.306	40028.02
661.656	39920
662.007	39928.36
662.358	40009.03
662.708	39832.77
663.059	39927.68
663.409	39706.67
663.76	40021.69
664.11	40075.92
664.461	39914.35
664.811	39974.46
665.161	40011.52
665.511	39950.96
665.862	39796.83
666.212	39905.76
666.562	40052.87
666.912	39928.36
667.262	39929.49
667.612	39790.06
667.962	39862.14
668.312	39776.04
668.662	39898.75
669.011	39762.71
669.361	39698.98
669.711	39763.62
670.06	39765.2
670.41	39699.21
670.76	39592.32
671.109	39890.84
671.459	39716.84
671.808	39633.22
672.157	39846.33
672.507	39475.26
672.856	39550.74
673.205	39586.67
673.554	39616.05
673.904	39583.51
674.253	39679.55
674.602	39626.9
674.951	39074.37
675.3	38876.41
675.649	39432.32
675.998	39369.95
676.346	39385.32
676.695	39524.3
677.044	39275.49
677.393	39473.23
677.741	39478.88
678.09	39316.17
678.438	39240.01
678.787	39200.24
679.135	39379.67
679.484	39062.62
679.832	39269.17
680.181	38974.03
680.529	39209.96
680.877	38911.66
681.225	39042.28
681.573	39135.84
681.922	38964.99
682.27	38837.76
682.618	38900.36
682.966	38710.76
683.314	38850.19
683.661	38719.8
684.009	38547.6
684.357	38354.39
684.705	38342.86
685.053	38475.51
685.4	38373.37
685.748	38228.51
686.095	38207.72
686.443	38055.64
686.79	37985.58
687.138	38083.66
687.485	38104
687.832	37986.94
688.18	38039.14
688.527	37781.07
688.874	37808.19
689.221	37667.17
689.568	37587.63
689.915	37630.34
690.262	37459.72
690.609	37500.62
690.956	37312.61
691.303	37283.68
691.65	37137.92
691.997	37200.29
692.344	36947.19
692.69	36791.94
693.037	36850.47
693.383	36698.16
693.73	36768.89
694.077	36444.61
694.423	36438.96
694.769	36445.74
695.116	36398.51
695.462	36267.89
695.808	36085.52
696.155	36204.39
696.501	36057.5
696.847	36058.63
697.193	35694.8
697.539	35798.52
697.885	35685.3
698.231	35492.99
698.577	35550.62
698.923	35473.11
699.269	35317.63
699.614	35146.79
699.96	35065.89
700.306	35082.16
700.651	34893.01
700.997	34741.15
701.342	34792.22
701.688	34640.36
702.033	34604.88
702.379	34512.45
702.724	34526.92
703.069	34516.75
703.415	34096.19
703.76	34180.03
704.105	34259.58
704.45	34036.31
704.795	33924.67
705.14	33958.34
705.485	33908.63
705.83	33677
706.175	33711.35
706.52	33705.47
706.865	33521.29
707.209	33422.99
707.554	33454.85
707.899	33491.46
708.243	33250.34
708.588	33097.58
708.932	32924.47
709.277	32990.69
709.621	32978.71
709.966	32673.41
710.31	32816.68
710.654	32603.8
710.998	32703.24
711.342	32638.83
711.687	32562.22
712.031	32462.56
712.375	32291.04
712.719	32391.61
713.063	32309.8
713.407	32350.7
713.75	32082.91
714.094	32207.2
714.438	32101.9
714.782	32068.22
715.125	31867.33
715.469	31985.97
715.812	31740.1
716.156	31771.06
716.499	31620.55
716.843	31643.6
717.186	31468.01
717.53	31638.18
717.873	31535.81
718.216	31488.13
718.559	31336.94
718.902	31155.93
719.246	31318.87
719.589	31079.1
719.932	31020.34
720.275	31066.89
720.617	30986.67
720.96	31006.11
721.303	30793.68
721.646	30921.14
721.989	30776.73
722.331	30826.9
722.674	30707.81
723.016	30715.27
723.359	30569.51
723.701	30691.09
724.044	30396.63
724.386	30364.99
724.729	30525.44
725.071	30367.03
725.413	30327.48
725.755	30252.45
726.097	30236.18
726.439	30040.03
726.782	30059.01
727.124	30143.08
727.465	30085.9
727.807	30014.27
728.149	30008.39
728.491	29800.49
728.833	29936.53
729.175	29882.07
729.516	29679.81
729.858	29720.04
730.199	29779.92
730.541	29621.28
730.882	29606.14
731.224	29744.22
731.565	29475.3
731.906	29402.76
732.248	29475.98
732.589	29301.97
732.93	29260.61
733.271	29284.57
733.612	29322.31
733.953	29253.38
734.294	29068.08
734.635	29065.37
734.976	29142.88
735.317	29004.8
735.658	28987.18
735.999	28977.01
736.339	28926.61
736.68	29063.33
737.021	28904.01
737.361	28814.07
737.702	28943.79
738.042	28812.94
738.383	28783.34
738.723	28822.21
739.063	28589.45
739.404	28713.74
739.744	28657.01
740.084	28577.02
740.424	28525.04
740.764	28459.96
741.104	28601.65
741.444	28343.12
741.784	28367.08
742.124	28307.65
742.464	28345.61
742.804	28287.99
743.143	28146.07
743.483	28196.69
743.823	27942.23
744.162	28070.82
744.502	28108.78
744.841	27868.56
745.181	27988.11
745.52	27832.18
745.86	28062.91
746.199	27827.43
746.538	27923.93
746.877	27927.77
747.216	27873.31
747.556	27738.17
747.895	27766.19
748.234	27616.36
748.573	27641
748.911	27725.51
749.25	27628.34
749.589	27472.41
749.928	27591.73
750.267	27590.15
750.605	27588.57
750.944	27263.15
751.283	27322.59
751.621	27363.94
751.96	27280.33
752.298	27248.46
752.636	27144.96
752.975	27070.84
753.313	27059.99
753.651	27056.6
753.989	26985.42
754.327	26881.47
754.666	26719.89
755.004	26828.59
755.342	26808.93
755.679	26652.55
756.017	26578.2
756.355	26602.15
756.693	26517.86
757.031	26676.73
757.368	26376.62
757.706	26376.4
758.044	26222.5
758.381	26292.11
758.719	26203.97
759.056	26171.43
759.394	26154.26
759.731	25921.95
760.068	25882.85
760.405	25820.48
760.743	25840.59
761.08	25842.17
761.417	25751.55
761.754	25621.84
762.091	25570.32
762.428	25423.43
762.765	25297.56
763.102	25464.56
763.438	25258.46
763.775	25224.79
764.112	25176.65
764.449	25177.11
764.785	25089.43
765.122	24816.89
765.458	24745.48
765.795	24789.77
766.131	24822.54
766.467	24673.16
766.804	24626.16
767.14	24392.49
767.476	24291.48
767.812	24333.06
768.148	24377.13
768.485	24113.18
768.821	24070.92
769.157	24068.43
769.492	23889.68
769.828	23927.87
770.164	23668.67
770.5	23710.03
770.836	23623.7
771.171	23614.66
771.507	23338.06
771.842	23400.88
772.178	23279.98
772.513	23230.49
772.849	23197.05
773.184	23089.48
773.519	23076.6
773.855	22960.22
774.19	22871.18
774.525	22822.59
774.86	22795.93
775.195	22641.35
775.53	22538.08
775.865	22475.03
776.2	22287.24
776.535	22176.06
776.87	22180.35
777.205	22018.55
777.539	22064.19
777.874	22118.88
778.209	21919.79
778.543	21750.98
778.878	21747.59
779.212	21628.27
779.547	21521.38
779.881	21622.4
780.215	21399.13
780.55	21341.95
780.884	21266.02
781.218	21251.33
781.552	21146.48
781.886	21063.77
782.22	20978.57
782.554	20885.47
782.888	20767.5
783.222	20719.82
783.556	20614.29
783.889	20657.45
784.223	20442.32
784.557	20372.03
784.89	20386.95
785.224	20243.45
785.557	20139.72
785.891	20171.14
786.224	20100.4
786.558	20062.21
786.891	19923.01
787.224	19822.22
787.557	19707.87
787.891	19640.98
788.224	19675.1
788.557	19750.81
788.89	19566.18
789.223	19614.09
789.556	19321.22
789.888	19336.58
790.221	19205.51
790.554	19149.02
790.887	19149.69
791.219	19004.39
791.552	18997.83
791.884	18965.74
792.217	18948.8
792.549	18827.44
792.882	18709.03
793.214	18633.78
793.546	18704.28
793.879	18476.04
794.211	18390.39
794.543	18397.4
794.875	18394.46
795.207	18469.03
795.539	18386.1
795.871	18317.17
796.203	18154.24
796.535	18140
796.867	18014.58
797.198	17914.92
797.53	17946.11
797.862	17842.61
798.193	17843.74
798.525	17716.51
798.856	17782.72
799.188	17542.5
799.519	17473.35
799.85	17461.15
800.182	17335.96
800.513	17382.96
800.844	17290.99
801.175	17238.56
801.506	17309.52
801.837	17181.84
802.168	17158.11
802.499	17069.75
802.83	17047.6
803.161	16953.59
803.491	16943.42
803.822	16837.66
804.153	16932.13
804.483	16605.81
804.814	16622.3
805.145	16726.03
805.475	16608.52
805.805	16539.59
806.136	16540.72
806.466	16532.59
806.796	16573.49
807.126	16397.9
807.457	16335.76
807.787	16293.72
808.117	16279.04
808.447	16152.94
808.777	16133.95
809.107	16127.17
809.436	16049.21
809.766	16049.44
810.096	16098.93
810.426	15883.11
810.755	15939.61
811.085	15887.18
811.414	15961.76
811.744	15718.82
812.073	15688.32
812.403	15673.18
812.732	15693.51
813.061	15703.91
813.39	15547.08
813.719	15438.61
814.049	15593.18
814.378	15498.72
814.707	15435.67
815.036	15395.67
815.365	15300.76
815.693	15138.27
816.022	15233.19
816.351	15152.96
816.68	15030.71
817.008	15133.08
817.337	15024.38
817.665	14893.76
817.994	15031.38
818.322	14932.18
818.651	14927.88
818.979	14841.78
819.307	14889.47
819.636	14811.5
819.964	14763.37
820.292	14849.92
820.62	14802.24
820.948	14764.27
821.276	14747.1
821.604	14652.19
821.932	14666.42
822.259	14687.44
822.587	14642.24
822.915	14662.58
823.243	14649.25
823.57	14659.87
823.898	14675.24
824.225	14651.06
824.553	14620.77
824.88	14661.68
825.207	14726.31
825.535	14594.79
825.862	14653.77
826.189	14549.82
826.516	14653.77
826.843	14678.17
827.17	14660.09
827.497	14717.04
827.824	14618.06
828.151	14670.26
828.478	14666.87
828.805	14701.9
829.131	14668.68
829.458	14666.65
829.785	14518.86
830.111	14626.2
830.438	14575.13
830.764	14582.13
831.09	14575.35
831.417	14629.59
831.743	14623.03
832.069	14565.41
832.395	14490.16
832.722	14555.69
833.048	14532.64
833.374	14518.63
833.7	14362.7
834.026	14403.15
834.351	14517.95
834.677	14497.16
835.003	14394.11
835.329	14405.64
835.654	14380.1
835.98	14353.66
836.306	14396.15
836.631	14297.62
836.956	14321.8
837.282	14290.16
837.607	14211.29
837.932	14202.48
838.258	14219.88
838.583	14176.94
838.908	14170.62
839.233	14119.77
839.558	14083.39
839.883	14094.01
840.208	14021.47
840.533	14087.68
840.858	14027.12
841.182	14057.17
841.507	13960.45
841.832	13858.31
842.156	13911.41
842.481	13898.98
842.805	13824.18
843.13	13791.42
843.454	13804.3
843.778	13722.72
844.103	13722.27
844.427	13686.56
844.751	13712.55
845.075	13572.89
845.399	13589.39
845.723	13468.04
846.047	13479.56
846.371	13388.72
846.695	13359.11
847.019	13412.67
847.343	13159.12
847.666	13219.23
847.99	13089.29
848.313	13115.5
848.637	13035.73
848.96	13046.13
849.284	12962.96
849.607	12911.67
849.931	12915.96
850.254	12741.95
850.577	12680.94
850.9	12674.61
851.223	12690.66
851.546	12603.2
851.869	12440.94
852.192	12514.16
852.515	12393.26
852.838	12412.24
853.161	12327.05
853.483	12298.35
853.806	12221.06
854.129	12193.04
854.451	12099.48
854.774	12149.43
855.096	12165.7
855.419	12072.14
855.741	12069.65
856.063	11885.48
856.385	11867.4
856.708	11863.78
857.03	11733.84
857.352	11858.13
857.674	11783.33
857.996	11724.8
858.318	11638.25
858.64	11625.82
858.961	11738.36
859.283	11537.46
859.605	11481.42
859.926	11542.89
860.248	11501.99
860.57	11436.9
860.891	11525.49
861.212	11447.98
861.534	11349.22
861.855	11332.27
862.176	11386.51
862.498	11353.06
862.819	11345.83
863.14	11324.36
863.461	11246.17
863.782	11219.73
864.103	11269
864.424	11197.13
864.745	11166.18
865.065	11166.18
865.386	11150.58
865.707	11080.53
866.027	11101.54
866.348	11106.06
866.668	11152.39
866.989	11090.02
867.309	10986.97
867.63	11046.63
867.95	11105.84
868.27	10887.09
868.59	11007.08
868.91	10938.61
869.23	10863.81
869.55	10805.28
869.87	10895.9
870.19	10846.86
870.51	10817.48
870.83	10901.78
871.15	10774.55
871.469	10787.65
871.789	10758.73
872.109	10784.04
872.428	10733.19
872.748	10751.04
873.067	10693.42
873.386	10723.02
873.706	10667.66
874.025	10592.86
874.344	10617.72
874.663	10513.99
874.982	10616.13
875.301	10544.27
875.62	10560.32
875.939	10520.77
876.258	10552.18
876.577	10456.36
876.896	10417.95
877.214	10412.07
877.533	10435.35
877.852	10378.85
878.17	10455.23
878.489	10386.53
878.807	10371.85
879.125	10362.13
879.444	10353.77
879.762	10287.1
880.08	10349.25
880.398	10328.46
880.716	10314.9
881.034	10237.61
881.352	10251.85
881.67	10208.01
881.988	10194.68
882.306	10152.19
882.624	10144.06
882.941	10093.21
883.259	10069.93
883.577	10053.44
883.894	10078.97
884.212	10046.66
884.529	9997.62
884.846	9942.48
885.164	9929.82
885.481	9901.58
885.798	9930.28
886.115	9864.06
886.432	9882.37
886.75	9875.14
887.067	9810.05
887.383	9801.69
887.7	9771.18
888.017	9716.72
888.334	9775.7
888.651	9738.19
888.967	9644.41
889.284	9622.49
889.6	9600.79
889.917	9524.41
890.233	9613.22
890.55	9534.35
890.866	9550.62
891.182	9480.57
891.498	9463.4
891.815	9486.67
892.131	9396.5
892.447	9429.05
892.763	9331.2
893.079	9369.39
893.395	9310.63
893.71	9257.52
894.026	9174.59
894.342	9191.31
894.657	9146.34
894.973	9184.08
895.289	9082.39
895.604	9121.94
895.92	9081.71
896.235	8997.64
896.55	8978.21
896.865	8984.76
897.181	8963.07
897.496	8966.91
897.811	8914.03
898.126	8860.47
898.441	8830.42
898.756	8843.75
899.071	8741.38
899.386	8802.85
899.7	8722.4
900.015	8619.35
900.33	8612.12
900.644	8571.44
900.959	8645.56
901.273	8542.52
901.588	8545.23
901.902	8428.17
902.216	8481.5
902.531	8461.16
902.845	8394.95
903.159	8377.32
903.473	8316.08
903.787	8325.8
904.101	8208.29
904.415	8304.78
904.729	8262.07
905.042	8147.95
905.356	8147.95
905.67	8131.9
905.984	8096.65
906.297	8069.76
906.611	8079.02
906.924	8063.43
907.237	7926.94
907.551	7924.68
907.864	7882.65
908.177	7881.29
908.491	7850.56
908.804	7869.54
909.117	7728.07
909.43	7680.62
909.743	7686.27
910.056	7698.02
910.368	7592.48
910.681	7535.99
910.994	7582.09
911.307	7534.63
911.619	7493.05
911.932	7554.29
912.244	7441.53
912.557	7416.67
912.869	7412.83
913.181	7327.63
913.494	7344.81
913.806	7300.29
914.118	7236.34
914.43	7296.67
914.742	7262.55
915.054	7212.83
915.366	7167.18
915.678	7168.09
915.99	7124.7
916.302	7033.4
916.613	6998.83
916.925	7047.19
917.236	6984.59
917.548	6936.91
917.859	6920.19
918.171	6912.73
918.482	6883.35
918.794	6887.19
919.105	6845.38
919.416	6756.35
919.727	6740.53
920.038	6710.7
920.349	6672.28
920.66	6668.21
920.971	6679.51
921.282	6630.93
921.593	6589.35
921.903	6574.66
922.214	6560.42
922.525	6479.29
922.835	6510.93
923.146	6534.88
923.456	6435.68
923.767	6413.98
924.077	6409.69
924.387	6351.84
924.697	6300.31
925.008	6313.87
925.318	6256.7
925.628	6259.19
925.938	6271.39
926.248	6176.48
926.558	6161.34
926.867	6137.16
927.177	6121.34
927.487	6083.37
927.796	5993.43
928.106	6023.94
928.416	5992.75
928.725	5997.95
929.034	5939.19
929.344	5938.97
929.653	5918.4
929.962	5884.73
930.271	5833.21
930.581	5831.4
930.89	5795.02
931.199	5760.44
931.508	5707.56
931.817	5727.67
932.125	5689.48
932.434	5675.25
932.743	5661.24
933.051	5645.19
933.36	5571.52
933.669	5587.56
933.977	5597.96
934.286	5519.09
934.594	5570.39
934.902	5465.76
935.21	5430.51
935.519	5427.57
935.827	5464.86
936.135	5406.78
936.443	5371.98
936.751	5373.56
937.059	5390.96
937.367	5294.47
937.674	5331.98
937.982	5304.18
938.29	5244.07
938.597	5252.21
938.905	5191.19
939.213	5185.09
939.52	5121.59
939.827	5142.38
940.135	5140.35
940.442	5118.42
940.749	5117.75
941.056	5070.06
941.363	5014.92
941.67	5024.64
941.977	4991.42
942.284	4957.07
942.591	4920.01
942.898	4865.55
943.205	4877.98
943.511	4838.21
943.818	4821.48
944.125	4799.56
944.431	4826
944.738	4762.28
945.044	4786.46
945.35	4733.58
945.657	4727.47
945.963	4677.98
946.269	4675.05
946.575	4699
946.881	4652.45
947.187	4617.65
947.493	4622.39
947.799	4616.52
948.105	4573.35
948.41	4539.91
948.716	4537.65
949.022	4502.85
949.327	4502.17
949.633	4434.83
949.938	4474.37
950.244	4434.6
950.549	4399.12
950.854	4427.14
951.16	4383.53
951.465	4329.29
951.77	4309.41
952.075	4298.33
952.38	4290.88
952.685	4252.91
952.99	4251.33
953.294	4269.63
953.599	4191.22
953.904	4242.06
954.209	4147.38
954.513	4154.61
954.818	4145.34
955.122	4131.11
955.426	4129.75
955.731	4083.42
956.035	4053.37
956.339	4046.14
956.643	4045.91
956.948	3996.87
957.252	3947.83
957.556	3984.67
957.86	3972.69
958.163	3960.26
958.467	3918.68
958.771	3899.7
959.075	3913.94
959.378	3852.47
959.682	3881.85
959.985	3836.2
960.289	3823.77
960.592	3828.74
960.896	3794.84
961.199	3800.04
961.502	3781.96
961.805	3732.25
962.108	3711.46
962.411	3741.74
962.714	3697.45
963.017	3683.43
963.32	3673.94
963.623	3664
963.926	3616.77
964.228	3611.8
964.531	3611.35
964.833	3585.13
965.136	3550.56
965.438	3539.03
965.741	3523.66
966.043	3549.88
966.345	3489.77
966.648	3516.66
966.95	3509.2
967.252	3442.76
967.554	3434.63
967.856	3454.06
968.158	3433.27
968.46	3381.3
968.761	3395.98
969.063	3389.66
969.365	3361.18
969.666	3350.79
969.968	3338.58
970.269	3310.56
970.571	3327.96
970.872	3321.64
971.174	3255.2
971.475	3266.27
971.776	3249.77
972.077	3225.59
972.378	3188.53
972.679	3239.38
972.98	3200.74
973.281	3208.19
973.582	3194.41
973.883	3179.94
974.183	3144.92
974.484	3131.13
974.785	3104.47
975.085	3162.32
975.386	3080.74
975.686	3085.71
975.986	3097.01
976.287	3073.28
976.587	3034.86
976.887	3030.8
977.187	3001.64
977.487	3009.33
977.787	2988.99
978.087	2950.12
978.387	2925.04
978.687	2975.88
978.987	2941.31
979.286	2931.82
979.586	2898.37
979.885	2880.07
980.185	2867.86
980.484	2870.8
980.784	2835.55
981.083	2821.54
981.382	2824.25
981.682	2818.15
981.981	2791.48
982.28	2783.8
982.579	2760.75
982.878	2809.56
983.177	2740.41
983.475	2746.74
983.774	2739.96
984.073	2727.3
984.372	2713.74
984.67	2679.17
984.969	2702.44
985.267	2675.55
985.566	2694.76
985.864	2622.67
986.162	2650.92
986.461	2608.43
986.759	2599.39
987.057	2592.39
987.355	2579.06
987.653	2565.95
987.951	2563.92
988.249	2567.31
988.547	2551.03
988.844	2518.04
989.142	2519.62
989.44	2487.08
989.737	2473.52
990.035	2491.6
990.332	2469.45
990.63	2439.17
990.927	2469.45
991.224	2431.72
991.521	2426.97
991.819	2421.32
992.116	2435.78
992.413	2392.85
992.71	2377.03
993.006	2379.97
993.303	2354.43
993.6	2358.95
993.897	2385.39
994.193	2298.16
994.49	2334.32
994.787	2306.3
995.083	2278.27
995.379	2265.84
995.676	2278.95
995.972	2270.36
996.268	2236.01
996.565	2236.24
996.861	2218.16
997.157	2232.17
997.453	2212.29
997.749	2185.39
998.044	2196.02
998.34	2175.45
998.636	2166.64
998.932	2148.33
999.227	2121.44
999.523	2163.25
999.818	2140.88
1000.114	2097.49
1000.409	2123.7
1000.704	2080.99
1001	2059.75
1001.295	2083.48
1001.59	2023.82
1001.885	2044.38
1002.18	2015
1002.475	2071.05
1002.77	2005.74
1003.065	1984.72
1003.359	1982.01
1003.654	1985.17
1003.949	1958.73
1004.243	1960.77
1004.538	1936.59
1004.832	1933.2
1005.127	1902.46
1005.421	1909.7
1005.715	1920.54
1006.009	1891.16
1006.304	1897.49
1006.598	1864.72
1006.892	1882.58
1007.186	1845.06
1007.48	1835.57
1007.773	1847.1
1008.067	1813.88
1008.361	1796.03
1008.655	1801.68
1008.948	1778.63
1009.242	1771.39
1009.535	1765.29
1009.829	1751.28
1010.122	1752.86
1010.415	1755.12
1010.708	1733.2
1011.001	1732.53
1011.295	1695.01
1011.588	1690.27
1011.881	1699.98
1012.173	1704.28
1012.466	1650.04
1012.759	1675.35
1013.052	1643.04
1013.344	1641
1013.637	1662.7
1013.93	1622.7
1014.222	1619.08
1014.514	1614.79
1014.807	1598.74
1015.099	1588.8
1015.391	1592.19
1015.683	1566.65
1015.976	1581.57
1016.268	1551.29
1016.56	1536.6
1016.851	1551.74
1017.143	1527.56
1017.435	1490.05
1017.727	1483.72
1018.018	1499.08
1018.31	1484.62
1018.602	1483.49
1018.893	1481.46
1019.185	1464.06
1019.476	1428.35
1019.767	1428.58
1020.058	1451.18
1020.35	1396.04
1020.641	1379.99
1020.932	1404.62
1021.223	1379.77
1021.514	1372.08
1021.804	1374.79
1022.095	1364.85
1022.386	1356.26
1022.677	1351.97
1022.967	1328.02
1023.258	1353.55
1023.548	1311.75
1023.839	1309.26
1024.129	1287.34
1024.419	1270.39
1024.709	1296.6
1025	1273.78
1025.29	1267.23
1025.58	1257.06
1025.87	1270.84
1026.16	1249.6
1026.449	1241.24
1026.739	1244.85
1027.029	1238.98
1027.319	1197.17
1027.608	1191.3
1027.898	1185.65
1028.187	1191.75
1028.477	1178.64
1028.766	1171.86
1029.055	1154.01
1029.344	1167.57
1029.634	1176.83
1029.923	1160.11
1030.212	1148.59
1030.501	1125.99
1030.79	1116.04
1031.078	1131.18
1031.367	1116.27
1031.656	1109.94
1031.945	1083.5
1032.233	1097.51
1032.522	1081.47
1032.81	1062.03
1033.099	1064.97
1033.387	1071.3
1033.675	1072.2
1033.963	1048.7
1034.251	1062.03
1034.54	1025.43
1034.828	1038.98
1035.116	1036.95
1035.403	1022.49
1035.691	1009.38
1035.979	1024.52
1036.267	989.95
1036.554	1011.87
1036.842	997.63
1037.129	967.35
1037.417	956.95
1037.704	967.8
1037.992	980
1038.279	951.08
1038.566	947.46
1038.853	947.46
1039.14	947.46
