Data from hue_120_FLMS001491_00084.txt Node
Date: Tue Feb 07 17:00:08 GMT 2017
User: dcchb
Spectrometer: FLMS00149
Trigger mode: 0
Integration Time (sec): 2.000000E-2
Scans to average: 10
Electric dark correction enabled: true
Nonlinearity correction enabled: false
Boxcar width: 0
XAxis mode: Wavelengths
Number of Pixels in Spectrum: 2048
>>>>>Begin Spectral Data<<<<<
341.393	-7.64
341.776	-7.64
342.16	-7.64
342.543	-60.75
342.927	-68.43
343.31	-62.1
343.693	-66.4
344.077	-56
344.46	-66.17
344.843	-60.07
345.226	-43.12
345.61	-35.44
345.993	-14.87
346.376	-11.71
346.759	24.67
347.142	31
347.525	41.62
347.908	58.35
348.291	65.8
348.674	89.31
349.057	105.12
349.44	132.24
349.823	142.41
350.206	154.61
350.588	167.95
350.971	210.21
351.354	251.79
351.737	209.08
352.119	266.7
352.502	275.74
352.884	291.79
353.267	282.29
353.65	297.89
354.032	313.48
354.414	310.32
354.797	312.8
355.179	303.99
355.562	329.07
355.944	325.68
356.326	323.65
356.709	319.81
357.091	338.56
357.473	357.55
357.855	338.79
358.238	337.21
358.62	348.96
359.002	349.64
359.384	334.72
359.766	331.11
360.148	341.5
360.53	323.88
360.912	331.56
361.294	341.05
361.676	321.84
362.057	341.5
362.439	342.86
362.821	336.98
363.203	337.89
363.584	344.21
363.966	328.17
364.348	322.29
364.729	302.86
365.111	325.91
365.493	339.47
365.874	327.49
366.256	312.58
366.637	313.48
367.019	309.41
367.4	307.15
367.781	309.64
368.163	331.79
368.544	325.23
368.925	317.1
369.306	315.74
369.688	312.12
370.069	316.87
370.45	297.66
370.831	302.63
371.212	324.55
371.593	327.49
371.974	304.89
372.355	313.71
372.736	322.75
373.117	309.19
373.498	310.77
373.879	326.59
374.26	342.63
374.641	320.49
375.021	332.69
375.402	318
375.783	331.56
376.163	352.12
376.544	340.37
376.925	328.4
377.305	320.94
377.686	349.86
378.066	342.86
378.447	329.53
378.827	350.99
379.208	344.21
379.588	340.15
379.968	357.32
380.349	344.67
380.729	375.85
381.109	350.77
381.489	337.66
381.87	325.46
382.25	336.76
382.63	340.6
383.01	345.8
383.39	362.07
383.77	341.73
384.15	349.41
384.53	343.76
384.91	358.9
385.29	346.02
385.67	377.66
386.049	370.43
386.429	370.88
386.809	365.91
387.189	368.39
387.568	360.94
387.948	378.34
388.328	383.54
388.707	389.41
389.087	359.58
389.466	381.5
389.846	357.1
390.225	369.3
390.605	366.36
390.984	380.6
391.363	387.15
391.743	394.38
392.122	369.3
392.501	379.47
392.881	398.22
393.26	397.09
393.639	395.06
394.018	405.68
394.397	399.58
394.776	414.27
395.155	395.29
395.534	423.53
395.913	408.85
396.292	395.51
396.671	422.18
397.05	402.52
397.429	431.22
397.808	403.65
398.186	425.34
398.565	424.89
398.944	399.13
399.323	406.13
399.701	426.7
400.08	417.43
400.458	436.42
400.837	430.54
401.215	428.51
401.594	432.57
401.972	440.71
402.351	420.82
402.729	426.25
403.107	429.41
403.486	441.84
403.864	416.98
404.242	442.29
404.62	432.12
404.999	424.21
405.377	453.14
405.755	435.06
406.133	463.53
406.511	457.88
406.889	449.97
407.267	468.05
407.645	456.08
408.023	484.32
408.401	469.18
408.779	470.31
409.156	465.57
409.534	516.19
409.912	495.4
410.29	483.19
410.667	497.43
411.045	500.14
411.422	519.12
411.8	499.92
412.178	492.23
412.555	527.94
412.933	550.54
413.31	509.63
413.687	512.8
414.065	506.7
414.442	518.22
414.819	535.62
415.197	540.37
415.574	540.37
415.951	555.28
416.328	526.36
416.705	527.94
417.082	549.63
417.46	558.67
417.837	562.97
418.214	578.11
418.591	568.39
418.967	571.78
419.344	565
419.721	588.95
420.098	582.17
420.475	572.23
420.852	582.63
421.228	591.89
421.605	574.94
421.982	590.31
422.358	590.08
422.735	608.61
423.111	600.7
423.488	633.7
423.864	613.59
424.241	639.57
424.617	628.5
424.994	629.18
425.37	628.73
425.746	663.53
426.123	665.79
426.499	647.93
426.875	656.3
427.251	664.88
427.627	681.38
428.003	675.73
428.379	681.38
428.756	675.96
429.132	684.54
429.507	706.46
429.883	703.53
430.259	701.27
430.635	708.5
431.011	724.54
431.387	732.9
431.763	736.29
432.138	728.84
432.514	781.26
432.89	756.63
433.265	754.82
433.641	774.03
434.016	770.19
434.392	788.5
434.767	811.77
435.143	802.96
435.518	798.44
435.894	804.32
436.269	832.34
436.644	834.37
437.02	866.23
437.395	840.7
437.77	844.31
438.145	856.29
438.52	850.87
438.895	853.81
439.271	864.65
439.646	877.99
440.021	890.87
440.395	905.78
440.77	887.48
441.145	933.58
441.52	934.26
441.895	902.39
442.27	941.71
442.645	917.53
443.019	927.48
443.394	921.15
443.769	969.28
444.143	950.98
444.518	943.07
444.892	958.66
445.267	950.3
445.641	978.1
446.016	992.78
446.39	997.76
446.764	1009.28
447.139	1008.15
447.513	1012.45
447.887	1018.09
448.262	1030.3
448.636	1014.48
449.01	1034.82
449.384	1064.42
449.758	1039.34
450.132	1051.09
450.506	1084.53
450.88	1062.39
451.254	1073.01
451.628	1096.51
452.002	1097.41
452.376	1097.64
452.75	1135.38
453.123	1153.91
453.497	1153.91
453.871	1153.46
454.244	1180.58
454.618	1164.08
454.992	1190.75
455.365	1220.12
455.739	1209.5
456.112	1241.14
456.486	1244.98
456.859	1259.22
457.232	1302.38
457.606	1278.65
457.979	1315.49
458.352	1316.84
458.725	1335.15
459.099	1369.27
459.472	1353.23
459.845	1398.88
460.218	1416.05
460.591	1417.41
460.964	1438.42
461.337	1493.11
461.71	1495.6
462.083	1511.19
462.456	1497.63
462.829	1523.62
463.201	1538.53
463.574	1524.07
463.947	1608.59
464.32	1595.48
464.692	1619.66
465.065	1652.65
465.438	1657.85
465.81	1676.83
466.183	1678.64
466.555	1761.58
466.928	1761.13
467.3	1763.39
467.672	1797.51
468.045	1852.42
468.417	1862.14
468.789	1899.88
469.161	1903.72
469.534	1934.45
469.906	1983.49
470.278	1998.41
470.65	2028.69
471.022	2064.85
471.394	2134.22
471.766	2173.09
472.138	2207.22
472.51	2231.62
472.882	2306.42
473.253	2338.96
473.625	2370.38
473.997	2458.73
474.369	2457.83
474.74	2463.25
475.112	2580.77
475.484	2653.08
475.855	2708.67
476.227	2718.39
476.598	2828.89
476.97	2852.85
477.341	2959.51
477.713	3037.02
478.084	3060.07
478.455	3189.11
478.827	3214.87
479.198	3343.01
479.569	3375.32
479.94	3548.88
480.311	3573.51
480.682	3730.11
481.053	3789.55
481.424	3886.04
481.795	3944.57
482.166	4100.05
482.537	4148.86
482.908	4285.58
483.279	4374.39
483.65	4508.17
484.021	4637.43
484.391	4762.4
484.762	4821.84
485.133	4928.95
485.503	5084.65
485.874	5233.35
486.244	5325.1
486.615	5503.85
486.985	5580.01
487.356	5775.94
487.726	5820.23
488.097	6042.6
488.467	6103.61
488.837	6266.32
489.207	6490.72
489.578	6619.53
489.948	6724.39
490.318	6887.32
490.688	6979.29
491.058	7198.05
491.428	7310.36
491.798	7463.57
492.168	7677.13
492.538	7815.88
492.908	7948.08
493.278	8073.73
493.648	8185.82
494.017	8347.39
494.387	8530.89
494.757	8663.77
495.126	8758.91
495.496	8902.41
495.866	8942.41
496.235	9136.53
496.605	9261.04
496.974	9396.63
497.344	9604.31
497.713	9686.57
498.082	9780.12
498.452	10002.04
498.821	10053.34
499.19	10133.34
499.559	10298.3
499.928	10368.58
500.298	10475.93
500.667	10562.02
501.036	10720.89
501.405	10862.13
501.774	10874.33
502.143	11088.11
502.512	11127.43
502.88	11282.46
503.249	11289.24
503.618	11376.69
503.987	11587.53
504.356	11671.6
504.724	11659.4
505.093	11778.94
505.462	11906.4
505.83	11917.02
506.199	12087.41
506.567	12248.99
506.936	12230.23
507.304	12392.03
507.672	12465.7
508.041	12486.04
508.409	12557.68
508.777	12794.28
509.145	12867.05
509.514	12870.21
509.882	12931.45
510.25	12998.12
510.618	13038.12
510.986	13018.23
511.354	13243.31
511.722	13313.14
512.09	13418.67
512.458	13443.08
512.826	13512.46
513.193	13580.7
513.561	13639.01
513.929	13632
514.297	13819.79
514.664	13842.16
515.032	13893.69
515.4	13967.36
515.767	13962.61
516.135	14020.24
516.502	13957.19
516.869	14121.93
517.237	14169.39
517.604	14093.68
517.972	14276.28
518.339	14376.84
518.706	14385.65
519.073	14372.77
519.44	14331.87
519.808	14529.38
520.175	14588.81
520.542	14660.67
520.909	14652.99
521.276	14606.66
521.643	14830.84
522.009	14803.27
522.376	14851.86
522.743	14916.26
523.11	15022.25
523.477	15079.87
523.843	15057.73
524.21	15261.34
524.577	15295.91
524.943	15309.47
525.31	15288.91
525.676	15398.73
526.043	15447.77
526.409	15399.64
526.776	15531.61
527.142	15496.58
527.508	15429.69
527.874	15657.71
528.241	15673.98
528.607	15645.28
528.973	15720.76
529.339	15709.01
529.705	15753.75
530.071	15829.23
530.437	15720.76
530.803	15759.85
531.169	15860.87
531.535	15882.56
531.901	15791.04
532.267	15845.28
532.632	15961.43
532.998	15758.5
533.364	15887.31
533.73	15838.72
534.095	15860.19
534.461	15881.43
534.826	15899.51
535.192	15923.92
535.557	15880.75
535.923	15940.64
536.288	15843.24
536.653	15861.55
537.019	15772.28
537.384	15756.92
537.749	15884.14
538.114	15754.43
538.479	15781.55
538.845	15868.55
539.21	15664.94
539.575	15643.7
539.94	15557.37
540.305	15689.57
540.67	15652.51
541.034	15585.85
541.399	15682.57
541.764	15594.21
542.129	15623.81
542.494	15537.49
542.858	15557.6
543.223	15574.55
543.587	15491.61
543.952	15508.11
544.316	15476.25
544.681	15384.95
545.045	15321.22
545.41	15402.8
545.774	15442.57
546.138	15299.98
546.503	15253.88
546.867	15281
547.231	15306.08
547.595	15326.87
547.959	15193.32
548.324	15153.99
548.688	15109.7
549.052	15118.51
549.416	15199.19
549.779	15116.71
550.143	15115.8
550.507	15109.48
550.871	15074.67
551.235	15066.09
551.599	15041.91
551.962	15053.66
552.326	14951.06
552.689	15037.16
553.053	14860.22
553.417	14965.98
553.78	14961
554.143	14975.69
554.507	14868.8
554.87	14943.83
555.234	14997.61
555.597	14885.53
555.96	14956.71
556.323	14921.23
556.686	14915.81
557.05	14948.8
557.413	14870.84
557.776	14860.22
558.139	14862.7
558.502	14940.67
558.865	14920.1
559.228	14870.84
559.59	14899.54
559.953	14964.17
560.316	14948.35
560.679	14972.3
561.041	14928.69
561.404	15067.44
561.767	15065.86
562.129	14970.04
562.492	15025.86
562.854	15048.46
563.217	14958.29
563.579	15021.34
563.941	15088.46
564.304	15143.37
564.666	15175.46
565.028	15115.58
565.39	15086.2
565.753	15152.86
566.115	15210.04
566.477	15219.53
566.839	15286.42
567.201	15343.59
567.563	15270.38
567.925	15277.83
568.287	15335.68
568.648	15303.82
569.01	15355.12
569.372	15502.91
569.734	15324.61
570.095	15412.97
570.457	15413.65
570.819	15498.39
571.18	15479.64
571.542	15551.5
571.903	15518.73
572.265	15596.47
572.626	15530.71
572.987	15581.33
573.349	15603.25
573.71	15612.06
574.071	15642.79
574.432	15671.72
574.794	15777.25
575.155	15707.65
575.516	15684.15
575.877	15704.26
576.238	15724.37
576.599	15738.16
576.96	15793.3
577.32	15721.89
577.681	15742.68
578.042	15786.97
578.403	15774.54
578.763	15777.71
579.124	15695
579.485	15789.68
579.845	15850.7
580.206	15864.03
580.566	15803.24
580.927	15908.32
581.287	15804.15
581.648	15893.64
582.008	15890.92
582.368	15908.78
582.728	15870.81
583.089	15891.6
583.449	15821.1
583.809	15813.41
584.169	15829
584.529	15804.37
584.889	15930.24
585.249	15773.19
585.609	15718.73
585.969	15701.1
586.329	15698.61
586.688	15815.67
587.048	15737.93
587.408	15677.82
587.768	15630.37
588.127	15626.98
588.487	15626.52
588.846	15696.35
589.206	15659.29
589.565	15674.88
589.925	15671.04
590.284	15622.68
590.643	15686.86
591.003	15645.73
591.362	15661.78
591.721	15668.1
592.08	15698.61
592.44	15704.26
592.799	15697.71
593.158	15751.49
593.517	15654.77
593.876	15705.62
594.235	15635.56
594.593	15647.99
594.952	15633.53
595.311	15575
595.67	15649.57
596.029	15725.28
596.387	15675.11
596.746	15707.88
597.104	15613.64
597.463	15558.73
597.822	15694.77
598.18	15501.78
598.538	15573.42
598.897	15628.33
599.255	15535.91
599.613	15716.69
599.972	15525.74
600.33	15671.72
600.688	15547.2
601.046	15586.75
601.404	15723.47
601.762	15651.61
602.12	15615.45
602.478	15673.53
602.836	15680.53
603.194	15572.29
603.552	15569.35
603.91	15562.8
604.268	15602.34
604.625	15463.82
604.983	15615.68
605.341	15576.13
605.698	15645.05
606.056	15662.91
606.413	15561.22
606.771	15692.06
607.128	15641.21
607.485	15592.17
607.843	15635.11
608.2	15700.42
608.557	15791.04
608.914	15617.03
609.272	15838.72
609.629	15743.58
609.986	15832.39
610.343	15774.09
610.7	15876.46
611.057	15796.69
611.414	15817.93
611.771	15849.57
612.127	15904.71
612.484	15912.39
612.841	15920.75
613.198	15845.73
613.554	15878.27
613.911	15865.39
614.267	15954.2
614.624	15868.78
614.98	15945.16
615.337	15979.28
615.693	16040.98
616.05	15960.07
616.406	16016.57
616.762	16030.13
617.118	15992.62
617.475	16040.98
617.831	15945.39
618.187	16092.95
618.543	16058.6
618.899	16147.19
619.255	16170.24
619.611	16113.52
619.967	16164.82
620.323	16169.33
620.678	16135.66
621.034	16141.09
621.39	16087.3
621.746	16032.16
622.101	16276
622.457	16099.73
622.812	16221.99
623.168	16168.2
623.523	16188.32
623.879	16256.56
624.234	16077.36
624.589	16067.64
624.945	16210.46
625.3	16178.83
625.655	16117.13
626.01	16085.27
626.365	16164.36
626.72	16216.11
627.075	16123.69
627.43	16143.35
627.785	16137.25
628.14	16126.85
628.495	16129.56
628.85	16158.71
629.205	16028.55
629.559	16130.92
629.914	16038.94
630.269	16090.47
630.623	15957.81
630.978	16037.13
631.332	16048.21
631.687	16119.84
632.041	15975.44
632.396	15968.66
632.75	15971.37
633.104	16014.99
633.459	15880.75
633.813	15860.64
634.167	15860.19
634.521	15899.51
634.875	15819.51
635.229	15804.37
635.583	15768.22
635.937	15743.58
636.291	15770.48
636.645	15734.32
636.999	15711.27
637.352	15798.27
637.706	15619.29
638.06	15775.22
638.413	15740.87
638.767	15604.38
639.121	15725.73
639.474	15606.41
639.828	15609.58
640.181	15618.39
640.534	15573.87
640.888	15591.04
641.241	15529.58
641.594	15504.49
641.947	15568.45
642.301	15571.61
642.654	15557.83
643.007	15520.54
643.36	15490.71
643.713	15484.61
644.066	15525.28
644.419	15418.17
644.771	15369.58
645.124	15230.38
645.477	15180.21
645.83	15053.21
646.182	15088.69
646.535	14996.03
646.888	14968.69
647.24	14928.01
647.593	15033.77
647.945	14901.35
648.298	14860.89
648.65	14947.22
649.002	14928.92
649.355	14932.98
649.707	14945.41
650.059	14955.81
650.411	15198.06
650.763	15224.27
651.115	15301.56
651.467	15198.51
651.819	15282.8
652.171	15228.57
652.523	15262.01
652.875	15250.71
653.227	15120.55
653.578	15333.2
653.93	15187.44
654.282	15121.9
654.633	15113.09
654.985	15221.34
655.337	15171.17
655.688	15240.55
656.039	15260.21
656.391	15173.88
656.742	15195.35
657.094	15135.46
657.445	15255.01
657.796	15120.55
658.147	15187.89
658.498	15268.57
658.849	15283.03
659.2	15195.35
659.551	15219.53
659.902	15222.24
660.253	15166.2
660.604	15243.26
660.955	15132.53
661.306	15287.78
661.656	15253.2
662.007	15243.26
662.358	15264.5
662.708	15149.7
663.059	15220.21
663.409	15153.32
663.76	15292.97
664.11	15203.03
664.461	15316.48
664.811	15251.39
665.161	15227.21
665.511	15224.95
665.862	15217.04
666.212	15269.47
666.562	15310.37
666.912	15231.28
667.262	15196.03
667.612	15225.86
667.962	15273.77
668.312	15226.31
668.662	15313.54
669.011	15311.96
669.361	15218.85
669.711	15152.86
670.06	15160.77
670.41	15129.36
670.76	15048.91
671.109	15162.36
671.459	15191.28
671.808	15242.81
672.157	15185.86
672.507	15071.96
672.856	14974.11
673.205	15106.54
673.554	15079.65
673.904	15092.98
674.253	15127.1
674.602	15070.38
674.951	14862.48
675.3	14783.16
675.649	15033.09
675.998	14953.55
676.346	15044.84
676.695	15104.28
677.044	14925.75
677.393	15024.73
677.741	15012.98
678.09	14907
678.438	14938.18
678.787	14960.1
679.135	14968.91
679.484	14766.43
679.832	14888.01
680.181	14731.18
680.529	14815.47
680.877	14750.39
681.225	14781.35
681.573	14843.27
681.922	14656.83
682.27	14644.18
682.618	14765.08
682.966	14616.38
683.314	14614.8
683.661	14577.74
684.009	14510.17
684.357	14542.94
684.705	14396.5
685.053	14541.13
685.4	14482.6
685.748	14449.83
686.095	14327.35
686.443	14267.46
686.79	14285.09
687.138	14298.2
687.485	14339.55
687.832	14276.05
688.18	14341.81
688.527	14118.99
688.874	14154.02
689.221	14048.49
689.568	14072.67
689.915	13986.12
690.262	13981.37
690.609	14044.87
690.956	13862.05
691.303	13849.62
691.65	13863.41
691.997	13844.88
692.344	13686.69
692.69	13704.54
693.037	13638.55
693.383	13559.69
693.73	13568.73
694.077	13547.93
694.423	13505.22
694.769	13483.98
695.116	13360.14
695.462	13387.49
695.808	13373.7
696.155	13251.9
696.501	13167.83
696.847	13202.63
697.193	13102.97
697.539	13111.56
697.885	13047.83
698.231	13032.92
698.577	12989.98
698.923	13003.99
699.269	12811.91
699.614	12789.08
699.96	12737.79
700.306	12757.22
700.651	12724.68
700.997	12700.5
701.342	12593.16
701.688	12565.14
702.033	12613.95
702.379	12449.88
702.724	12461.18
703.069	12458.92
703.415	12320.85
703.76	12291.24
704.105	12264.35
704.45	12269.1
704.795	12219.83
705.14	12186.84
705.485	12153.85
705.83	12110.68
706.175	12091.25
706.52	12056.9
706.865	12060.06
707.209	11977.13
707.554	11929.45
707.899	11983.23
708.243	11841.54
708.588	11903.46
708.932	11776.23
709.277	11794.31
709.621	11771.48
709.966	11708.44
710.31	11755.44
710.654	11544.82
710.998	11580.3
711.342	11587.31
711.687	11572.17
712.031	11423.02
712.375	11463.47
712.719	11505.73
713.063	11437.26
713.407	11500.3
713.75	11434.32
714.094	11403.13
714.438	11360.87
714.782	11301.89
715.125	11316.13
715.469	11320.2
715.812	11263.7
716.156	11250.82
716.499	11219.86
716.843	11179.41
717.186	11184.61
717.53	11224.38
717.873	11199.97
718.216	11162.69
718.559	11082.69
718.902	11091.95
719.246	11069.13
719.589	11036.81
719.932	11035.91
720.275	10974.44
720.617	11024.39
720.96	10997.72
721.303	10963.14
721.646	11014.44
721.989	10861.68
722.331	10952.3
722.674	10877.04
723.016	10940.09
723.359	10888.34
723.701	10883.82
724.044	10818.06
724.386	10782.13
724.729	10926.31
725.071	10827.1
725.413	10879.76
725.755	10829.14
726.097	10802.02
726.439	10726.31
726.782	10729.48
727.124	10885.63
727.465	10727.67
727.807	10781.23
728.149	10688.57
728.491	10751.85
728.833	10718.18
729.175	10707.78
729.516	10693.32
729.858	10766.09
730.199	10728.12
730.541	10707.11
730.882	10684.96
731.224	10693.77
731.565	10615.13
731.906	10644.51
732.248	10687.44
732.589	10659.88
732.93	10643.15
733.271	10665.75
733.612	10629.82
733.953	10658.75
734.294	10565.19
734.635	10611.97
734.976	10614.68
735.317	10584.62
735.658	10608.35
735.999	10584.62
736.339	10598.63
736.68	10641.12
737.021	10572.87
737.361	10523.83
737.702	10685.64
738.042	10670.5
738.383	10624.4
738.723	10649.48
739.063	10581.91
739.404	10628.92
739.744	10585.75
740.084	10625.53
740.424	10644.51
740.764	10667.56
741.104	10690.83
741.444	10699.87
741.784	10632.53
742.124	10714.34
742.464	10629.37
742.804	10663.49
743.143	10714.11
743.483	10689.03
743.823	10689.25
744.162	10785.3
744.502	10807.67
744.841	10809.7
745.181	10893.32
745.52	10876.37
745.86	10921.79
746.199	10965.4
746.538	10919.3
746.877	11034.1
747.216	11088.79
747.556	11097.6
747.895	11128.79
748.234	11102.35
748.573	11253.98
748.911	11258.96
749.25	11327.65
749.589	11303.47
749.928	11456.24
750.267	11605.16
750.605	11557.7
750.944	11601.77
751.283	11628.89
751.621	11834.31
751.96	11851.93
752.298	12036.34
752.636	12003.57
752.975	12089.44
753.313	12222.32
753.651	12290.79
753.989	12381.86
754.327	12542.09
754.666	12611.46
755.004	12722.42
755.342	12877.44
755.679	13053.03
756.017	13055.74
756.355	13226.59
756.693	13394.49
757.031	13513.36
757.368	13560.82
757.706	13717.42
758.044	13864.08
758.381	14036.51
758.719	14198.09
759.056	14413
759.394	14505.42
759.731	14641.47
760.068	14773.89
760.405	14913.55
760.743	15039.19
761.08	15251.62
761.417	15420.88
761.754	15572.51
762.091	15720.31
762.428	15876.24
762.765	15914.43
763.102	16226.28
763.438	16259.5
763.775	16458.37
764.112	16641.41
764.449	16785.14
764.785	16950.56
765.122	16988.97
765.458	17188.52
765.795	17282.75
766.131	17503.31
766.467	17614.04
766.804	17695.85
767.14	17824.43
767.476	17956.18
767.812	17982.17
768.148	18209.06
768.485	18237.53
768.821	18425.77
769.157	18466.22
769.492	18632.09
769.828	18788.25
770.164	18749.38
770.5	18781.92
770.836	19049.71
771.171	19115.02
771.507	19164.28
771.842	19070.5
772.178	19279.76
772.513	19376.48
772.849	19470.26
773.184	19536.48
773.519	19559.08
773.855	19618.06
774.19	19744.38
774.525	19687.66
774.86	19906.64
775.195	19893.76
775.53	20023.7
775.865	20023.92
776.2	19888.78
776.535	19892.63
776.87	20065.28
777.205	19923.81
777.539	20074.09
777.874	20103.92
778.209	19965.62
778.543	20132.17
778.878	20068.44
779.212	20198.16
779.547	20199.29
779.881	20217.82
780.215	20132.85
780.55	20298.04
780.884	20227.99
781.218	20165.61
781.552	20146.18
781.886	20146.86
782.22	20111.6
782.554	20148.21
782.888	19942.57
783.222	20119.29
783.556	20058.95
783.889	19903.93
784.223	19843.59
784.557	20062.79
784.89	19977.82
785.224	19940.76
785.557	19926.3
785.891	19843.59
786.224	19844.94
786.558	19869.8
786.891	19836.36
787.224	19711.61
787.557	19760.43
787.891	19771.73
788.224	19733.76
788.557	19731.05
788.89	19685.63
789.223	19770.82
789.556	19596.36
789.888	19571.96
790.221	19505.29
790.554	19445.18
790.887	19506.87
791.219	19481.11
791.552	19346.2
791.884	19294
792.217	19264.17
792.549	19319.08
792.882	19256.26
793.214	19098.07
793.546	19127
793.879	18971.97
794.211	18939.43
794.543	19010.84
794.875	18972.42
795.207	19013.1
795.539	18891.07
795.871	18981.92
796.203	18695.6
796.535	18705.77
796.867	18653.34
797.198	18629.61
797.53	18637.74
797.862	18541.02
798.193	18629.84
798.525	18506.67
798.856	18458.09
799.188	18249.73
799.519	18345.1
799.85	18282.27
800.182	18173.12
800.513	18249.51
800.844	18193.24
801.175	18165.67
801.506	18132.67
801.837	18072.56
802.168	18037.76
802.499	17915.28
802.83	17907.59
803.161	17808.16
803.491	17798.9
803.822	17934.26
804.153	17838.9
804.483	17677.54
804.814	17599.58
805.145	17511.45
805.475	17582.4
805.805	17533.82
806.136	17516.87
806.466	17561.84
806.796	17492.46
807.126	17384.67
807.457	17381.73
807.787	17459.47
808.117	17329.08
808.447	17246.14
808.777	17259.25
809.107	17162.3
809.436	17126.15
809.766	17090.44
810.096	17086.37
810.426	16976.55
810.755	17033.27
811.085	16946.72
811.414	16911.91
811.744	16854.29
812.073	16694.74
812.403	16732.26
812.732	16638.7
813.061	16663.11
813.39	16639.83
813.719	16534.3
814.049	16640.06
814.378	16494.52
814.707	16547.86
815.036	16468.08
815.365	16381.76
815.693	16377.69
816.022	16395.32
816.351	16227.19
816.68	16212.05
817.008	16254.08
817.337	16130.01
817.665	16173.85
817.994	16108.55
818.322	16110.13
818.651	15962.33
818.979	15961.43
819.307	16126.17
819.636	16083.24
819.964	15927.53
820.292	16015.67
820.62	16003.69
820.948	15911.26
821.276	15931.15
821.604	15916.01
821.932	15956.01
822.259	15936.35
822.587	15867.65
822.915	15749.23
823.243	15957.81
823.57	15868.33
823.898	15875.78
824.225	15816.58
824.553	15937.48
824.88	15883.01
825.207	15963.24
825.535	15875.11
825.862	15952.39
826.189	15909.23
826.516	15921.88
826.843	15938.61
827.17	15965.05
827.497	15954.88
827.824	16002.11
828.151	15945.61
828.478	15887.76
828.805	16071.26
829.131	15923.01
829.458	15974.76
829.785	15846.18
830.111	15840.53
830.438	15911.49
830.764	15970.7
831.09	15927.53
831.417	15756.46
831.743	16012.95
832.069	15857.03
832.395	15804.82
832.722	15869.68
833.048	15837.82
833.374	15917.36
833.7	15819.74
834.026	15936.8
834.351	15788.55
834.677	15750.36
835.003	15727.09
835.329	15772.06
835.654	15677.82
835.98	15733.19
836.306	15695.67
836.631	15607.77
836.956	15718.73
837.282	15751.94
837.607	15649.57
837.932	15558.5
838.258	15553.08
838.583	15585.4
838.908	15482.57
839.233	15597.15
839.558	15540.65
839.883	15421.33
840.208	15368.68
840.533	15441.22
840.858	15289.58
841.182	15337.27
841.507	15428.56
841.832	15245.29
842.156	15255.46
842.481	15198.74
842.805	15229.92
843.13	15130.04
843.454	15070.15
843.778	14998.74
844.103	15005.07
844.427	14935.24
844.751	14985.86
845.075	14938.86
845.399	14865.87
845.723	14685.53
846.047	14760.56
846.371	14618.87
846.695	14654.8
847.019	14580.9
847.343	14539.32
847.666	14462.26
847.99	14389.27
848.313	14404.18
848.637	14173
848.96	14256.62
849.284	14194.25
849.607	14040.8
849.931	14066.34
850.254	13937.75
850.577	13977.53
850.9	13834.25
851.223	13819.79
851.546	13748.83
851.869	13696.41
852.192	13665.67
852.515	13558.56
852.838	13536.41
853.161	13497.99
853.483	13536.86
853.806	13455.73
854.129	13406.24
854.451	13395.62
854.774	13301.16
855.096	13241.5
855.419	13178.23
855.741	13203.54
856.063	13105.23
856.385	13087.16
856.708	13113.82
857.03	13068.4
857.352	13018.01
857.674	12990.66
857.996	12967.84
858.318	12894.39
858.64	12901.62
858.961	12874.05
859.283	12731.23
859.605	12701.86
859.926	12718.13
860.248	12689.65
860.57	12639.94
860.891	12639.71
861.212	12541.41
861.534	12528.53
861.855	12543.22
862.176	12462.54
862.498	12451.01
862.819	12491.69
863.14	12407.4
863.461	12390.68
863.782	12423.67
864.103	12407.85
864.424	12346.61
864.745	12392.03
865.065	12310.23
865.386	12222.55
865.707	12215.99
866.027	12219.38
866.348	12208.76
866.668	12192.49
866.989	12187.52
867.309	12033.85
867.63	12165.37
867.95	12125.83
868.27	11957.47
868.59	12089.67
868.91	11991.59
869.23	11981.65
869.55	11870.01
869.87	12027.07
870.19	11881.09
870.51	11970.35
870.83	11921.08
871.15	11820.07
871.469	11818.94
871.789	11900.97
872.109	11810.13
872.428	11790.01
872.748	11882.67
873.067	11816.91
873.386	11780.98
873.706	11716.12
874.025	11609.68
874.344	11594.54
874.663	11677.25
874.982	11671.15
875.301	11639.28
875.62	11630.92
875.939	11626.63
876.258	11508.44
876.577	11552.96
876.896	11551.83
877.214	11490.81
877.533	11462.11
877.852	11409.91
878.17	11491.94
878.489	11440.87
878.807	11432.51
879.125	11452.62
879.444	11456.24
879.762	11359.29
880.08	11416.92
880.398	11313.42
880.716	11367.88
881.034	11220.09
881.352	11232.29
881.67	11218.05
881.988	11238.39
882.306	11181.44
882.624	11213.76
882.941	11150.48
883.259	11064.16
883.577	11118.39
883.894	11077.72
884.212	10999.75
884.529	11000.66
884.846	11041.79
885.164	11001.34
885.481	10930.6
885.798	10865.52
886.115	10879.08
886.432	10820.32
886.75	10846.99
887.067	10833.43
887.383	10821.23
887.7	10838.4
888.017	10717.95
888.334	10725.64
888.651	10701.68
888.967	10707.11
889.284	10618.52
889.6	10625.3
889.917	10538.07
890.233	10515.92
890.55	10531.52
890.866	10545.08
891.182	10416.04
891.498	10341.01
891.815	10382.59
892.131	10396.61
892.447	10333.1
892.763	10226.89
893.079	10237.06
893.395	10178.98
893.71	10171.3
894.026	10207.91
894.342	10122.04
894.657	10062.38
894.973	10033.68
895.289	10042.72
895.604	10033.22
895.92	10036.61
896.235	9871.65
896.55	9863.96
896.865	9803.85
897.181	9793.91
897.496	9828.03
897.811	9751.65
898.126	9743.74
898.441	9733.57
898.756	9615.16
899.071	9637.53
899.386	9637.76
899.7	9540.13
900.015	9495.61
900.33	9449.51
900.644	9450.42
900.959	9457.87
901.273	9415.16
901.588	9289.97
901.902	9314.6
902.216	9242.74
902.531	9221.49
902.845	9234.6
903.159	9138.79
903.473	9119.8
903.787	9097.43
904.101	8985.34
904.415	9028.05
904.729	9026.7
905.042	8946.93
905.356	8919.81
905.67	8853.37
905.984	8924.33
906.297	8805.91
906.611	8829.41
906.924	8767.95
907.237	8695.86
907.551	8720.27
907.864	8633.04
908.177	8659.93
908.491	8581.74
908.804	8539.7
909.117	8526.82
909.43	8457.22
909.743	8364.34
910.056	8427.17
910.368	8405.47
910.681	8365.92
910.994	8276.43
911.307	8279.37
911.619	8205.48
911.932	8273.05
912.244	8174.74
912.557	8152.14
912.869	8105.37
913.181	8137.46
913.494	8044.35
913.806	8019.04
914.118	7965.48
914.43	7908.53
914.742	7970.91
915.054	7898.14
915.366	7860.17
915.678	7786.96
915.99	7745.38
916.302	7746.73
916.613	7737.01
916.925	7697.92
917.236	7683
917.548	7610.69
917.859	7593.52
918.171	7550.35
918.482	7494.31
918.794	7451.6
919.105	7509
919.416	7404.37
919.727	7387.19
920.038	7342.22
920.349	7383.8
920.66	7348.78
920.971	7338.61
921.282	7273.98
921.593	7233.3
921.903	7147.2
922.214	7147.2
922.525	7072.62
922.835	7107.88
923.146	7020.2
923.456	7067.88
923.767	6990.37
924.077	6985.4
924.387	6951.27
924.697	6970.93
925.008	6841.9
925.318	6845.96
925.628	6866.53
925.938	6773.65
926.248	6753.54
926.558	6772.75
926.867	6743.59
927.177	6692.75
927.487	6634.67
927.796	6587.67
928.106	6620.66
928.416	6582.02
928.725	6564.84
929.034	6502.47
929.344	6517.39
929.653	6508.12
929.962	6489.59
930.271	6449.14
930.581	6388.8
930.89	6437.16
931.199	6370.27
931.508	6335.92
931.817	6329.82
932.125	6250.05
932.434	6296.6
932.743	6191.74
933.051	6204.62
933.36	6238.52
933.669	6095.7
933.977	6075.81
934.286	6157.62
934.594	6099.99
934.902	6043.73
935.21	6050.96
935.519	5977.29
935.827	5980.45
936.135	5919.21
936.443	5898.19
936.751	5937.51
937.059	5816.61
937.367	5812.54
937.674	5840.11
937.982	5804.18
938.29	5771.42
938.597	5776.16
938.905	5730.29
939.213	5631.31
939.52	5683.96
939.827	5664.07
940.135	5596.73
940.442	5577.3
940.749	5573.91
941.056	5618.2
941.363	5565.09
941.67	5519.22
941.977	5428.83
942.284	5376.62
942.591	5437.41
942.898	5352.22
943.205	5346.12
943.511	5317.19
943.818	5364.65
944.125	5326.91
944.431	5267.25
944.738	5288.49
945.044	5249.85
945.35	5187.7
945.657	5177.76
945.963	5172.56
946.269	5144.54
946.575	5121.26
946.881	5109.96
947.187	5107.93
947.493	5078.78
947.799	5035.84
948.105	5006.69
948.41	4998.1
948.716	4994.04
949.022	4955.17
949.327	4951.1
949.633	4905.68
949.938	4915.17
950.244	4917.2
950.549	4852.8
950.854	4846.92
951.16	4787.26
951.465	4748.39
951.77	4774.61
952.075	4750.43
952.38	4705.23
952.685	4724.21
952.99	4683.31
953.294	4692.57
953.599	4635.4
953.904	4624.33
954.209	4568.74
954.513	4600.83
954.818	4572.8
955.122	4498
955.426	4512.01
955.731	4510.43
956.035	4459.81
956.339	4437.89
956.643	4463.65
956.948	4372.13
957.252	4436.31
957.556	4378.01
957.86	4349.31
958.163	4377.1
958.467	4320.15
958.771	4340.27
959.075	4383.2
959.378	4302.75
959.682	4293.26
959.985	4257.78
960.289	4187.5
960.592	4197.9
960.896	4174.17
961.199	4166.26
961.502	4138.92
961.805	4162.19
962.108	4099.82
962.411	4129.88
962.714	4070.9
963.017	4039.48
963.32	4085.81
963.623	4023.67
963.926	4018.47
964.228	3985.02
964.531	3965.14
964.833	3950.9
965.136	3892.14
965.438	3907.96
965.741	3914.06
966.043	3858.47
966.345	3891.69
966.648	3859.83
966.95	3860.05
967.252	3827.06
967.554	3773.73
967.856	3823.9
968.158	3763.11
968.46	3761.75
968.761	3733.96
969.063	3747.51
969.365	3681.98
969.666	3690.79
969.968	3646.05
970.269	3633.85
970.571	3654.18
970.872	3629.1
971.174	3588.65
971.475	3542.1
971.776	3570.12
972.077	3570.57
972.378	3572.38
972.679	3536.67
972.98	3519.72
973.281	3484.02
973.582	3483.79
973.883	3484.92
974.183	3448.09
974.484	3413.06
974.785	3416
975.085	3389.33
975.386	3433.4
975.686	3354.08
975.986	3350.46
976.287	3376.22
976.587	3337.81
976.887	3307.98
977.187	3314.53
977.487	3330.58
977.787	3288.32
978.087	3302.78
978.387	3264.59
978.687	3230.01
978.987	3181.65
979.286	3205.16
979.586	3187.76
979.885	3172.84
980.185	3117.02
980.484	3169.45
980.784	3171.48
981.083	3160.64
981.382	3102.33
981.682	3092.16
981.981	3072.73
982.28	3072.28
982.579	3019.4
982.878	3041.32
983.177	2996.8
983.475	3027.99
983.774	2998.83
984.073	2964.26
984.372	2970.36
984.67	2962.45
984.969	2946.63
985.267	2945.28
985.566	2943.02
985.864	2905.73
986.162	2879.97
986.461	2847.43
986.759	2900.08
987.057	2806.3
987.355	2823.7
987.653	2813.53
987.951	2794.09
988.249	2810.36
988.547	2769.24
988.844	2773.3
989.142	2786.64
989.44	2769.69
989.737	2731.95
990.035	2701.67
990.332	2685.85
990.63	2708.9
990.927	2691.5
991.224	2660.31
991.521	2622.57
991.819	2699.63
992.116	2645.17
992.413	2600.2
992.71	2620.99
993.006	2573.08
993.303	2608.34
993.6	2597.71
993.897	2560.43
994.193	2541.9
994.49	2525.4
994.787	2532.86
995.083	2502.8
995.379	2501.9
995.676	2494.89
995.972	2449.47
996.268	2493.99
996.565	2459.41
996.861	2422.58
997.157	2399.3
997.453	2412.63
997.749	2400.88
998.044	2392.52
998.34	2358.62
998.636	2342.58
998.932	2339.42
999.227	2373.09
999.523	2322.24
999.818	2318.4
1000.114	2274.78
1000.409	2286.76
1000.704	2257.38
1001	2273.65
1001.295	2254.67
1001.59	2255.35
1001.885	2210.83
1002.18	2209.02
1002.475	2214.45
1002.77	2198.4
1003.065	2149.14
1003.359	2161.34
1003.654	2178.97
1003.949	2136.94
1004.243	2134.9
1004.538	2137.16
1004.832	2117.05
1005.127	2129.93
1005.421	2075.02
1005.715	2083.38
1006.009	2061.68
1006.304	2049.71
1006.598	2041.57
1006.892	2003.15
1007.186	2011.97
1007.48	1992.31
1007.773	1970.84
1008.067	1965.64
1008.361	1960.89
1008.655	1953.21
1008.948	1933.1
1009.242	1926.77
1009.535	1879.31
1009.829	1934.45
1010.122	1917.96
1010.415	1889.48
1010.708	1899.65
1011.001	1888.81
1011.295	1870.5
1011.588	1866.89
1011.881	1808.81
1012.173	1773.1
1012.466	1809.49
1012.759	1787.34
1013.052	1793.44
1013.344	1788.92
1013.637	1811.52
1013.93	1776.94
1014.222	1773.1
1014.514	1751.41
1014.807	1746.89
1015.099	1729.49
1015.391	1715.48
1015.683	1698.08
1015.976	1690.39
1016.268	1663.5
1016.56	1678.19
1016.851	1677.74
1017.143	1635.93
1017.435	1614.92
1017.727	1616.05
1018.018	1614.46
1018.31	1610.17
1018.602	1600.9
1018.893	1587.12
1019.185	1573.79
1019.476	1587.12
1019.767	1562.49
1020.058	1577.4
1020.35	1520.45
1020.641	1545.54
1020.932	1519.32
1021.223	1468.48
1021.514	1520
1021.804	1474.81
1022.095	1464.64
1022.386	1490.62
1022.677	1458.31
1022.967	1455.6
1023.258	1421.25
1023.548	1435.71
1023.839	1414.92
1024.129	1409.27
1024.419	1404.3
1024.709	1405.2
1025	1378.99
1025.29	1379.44
1025.58	1355.49
1025.87	1358.65
1026.16	1374.02
1026.449	1384.64
1026.739	1336.05
1027.029	1316.17
1027.319	1316.17
1027.608	1303.28
1027.898	1285.88
1028.187	1266.45
1028.477	1286.79
1028.766	1269.84
1029.055	1277.75
1029.344	1263.51
1029.634	1239.33
1029.923	1225.55
1030.212	1231.42
1030.501	1222.16
1030.79	1201.37
1031.078	1197.3
1031.367	1196.62
1031.656	1185.77
1031.945	1170.86
1032.233	1188.49
1032.522	1158.2
1032.81	1171.54
1033.099	1150.97
1033.387	1130.18
1033.675	1130.86
1033.963	1149.84
1034.251	1119.33
1034.54	1132.89
1034.828	1101.03
1035.116	1102.39
1035.403	1113.01
1035.691	1073.91
1035.979	1078.43
1036.267	1073.46
1036.554	1068.71
1036.842	1056.51
1037.129	1033.24
1037.417	1037.3
1037.704	1041.37
1037.992	1038.21
1038.279	1006.57
1038.566	1028.49
1038.853	1028.49
1039.14	1028.49
