Data from hue_350_FLMS001491_19.txt Node
Date: Mon Feb 06 15:37:40 GMT 2017
User: dcchb
Spectrometer: FLMS00149
Trigger mode: 0
Integration Time (sec): 2.000000E-2
Scans to average: 10
Electric dark correction enabled: true
Nonlinearity correction enabled: false
Boxcar width: 0
XAxis mode: Wavelengths
Number of Pixels in Spectrum: 2048
>>>>>Begin Spectral Data<<<<<
341.393	-19.9
341.776	-19.9
342.16	-19.9
342.543	-75.04
342.927	-69.84
343.31	-67.81
343.693	-51.09
344.077	-70.07
344.46	-68.49
344.843	-71.42
345.226	-49.28
345.61	-33.69
345.993	-26
346.376	-7.92
346.759	21.45
347.142	30.95
347.525	34.11
347.908	55.35
348.291	73.2
348.674	104.39
349.057	126.31
349.44	119.53
349.823	135.12
350.206	164.5
350.588	211.05
350.971	212.18
351.354	224.39
351.737	228
352.119	250.15
352.502	250.83
352.884	261.67
353.267	276.81
353.65	308
354.032	304.84
354.414	319.07
354.797	309.13
355.179	329.24
355.562	320.2
355.944	318.85
356.326	316.59
356.709	343.48
357.091	312.75
357.473	325.63
357.855	350.26
358.238	345.51
358.62	351.62
359.002	342.12
359.384	346.64
359.766	326.3
360.148	360.65
360.53	335.57
360.912	336.25
361.294	322.69
361.676	310.26
362.057	326.3
362.439	350.71
362.821	346.19
363.203	329.47
363.584	309.81
363.966	330.82
364.348	322.24
364.729	329.69
365.111	321.79
365.493	322.24
365.874	350.03
366.256	333.31
366.637	323.59
367.019	332.18
367.4	330.15
367.781	323.14
368.163	318.4
368.544	302.12
368.925	323.14
369.306	319.3
369.688	317.94
370.069	317.04
370.45	319.3
370.831	332.41
371.212	334.89
371.593	321.11
371.974	326.3
372.355	308
372.736	300.77
373.117	315.68
373.498	328.79
373.879	336.02
374.26	313.88
374.641	296.48
375.021	309.81
375.402	327.21
375.783	295.8
376.163	303.93
376.544	323.14
376.925	348.23
377.305	305.29
377.686	318.4
378.066	323.82
378.447	333.54
378.827	322.92
379.208	338.28
379.588	321.79
379.968	345.51
380.349	327.66
380.729	326.76
381.109	324.27
381.489	334.89
381.87	327.89
382.25	340.09
382.63	356.36
383.01	353.87
383.39	339.64
383.77	348
384.15	338.06
384.53	339.19
384.91	364.04
385.29	358.62
385.67	352.29
386.049	343.03
386.429	348.68
386.809	359.3
387.189	364.95
387.568	363.59
387.948	384.83
388.328	375.34
388.707	364.72
389.087	351.84
389.466	353.65
389.846	346.87
390.225	352.52
390.605	357.26
390.984	369.24
391.363	370.6
391.743	368.56
392.122	373.76
392.501	364.5
392.881	374.44
393.26	385.06
393.639	366.53
394.018	380.31
394.397	366.08
394.776	378.96
395.155	367.43
395.534	386.87
395.913	388.45
396.292	399.52
396.671	388
397.05	359.75
397.429	384.83
397.808	371.28
398.186	387.32
398.565	376.47
398.944	398.39
399.323	385.06
399.701	379.41
400.08	373.99
400.458	388
400.837	399.98
401.215	409.69
401.594	390.71
401.972	377.38
402.351	398.85
402.729	411.05
403.107	403.59
403.486	428
403.864	399.3
404.242	414.21
404.62	398.39
404.999	421.22
405.377	417.15
405.755	408.56
406.133	428.22
406.511	428.22
406.889	421.67
407.267	432.74
407.645	430.03
408.023	426.19
408.401	427.32
408.779	433.42
409.156	436.58
409.534	437.71
409.912	428.22
410.29	417.38
410.667	458.96
411.045	453.53
411.422	471.61
411.8	480.43
412.178	475.68
412.555	450.14
412.933	458.73
413.31	491.27
413.687	484.04
414.065	487.66
414.442	497.15
414.819	487.66
415.197	479.3
415.574	499.63
415.951	489.69
416.328	484.72
416.705	484.72
417.082	512.06
417.46	521.78
417.837	507.32
418.214	509.35
418.591	514.77
418.967	505.06
419.344	518.62
419.721	531.72
420.098	526.98
420.475	545.28
420.852	515.68
421.228	558.39
421.605	553.19
421.982	549.35
422.358	563.81
422.735	553.87
423.111	561.1
423.488	545.51
423.864	555.9
424.241	567.65
424.617	576.92
424.994	553.87
425.37	606.07
425.746	580.08
426.123	576.92
426.499	586.86
426.875	597.48
427.251	571.5
427.627	597.94
428.003	599.74
428.379	618.27
428.756	594.09
429.132	605.17
429.507	626.41
429.883	636.81
430.259	626.41
430.635	668.67
431.011	622.79
431.387	644.26
431.763	669.8
432.138	673.41
432.514	675.22
432.89	660.31
433.265	687.43
433.641	697.14
434.016	721.55
434.392	685.39
434.767	713.64
435.143	728.1
435.518	713.87
435.894	762.45
436.269	713.41
436.644	756.12
437.02	719.97
437.395	737.37
437.77	751.83
438.145	763.81
438.52	770.36
438.895	749.8
439.271	753.19
439.646	777.82
440.021	777.37
440.395	781.66
440.77	785.05
441.145	786.63
441.52	784.37
441.895	797.71
442.27	798.61
442.645	794.54
443.019	843.35
443.394	819.85
443.769	813.75
444.143	837.25
444.518	847.42
444.892	827.53
445.267	836.8
445.641	842.68
446.016	852.84
446.39	843.13
446.764	842.68
447.139	840.64
447.513	865.95
447.887	857.36
448.262	863.47
448.636	867.99
449.01	913.18
449.384	877.7
449.758	877.02
450.132	910.47
450.506	914.76
450.88	902.56
451.254	888.32
451.628	924.48
452.002	922
452.376	943.69
452.75	928.1
453.123	926.52
453.497	954.76
453.871	944.59
454.244	967.42
454.618	974.2
454.992	966.97
455.365	979.17
455.739	985.27
456.112	1014.2
456.486	1022.33
456.859	1024.14
457.232	1042.22
457.606	1027.76
457.979	1051.48
458.352	1060.52
458.725	1041.54
459.099	1092.84
459.472	1087.64
459.845	1112.27
460.218	1093.52
460.591	1101.88
460.964	1093.52
461.337	1152.27
461.71	1151.59
462.083	1175.1
462.456	1177.36
462.829	1175.32
463.201	1177.81
463.574	1201.08
463.947	1204.93
464.32	1226.62
464.692	1226.17
465.065	1234.53
465.438	1272.95
465.81	1278.82
466.183	1276.34
466.555	1321.53
466.928	1325.15
467.3	1312.49
467.672	1357.01
468.045	1360.4
468.417	1365.83
468.789	1383
469.161	1374.86
469.534	1425.71
469.906	1466.39
470.278	1429.55
470.65	1449.44
471.022	1507.29
471.394	1514.3
471.766	1534.41
472.138	1547.52
472.51	1578.02
472.882	1566.5
473.253	1584.58
473.625	1601.75
473.997	1685.82
474.369	1692.6
474.74	1674.52
475.112	1711.58
475.484	1729.88
475.855	1790.22
476.227	1800.39
476.598	1839.71
476.97	1891.01
477.341	1879.03
477.713	1910.9
478.084	1941.63
478.455	1986.15
478.827	2008.97
479.198	2072.7
479.569	2070.44
479.94	2119.48
480.311	2155.64
480.682	2151.57
481.053	2225.24
481.424	2288.97
481.795	2286.93
482.166	2332.81
482.537	2398.34
482.908	2442.63
483.279	2428.62
483.65	2481.28
484.021	2548.85
484.391	2548.62
484.762	2578.68
485.133	2597.21
485.503	2671.33
485.874	2695.06
486.244	2766.69
486.615	2803.75
486.985	2829.52
487.356	2904.54
487.726	2889.85
488.097	2989.29
488.467	3010.53
488.837	3072
489.207	3057.76
489.578	3121.94
489.948	3137.98
490.318	3175.27
490.688	3195.16
491.058	3242.84
491.428	3311.31
491.798	3322.38
492.168	3402.61
492.538	3424.08
492.908	3462.49
493.278	3528.25
493.648	3500.91
494.017	3564.64
494.387	3611.42
494.757	3636.73
495.126	3654.13
495.496	3719.89
495.866	3732.32
496.235	3777.06
496.605	3781.58
496.974	3838.75
497.344	3846.21
497.713	3837.63
498.082	3943.16
498.452	3920.56
498.821	3954.01
499.19	3970.28
499.559	3987
499.928	4061.35
500.298	4014.34
500.667	4072.65
501.036	4103.61
501.405	4120.78
501.774	4125.75
502.143	4159.65
502.512	4179.09
502.88	4262.47
503.249	4209.37
503.618	4248.24
503.987	4264.28
504.356	4244.62
504.724	4316.26
505.093	4331.62
505.462	4336.82
505.83	4345.86
506.199	4421.79
506.567	4429.25
506.936	4440.55
507.304	4455.24
507.672	4483.71
508.041	4556.25
508.409	4548.11
508.777	4598.28
509.145	4614.55
509.514	4618.62
509.882	4666.53
510.25	4664.5
510.618	4669.02
510.986	4662.46
511.354	4714.21
511.722	4716.02
512.09	4772.52
512.458	4733.65
512.826	4781.33
513.193	4820.88
513.561	4829.92
513.929	4865.85
514.297	4870.82
514.664	4931.83
515.032	4864.04
515.4	4946.07
515.767	4954.88
516.135	4950.14
516.502	4945.39
516.869	5028.55
517.237	5041.89
517.604	5031.04
517.972	5033.75
518.339	5078.27
518.706	5107.65
519.073	5146.74
519.44	5144.48
519.808	5157.59
520.175	5148.78
520.542	5217.25
520.909	5258.6
521.276	5208.66
521.643	5261.99
522.009	5318.04
522.376	5349
522.743	5361.65
523.11	5345.16
523.477	5393.74
523.843	5408.43
524.21	5465.15
524.577	5497.69
524.943	5487.98
525.31	5454.53
525.676	5607.52
526.043	5564.13
526.409	5636
526.776	5648.2
527.142	5713.51
527.508	5699.72
527.874	5754.86
528.241	5755.31
528.607	5848.19
528.973	5859.27
529.339	5857.91
529.705	5870.34
530.071	5884.58
530.437	5928.42
530.803	5968.64
531.169	6015.42
531.535	6046.61
531.901	6048.64
532.267	6064.46
532.632	6137
532.998	6141.52
533.364	6214.51
533.73	6174.96
534.095	6218.58
534.461	6178.35
534.826	6231.01
535.192	6322.53
535.557	6318.69
535.923	6326.83
536.288	6406.6
536.653	6386.71
537.019	6357.11
537.384	6403.66
537.749	6424
538.114	6476.43
538.479	6489.98
538.845	6520.04
539.21	6522.75
539.575	6575.18
539.94	6599.36
540.305	6603.2
540.67	6635.97
541.034	6679.13
541.399	6770.2
541.764	6722.29
542.129	6747.38
542.494	6805.91
542.858	6783.76
543.223	6844.33
543.587	6842.29
543.952	6851.11
544.316	6912.12
544.681	6883.42
545.045	6957.77
545.41	6979.24
545.774	7005
546.138	7028.73
546.503	7080.7
546.867	7042.51
547.231	7097.2
547.595	7121.61
547.959	7206.12
548.324	7197.31
548.688	7222.85
549.052	7276.18
549.416	7260.81
549.779	7317.08
550.143	7288.16
550.507	7348.72
550.871	7364.09
551.235	7351.21
551.599	7481.82
551.962	7419.23
552.326	7484.76
552.689	7548.04
553.053	7460.81
553.417	7521.6
553.78	7646.56
554.143	7565.21
554.507	7599.33
554.87	7637.53
555.234	7730.4
555.597	7639.56
555.96	7695.83
556.323	7701.93
556.686	7739.67
557.05	7855.82
557.413	7759.33
557.776	7790.97
558.139	7815.83
558.502	7894.92
558.865	7880.68
559.228	7960.91
559.59	7964.52
559.953	7960.68
560.316	8099.21
560.679	8100.56
561.041	8098.98
561.404	8090.17
561.767	8206.1
562.129	8158.64
562.492	8244.51
562.854	8229.6
563.217	8206.32
563.579	8282.93
563.941	8286.55
564.304	8286.55
564.666	8374.45
565.028	8376.49
565.39	8463.72
565.753	8464.4
566.115	8486.99
566.477	8506.65
566.839	8488.8
567.201	8612.87
567.563	8616.03
567.925	8655.35
568.287	8661.23
568.648	8667.55
569.01	8688.34
569.372	8799.08
569.734	8769.47
570.095	8828.91
570.457	8844.05
570.819	8908.45
571.18	8894.67
571.542	8964.95
571.903	8994.78
572.265	9141.44
572.626	9078.62
572.987	9143.02
573.349	9197.26
573.71	9279.97
574.071	9308.67
574.432	9355.9
574.794	9449
575.155	9466.4
575.516	9496.91
575.877	9566.74
576.238	9623.91
576.599	9641.99
576.96	9784.36
577.32	9767.19
577.681	9876.79
578.042	9951.59
578.403	10024.13
578.763	10106.84
579.124	10242.88
579.485	10396.55
579.845	10448.3
580.206	10531.91
580.566	10655.98
580.927	10790.44
581.287	10984.1
581.648	11018.91
582.008	11102.07
582.368	11281.27
582.728	11426.8
583.089	11459.35
583.449	11611.21
583.809	11831.09
584.169	12000.12
584.529	12160.34
584.889	12390.62
585.249	12416.16
585.609	12671.74
585.969	12941.79
586.329	13097.04
586.688	13275.79
587.048	13398.96
587.408	13638.27
587.768	13955.78
588.127	14051.59
588.487	14341.08
588.846	14602.31
589.206	14730.45
589.565	15106.26
589.925	15355.51
590.284	15498.79
590.643	15710.76
591.003	16144.65
591.362	16365.88
591.721	16658.53
592.08	16879.09
592.44	17235.01
592.799	17498.96
593.158	17701.67
593.517	17995.44
593.876	18308.21
594.235	18507.07
594.593	18805.37
594.952	19091.01
595.311	19311.57
595.67	19682.18
596.029	20073.81
596.387	20282.62
596.746	20671.53
597.104	20870.62
597.463	21066.32
597.822	21589.47
598.18	21585.18
598.538	21973.65
598.897	22290.7
599.255	22421.54
599.613	23045.03
599.972	23222.65
600.33	23548.97
600.688	23729.98
601.046	24076.41
601.404	24373.58
601.762	24606.8
602.12	25066.67
602.478	25240.68
602.836	25540.78
603.194	25538.52
603.552	25883.83
603.91	26053.54
604.268	26469.8
604.625	26710.47
604.983	27076.11
605.341	27149.33
605.698	27514.52
606.056	27781.63
606.413	28024.11
606.771	28387.04
607.128	28534.38
607.485	28732.79
607.843	28904.76
608.2	29398.99
608.557	29539.55
608.914	29651.41
609.272	30001
609.629	30183.37
609.986	30492.07
610.343	30740.42
610.7	31056.34
611.057	31175.44
611.414	31358.03
611.771	31537.24
612.127	31827.85
612.484	32004.34
612.841	32288.4
613.198	32334.5
613.554	32447.27
613.911	32680.93
614.267	32894.49
614.624	33069.85
614.98	33305.32
615.337	33561.36
615.693	33629.84
616.05	33767.46
616.406	34069.82
616.762	34110.05
617.118	34240.22
617.475	34378.74
617.831	34665.52
618.187	34672.75
618.543	34941.89
618.899	35212.85
619.255	35187.76
619.611	35327.64
619.967	35512.27
620.323	35708.2
620.678	35754.3
621.034	35712.27
621.39	35800.4
621.746	35861.19
622.101	36340.05
622.457	36231.8
622.812	36255.76
623.168	36512.02
623.523	36666.82
623.879	36806.7
624.234	36658.23
624.589	36960.82
624.945	37045.57
625.3	37047.15
625.655	37200.59
626.01	37156.75
626.365	37273.36
626.72	37424.76
627.075	37455.72
627.43	37400.58
627.785	37485.55
628.14	37555.61
628.495	37674.25
628.85	37694.81
629.205	37677.87
629.559	37896.84
629.914	37762.83
630.269	37862.49
630.623	37895.26
630.978	37752.21
631.332	37993.11
631.687	38055.26
632.041	38038.31
632.396	38058.19
632.75	38055.03
633.104	38118.76
633.459	37976.84
633.813	38013.22
634.167	38058.65
634.521	38031.75
634.875	38187
635.229	38133.22
635.583	37997.63
635.937	38143.39
636.291	38038.76
636.645	37994.24
636.999	37979.55
637.352	38177.06
637.706	37886
638.06	38129.15
638.413	37992.21
638.767	38007.12
639.121	37954.47
639.474	37935.49
639.828	37863.17
640.181	38035.82
640.534	37974.13
640.888	37859.1
641.241	37933.68
641.594	37950.63
641.947	38046.22
642.301	37962.38
642.654	37965.99
643.007	37907.01
643.36	37833.12
643.713	37884.64
644.066	38029.95
644.419	37825.43
644.771	37462.96
645.124	37185.22
645.477	37346.35
645.83	37018.45
646.182	36993.59
646.535	36763.09
646.888	36916.98
647.24	36809.87
647.593	36932.35
647.945	36812.35
648.298	36665.69
648.65	36597.67
649.002	36726.03
649.355	36655.97
649.707	36795.18
650.059	36783.2
650.411	37299.57
650.763	37273.36
651.115	37713.57
651.467	37580.24
651.819	37578.88
652.171	37587.02
652.523	37502.95
652.875	37454.59
653.227	37142.74
653.578	37457.98
653.93	37499.79
654.282	37334.6
654.633	37302.96
654.985	37450.3
655.337	37383.86
655.688	37343.64
656.039	37413.01
656.391	37110.42
656.742	37137.31
657.094	37350.87
657.445	37422.5
657.796	37281.72
658.147	37278.78
658.498	37226.35
658.849	37340.92
659.2	37336.63
659.551	37295.5
659.902	37246.24
660.253	37215.5
660.604	37325.78
660.955	37065.45
661.306	37171.89
661.656	37105.22
662.007	37178.67
662.358	37130.08
662.708	37191.32
663.059	37188.84
663.409	36930.31
663.76	37102.29
664.11	37115.17
664.461	37207.6
664.811	37150.2
665.161	37148.84
665.511	37018.22
665.862	37124.43
666.212	37105.22
666.562	37116.07
666.912	37051.89
667.262	37013.48
667.612	37068.84
667.962	37112
668.312	37028.84
668.662	37188.84
669.011	37149.29
669.361	37005.34
669.711	36970.31
670.06	36957.66
670.41	36892.58
670.76	36882.18
671.109	36989.97
671.459	37023.87
671.808	36898.22
672.157	36879.02
672.507	36794.27
672.856	36735.29
673.205	36771.67
673.554	36891.9
673.904	36732.13
674.253	36912.01
674.602	36832.46
674.951	36345.02
675.3	36112.03
675.649	36730.55
675.998	36673.15
676.346	36642.64
676.695	36757.89
677.044	36535.75
677.393	36705.46
677.741	36700.26
678.09	36533.26
678.438	36577.78
678.787	36709.98
679.135	36653.94
679.484	36207.4
679.832	36502.08
680.181	36204.01
680.529	36364.23
680.877	36275.64
681.225	36212.59
681.573	36424.11
681.922	36239.03
682.27	36028.42
682.618	36019.38
682.966	35986.61
683.314	36037.91
683.661	35766.05
684.009	35701.87
684.357	35691.7
684.705	35685.6
685.053	35629.56
685.4	35550.24
685.748	35476.12
686.095	35507.3
686.443	35505.94
686.79	35316.35
687.138	35304.82
687.485	35455.1
687.832	35199.51
688.18	35229.57
688.527	35103.02
688.874	35150.47
689.221	35012.85
689.568	34911.38
689.915	34851.5
690.262	34770.15
690.609	34684.27
690.956	34667.77
691.303	34527.89
691.65	34518.17
691.997	34488.8
692.344	34261.01
692.69	34256.94
693.037	34375.35
693.383	33924.97
693.73	34186.66
694.077	33894.01
694.423	33967.45
694.769	33744.41
695.116	33677.29
695.462	33727.91
695.808	33588.26
696.155	33737.63
696.501	33415.15
696.847	33291.31
697.193	33080.02
697.539	33280.47
697.885	33006.35
698.231	32964.99
698.577	32889.52
698.923	32820.14
699.269	32759.8
699.614	32645.68
699.96	32570.43
700.306	32449.08
700.651	32410.66
700.997	32346.25
701.342	32303.77
701.688	32136.32
702.033	32094.28
702.379	32145.58
702.724	31951.69
703.069	32007.51
703.415	31578.82
703.76	31727.97
704.105	31673.05
704.45	31606.61
704.795	31464.24
705.14	31352.61
705.485	31354.64
705.83	31360.97
706.175	31278.94
706.52	31244.59
706.865	30982
707.209	31025.16
707.554	30936.57
707.899	30913.07
708.243	30906.97
708.588	30829.23
708.932	30631.04
709.277	30574.32
709.621	30573.65
709.966	30338.4
710.31	30387.89
710.654	30276.48
710.998	30216.82
711.342	30222.69
711.687	30126.43
712.031	29988.8
712.375	30035.81
712.719	30011.17
713.063	29949.48
713.407	30024.06
713.75	29661.35
714.094	29778.19
714.438	29745.19
714.782	29719.88
715.125	29498.42
715.469	29577.06
715.812	29442.83
716.156	29296.39
716.499	29373.9
716.843	29386.56
717.186	29149.95
717.53	29318.54
717.873	29224.08
718.216	29256.62
718.559	29156.51
718.902	28913.58
719.246	28963.07
719.589	28984.53
719.932	28754.03
720.275	28868.61
720.617	28721.72
720.96	28714.03
721.303	28679.23
721.646	28632.23
721.989	28499.8
722.331	28543.87
722.674	28358.79
723.016	28529.18
723.359	28441.5
723.701	28391.78
724.044	28189.53
724.386	28132.13
724.729	28220.49
725.071	28143.88
725.413	28038.12
725.755	28118.34
726.097	28005.58
726.439	27741.86
726.782	27863.66
727.124	28007.84
727.465	27763.1
727.807	27687.62
728.149	27771.91
728.491	27609.66
728.833	27712.93
729.175	27523.56
729.516	27516.78
729.858	27477.68
730.199	27595.42
730.541	27526.27
730.882	27363.33
731.224	27571.92
731.565	27344.8
731.906	27281.08
732.248	27450.79
732.589	27225.71
732.93	27098.71
733.271	27135.32
733.612	27066.17
733.953	27117.01
734.294	27020.29
734.635	26947.75
734.976	27053.51
735.317	26851.26
735.658	26937.36
735.999	26802.44
736.339	26699.62
736.68	26874.76
737.021	26767.19
737.361	26560.19
737.702	26646.74
738.042	26593.86
738.383	26616.46
738.723	26487.2
739.063	26454.43
739.404	26518.84
739.744	26569.46
740.084	26318.84
740.424	26365.39
740.764	26336.69
741.104	26327.66
741.444	26228.9
741.784	26207.66
742.124	26075.01
742.464	26177.83
742.804	26069.13
743.143	26009.47
743.483	25889.47
743.823	25775.58
744.162	25908.01
744.502	25977.83
744.841	25753.43
745.181	25930.15
745.52	25661.68
745.86	25832.98
746.199	25637.96
746.538	25654.45
746.877	25684.06
747.216	25619.43
747.556	25764.51
747.895	25611.97
748.234	25445.87
748.573	25415.36
748.911	25365.87
749.25	25307.34
749.589	25324.29
749.928	25379.88
750.267	25324.97
750.605	25150.29
750.944	25223.05
751.283	25069.61
751.621	25150.06
751.96	24989.16
752.298	24974.92
752.636	25065.77
752.975	24858.09
753.313	24810.41
753.651	24971.08
753.989	24773.35
754.327	24688.15
754.666	24647.25
755.004	24695.38
755.342	24834.14
755.679	24556.85
756.017	24474.82
756.355	24450.42
756.693	24368.61
757.031	24416.52
757.368	24210.65
757.706	24117.09
758.044	24067.83
758.381	24102.63
758.719	23973.82
759.056	24107.83
759.394	23950.54
759.731	23860.15
760.068	23828.51
760.405	23723.43
760.743	23676.43
761.08	23603.89
761.417	23569.54
761.754	23490.44
762.091	23460.61
762.428	23461.06
762.765	23236.66
763.102	23288.64
763.438	23185.14
763.775	23015.65
764.112	23180.85
764.449	23164.8
764.785	22929.1
765.122	22915.54
765.458	22820.63
765.795	22666.73
766.131	22669.45
766.467	22618.15
766.804	22583.35
767.14	22448.21
767.476	22542.44
767.812	22313.07
768.148	22293.64
768.485	22213.41
768.821	22069.01
769.157	22089.8
769.492	22004.15
769.828	21912.86
770.164	21814.1
770.5	21702.47
770.836	21783.37
771.171	21652.98
771.507	21554.22
771.842	21373.66
772.178	21310.16
772.513	21313.55
772.849	21259.54
773.184	21127.57
773.519	21095.02
773.855	21028.81
774.19	21010.05
774.525	20944.07
774.86	20845.09
775.195	20835.82
775.53	20664.98
775.865	20512.21
776.2	20478.77
776.535	20309.28
776.87	20307.02
777.205	20151.77
777.539	20114.94
777.874	20238.1
778.209	19978.22
778.543	19951.55
778.878	19859.58
779.212	19784.32
779.547	19721.05
779.881	19877.88
780.215	19544.33
780.55	19728.05
780.884	19484.67
781.218	19489.19
781.552	19499.36
781.886	19256.65
782.22	19114.06
782.554	19073.83
782.888	19054.4
783.222	18893.95
783.556	18907.74
783.889	18801.07
784.223	18707.97
784.557	18667.97
784.89	18741.87
785.224	18584.36
785.557	18578.25
785.891	18428.43
786.224	18409.9
786.558	18375.77
786.891	18242.44
787.224	18119.28
787.557	18072.05
787.891	18098.95
788.224	17987.99
788.557	18014.65
788.89	18033.64
789.223	17899.18
789.556	17849.69
789.888	17724.27
790.221	17752.29
790.554	17471.39
790.887	17605.85
791.219	17408.34
791.552	17436.82
791.884	17245.63
792.217	17343.94
792.549	17212.64
792.882	16993.44
793.214	16993.44
793.546	16999.54
793.879	17032.08
794.211	16812.2
794.543	16853.55
794.875	16820.56
795.207	16790.05
795.539	16625.09
795.871	16776.72
796.203	16597.97
796.535	16430.74
796.867	16430.51
797.198	16418.99
797.53	16304.42
797.862	16338.31
798.193	16264.19
798.525	16173.8
798.856	16204.76
799.188	15991.66
799.519	15985.1
799.85	16036.4
800.182	15999.79
800.513	15952.56
800.844	15743.75
801.175	15789.85
801.506	15773.36
801.837	15735.84
802.168	15696.97
802.499	15555.06
802.83	15529.52
803.161	15456.98
803.491	15528.84
803.822	15539.69
804.153	15420.82
804.483	15242.75
804.814	15288.17
805.145	15309.64
805.475	15186.48
805.805	15163.65
806.136	15150.77
806.466	15152.36
806.796	15030.1
807.126	14923.89
807.457	14952.14
807.787	14883.89
808.117	14883.66
808.447	14699.71
808.777	14832.59
809.107	14789.65
809.436	14798.24
809.766	14685.48
810.096	14596.66
810.426	14625.36
810.755	14631.69
811.085	14589.43
811.414	14496.1
811.744	14358.7
812.073	14365.26
812.403	14365.03
812.732	14282.55
813.061	14231.48
813.39	14118.48
813.719	14227.41
814.049	14087.75
814.378	14102.44
814.707	14085.72
815.036	14089.56
815.365	13964.14
815.693	13872.16
816.022	13916.91
816.351	13873.75
816.68	13774.76
817.008	13803.46
817.337	13690.25
817.665	13628.55
817.994	13758.04
818.322	13737.7
818.651	13677.59
818.979	13622.45
819.307	13616.13
819.636	13546.97
819.964	13472.63
820.292	13511.27
820.62	13558.95
820.948	13454.32
821.276	13527.09
821.604	13393.08
821.932	13527.77
822.259	13460.65
822.587	13459.29
822.915	13369.58
823.243	13398.73
823.57	13464.26
823.898	13445.96
824.225	13346.75
824.553	13330.03
824.88	13433.76
825.207	13462.68
825.535	13358.05
825.862	13430.14
826.189	13388.79
826.516	13384.27
826.843	13376.13
827.17	13416.13
827.497	13399.18
827.824	13343.82
828.151	13436.02
828.478	13402.8
828.805	13411.38
829.131	13365.06
829.458	13391.95
829.785	13280.99
830.111	13364.83
830.438	13345.4
830.764	13262.69
831.09	13306.98
831.417	13254.1
831.743	13301.11
832.069	13319.18
832.395	13341.1
832.722	13273.54
833.048	13233.76
833.374	13247.55
833.7	13200.77
834.026	13100.21
834.351	13330.71
834.677	13209.36
835.003	13179.75
835.329	13200.77
835.654	13083.71
835.98	13053.65
836.306	13123.93
836.631	13078.29
836.956	13100.21
837.282	12976.37
837.607	13033.99
837.932	13015.69
838.258	13003.26
838.583	12888.46
838.908	12845.52
839.233	12889.82
839.558	12902.7
839.883	12885.3
840.208	12814.79
840.533	12892.53
840.858	12813.89
841.182	12786.54
841.507	12778.63
841.832	12678.3
842.156	12700.44
842.481	12661.8
842.805	12673.32
843.13	12586.1
843.454	12619.09
843.778	12584.74
844.103	12500.22
844.427	12493.67
844.751	12525.53
845.075	12411.18
845.399	12464.29
845.723	12390.85
846.047	12360.34
846.371	12308.14
846.695	12269.95
847.019	12154.47
847.343	12067.69
847.666	11974.36
847.99	11993.12
848.313	11940.01
848.637	11851.65
848.96	11979.11
849.284	11858.66
849.607	11761.48
849.931	11787.92
850.254	11628.83
850.577	11593.35
850.9	11509.06
851.223	11493.69
851.546	11496.18
851.869	11395.62
852.192	11468.38
852.515	11380.25
852.838	11255.06
853.161	11340.25
853.483	11246.7
853.806	11156.3
854.129	11137.77
854.451	11118.56
854.774	11052.58
855.096	11071.56
855.419	11040.15
855.741	10996.76
856.063	10898.46
856.385	10891.22
856.708	10829.98
857.03	10811.23
857.352	10820.04
857.674	10719.48
857.996	10731.68
858.318	10733.94
858.64	10733.49
858.961	10682.87
859.283	10633.6
859.605	10632.02
859.926	10645.36
860.248	10542.53
860.57	10514.51
860.891	10486.94
861.212	10458.69
861.534	10438.58
861.855	10468.86
862.176	10429.99
862.498	10354.06
862.819	10340.05
863.14	10359.71
863.461	10317.45
863.782	10195.65
864.103	10317.23
864.424	10281.75
864.745	10317.45
865.065	10205.59
865.386	10166.05
865.707	10210.11
866.027	10146.84
866.348	10189.77
866.668	10173.28
866.989	10146.84
867.309	10060.74
867.63	10060.96
867.95	10006.95
868.27	9983.9
868.59	10023.45
868.91	10012.15
869.23	9935.09
869.55	9954.3
869.87	9995.43
870.19	9921.98
870.51	9889.22
870.83	9949.55
871.15	9879.73
871.469	9900.52
871.789	9869.1
872.109	9847.18
872.428	9755.44
872.748	9872.27
873.067	9821.42
873.386	9810.35
873.706	9776
874.025	9740.07
874.344	9643.12
874.663	9738.03
874.982	9674.76
875.301	9660.52
875.62	9698.94
875.939	9632.27
876.258	9588.21
876.577	9550.24
876.896	9591.82
877.214	9529.45
877.533	9530.81
877.852	9501.66
878.17	9549.11
878.489	9505.5
878.807	9511.83
879.125	9454.88
879.444	9457.14
879.762	9415.56
880.08	9454.43
880.398	9413.98
880.716	9400.64
881.034	9322.45
881.352	9359.51
881.67	9334.2
881.988	9373.75
882.306	9354.32
882.624	9259.4
882.941	9199.97
883.259	9251.49
883.577	9219.86
883.894	9193.42
884.212	9152.97
884.529	9150.25
884.846	9076.36
885.164	9167.65
885.481	9068
885.798	9086.75
886.115	9024.38
886.432	9005.17
886.75	9010.6
887.067	9006.08
887.383	8972.41
887.7	8956.36
888.017	8857.83
888.334	8875.68
888.651	8922.01
888.967	8886.08
889.284	8810.15
889.6	8768.12
889.917	8712.98
890.233	8744.61
890.55	8701.68
890.866	8736.93
891.182	8633.21
891.498	8654.9
891.815	8643.6
892.131	8603.15
892.447	8571.29
892.763	8560.44
893.079	8562.7
893.395	8472.31
893.71	8422.82
894.026	8478.86
894.342	8503.27
894.657	8370.61
894.973	8377.84
895.289	8395.47
895.604	8346.66
895.92	8234.35
896.235	8215.59
896.55	8276.83
896.865	8186.66
897.181	8183.05
897.496	8207.91
897.811	8089.04
898.126	8093.78
898.441	8087.91
898.756	8069.83
899.071	7984.41
899.386	7990.06
899.7	7975.14
900.015	7904.86
900.33	7836.39
900.644	7797.29
900.959	7963.62
901.273	7839.78
901.588	7818.99
901.902	7749.84
902.216	7766.11
902.531	7722.95
902.845	7673
903.159	7670.97
903.473	7577.19
903.787	7577.19
904.101	7531.77
904.415	7534.7
904.729	7494.25
905.042	7470.52
905.356	7491.31
905.67	7404.54
905.984	7430.07
906.297	7379.68
906.611	7330.41
906.924	7358.66
907.237	7268.72
907.551	7303.3
907.864	7286.8
908.177	7171.32
908.491	7222.62
908.804	7181.04
909.117	7103.3
909.43	7052
909.743	7037.31
910.056	7013.59
910.368	7018.56
910.681	6968.62
910.994	6935.62
911.307	6914.38
911.619	6845.46
911.932	6852.24
912.244	6793.25
912.557	6824.67
912.869	6760.03
913.181	6750.32
913.494	6691.11
913.806	6724.55
914.118	6713.93
914.43	6649.08
914.742	6642.3
915.054	6637.1
915.366	6576.08
915.678	6534.73
915.99	6533.15
916.302	6466.71
916.613	6474.62
916.925	6500.61
917.236	6443.88
917.548	6425.81
917.859	6408.86
918.171	6377.67
918.482	6316.66
918.794	6214.51
919.105	6278.92
919.416	6230.1
919.727	6187.62
920.038	6176.32
920.349	6152.59
920.66	6141.29
920.971	6123.67
921.282	6078.7
921.593	6042.54
921.903	6030.79
922.214	5993.05
922.525	5966.61
922.835	5929.1
923.146	5871.24
923.456	5915.08
923.767	5893.84
924.077	5879.61
924.387	5805.71
924.697	5749.21
925.008	5773.85
925.318	5758.93
925.628	5726.16
925.938	5690.68
926.248	5640.06
926.558	5637.8
926.867	5628.54
927.177	5610.23
927.487	5569.56
927.796	5549.67
928.106	5508.54
928.416	5461.54
928.725	5487.3
929.034	5479.16
929.344	5446.4
929.653	5451.37
929.962	5418.6
930.271	5361.88
930.581	5355.1
930.89	5309.22
931.199	5255.21
931.508	5245.27
931.817	5246.63
932.125	5207.08
932.434	5241.66
932.743	5198.72
933.051	5152.17
933.36	5155.56
933.669	5082.34
933.977	5119.17
934.286	5095.67
934.594	5081.43
934.902	5028.78
935.21	5012.96
935.519	5021.55
935.827	5006.63
936.135	4967.09
936.443	4908.33
936.751	4951.04
937.059	4893.19
937.367	4855.68
937.674	4895.9
937.982	4854.77
938.29	4796.02
938.597	4812.06
938.905	4697.26
939.213	4729.13
939.52	4733.65
939.827	4723.03
940.135	4682.35
940.442	4684.16
940.749	4653.2
941.056	4686.42
941.363	4574.1
941.67	4624.27
941.977	4573.65
942.284	4548.57
942.591	4525.74
942.898	4525.52
943.205	4486.2
943.511	4452.98
943.818	4412.07
944.125	4394.45
944.431	4415.91
944.738	4422.69
945.044	4372.53
945.35	4331.17
945.657	4350.61
945.963	4354
946.269	4262.47
946.575	4273.09
946.881	4260.21
947.187	4268.8
947.493	4280.1
947.799	4218.41
948.105	4174.79
948.41	4175.47
948.716	4155.81
949.022	4151.29
949.327	4118.97
949.633	4113.78
949.938	4087.79
950.244	4063.38
950.549	4062.03
950.854	4038.52
951.16	4008.24
951.465	4014.8
951.77	3991.29
952.075	3943.84
952.38	3947.9
952.685	3956.72
952.99	3947.68
953.294	3946.55
953.599	3886.89
953.904	3857.29
954.209	3838.53
954.513	3849.38
954.818	3841.92
955.122	3800.56
955.426	3798.76
955.731	3749.72
956.035	3746.55
956.339	3764.18
956.643	3706.1
956.948	3706.78
957.252	3725.99
957.556	3655.71
957.86	3662.04
958.163	3633.34
958.467	3644.18
958.771	3623.85
959.075	3605.54
959.378	3587.24
959.682	3528.48
959.985	3532.32
960.289	3514.02
960.592	3496.62
960.896	3507.46
961.199	3436.96
961.502	3503.4
961.805	3453.68
962.108	3462.27
962.411	3451.42
962.714	3411.87
963.017	3374.81
963.32	3418.2
963.623	3349.28
963.926	3341.37
964.228	3371.65
964.531	3300.46
964.833	3333.91
965.136	3256.4
965.438	3242.39
965.741	3269.5
966.043	3275.61
966.345	3216.4
966.648	3236.74
966.95	3227.7
967.252	3197.64
967.554	3213.23
967.856	3165.55
968.158	3135.95
968.46	3174.82
968.761	3107.93
969.063	3107.93
969.365	3095.5
969.666	3073.8
969.968	3118.1
970.269	3071.54
970.571	3088.49
970.872	3047.36
971.174	3031.54
971.475	2989.74
971.776	3006.23
972.077	2995.61
972.378	2962.62
972.679	2965.33
972.98	2942.73
973.281	2939.12
973.582	2930.76
973.883	2948.61
974.183	2895.95
974.484	2912
974.785	2866.35
975.085	2862.51
975.386	2839.69
975.686	2832.23
975.986	2810.76
976.287	2832.45
976.587	2790.87
976.887	2818.67
977.187	2801.27
977.487	2767.37
977.787	2741.16
978.087	2737.99
978.387	2721.5
978.687	2724.89
978.987	2732.8
979.286	2663.42
979.586	2682.18
979.885	2661.38
980.185	2653.48
980.484	2622.52
980.784	2633.14
981.083	2621.39
981.382	2616.64
981.682	2598.11
981.981	2577.32
982.28	2556.3
982.579	2546.36
982.878	2568.28
983.177	2542.74
983.475	2520.6
983.774	2529.41
984.073	2489.19
984.372	2484.44
984.67	2488.28
984.969	2469.53
985.267	2499.58
985.566	2486.25
985.864	2479.02
986.162	2420.71
986.461	2429.98
986.759	2437.66
987.057	2360.83
987.355	2368.74
987.653	2368.06
987.951	2386.14
988.249	2368.29
988.547	2347.49
988.844	2350.21
989.142	2375.06
989.44	2299.36
989.737	2318.79
990.035	2281.73
990.332	2300.72
990.63	2295.52
990.927	2293.03
991.224	2260.49
991.521	2259.36
991.819	2215.52
992.116	2220.04
992.413	2199.93
992.71	2215.52
993.006	2223.66
993.303	2191.57
993.6	2202.41
993.897	2166.71
994.193	2158.35
994.49	2148.4
994.787	2128.97
995.083	2132.36
995.379	2105.24
995.676	2101.85
995.972	2069.99
996.268	2102.53
996.565	2059.14
996.861	2106.37
997.157	2027.96
997.453	2037.22
997.749	2058.91
998.044	2018.69
998.34	2004.45
998.636	1994.96
998.932	2009.42
999.227	1962.19
999.523	1948.18
999.818	1954.28
1000.114	1900.73
1000.409	1965.36
1000.704	1919.94
1001	1961.06
1001.295	1925.81
1001.59	1904.12
1001.885	1915.42
1002.18	1876.77
1002.475	1852.37
1002.77	1852.37
1003.065	1855.3
1003.359	1862.08
1003.654	1861.41
1003.949	1828.64
1004.243	1835.19
1004.538	1813.27
1004.832	1791.13
1005.127	1782.54
1005.421	1764.01
1005.715	1768.07
1006.009	1782.99
1006.304	1732.6
1006.598	1748.87
1006.892	1743.44
1007.186	1696.89
1007.48	1695.31
1007.773	1694.4
1008.067	1707.29
1008.361	1643.11
1008.655	1658.25
1008.948	1663.67
1009.242	1651.02
1009.535	1623.45
1009.829	1626.16
1010.122	1631.36
1010.415	1634.07
1010.708	1603.56
1011.001	1587.74
1011.295	1571.7
1011.588	1549.32
1011.881	1595.2
1012.173	1569.44
1012.466	1567.18
1012.759	1553.84
1013.052	1547.06
1013.344	1530.34
1013.637	1503
1013.93	1486.95
1014.222	1505.93
1014.514	1474.52
1014.807	1495.09
1015.099	1485.82
1015.391	1493.73
1015.683	1470.23
1015.976	1458.25
1016.268	1452.83
1016.56	1438.59
1016.851	1437.24
1017.143	1411.25
1017.435	1396.11
1017.727	1388.65
1018.018	1437.46
1018.31	1383
1018.602	1367.86
1018.893	1398.82
1019.185	1373.51
1019.476	1355.88
1019.767	1351.36
1020.058	1350.46
1020.35	1321.31
1020.641	1318.6
1020.932	1306.39
1021.223	1286.05
1021.514	1305.26
1021.804	1279.5
1022.095	1274.3
1022.386	1276.11
1022.677	1276.79
1022.967	1244.02
1023.258	1233.85
1023.548	1230.01
1023.839	1239.05
1024.129	1211.25
1024.419	1225.04
1024.709	1191.14
1025	1182.1
1025.29	1194.53
1025.58	1173.51
1025.87	1179.16
1026.16	1150.92
1026.449	1145.94
1026.739	1177.81
1027.029	1180.97
1027.319	1152.5
1027.608	1141.88
1027.898	1132.61
1028.187	1112.27
1028.477	1077.7
1028.766	1100.07
1029.055	1116.57
1029.344	1082.22
1029.634	1082.9
1029.923	1078.38
1030.212	1081.31
1030.501	1087.64
1030.79	1074.53
1031.078	1047.87
1031.367	1036.34
1031.656	1044.48
1031.945	1032.95
1032.233	1035.44
1032.522	1012.84
1032.81	1019.39
1033.099	1026.63
1033.387	1024.14
1033.675	987.53
1033.963	1005.16
1034.251	956.12
1034.54	976.91
1034.828	970.58
1035.116	963.8
1035.403	961.32
1035.691	964.25
1035.979	958.83
1036.267	952.28
1036.554	944.82
1036.842	890.81
1037.129	922.45
1037.417	910.47
1037.704	910.7
1037.992	914.76
1038.279	900.08
1038.566	910.47
1038.853	910.47
1039.14	910.47
