Data from hue_170_FLMS001491_00060.txt Node
Date: Tue Feb 07 16:48:54 GMT 2017
User: dcchb
Spectrometer: FLMS00149
Trigger mode: 0
Integration Time (sec): 2.000000E-2
Scans to average: 10
Electric dark correction enabled: true
Nonlinearity correction enabled: false
Boxcar width: 0
XAxis mode: Wavelengths
Number of Pixels in Spectrum: 2048
>>>>>Begin Spectral Data<<<<<
341.393	-11.5
341.776	-11.5
342.16	-11.5
342.543	-54.21
342.927	-62.34
343.31	-49.91
343.693	-82
344.077	-84.72
344.46	-60.31
344.843	-68.9
345.226	-35
345.61	-37.71
345.993	-12.63
346.376	0.25
346.759	13.36
347.142	35.73
347.525	59.01
347.908	58.78
348.291	80.93
348.674	77.09
349.057	106.01
349.44	139.23
349.823	136.75
350.206	159.12
350.588	205.22
350.971	202.28
351.354	239.12
351.737	233.69
352.119	242.06
352.502	266.01
352.884	252.23
353.267	283.41
353.65	296.07
354.032	292.45
354.414	311.21
354.797	303.75
355.179	312.34
355.562	306.91
355.944	325.9
356.326	297.2
356.709	339.91
357.091	319.12
357.473	326.12
357.855	329.51
358.238	371.09
358.62	343.75
359.002	326.8
359.384	319.57
359.766	344.43
360.148	340.36
360.53	357.98
360.912	341.94
361.294	315.95
361.676	318.44
362.057	313.92
362.439	338.55
362.821	322.51
363.203	338.55
363.584	307.36
363.966	331.09
364.348	322.28
364.729	312.56
365.111	297.42
365.493	295.61
365.874	321.83
366.256	288.38
366.637	301.49
367.019	304.65
367.4	310.08
367.781	319.57
368.163	314.82
368.544	309.17
368.925	324.99
369.306	322.05
369.688	328.61
370.069	322.05
370.45	314.14
370.831	296.52
371.212	324.99
371.593	302.62
371.974	317.31
372.355	306.91
372.736	310.53
373.117	294.03
373.498	289.96
373.879	321.38
374.26	310.75
374.641	307.82
375.021	313.69
375.402	318.66
375.783	324.09
376.163	344.88
376.544	338.78
376.925	344.88
377.305	322.28
377.686	324.09
378.066	324.09
378.447	346.91
378.827	327.93
379.208	316.4
379.588	331.54
379.968	334.26
380.349	334.93
380.729	336.29
381.109	336.06
381.489	366.35
381.87	338.32
382.25	322.73
382.63	331.77
383.01	346.01
383.39	345.78
383.77	336.97
384.15	340.36
384.53	346.69
384.91	348.27
385.29	348.04
385.67	348.04
386.049	352.79
386.429	334.03
386.809	340.58
387.189	352.79
387.568	326.35
387.948	365.67
388.328	361.15
388.707	349.4
389.087	354.14
389.466	362.96
389.846	383.07
390.225	346.91
390.605	383.07
390.984	381.26
391.363	340.81
391.743	347.59
392.122	374.03
392.501	379.91
392.881	382.39
393.26	381.94
393.639	379.23
394.018	357.08
394.397	381.49
394.776	390.53
395.155	384.42
395.534	385.1
395.913	401.83
396.292	382.17
396.671	406.57
397.05	391.88
397.429	388.49
397.808	392.33
398.186	406.57
398.565	396.85
398.944	393.92
399.323	393.24
399.701	396.18
400.08	397.08
400.458	410.86
400.837	410.19
401.215	407.7
401.594	423.29
401.972	424.2
402.351	413.58
402.729	416.29
403.107	431.2
403.486	432.33
403.864	422.16
404.242	414.48
404.62	425.78
404.999	407.48
405.377	429.4
405.755	433.46
406.133	435.95
406.511	467.13
406.889	441.37
407.267	436.4
407.645	454.93
408.023	455.38
408.401	466.91
408.779	456.97
409.156	471.88
409.534	475.27
409.912	476.17
410.29	466.46
410.667	481.82
411.045	500.58
411.422	502.39
411.8	519.11
412.178	503.07
412.555	507.59
412.933	521.82
413.31	544.42
413.687	543.29
414.065	541.93
414.442	544.19
414.819	539
415.197	548.04
415.574	558.21
415.951	565.44
416.328	577.64
416.705	574.7
417.082	568.83
417.46	582.39
417.837	587.36
418.214	579.67
418.591	604.76
418.967	586
419.344	625.1
419.721	590.52
420.098	616.28
420.475	611.31
420.852	604.53
421.228	624.19
421.605	628.03
421.982	658.99
422.358	680.01
422.735	644.76
423.111	676.39
423.488	665.55
423.864	696.51
424.241	681.37
424.617	685.89
424.994	684.98
425.37	706.68
425.746	694.02
426.123	710.52
426.499	728.14
426.875	718.43
427.251	751.65
427.627	750.52
428.003	728.82
428.379	757.07
428.756	748.71
429.132	779.22
429.507	772.66
429.883	783.28
430.259	794.81
430.635	794.36
431.011	775.15
431.387	827.8
431.763	824.87
432.138	848.59
432.514	836.62
432.89	860.12
433.265	879.33
433.641	885.43
434.016	909.83
434.392	869.84
434.767	926.33
435.143	930.63
435.518	936.95
435.894	938.53
436.269	928.82
436.644	966.33
437.02	990.28
437.395	964.3
437.77	1007.69
438.145	1018.53
438.52	1024.86
438.895	1057.63
439.271	1039.55
439.646	1099.66
440.021	1076.84
440.395	1094.91
440.77	1071.86
441.145	1087.46
441.52	1140.34
441.895	1110.96
442.27	1154.8
442.645	1124.97
443.019	1155.03
443.394	1141.24
443.769	1147.34
444.143	1155.7
444.518	1189.6
444.892	1195.48
445.267	1196.15
445.641	1205.65
446.016	1211.97
446.39	1240.9
446.764	1248.81
447.139	1242.71
447.513	1238.19
447.887	1251.75
448.262	1256.72
448.636	1257.62
449.01	1274.35
449.384	1309.15
449.758	1290.16
450.132	1333.1
450.506	1332.87
450.88	1370.39
451.254	1356.15
451.628	1371.29
452.002	1370.16
452.376	1399.99
452.75	1411.97
453.123	1417.17
453.497	1455.13
453.871	1470.95
454.244	1476.37
454.618	1496.94
454.992	1539.65
455.365	1518.63
455.739	1561.57
456.112	1572.64
456.486	1559.76
456.859	1613.55
457.232	1610.38
457.606	1612.64
457.979	1647.44
458.352	1673.2
458.725	1683.83
459.099	1713.66
459.472	1769.02
459.845	1758.17
460.218	1769.25
460.591	1822.35
460.964	1835.91
461.337	1858.96
461.71	1910.49
462.083	1917.94
462.456	1936.7
462.829	1922.92
463.201	1989.58
463.574	1975.8
463.947	2010.82
464.32	2070.48
464.692	2104.83
465.065	2101.22
465.438	2158.84
465.81	2176.69
466.183	2194.32
466.555	2264.38
466.928	2282.68
467.3	2262.34
467.672	2328.1
468.045	2356.35
468.417	2421.21
468.789	2435.22
469.161	2480.87
469.534	2491.04
469.906	2550.47
470.278	2597.7
470.65	2629.56
471.022	2688.09
471.394	2731.48
471.766	2787.53
472.138	2836.79
472.51	2923.79
472.882	2971.02
473.253	3017.35
473.625	3062.77
473.997	3124.92
474.369	3158.36
474.74	3190.23
475.112	3294.18
475.484	3346.61
475.855	3446.72
476.227	3519.94
476.598	3625.47
476.97	3661.4
477.341	3770.1
477.713	3859.59
478.084	3911.34
478.455	4022.75
478.827	4101.84
479.198	4274.04
479.569	4245.34
479.94	4378.9
480.311	4470.42
480.682	4576.86
481.053	4729.85
481.424	4808.26
481.795	4905.89
482.166	5004.87
482.537	5108.14
482.908	5192.66
483.279	5346.55
483.65	5473.1
484.021	5641.69
484.391	5671.52
484.762	5792.87
485.133	5916.26
485.503	5981.57
485.874	6186.98
486.244	6294.1
486.615	6426.07
486.985	6497.03
487.356	6698.84
487.726	6810.47
488.097	6995.1
488.467	7037.36
488.837	7173.4
489.207	7376.78
489.578	7508.31
489.948	7624.69
490.318	7784
490.688	7853.16
491.058	8038.46
491.428	8143.99
491.798	8390.09
492.168	8495.85
492.538	8550.31
492.908	8656.75
493.278	8834.82
493.648	8831.43
494.017	9028.04
494.387	9129.73
494.757	9256.96
495.126	9414.47
495.496	9481.13
495.866	9566.1
496.235	9674.35
496.605	9776.49
496.974	9857.4
497.344	9989.14
497.713	10030.95
498.082	10146.43
498.452	10235.69
498.821	10331.06
499.19	10478.62
499.559	10528.79
499.928	10600.88
500.298	10662.35
500.667	10813.76
501.036	10803.36
501.405	10972.85
501.774	10958.38
502.143	11063.92
502.512	11159.28
502.88	11213.52
503.249	11253.52
503.618	11325.61
503.987	11445.6
504.356	11456.45
504.724	11474.3
505.093	11608.54
505.462	11604.47
505.83	11675.2
506.199	11880.62
506.567	11994.06
506.936	11896.21
507.304	12121.29
507.672	12121.52
508.041	12152.03
508.409	12215.53
508.777	12309.08
509.145	12430.89
509.514	12312.92
509.882	12382.08
510.25	12461.4
510.618	12549.08
510.986	12552.69
511.354	12621.39
511.722	12679.92
512.09	12779.58
512.458	12728.73
512.826	12851.22
513.193	12895.28
513.561	12986.13
513.929	12989.74
514.297	13060.93
514.664	13064.54
515.032	13151.32
515.4	13185.9
515.767	13130.08
516.135	13256.18
516.502	13099.12
516.869	13323.97
517.237	13308.6
517.604	13241.94
517.972	13446.68
518.339	13472.89
518.706	13465.21
519.073	13414.59
519.44	13511.99
519.808	13574.59
520.175	13523.29
520.542	13721.48
520.909	13642.61
521.276	13632.66
521.643	13804.19
522.009	13758.99
522.376	13789.72
522.743	13917.63
523.11	13941.58
523.477	13959.66
523.843	13943.16
524.21	14047.57
524.577	14101.35
524.943	14067
525.31	14104.52
525.676	14258.18
526.043	14198.75
526.409	14248.92
526.776	14277.62
527.142	14186.77
527.508	14305.87
527.874	14315.58
528.241	14282.36
528.607	14299.54
528.973	14347.9
529.339	14355.36
529.705	14426.32
530.071	14447.33
530.437	14490.72
530.803	14406.88
531.169	14528.01
531.535	14316.04
531.901	14401.23
532.267	14435.58
532.632	14362.81
532.998	14360.78
533.364	14395.58
533.73	14359.88
534.095	14414.79
534.461	14310.84
534.826	14343.15
535.192	14293.21
535.557	14402.36
535.923	14283.95
536.288	14252.99
536.653	14227
537.019	14224.06
537.384	14216.83
537.749	14228.13
538.114	14148.81
538.479	14184.29
538.845	14146.55
539.21	13953.33
539.575	14007.12
539.94	13973.67
540.305	14055.03
540.67	13915.37
541.034	13978.19
541.399	13951.98
541.764	13852.09
542.129	13917.18
542.494	13836.73
542.858	13812.09
543.223	13770.06
543.587	13754.92
543.952	13707.24
544.316	13725.32
544.681	13568.49
545.045	13676.73
545.41	13673.34
545.774	13611.65
546.138	13513.57
546.503	13489.39
546.867	13395.61
547.231	13476.96
547.595	13412.1
547.959	13382.95
548.324	13312.22
548.688	13198.78
549.052	13213.69
549.416	13238.55
549.779	13129.63
550.143	13123.3
550.507	13210.08
550.871	13124.88
551.235	13096.86
551.599	13060.48
551.962	13042.4
552.326	13058.67
552.689	13029.97
553.053	12892.57
553.417	12841.27
553.78	13032.23
554.143	12897.77
554.507	12914.94
554.87	12877.88
555.234	12946.58
555.597	12761.27
555.96	12848.96
556.323	12836.98
556.686	12898.67
557.05	12818
557.413	12752.69
557.776	12672.24
558.139	12798.79
558.502	12676.76
558.865	12676.08
559.228	12755.17
559.59	12726.02
559.953	12718.11
560.316	12776.42
560.679	12686.02
561.041	12812.12
561.404	12748.62
561.767	12759.92
562.129	12710.88
562.492	12810.54
562.854	12751.11
563.217	12693.93
563.579	12740.94
563.941	12838.56
564.304	12874.94
564.666	12818.67
565.028	12734.83
565.39	12851.89
565.753	12850.31
566.115	12814.83
566.477	12883.31
566.839	12887.15
567.201	12780.94
567.563	12848.96
567.925	12886.47
568.287	12861.61
568.648	12915.62
569.01	12899.12
569.372	12970.76
569.734	12863.19
570.095	12864.32
570.457	13050.08
570.819	12962.17
571.18	12940.93
571.542	12928.95
571.903	12946.81
572.265	13011.44
572.626	13048.27
572.987	12978.9
573.349	12974.6
573.71	13090.31
574.071	13070.87
574.432	13048.95
574.794	13159.68
575.155	13038.33
575.516	13037.88
575.877	13157.87
576.238	13073.81
576.599	13100.47
576.96	13047.82
577.32	13184.09
577.681	13142.73
578.042	13172.56
578.403	13116.29
578.763	13132.34
579.124	13170.98
579.485	13137.76
579.845	13175.73
580.206	13181.15
580.566	13109.29
580.927	13073.58
581.287	13097.31
581.648	13127.82
582.008	13263.18
582.368	13153.35
582.728	13066.13
583.089	13018.44
583.449	13098.67
583.809	13136.86
584.169	13039.01
584.529	13029.97
584.889	13095.96
585.249	13065.45
585.609	13006.01
585.969	13091.66
586.329	12994.04
586.688	12997.65
587.048	13002.4
587.408	12883.53
587.768	12961.04
588.127	13003.3
588.487	12905.9
588.846	13045.11
589.206	13017.31
589.565	12965.11
589.925	12897.09
590.284	12921.72
590.643	13000.14
591.003	12912.46
591.362	12973.25
591.721	12920.59
592.08	12897.99
592.44	12949.29
592.799	12931.44
593.158	12824.78
593.517	12908.62
593.876	12925.56
594.235	12826.81
594.593	12907.49
594.952	12907.49
595.311	12877.66
595.67	12890.08
596.029	12989.97
596.387	12957.2
596.746	12958.78
597.104	12821.84
597.463	12763.08
597.822	12892.57
598.18	12842.4
598.538	12832.91
598.897	12922.63
599.255	12743.65
599.613	12953.81
599.972	12788.84
600.33	12817.32
600.688	12783.87
601.046	12725.57
601.404	12844.89
601.762	12852.12
602.12	12836.98
602.478	12858.67
602.836	12841.72
603.194	12732.57
603.552	12747.94
603.91	12771.9
604.268	12787.04
604.625	12806.02
604.983	12771.22
605.341	12785.91
605.698	12836.53
606.056	12848.28
606.413	12755.17
606.771	12818
607.128	12826.58
607.485	12816.19
607.843	12796.98
608.2	12844.89
608.557	12887.82
608.914	12888.28
609.272	12862.51
609.629	12935.73
609.986	13017.31
610.343	12839.24
610.7	12924.43
611.057	12986.81
611.414	12954.26
611.771	12957.65
612.127	12989.74
612.484	13058.44
612.841	13013.7
613.198	12912.46
613.554	12969.86
613.911	13028.61
614.267	12986.81
614.624	12993.58
614.98	13019.35
615.337	13134.15
615.693	13057.54
616.05	13114.49
616.406	13162.39
616.762	13045.56
617.118	13047.82
617.475	13069.52
617.831	13085.11
618.187	13155.16
618.543	13151.32
618.899	13202.62
619.255	13161.49
619.611	13155.16
619.967	13205.33
620.323	13219.34
620.678	13173.47
621.034	13079.46
621.39	13140.47
621.746	13074.94
622.101	13164.65
622.457	13064.77
622.812	13105.9
623.168	13145.45
623.523	13145.22
623.879	13253.69
624.234	13158.78
624.589	13190.42
624.945	13227.48
625.3	13154.71
625.655	13227.93
626.01	13093.7
626.365	13077.2
626.72	13148.16
627.075	13189.74
627.43	13114.49
627.785	13153.58
628.14	13087.14
628.495	13122.17
628.85	13082.4
629.205	13057.99
629.559	13097.99
629.914	13039.01
630.269	13096.41
630.623	13105.45
630.978	13016.86
631.332	13073.13
631.687	13037.43
632.041	13014.15
632.396	13047.37
632.75	12971.44
633.104	12997.2
633.459	12888.73
633.813	12994.49
634.167	12928.28
634.521	12966.69
634.875	12925.56
635.229	12923.76
635.583	12838.11
635.937	12787.94
636.291	12782.07
636.645	12795.4
636.999	12768.28
637.352	12767.38
637.706	12688.51
638.06	12748.17
638.413	12789.07
638.767	12715.17
639.121	12788.17
639.474	12609.64
639.828	12680.37
640.181	12715.63
640.534	12657.77
640.888	12662.97
641.241	12608.51
641.594	12645.57
641.947	12666.14
642.301	12620.49
642.654	12569.87
643.007	12618.91
643.36	12646.25
643.713	12580.26
644.066	12660.71
644.419	12556.31
644.771	12456.42
645.124	12307.73
645.477	12397.22
645.83	12248.52
646.182	12232.93
646.535	12190.44
646.888	12171.69
647.24	12128.97
647.593	12137.11
647.945	12155.41
648.298	12088.52
648.65	12090.33
649.002	12078.35
649.355	12128.52
649.707	12123.1
650.059	12251.23
650.411	12339.36
650.763	12378.69
651.115	12494.61
651.467	12458.01
651.819	12408.97
652.171	12415.52
652.523	12391.11
652.875	12369.87
653.227	12405.13
653.578	12446.71
653.93	12389.53
654.282	12409.42
654.633	12301.17
654.985	12394.28
655.337	12453.94
655.688	12401.51
656.039	12358.35
656.391	12395.41
656.742	12425.24
657.094	12374.62
657.445	12419.81
657.796	12366.93
658.147	12314.05
658.498	12366.48
658.849	12422.98
659.2	12345.69
659.551	12364.9
659.902	12392.02
660.253	12429.53
660.604	12493.03
660.955	12364.9
661.306	12440.83
661.656	12449.19
662.007	12474.05
662.358	12435.86
662.708	12436.09
663.059	12457.33
663.409	12393.83
663.76	12489.42
664.11	12464.56
664.461	12532.35
664.811	12442.64
665.161	12513.6
665.511	12372.58
665.862	12416.88
666.212	12396.54
666.562	12515.41
666.912	12456.2
667.262	12453.26
667.612	12474.05
667.962	12531.45
668.312	12515.63
668.662	12503.2
669.011	12477.44
669.361	12435.41
669.711	12466.82
670.06	12377.1
670.41	12437.67
670.76	12347.73
671.109	12455.75
671.459	12431.34
671.808	12374.84
672.157	12348.4
672.507	12317.22
672.856	12256.2
673.205	12315.86
673.554	12388.86
673.904	12360.83
674.253	12411.91
674.602	12326.94
674.951	12196.09
675.3	12024.34
675.649	12274.73
675.998	12231.57
676.346	12277.9
676.695	12209.2
677.044	12233.15
677.393	12214.17
677.741	12207.62
678.09	12176.43
678.438	12115.19
678.787	12254.17
679.135	12092.37
679.484	12048.07
679.832	12134.62
680.181	12067.28
680.529	12056.43
680.877	12151.12
681.225	12034.29
681.573	12178.92
681.922	11998.58
682.27	11962.65
682.618	12008.07
682.966	12024.34
683.314	11995.42
683.661	12008.53
684.009	11878.59
684.357	11841.07
684.705	11851.69
685.053	11804.46
685.4	11881.52
685.748	11816.44
686.095	11705.48
686.443	11683.79
686.79	11693.73
687.138	11701.19
687.485	11656.44
687.832	11664.58
688.18	11745.48
688.527	11477.92
688.874	11529.22
689.221	11438.37
689.568	11426.85
689.915	11381.65
690.262	11418.49
690.609	11363.35
690.956	11345.49
691.303	11300.07
691.65	11213.52
691.997	11256.46
692.344	11106.18
692.69	11150.92
693.037	11041.32
693.383	11037.93
693.73	11009
694.077	11004.26
694.423	11011.04
694.769	10989.34
695.116	10880.87
695.462	10918.39
695.808	10912.28
696.155	10815.56
696.501	10746.64
696.847	10704.15
697.193	10645.17
697.539	10705.51
697.885	10602.69
698.231	10534.67
698.577	10528.56
698.923	10464.84
699.269	10452.41
699.614	10457.15
699.96	10368.12
700.306	10394.56
700.651	10229.36
700.997	10343.71
701.342	10219.42
701.688	10248.35
702.033	10155.02
702.379	10237.27
702.724	10115.02
703.069	10119.99
703.415	10004.96
703.76	9971.07
704.105	10024.17
704.45	9940.78
704.795	9851.52
705.14	9887.23
705.485	9876.6
705.83	9821.01
706.175	9879.77
706.52	9809.94
706.865	9690.62
707.209	9675.71
707.554	9694.24
707.899	9709.15
708.243	9636.39
708.588	9612.43
708.932	9595.48
709.277	9512.55
709.621	9491.53
709.966	9474.36
710.31	9479.1
710.654	9386.22
710.998	9408.14
711.342	9389.84
711.687	9430.29
712.031	9365.66
712.375	9293.12
712.719	9299.22
713.063	9322.72
713.407	9334.7
713.75	9291.31
714.094	9209.5
714.438	9152.56
714.782	9254.7
715.125	9172.22
715.469	9217.86
715.812	9146.45
716.156	9103.07
716.499	9119.56
716.843	9094.48
717.186	9020.58
717.53	9103.97
717.873	9094.93
718.216	9042.05
718.559	9047.25
718.902	8952.34
719.246	8989.4
719.589	8930.87
719.932	8854.48
720.275	9018.55
720.617	8935.39
720.96	8878.89
721.303	8903.52
721.646	8897.65
721.989	8814.26
722.331	8888.83
722.674	8889.06
723.016	8822.17
723.359	8844.32
723.701	8874.82
724.044	8845.22
724.386	8772.68
724.729	8873.24
725.071	8790.53
725.413	8771.32
725.755	8801.38
726.097	8778.78
726.439	8725.45
726.782	8705.11
727.124	8833.47
727.465	8738.1
727.807	8712.34
728.149	8697.65
728.491	8655.62
728.833	8724.54
729.175	8710.53
729.516	8669.63
729.858	8741.27
730.199	8713.02
730.541	8671.66
730.882	8652.68
731.224	8743.08
731.565	8649.74
731.906	8673.47
732.248	8696.07
732.589	8620.82
732.93	8634.38
733.271	8625.34
733.612	8684.09
733.953	8692.91
734.294	8650.2
734.635	8649.74
734.976	8624.43
735.317	8587.37
735.658	8622.4
735.999	8665.34
736.339	8657.43
736.68	8660.82
737.021	8645.68
737.361	8629.86
737.702	8637.77
738.042	8674.83
738.383	8642.06
738.723	8722.28
739.063	8684.32
739.404	8688.61
739.744	8711.21
740.084	8723.41
740.424	8700.14
740.764	8723.19
741.104	8793.92
741.444	8760.7
741.784	8790.31
742.124	8852.22
742.464	8783.3
742.804	8753.7
743.143	8844.77
743.483	8857.42
743.823	8844.99
744.162	8885.22
744.502	8944.2
744.841	8925.44
745.181	8939
745.52	8997.53
745.86	9042.95
746.199	9059.68
746.538	9123.86
746.877	9165.44
747.216	9235.27
747.556	9204.08
747.895	9263.74
748.234	9326.11
748.573	9347.58
748.911	9447.46
749.25	9492.43
749.589	9551.87
749.928	9639.1
750.267	9697.4
750.605	9747.79
750.944	9854.23
751.283	9879.09
751.621	10039.31
751.96	10073.89
752.298	10152.53
752.636	10271.85
752.975	10331.51
753.313	10417.38
753.651	10581.44
753.989	10612.86
754.327	10613.53
754.666	10811.27
755.004	10928.33
755.342	11077.48
755.679	11242.67
756.017	11223.01
756.355	11529.89
756.693	11622.77
757.031	11660.29
757.368	11867.29
757.706	11975.08
758.044	12147.28
758.381	12307.95
758.719	12372.58
759.056	12664.1
759.394	12801.5
759.731	12869.75
760.068	13097.31
760.405	13135.95
760.743	13350.64
761.08	13533.68
761.417	13660.46
761.754	13795.82
762.091	14023.39
762.428	14168.7
762.765	14303.15
763.102	14517.39
763.438	14706.53
763.775	14722.8
764.112	14917.15
764.449	15166.41
764.785	15342.22
765.122	15358.49
765.458	15484.14
765.795	15714.42
766.131	15861.53
766.467	16018.36
766.804	16052.04
767.14	16248.19
767.476	16415.19
767.812	16413.61
768.148	16600.27
768.485	16766.37
768.821	16760.04
769.157	16936.08
769.492	17099.92
769.828	17331.32
770.164	17268.95
770.5	17366.35
770.836	17589.62
771.171	17485.44
771.507	17704.2
771.842	17676.17
772.178	17800.92
772.513	17939.22
772.849	17987.35
773.184	18016.96
773.519	18161.81
773.855	18207.01
774.19	18341.24
774.525	18265.54
774.86	18418.98
775.195	18538.75
775.53	18578.52
775.865	18577.62
776.2	18584.62
776.535	18511.18
776.87	18623.27
777.205	18588.92
777.539	18680.89
777.874	18758.18
778.209	18670.95
778.543	18729.48
778.878	18707.11
779.212	18723.38
779.547	18752.08
779.881	18950.04
780.215	18785.75
780.55	18934.22
780.884	18862.13
781.218	18802.7
781.552	18909.14
781.886	18865.29
782.22	18790.95
782.554	18900.77
782.888	18761.34
783.222	18761.12
783.556	18770.83
783.889	18750.27
784.223	18735.35
784.557	18715.69
784.89	18710.27
785.224	18718.86
785.557	18787.56
785.891	18684.51
786.224	18591.63
786.558	18696.49
786.891	18521.12
787.224	18508.69
787.557	18486.32
787.891	18555.02
788.224	18640.67
788.557	18590.95
788.89	18563.83
789.223	18541.01
789.556	18435.25
789.888	18364.97
790.221	18373.33
790.554	18299.66
790.887	18265.99
791.219	18194.58
791.552	18078.2
791.884	18169.04
792.217	18150.29
792.549	18075.26
792.882	18019.44
793.214	18001.81
793.546	18111.87
793.879	17888.15
794.211	17835.72
794.543	17931.53
794.875	17922.27
795.207	17937.64
795.539	17882.95
795.871	17816.73
796.203	17703.29
796.535	17636.4
796.867	17591.66
797.198	17571.54
797.53	17568.38
797.862	17449.51
798.193	17490.64
798.525	17390.08
798.856	17444.54
799.188	17313.25
799.519	17194.6
799.85	17202.97
800.182	17171.1
800.513	17258.11
800.844	17080.26
801.175	17166.81
801.506	17136.98
801.837	16928.85
802.168	16868.96
802.499	16950.32
802.83	16877.55
803.161	16886.14
803.491	16827.38
803.822	16818.8
804.153	16767.95
804.483	16718.46
804.814	16645.24
805.145	16625.81
805.475	16596.65
805.805	16529.99
806.136	16539.71
806.466	16553.04
806.796	16576.09
807.126	16436.43
807.457	16407.96
807.787	16390.78
808.117	16285.02
808.447	16238.92
808.777	16280.28
809.107	16211.58
809.436	16110.79
809.766	16138.36
810.096	16074.41
810.426	16028.99
810.755	15983.79
811.085	16053.84
811.414	16043.67
811.744	15854.07
812.073	15873.51
812.403	15814.53
812.732	15833.96
813.061	15782.21
813.39	15711.48
813.719	15636
814.049	15713.51
814.378	15686.62
814.707	15634.42
815.036	15582.44
815.365	15543.57
815.693	15469
816.022	15540.64
816.351	15434.42
816.68	15328.66
817.008	15358.27
817.337	15316.46
817.665	15305.84
817.994	15207.76
818.322	15302.45
818.651	15242.34
818.979	15179.74
819.307	15255.67
819.636	15191.49
819.964	15104.94
820.292	15155.79
820.62	15112.85
820.948	15076.24
821.276	15073.53
821.604	15011.61
821.932	15027.66
822.259	15021.55
822.587	14992.85
822.915	14991.27
823.243	15058.39
823.57	15010.03
823.898	15011.38
824.225	15052.97
824.553	14990.37
824.88	15098.61
825.207	15047.32
825.535	15103.36
825.862	15051.16
826.189	15028.79
826.516	15088.22
826.843	15073.3
827.17	15071.5
827.497	15170.7
827.824	15063.59
828.151	15125.73
828.478	15120.53
828.805	15206.86
829.131	15079.63
829.458	15084.38
829.785	15023.14
830.111	15022.23
830.438	15087.32
830.764	15104.72
831.09	15148.78
831.417	15052.29
831.743	15052.51
832.069	15093.87
832.395	15022.23
832.722	15052.29
833.048	14929.35
833.374	15024.72
833.7	14952.63
834.026	14918.51
834.351	14993.31
834.677	14979.3
835.003	14902.46
835.329	14917.15
835.654	14933.87
835.98	14837.15
836.306	14829.02
836.631	14861.56
836.956	14960.76
837.282	14887.32
837.607	14830.15
837.932	14827.89
838.258	14831.73
838.583	14733.88
838.908	14780.88
839.233	14599.19
839.558	14572.07
839.883	14612.75
840.208	14524.39
840.533	14508.8
840.858	14531.85
841.182	14580.44
841.507	14493.88
841.832	14405.07
842.156	14409.37
842.481	14402.14
842.805	14356.03
843.13	14342.02
843.454	14339.09
843.778	14276.26
844.103	14183.38
844.427	14112.65
844.751	14203.27
845.075	14137.51
845.399	14058.42
845.723	13997.85
846.047	14044.4
846.371	13973.22
846.695	13953.11
847.019	13799.44
847.343	13787.01
847.666	13749.72
847.99	13651.19
848.313	13606.9
848.637	13526.45
848.96	13539.33
849.284	13556.06
849.607	13406.68
849.931	13387.02
850.254	13247.59
850.577	13265.44
850.9	13201.72
851.223	13086.24
851.546	13055.96
851.869	12997.43
852.192	13057.99
852.515	12919.91
852.838	12910.65
853.161	12855.74
853.483	12805.79
853.806	12764.44
854.129	12810.99
854.451	12682.63
854.774	12589.53
855.096	12575.97
855.419	12508.4
855.741	12529.87
856.063	12502.07
856.385	12453.26
856.708	12356.77
857.03	12331
857.352	12463.2
857.674	12304.11
857.996	12256.43
858.318	12279.48
858.64	12192.93
858.961	12226.15
859.283	12153.16
859.605	12015.53
859.926	12044.46
860.248	12075.87
860.57	12022.99
860.891	11998.58
861.212	11928.75
861.534	11840.39
861.855	11861.41
862.176	11856.89
862.498	11850.79
862.819	11879.49
863.14	11820.96
863.461	11703.68
863.782	11656.67
864.103	11737.8
864.424	11688.31
864.745	11703.45
865.065	11642.66
865.386	11608.54
865.707	11606.5
866.027	11669.33
866.348	11555.66
866.668	11536.22
866.989	11559.95
867.309	11488.09
867.63	11485.6
867.95	11462.55
868.27	11360.41
868.59	11377.81
868.91	11413.29
869.23	11386.4
869.55	11204.25
869.87	11345.72
870.19	11337.36
870.51	11315.66
870.83	11318.15
871.15	11276.57
871.469	11238.6
871.789	11226.63
872.109	11266.4
872.428	11223.91
872.748	11240.64
873.067	11154.99
873.386	11178.49
873.706	11207.64
874.025	11052.84
874.344	11051.72
874.663	11062.79
874.982	11108.21
875.301	11041.77
875.62	11006.52
875.939	10997.71
876.258	11040.87
876.577	10985.05
876.896	10914.32
877.214	10948.67
877.533	10890.82
877.852	10926.29
878.17	10940.08
878.489	10871.83
878.807	10840.65
879.125	10841.1
879.444	10804.49
879.762	10766.3
880.08	10729.46
880.398	10720.42
880.716	10780.31
881.034	10728.33
881.352	10722.23
881.67	10658.05
881.988	10750.25
882.306	10641.56
882.624	10630.48
882.941	10578.51
883.259	10524.05
883.577	10539.19
883.894	10534.67
884.212	10576.93
884.529	10451.96
884.846	10487.21
885.164	10457.61
885.481	10347.33
885.798	10408.57
886.115	10330.6
886.432	10376.7
886.75	10286.09
887.067	10329.25
887.383	10320.66
887.7	10240.66
888.017	10181.23
888.334	10205.41
888.651	10129.25
888.967	10111.63
889.284	10041.57
889.6	10070.72
889.917	10002.48
890.233	10049.48
890.55	9992.53
890.866	9972.65
891.182	9950.5
891.498	9865.53
891.815	9823.05
892.131	9855.14
892.447	9801.58
892.763	9805.87
893.079	9688.81
893.395	9696.5
893.71	9645.88
894.026	9594.35
894.342	9614.24
894.657	9583.73
894.973	9496.05
895.289	9480
895.604	9483.39
895.92	9446.56
896.235	9423.28
896.55	9432.32
896.865	9400.69
897.181	9332.89
897.496	9348.03
897.811	9283.4
898.126	9223.74
898.441	9224.64
898.756	9203.85
899.071	9114.82
899.386	9088.38
899.7	9067.36
900.015	8953.47
900.33	8958.21
900.644	8946.69
900.959	8940.81
901.273	8933.58
901.588	8894.94
901.902	8803.19
902.216	8821.49
902.531	8759.12
902.845	8754.83
903.159	8716.86
903.473	8642.06
903.787	8649.97
904.101	8559.8
904.415	8582.63
904.729	8520.26
905.042	8477.32
905.356	8464.89
905.67	8433.25
905.984	8376.76
906.297	8450.2
906.611	8346.48
906.924	8354.16
907.237	8312.58
907.551	8335.63
907.864	8252.47
908.177	8155.52
908.491	8202.07
908.804	8141.06
909.117	8050.44
909.43	8017.67
909.743	7963.21
910.056	7982.42
910.368	7953.72
910.681	7933.83
910.994	7933.6
911.307	7925.47
911.619	7784.68
911.932	7772.25
912.244	7723.44
912.557	7724.34
912.869	7679.15
913.181	7682.76
913.494	7653.61
913.806	7569.55
914.118	7550.34
914.43	7508.08
914.742	7513.95
915.054	7440.51
915.366	7481.19
915.678	7415.2
915.99	7385.82
916.302	7300.18
916.613	7318.93
916.925	7264.24
917.236	7270.12
917.548	7248.65
917.859	7239.16
918.171	7157.13
918.482	7127.07
918.794	7130.69
919.105	7146.96
919.416	7092.95
919.727	7075.1
920.038	7012.27
920.349	6986.29
920.66	6976.79
920.971	6950.35
921.282	6934.08
921.593	6860.86
921.903	6838.27
922.214	6779.29
922.525	6791.04
922.835	6752.39
923.146	6705.61
923.456	6696.35
923.767	6669.23
924.077	6687.54
924.387	6619.29
924.697	6572.74
925.008	6584.71
925.318	6492.51
925.628	6475.79
925.938	6521.21
926.248	6451.61
926.558	6399.86
926.867	6397.6
927.177	6342.46
927.487	6387.43
927.796	6288.68
928.106	6284.38
928.416	6266.76
928.725	6269.69
929.034	6220.2
929.344	6213.42
929.653	6158.06
929.962	6171.17
930.271	6076.48
930.581	6112.86
930.89	6005.75
931.199	6013.2
931.508	6029.93
931.817	6011.4
932.125	5989.7
932.434	6001.45
932.743	5915.58
933.051	5843.26
933.36	5885.52
933.669	5904.73
933.977	5811.63
934.286	5810.72
934.594	5797.84
934.902	5742.93
935.21	5720.1
935.519	5725.98
935.827	5688.47
936.135	5615.7
936.443	5584.51
936.751	5589.71
937.059	5636.49
937.367	5565.08
937.674	5520.34
937.982	5535.7
938.29	5533.22
938.597	5446.44
938.905	5389.27
939.213	5437.17
939.52	5356.72
939.827	5390.62
940.135	5350.17
940.442	5335.03
940.749	5285.76
941.056	5343.39
941.363	5218.2
941.67	5220.23
941.977	5224.98
942.284	5178.65
942.591	5171.64
942.898	5149.72
943.205	5141.59
943.511	5092.55
943.818	5083.28
944.125	5056.17
944.431	4995.83
944.738	5069.27
945.044	5017.07
945.35	5001.25
945.657	4979.78
945.963	4900.01
946.269	4875.61
946.575	4913.35
946.881	4909.05
947.187	4865.89
947.493	4803.07
947.799	4831.99
948.105	4791.09
948.41	4719
948.716	4814.82
949.022	4749.06
949.327	4730.53
949.633	4692.11
949.938	4708.61
950.244	4649.4
950.549	4594.26
950.854	4610.08
951.16	4629.51
951.465	4558.55
951.77	4498.67
952.075	4522.4
952.38	4473.13
952.685	4512.9
952.99	4444.66
953.294	4466.35
953.599	4446.01
953.904	4428.16
954.209	4402.17
954.513	4410.99
954.818	4339.12
955.122	4358.33
955.426	4311.78
955.731	4334.83
956.035	4280.82
956.339	4256.41
956.643	4272.23
956.948	4222.52
957.252	4174.16
957.556	4181.61
957.86	4162.63
958.163	4126.02
958.467	4137.55
958.771	4137.77
959.075	4068.17
959.378	4068.85
959.682	4048.28
959.985	4029.75
960.289	3996.76
960.592	4005.57
960.896	3988.17
961.199	3959.92
961.502	3963.31
961.805	3956.53
962.108	3937.78
962.411	3918.34
962.714	3930.55
963.017	3908.85
963.32	3895.29
963.623	3843.54
963.926	3813.26
964.228	3807.61
964.531	3782.75
964.833	3786.37
965.136	3781.4
965.438	3765.35
965.741	3706.6
966.043	3661.85
966.345	3687.61
966.648	3642.42
966.95	3632.7
967.252	3619.14
967.554	3682.19
967.856	3598.35
968.158	3590.67
968.46	3584.11
968.761	3644.68
969.063	3549.99
969.365	3542.31
969.666	3557.9
969.968	3462.08
970.269	3493.95
970.571	3494.85
970.872	3474.74
971.174	3448.75
971.475	3446.49
971.776	3448.07
972.077	3404.91
972.378	3366.49
972.679	3345.7
972.98	3387.06
973.281	3330.56
973.582	3322.65
973.883	3310
974.183	3312.94
974.484	3306.61
974.785	3293.05
975.085	3251.02
975.386	3268.42
975.686	3225.25
975.986	3202.43
976.287	3218.93
976.587	3188.42
976.887	3180.51
977.187	3189.77
977.487	3127.18
977.787	3127.63
978.087	3124.47
978.387	3069.78
978.687	3144.35
978.987	3048.99
979.286	3021.64
979.586	3041.98
979.885	3008.08
980.185	3044.92
980.484	2976.9
980.784	3014.19
981.083	2976.45
981.382	2970.57
981.682	2997.01
981.981	2970.57
982.28	2932.38
982.579	2844.93
982.878	2891.03
983.177	2894.64
983.475	2890.12
983.774	2851.7
984.073	2846.73
984.372	2803.12
984.67	2876.56
984.969	2848.77
985.267	2828.43
985.566	2790.01
985.864	2777.58
986.162	2770.8
986.461	2726.51
986.759	2697.13
987.057	2701.88
987.355	2666.85
987.653	2695.78
987.951	2688.32
988.249	2650.35
988.547	2679.73
988.844	2602.67
989.142	2626.63
989.44	2634.99
989.737	2618.04
990.035	2600.19
990.332	2620.52
990.63	2561.32
990.927	2548.44
991.224	2584.82
991.521	2544.82
991.819	2518.38
992.116	2519.51
992.413	2534.88
992.71	2493.75
993.006	2472.51
993.303	2450.59
993.6	2474.31
993.897	2446.52
994.193	2430.7
994.49	2425.73
994.787	2399.29
995.083	2400.64
995.379	2400.19
995.676	2411.49
995.972	2357.03
996.268	2356.58
996.565	2345.96
996.861	2338.95
997.157	2338.27
997.453	2314.77
997.749	2317.71
998.044	2282.23
998.34	2263.25
998.636	2256.92
998.932	2242.68
999.227	2268.67
999.523	2246.3
999.818	2208.11
1000.114	2188.45
1000.409	2195
1000.704	2198.84
1001	2162.91
1001.295	2134.89
1001.59	2168.78
1001.885	2157.03
1002.18	2111.61
1002.475	2102.35
1002.77	2097.83
1003.065	2090.37
1003.359	2084.49
1003.654	2058.51
1003.949	2032.07
1004.243	2032.97
1004.538	2057.83
1004.832	2028
1005.127	2007.43
1005.421	1996.59
1005.715	1978.28
1006.009	1978.96
1006.304	1974.44
1006.598	1946.87
1006.892	1962.24
1007.186	1925.18
1007.48	1936.47
1007.773	1919.98
1008.067	1878.62
1008.361	1876.14
1008.655	1888.57
1008.948	1895.57
1009.242	1882.46
1009.535	1822.81
1009.829	1847.89
1010.122	1812.41
1010.415	1810.6
1010.708	1817.38
1011.001	1801.34
1011.295	1786.2
1011.588	1755.24
1011.881	1764.28
1012.173	1745.97
1012.466	1750.04
1012.759	1736.03
1013.052	1725.41
1013.344	1718.85
1013.637	1720.66
1013.93	1694.9
1014.222	1679.76
1014.514	1655.58
1014.807	1667.1
1015.099	1664.84
1015.391	1627.78
1015.683	1626.65
1015.976	1631.85
1016.268	1604.28
1016.56	1560.67
1016.851	1572.87
1017.143	1585.3
1017.435	1580.78
1017.727	1578.74
1018.018	1556.82
1018.31	1550.27
1018.602	1557.5
1018.893	1530.16
1019.185	1517.5
1019.476	1517.5
1019.767	1472.53
1020.058	1464.4
1020.35	1450.16
1020.641	1470.05
1020.932	1483.38
1021.223	1446.54
1021.514	1421.01
1021.804	1413.55
1022.095	1394.57
1022.386	1416.04
1022.677	1402.03
1022.967	1406.09
1023.258	1406.77
1023.548	1361.35
1023.839	1358.86
1024.129	1371.29
1024.419	1339.65
1024.709	1336.72
1025	1303.04
1025.29	1311.63
1025.58	1291.07
1025.87	1315.02
1026.16	1286.1
1026.449	1296.04
1026.739	1275.93
1027.029	1277.96
1027.319	1270.5
1027.608	1256.04
1027.898	1253.1
1028.187	1239.09
1028.477	1227.11
1028.766	1202.26
1029.055	1216.49
1029.344	1225.53
1029.634	1200.67
1029.923	1203.61
1030.212	1176.27
1030.501	1167.68
1030.79	1146.21
1031.078	1171.97
1031.367	1149.83
1031.656	1115.03
1031.945	1137.63
1032.233	1135.59
1032.522	1112.99
1032.81	1104.63
1033.099	1111.64
1033.387	1112.32
1033.675	1100.34
1033.963	1077.06
1034.251	1083.39
1034.54	1102.6
1034.828	1082.94
1035.116	1069.15
1035.403	1040.9
1035.691	1065.54
1035.979	1044.75
1036.267	1025.31
1036.554	1019.66
1036.842	1000.23
1037.129	1033.67
1037.417	1004.52
1037.704	1014.46
1037.992	987.12
1038.279	985.31
1038.566	994.58
1038.853	994.58
1039.14	994.58
