Data from hue_24_FLMS001491_00017.txt Node
Date: Tue Feb 07 17:11:51 GMT 2017
User: dcchb
Spectrometer: FLMS00149
Trigger mode: 0
Integration Time (sec): 2.000000E-2
Scans to average: 10
Electric dark correction enabled: true
Nonlinearity correction enabled: false
Boxcar width: 0
XAxis mode: Wavelengths
Number of Pixels in Spectrum: 2048
>>>>>Begin Spectral Data<<<<<
341.393	-14.91
341.776	-14.91
342.16	-14.91
342.543	-39.1
342.927	-41.13
343.31	-77.74
343.693	-63.73
344.077	-52.88
344.46	-72.54
344.843	-60.79
345.226	-40.68
345.61	-12.43
345.993	-14.91
346.376	0.68
346.759	20.34
347.142	24.86
347.525	61.02
347.908	39.55
348.291	66.44
348.674	80.45
349.057	102.37
349.44	113.67
349.823	145.53
350.206	168.13
350.588	201.8
350.971	209.49
351.354	224.85
351.737	249.71
352.119	284.51
352.502	263.5
352.884	242.48
353.267	266.89
353.65	305.53
354.032	307.34
354.414	328.35
354.797	312.99
355.179	322.48
355.562	334
355.944	318.86
356.326	343.27
356.709	342.59
357.091	342.14
357.473	340.78
357.855	338.3
358.238	341.69
358.62	348.24
359.002	354.34
359.384	332.87
359.766	349.6
360.148	365.19
360.53	346.21
360.912	329.71
361.294	328.13
361.676	337.17
362.057	336.26
362.439	315.7
362.821	329.93
363.203	346.43
363.584	346.43
363.966	331.97
364.348	323.16
364.729	331.29
365.111	317.28
365.493	349.14
365.874	343.72
366.256	322.93
366.637	332.19
367.019	336.49
367.4	312.53
367.781	332.42
368.163	330.84
368.544	324.06
368.925	311.18
369.306	312.76
369.688	325.87
370.069	315.92
370.45	321.12
370.831	341.46
371.212	307.79
371.593	332.42
371.974	322.25
372.355	326.55
372.736	317.96
373.117	327.9
373.498	320.22
373.879	328.8
374.26	307.11
374.641	308.01
375.021	313.44
375.402	332.65
375.783	335.36
376.163	327
376.544	341.01
376.925	331.97
377.305	335.36
377.686	343.04
378.066	334.45
378.447	350.95
378.827	332.87
379.208	350.5
379.588	325.42
379.968	329.93
380.349	345.98
380.729	338.3
381.109	340.33
381.489	331.97
381.87	356.15
382.25	365.19
382.63	344.85
383.01	361.12
383.39	354.79
383.77	354.11
384.15	373.1
384.53	357.96
384.91	369.03
385.29	374.45
385.67	356.37
386.049	362.25
386.429	346.88
386.809	352.76
387.189	355.92
387.568	372.65
387.948	363.15
388.328	360.89
388.707	380.1
389.087	361.8
389.466	372.42
389.846	359.76
390.225	382.14
390.605	364.28
390.984	381.68
391.363	391.4
391.743	376.04
392.122	370.39
392.501	386.66
392.881	384.62
393.26	372.42
393.639	385.53
394.018	383.94
394.397	408.58
394.776	383.27
395.155	393.21
395.534	416.26
395.913	377.39
396.292	406.77
396.671	403.15
397.05	397.96
397.429	406.77
397.808	399.31
398.186	379.65
398.565	423.49
398.944	415.36
399.323	414.68
399.701	412.87
400.08	415.81
400.458	425.3
400.837	415.13
401.215	437.95
401.594	422.36
401.972	411.97
402.351	430.05
402.729	431.18
403.107	412.64
403.486	409.25
403.864	436.6
404.242	430.27
404.62	437.95
404.999	426.2
405.377	427.79
405.755	458.29
406.133	443.6
406.511	467.56
406.889	453.77
407.267	458.97
407.645	449.03
408.023	463.49
408.401	454.23
408.779	454
409.156	466.43
409.534	479.99
409.912	471.17
410.29	468.69
410.667	469.82
411.045	499.65
411.422	476.6
411.8	503.49
412.178	482.7
412.555	485.86
412.933	509.59
413.31	494
413.687	481.12
414.065	515.24
414.442	490.61
414.819	489.93
415.197	484.51
415.574	525.64
415.951	533.32
416.328	526.31
416.705	513.21
417.082	517.5
417.46	524.51
417.837	521.12
418.214	525.18
418.591	517.95
418.967	552.53
419.344	543.26
419.721	564.28
420.098	543.04
420.475	550.72
420.852	550.72
421.228	566.99
421.605	560.89
421.982	587.33
422.358	568.8
422.735	575.58
423.111	566.99
423.488	585.75
423.864	586.88
424.241	583.94
424.617	585.97
424.994	631.62
425.37	640.44
425.746	609.7
426.123	623.94
426.499	612.41
426.875	623.49
427.251	632.53
427.627	634.11
428.003	618.51
428.379	647.67
428.756	648.8
429.132	642.69
429.507	651.28
429.883	656.48
430.259	669.81
430.635	681.56
431.011	684.05
431.387	671.62
431.763	675.91
432.138	687.89
432.514	696.25
432.89	691.73
433.265	727.66
433.641	704.61
434.016	712.07
434.392	757.04
434.767	759.75
435.143	759.53
435.518	729.47
435.894	762.47
436.269	775.12
436.644	768.57
437.02	786.65
437.395	800.66
437.77	802.24
438.145	809.02
438.52	801.79
438.895	814.44
439.271	793.65
439.646	821.22
440.021	803.82
440.395	841.33
440.77	809.24
441.145	824.84
441.52	845.18
441.895	860.77
442.27	851.5
442.645	844.72
443.019	870.94
443.394	875.91
443.769	853.31
444.143	885.4
444.518	897.83
444.892	884.27
445.267	900.09
445.641	887.43
446.016	926.3
446.39	901.9
446.764	896.02
447.139	915.23
447.513	931.5
447.887	944.16
448.262	924.5
448.636	927.21
449.01	964.72
449.384	991.84
449.758	968.34
450.132	958.17
450.506	991.16
450.88	997.04
451.254	975.57
451.628	959.07
452.002	1007.88
452.376	1023.7
452.75	993.19
453.123	1001.78
453.497	1049.69
453.871	1043.59
454.244	1052.18
454.618	1065.28
454.992	1083.81
455.365	1076.81
455.739	1098.5
456.112	1112.06
456.486	1121.1
456.859	1105.73
457.232	1153.64
457.606	1145.73
457.979	1162
458.352	1171.72
458.725	1170.82
459.099	1199.74
459.472	1224.15
459.845	1199.06
460.218	1213.98
460.591	1258.05
460.964	1276.12
461.337	1252.17
461.71	1295.56
462.083	1307.76
462.456	1295.11
462.829	1313.19
463.201	1341.43
463.574	1335.33
463.947	1375.56
464.32	1392.73
464.692	1410.13
465.065	1436.8
465.438	1432.73
465.81	1462.79
466.183	1449.23
466.555	1476.57
466.928	1494.88
467.3	1494.88
467.672	1534.42
468.045	1559.06
468.417	1599.73
468.789	1599.51
469.161	1622.33
469.534	1650.8
469.906	1652.39
470.278	1675.44
470.65	1693.51
471.022	1712.05
471.394	1758.37
471.766	1773.96
472.138	1802.44
472.51	1856.45
472.882	1853.74
473.253	1880.85
473.625	1909.33
473.997	1948.65
474.369	1936.9
474.74	1960.17
475.112	2037.91
475.484	2048.31
475.855	2124.69
476.227	2109.78
476.598	2167.63
476.97	2176.67
477.341	2245.36
477.713	2272.48
478.084	2290.56
478.455	2353.61
478.827	2392.03
479.198	2484.45
479.569	2479.71
479.94	2564.9
480.311	2558.12
480.682	2611
481.053	2683.55
481.424	2719.7
481.795	2792.24
482.166	2845.12
482.537	2859.13
482.908	2939.81
483.279	2985.01
483.65	3036.98
484.021	3124.89
484.391	3124.44
484.762	3165.57
485.133	3245.11
485.503	3247.37
485.874	3363.08
486.244	3386.13
486.615	3472.23
486.985	3531.43
487.356	3545.67
487.726	3604.88
488.097	3695.95
488.467	3745.44
488.837	3815.72
489.207	3894.36
489.578	3915.15
489.948	3947.92
490.318	4001.48
490.688	4062.49
491.058	4122.15
491.428	4214.35
491.798	4231.98
492.168	4304.75
492.538	4376.16
492.908	4438.08
493.278	4433.78
493.648	4469.04
494.017	4538.19
494.387	4539.99
494.757	4651.86
495.126	4684.4
495.496	4723.49
495.866	4776.6
496.235	4793.55
496.605	4897.95
496.974	4907.67
497.344	4959.42
497.713	4970.04
498.082	4995.8
498.452	5104.05
498.821	5113.99
499.19	5116.93
499.559	5177.26
499.928	5216.59
500.298	5240.99
500.667	5245.51
501.036	5309.69
501.405	5377.71
501.774	5334.77
502.143	5444.15
502.512	5429.91
502.88	5526.41
503.249	5516.47
503.618	5527.09
503.987	5570.48
504.356	5583.36
504.724	5617.48
505.093	5665.39
505.462	5748.1
505.83	5755.1
506.199	5763.46
506.567	5869.68
506.936	5862.67
507.304	5897.25
507.672	5896.79
508.041	5945.61
508.409	6030.35
508.777	6004.81
509.145	6061.31
509.514	6082.78
509.882	6117.13
510.25	6108.09
510.618	6197.58
510.986	6186.96
511.354	6163.45
511.722	6275.09
512.09	6339.04
512.458	6289.55
512.826	6376.33
513.193	6423.33
513.561	6437.57
513.929	6474.18
514.297	6499.72
514.664	6531.81
515.032	6553.95
515.4	6593.27
515.767	6623.55
516.135	6609.77
516.502	6609.77
516.869	6719.82
517.237	6721.18
517.604	6728.41
517.972	6811.8
518.339	6819.03
518.706	6767.28
519.073	6855.19
519.44	6940.61
519.808	6911.23
520.175	6944.68
520.542	7004.11
520.909	6991
521.276	7071.68
521.643	7101.96
522.009	7131.79
522.376	7149.19
522.743	7223.09
523.11	7249.3
523.477	7331.78
523.843	7337.66
524.21	7395.29
524.577	7466.7
524.943	7532.46
525.31	7469.86
525.676	7542.17
526.043	7609.07
526.409	7617.2
526.776	7765.22
527.142	7769.29
527.508	7787.37
527.874	7916.4
528.241	7840.25
528.607	7857.19
528.973	7949.85
529.339	7959.11
529.705	8039.34
530.071	8109.39
530.437	8106.23
530.803	8232.55
531.169	8179.67
531.535	8222.61
531.901	8313.68
532.267	8284.98
532.632	8331.76
532.998	8402.49
533.364	8397.52
533.73	8418.76
534.095	8537.85
534.461	8580.11
534.826	8546.89
535.192	8635.93
535.557	8682.48
535.923	8749.83
536.288	8713.44
536.653	8746.21
537.019	8757.74
537.384	8833.67
537.749	8868.02
538.114	8871.18
538.479	8848.35
538.845	8927
539.21	8959.54
539.575	8999.31
539.94	9022.36
540.305	9113.88
540.67	9077.95
541.034	9128.12
541.399	9129.7
541.764	9150.27
542.129	9299.87
542.494	9240.43
542.858	9300.77
543.223	9347.1
543.587	9389.36
543.952	9338.06
544.316	9436.81
544.681	9414.44
545.045	9467.1
545.41	9585.28
545.774	9553.42
546.138	9564.04
546.503	9585.06
546.867	9643.36
547.231	9713.42
547.595	9718.61
547.959	9756.58
548.324	9728.78
548.688	9804.94
549.052	9836.13
549.416	9884.94
549.779	9957.7
550.143	9979.85
550.507	10068.89
550.871	10048.1
551.235	10011.26
551.599	10173.97
551.962	10128.32
552.326	10158.6
552.689	10230.01
553.053	10171.71
553.417	10216.45
553.78	10362.44
554.143	10305.94
554.507	10342.1
554.87	10383.46
555.234	10543.68
555.597	10421.65
555.96	10497.58
556.323	10525.37
556.686	10456.22
557.05	10653.28
557.413	10630.45
557.776	10720.62
558.139	10748.19
558.502	10704.35
558.865	10699.83
559.228	10791.35
559.59	10781.86
559.953	10852.82
560.316	11008.98
560.679	10914.97
561.041	11046.04
561.404	11071.35
561.767	11179.82
562.129	11101.18
562.492	11264.34
562.854	11152.93
563.217	11189.76
563.579	11295.97
563.941	11296.2
564.304	11380.27
564.666	11448.96
565.028	11446.7
565.39	11535.29
565.753	11568.96
566.115	11610.99
566.477	11632.91
566.839	11745.23
567.201	11702.52
567.563	11724.66
567.925	11804.66
568.287	11804.66
568.648	11886.47
569.01	11905.9
569.372	11997.42
569.734	11958.56
570.095	12057.99
570.457	12170.08
570.819	12130.53
571.18	12160.13
571.542	12275.84
571.903	12328.26
572.265	12393.57
572.626	12347.02
572.987	12473.34
573.349	12496.39
573.71	12582.49
574.071	12636.73
574.432	12656.84
574.794	12804.64
575.155	12827.01
575.516	12780.68
575.877	12955.82
576.238	13021.58
576.599	13169.37
576.96	13133.67
577.32	13265.87
577.681	13381.12
578.042	13471.06
578.403	13573.43
578.763	13597.16
579.124	13691.84
579.485	13924.61
579.845	13992.63
580.206	14055
580.566	14119.18
580.927	14302.9
581.287	14440.52
581.648	14507.64
582.008	14762.78
582.368	14843.9
582.728	15066.5
583.089	15178.81
583.449	15284.57
583.809	15465.13
584.169	15673.03
584.529	15724.33
584.889	16116.41
585.249	16205
585.609	16334.26
585.969	16650.18
586.329	16838.65
586.688	17109.15
587.048	17202.49
587.408	17478.86
587.768	17651.06
588.127	17882.24
588.487	18132.18
588.846	18499.63
589.206	18648.55
589.565	18929.45
589.925	19222.77
590.284	19346.16
590.643	19734.85
591.003	20098.68
591.362	20378.22
591.721	20598.78
592.08	20802.84
592.44	21188.14
592.799	21488.7
593.158	21748.58
593.517	22084.17
593.876	22434.66
594.235	22713.08
594.593	23023.35
594.952	23317.35
595.311	23632.6
595.67	23847.51
596.029	24244.33
596.387	24647.26
596.746	24909.85
597.104	25135.38
597.463	25451.08
597.822	25779.66
598.18	26028.92
598.538	26280.44
598.897	26800.2
599.255	26894.43
599.613	27576.9
599.972	27665.26
600.33	28016.44
600.688	28194.96
601.046	28599.25
601.404	29037.2
601.762	29258.89
602.12	29631.31
602.478	29954.92
602.836	30266.77
603.194	30381.8
603.552	30662.47
603.91	30842.58
604.268	31206.41
604.625	31396.46
604.983	31839.39
605.341	31853.4
605.698	32354.63
606.056	32674.4
606.413	32819.02
606.771	33082.52
607.128	33482.06
607.485	33552.34
607.843	33822.39
608.2	34277.29
608.557	34508.7
608.914	34565.19
609.272	35043.82
609.629	35251.5
609.986	35605.62
610.343	35714.09
610.7	36028.88
611.057	36307.52
611.414	36440.4
611.771	36592.48
612.127	36897.79
612.484	37104.11
612.841	37338
613.198	37310.43
613.554	37598.56
613.911	38055.27
614.267	38131.2
614.624	38139.34
614.98	38400.8
615.337	38801.01
615.693	38831.97
616.05	38966.43
616.406	39362.58
616.762	39221.34
617.118	39495.01
617.475	39671.05
617.831	39883.7
618.187	40173.41
618.543	40313.97
618.899	40659.27
619.255	40691.36
619.611	40788.98
619.967	40922.77
620.323	41058.58
620.678	41067.17
621.034	41191.23
621.39	41258.58
621.746	41251.8
622.101	41807.71
622.457	41537.21
622.812	41769.07
623.168	41886.36
623.523	42065.56
623.879	42334.03
624.234	41978.78
624.589	42268.95
624.945	42401.82
625.3	42361.6
625.655	42590.74
626.01	42732.44
626.365	42742.15
626.72	42685.88
627.075	42787.12
627.43	42898.31
627.785	42838.2
628.14	42963.62
628.495	43152.99
628.85	43145.53
629.205	43054.91
629.559	43318.41
629.914	43142.82
630.269	43317.51
630.623	43273.21
630.978	43377.39
631.332	43385.98
631.687	43413.1
632.041	43381.23
632.396	43381.01
632.75	43437.05
633.104	43534.22
633.459	43481.34
633.813	43428.69
634.167	43567.67
634.521	43607.67
634.875	43644.95
635.229	43610.83
635.583	43359.76
635.937	43492.87
636.291	43479.31
636.645	43551.4
636.999	43495.35
637.352	43607.44
637.706	43422.59
638.06	43608.8
638.413	43543.26
638.767	43566.31
639.121	43585.97
639.474	43310.27
639.828	43479.31
640.181	43471.4
640.534	43374.68
640.888	43485.18
641.241	43273.44
641.594	43353.66
641.947	43514.34
642.301	43392.08
642.654	43557.95
643.007	43409.71
643.36	43317.51
643.713	43465.75
644.066	43629.14
644.419	43275.7
644.771	43038.64
645.124	42705.09
645.477	42628.03
645.83	42366.8
646.182	42352.33
646.535	42191.43
646.888	42278.89
647.24	42041.15
647.593	42372.9
647.945	42339.9
648.298	42144.65
648.65	42001.61
649.002	41831.67
649.355	42093.13
649.707	41934.04
650.059	42275.27
650.411	42736.5
650.763	42795.94
651.115	43087.23
651.467	43127.45
651.819	43115.02
652.171	42975.37
652.523	42888.82
652.875	42805.88
653.227	42777.63
653.578	43036.38
653.93	42962.71
654.282	42696.73
654.633	42698.31
654.985	42841.59
655.337	42920.23
655.688	42949.38
656.039	43040.68
656.391	42637.75
656.742	42778.31
657.094	42866.22
657.445	42793.23
657.796	42850.62
658.147	42710.06
658.498	42685.88
658.849	42853.79
659.2	42702.15
659.551	42634.36
659.902	42696.5
660.253	42686.79
660.604	42810.63
660.955	42585.77
661.306	42732.66
661.656	42644.3
662.007	42637.07
662.358	42639.33
662.708	42550.75
663.059	42582.16
663.409	42404.99
663.76	42736.73
664.11	42666.45
664.461	42709.61
664.811	42620.8
665.161	42650.63
665.511	42510.07
665.862	42600.69
666.212	42649.95
666.562	42599.11
666.912	42626.45
667.262	42448.15
667.612	42557.53
667.962	42627.58
668.312	42633.91
668.662	42663.74
669.011	42531.99
669.361	42513.68
669.711	42482.72
670.06	42461.48
670.41	42423.74
670.76	42315.5
671.109	42610.18
671.459	42513.46
671.808	42244.99
672.157	42482.05
672.507	42123.86
672.856	42193.24
673.205	42268.49
673.554	42388.26
673.904	42187.59
674.253	42454.93
674.602	42318.44
674.951	41699.92
675.3	41594.84
675.649	42156.86
675.998	42142.17
676.346	42002.06
676.695	42189.4
677.044	42003.42
677.393	42194.82
677.741	42227.59
678.09	42051.32
678.438	41843.87
678.787	42132.23
679.135	42064.66
679.484	41822.63
679.832	41980.14
680.181	41761.16
680.529	41878.9
680.877	41764.55
681.225	41662.63
681.573	41910.08
681.922	41708.06
682.27	41437.78
682.618	41592.58
682.966	41466.48
683.314	41466.25
683.661	41432.81
684.009	41070.11
684.357	41088.19
684.705	41061.52
685.053	41171.12
685.4	41194.62
685.748	40764.13
686.095	40813.62
686.443	40750.57
686.79	40708.76
687.138	40712.15
687.485	40772.94
687.832	40524.81
688.18	40680.29
688.527	40481.65
688.874	40446.39
689.221	40350.58
689.568	40372.72
689.915	40240.07
690.262	40211.15
690.609	40088.66
690.956	39963.24
691.303	39723.93
691.65	39685.28
691.997	39657.04
692.344	39572.52
692.69	39454.1
693.037	39371.85
693.383	39060.22
693.73	39242.81
694.077	39030.61
694.423	39001.69
694.769	39005.3
695.116	38956.04
695.462	38761.01
695.808	38702.94
696.155	38737.74
696.501	38501.36
696.847	38493.23
697.193	38173.01
697.539	38368.03
697.885	38132.56
698.231	38129.84
698.577	38095.5
698.923	38013.92
699.269	37857.31
699.614	37684.21
699.96	37566.02
700.306	37620.48
700.651	37488.28
700.997	37364.67
701.342	37316.76
701.688	37273.14
702.033	37142.3
702.379	37262.98
702.724	36974.85
703.069	37137.78
703.415	36607.4
703.76	36680.17
704.105	36801.52
704.45	36629.09
704.795	36439.04
705.14	36388.2
705.485	36376.9
705.83	36222.1
706.175	36142.33
706.52	35976.68
706.865	36002.22
707.209	35978.71
707.554	35838.61
707.899	35809.23
708.243	35494.89
708.588	35665.28
708.932	35391.16
709.277	35335.12
709.621	35366.3
709.966	35062.58
710.31	35165.63
710.654	34986.2
710.998	35075.46
711.342	34977.16
711.687	34781.01
712.031	34663.04
712.375	34653.33
712.719	34552.54
713.063	34584.85
713.407	34633.67
713.75	34460.56
714.094	34469.38
714.438	34312.54
714.782	34377.4
715.125	34147.58
715.469	34265.77
715.812	34167.01
716.156	33974.02
716.499	33982.38
716.843	33990.29
717.186	33735.84
717.53	33895.61
717.873	33787.59
718.216	33793.46
718.559	33564.99
718.902	33414.26
719.246	33482.06
719.589	33446.13
719.932	33256.75
720.275	33202.52
720.617	33207.26
720.96	33329.97
721.303	33202.06
721.646	33062.41
721.989	32962.52
722.331	33106.47
722.674	32875.52
723.016	32883.43
723.359	32843.2
723.701	32850.21
724.044	32576.32
724.386	32569.54
724.729	32620.16
725.071	32470.56
725.413	32535.87
725.755	32471.24
726.097	32437.79
726.439	32168.19
726.782	32212.49
727.124	32305.14
727.465	32115.54
727.807	32126.84
728.149	32063.56
728.491	31989.22
728.833	32107.63
729.175	31987.63
729.516	31901.53
729.858	31918.93
730.199	31949.22
730.541	31801.2
730.882	31837.13
731.224	31866.28
731.565	31636.46
731.906	31665.83
732.248	31622.67
732.589	31586.97
732.93	31376.12
733.271	31420.42
733.612	31443.02
733.953	31599.4
734.294	31266.3
734.635	31283.92
734.976	31313.3
735.317	31114.89
735.658	31046.64
735.999	31098.17
736.339	31036.25
736.68	31007.55
737.021	30997.15
737.361	30699.08
737.702	31045.96
738.042	30802.81
738.383	30832.18
738.723	30935.91
739.063	30673.32
739.404	30725.97
739.744	30755.35
740.084	30576.6
740.424	30722.81
740.764	30548.12
741.104	30664.28
741.444	30391.07
741.784	30379.77
742.124	30441.69
742.464	30367.56
742.804	30190.39
743.143	30230.62
743.483	30250.5
743.823	30100.9
744.162	30084.41
744.502	30088.02
744.841	30015.93
745.181	30061.58
745.52	29876.28
745.86	30036.05
746.199	29917.18
746.538	29869.27
746.877	29938.65
747.216	29848.48
747.556	29780.01
747.895	29878.54
748.234	29738.65
748.573	29548.15
748.911	29552.67
749.25	29646.45
749.589	29382.96
749.928	29516.51
750.267	29577.98
750.605	29419.79
750.944	29437.87
751.283	29247.14
751.621	29252.79
751.96	29133.92
752.298	29164.88
752.636	29180.93
752.975	29053.93
753.313	28838.79
753.651	29225.22
753.989	28905.23
754.327	28960.37
754.666	28737.32
755.004	28775.51
755.342	28772.58
755.679	28750.43
756.017	28574.16
756.355	28688.51
756.693	28457.56
757.031	28517.44
757.368	28403.32
757.706	28254.4
758.044	28180.73
758.381	28235.19
758.719	28174.17
759.056	28034.74
759.394	28085.82
759.731	27926.95
760.068	27856.44
760.405	27764.69
760.743	27674.98
761.08	27804.92
761.417	27628.65
761.754	27572.61
762.091	27549.78
762.428	27452.39
762.765	27230.7
763.102	27401.77
763.438	27219.85
763.775	27122.9
764.112	27188.89
764.449	27199.51
764.785	26957.48
765.122	26738.51
765.458	26716.13
765.795	26717.49
766.131	26637.72
766.467	26588.23
766.804	26348.91
767.14	26343.71
767.476	26295.58
767.812	26174.9
768.148	26152.76
768.485	25989.83
768.821	25858.76
769.157	25982.82
769.492	25751.41
769.828	25743.5
770.164	25459.44
770.5	25474.81
770.836	25401.59
771.171	25273.23
771.507	25211.99
771.842	25061.04
772.178	25110.75
772.513	24955.5
772.849	24967.25
773.184	24706.69
773.519	24766.35
773.855	24640.71
774.19	24590.31
774.525	24485.01
774.86	24495.4
775.195	24437.32
775.53	24356.65
775.865	24152.81
776.2	23963.89
776.535	23835.31
776.87	23905.13
777.205	23743.1
777.539	23633.73
777.874	23640.51
778.209	23414.75
778.543	23508.08
778.878	23274.64
779.212	23344.7
779.547	23195.1
779.881	23299.05
780.215	23022.9
780.55	23047.98
780.884	22923.92
781.218	22871.49
781.552	22894.99
781.886	22790.14
782.22	22684.38
782.554	22566.41
782.888	22351.5
783.222	22284.61
783.556	22196.25
783.889	22131.62
784.223	21953.32
784.557	22052.98
784.89	21979.54
785.224	21847.34
785.557	21714.01
785.891	21661.8
786.224	21616.38
786.558	21621.13
786.891	21383.17
787.224	21281.7
787.557	21203.06
787.891	21238.99
788.224	21073.34
788.557	21174.13
788.89	21188.37
789.223	21056.17
789.556	20946.79
789.888	20807.14
790.221	20767.59
790.554	20511.78
790.887	20582.06
791.219	20557.88
791.552	20455.96
791.884	20452.8
792.217	20357.66
792.549	20293.48
792.882	20135.52
793.214	19946.14
793.546	20134.16
793.879	19978.01
794.211	19860.95
794.543	19909.31
794.875	19873.38
795.207	19885.58
795.539	19669.54
795.871	19734.62
796.203	19501.86
796.535	19434.52
796.867	19340.51
797.198	19298.25
797.53	19369.66
797.862	19213.28
798.193	19242.43
798.525	19033.62
798.856	19084.02
799.188	18918.82
799.519	18848.32
799.85	18726.51
800.182	18783.23
800.513	18695.33
800.844	18660.07
801.175	18606.74
801.506	18541.21
801.837	18554.31
802.168	18424.6
802.499	18373.98
802.83	18268.22
803.161	18269.8
803.491	18235
803.822	18178.51
804.153	18180.76
804.483	17964.05
804.814	17917.95
805.145	18008.79
805.475	17874.56
805.805	17825.75
806.136	17772.64
806.466	17786.65
806.796	17833.66
807.126	17571.06
807.457	17567.45
807.787	17479.99
808.117	17516.38
808.447	17404.51
808.777	17406.1
809.107	17444.51
809.436	17295.36
809.766	17288.58
810.096	17233.9
810.426	17187.57
810.755	17194.8
811.085	17168.59
811.414	17088.82
811.744	16958.88
812.073	16861.25
812.403	16923.17
812.732	16896.73
813.061	16864.64
813.39	16722.05
813.719	16678.21
814.049	16691.76
814.378	16673.46
814.707	16497.19
815.036	16564.76
815.365	16494.48
815.693	16327.93
816.022	16422.85
816.351	16204.77
816.68	16305.33
817.008	16331.77
817.337	16159.58
817.665	16100.14
817.994	16106.92
818.322	16114.15
818.651	16038.67
818.979	15963.42
819.307	16024.44
819.636	16052.69
819.964	15883.2
820.292	15876.87
820.62	15908.73
820.948	15820.83
821.276	15875.51
821.604	15815.86
821.932	15805.91
822.259	15862.18
822.587	15858.57
822.915	15767.04
823.243	15806.14
823.57	15766.82
823.898	15816.99
824.225	15717.78
824.553	15624.45
824.88	15693.6
825.207	15737.67
825.535	15640.94
825.862	15767.72
826.189	15750.32
826.516	15799.58
826.843	15794.84
827.17	15763.43
827.497	15696.54
827.824	15801.39
828.151	15835.06
828.478	15718.91
828.805	15727.72
829.131	15699.93
829.458	15712.81
829.785	15593.94
830.111	15665.12
830.438	15710.32
830.764	15713.94
831.09	15758.91
831.417	15605.69
831.743	15718.46
832.069	15714.39
832.395	15548.97
832.722	15684.79
833.048	15636.2
833.374	15541.29
833.7	15490.67
834.026	15584.67
834.351	15562.53
834.677	15498.8
835.003	15515.75
835.329	15541.51
835.654	15411.35
835.98	15448.63
836.306	15537.67
836.631	15357.56
836.956	15381.74
837.282	15388.52
837.607	15359.82
837.932	15329.54
838.258	15320.05
838.583	15344.46
838.908	15180.17
839.233	15260.39
839.558	15149.21
839.883	15109.43
840.208	15064.46
840.533	15040.51
840.858	15077.34
841.182	15039.15
841.507	14965.93
841.832	14892.26
842.156	14925.48
842.481	14934.97
842.805	14911.47
843.13	14860.4
843.454	14844.13
843.778	14775.2
844.103	14729.1
844.427	14655.43
844.751	14743.57
845.075	14616.34
845.399	14638.49
845.723	14469.68
846.047	14500.64
846.371	14368.44
846.695	14460.64
847.019	14292.73
847.343	14262
847.666	14164.37
847.99	14070.59
848.313	14085.51
848.637	14085.96
848.96	13961.89
849.284	13966.86
849.607	13809.58
849.931	13827.66
850.254	13690.94
850.577	13670.15
850.9	13519.42
851.223	13583.6
851.546	13495.46
851.869	13378.63
852.192	13507.67
852.515	13318.75
852.838	13283.27
853.161	13258.86
853.483	13246.88
853.806	13098.86
854.129	13134.57
854.451	13111.75
854.774	13030.84
855.096	12976.16
855.419	12980.68
855.741	12959.89
856.063	12836.95
856.385	12785.43
856.708	12813.45
857.03	12704.75
857.352	12730.74
857.674	12708.59
857.996	12646.45
858.318	12627.24
858.64	12614.58
858.961	12564.87
859.283	12591.76
859.605	12511.31
859.926	12480.58
860.248	12464.53
860.57	12332.33
860.891	12315.16
861.212	12293.01
861.534	12219.79
861.855	12270.19
862.176	12257.53
862.498	12189.96
862.819	12227.93
863.14	12208.04
863.461	12135.73
863.782	12135.73
864.103	12079.91
864.424	12114.94
864.745	12069.29
865.065	11909.29
865.386	11976.18
865.707	11955.84
866.027	11904.09
866.348	11947.48
866.668	11937.99
866.989	11843.98
867.309	11832.23
867.63	11837.88
867.95	11880.82
868.27	11737.77
868.59	11786.81
868.91	11680.82
869.23	11646.93
869.55	11651.67
869.87	11733.25
870.19	11652.35
870.51	11597.89
870.83	11686.47
871.15	11624.78
871.469	11643.08
871.789	11655.29
872.109	11589.07
872.428	11492.58
872.748	11557.21
873.067	11475.63
873.386	11502.75
873.706	11499.58
874.025	11471.34
874.344	11345.69
874.663	11355.41
874.982	11397.89
875.301	11395.41
875.62	11343.43
875.939	11230.21
876.258	11319.02
876.577	11319.93
876.896	11300.95
877.214	11252.13
877.533	11216.88
877.852	11188.18
878.17	11174.4
878.489	11209.2
878.807	11157.67
879.125	11162.19
879.444	11185.69
879.762	11058.69
880.08	11065.47
880.398	11102.76
880.716	10981.63
881.034	11011.91
881.352	11037.68
881.67	11002.2
881.988	10958.58
882.306	10894.18
882.624	10837.91
882.941	10863.44
883.259	10834.52
883.577	10849.88
883.894	10727.18
884.212	10746.84
884.529	10737.34
884.846	10801.3
885.164	10710.68
885.481	10686.27
885.798	10727.18
886.115	10577.35
886.432	10576.9
886.75	10538.03
887.067	10584.13
887.383	10539.61
887.7	10470.01
888.017	10474.07
888.334	10529.44
888.651	10456.9
888.967	10367.64
889.284	10286.96
889.6	10356.11
889.917	10304.59
890.233	10328.32
890.55	10220.52
890.866	10212.39
891.182	10177.36
891.498	10104.14
891.815	10027.31
892.131	10132.61
892.447	10089.23
892.763	10027.31
893.079	10058.49
893.395	10008.78
893.71	9916.35
894.026	9899.85
894.342	9899.17
894.657	9760.87
894.973	9792.96
895.289	9802.91
895.604	9797.71
895.92	9704.38
896.235	9655.11
896.55	9592.97
896.865	9642.91
897.181	9611.27
897.496	9617.83
897.811	9509.81
898.126	9540.54
898.441	9505.96
898.756	9430.03
899.071	9418.06
899.386	9391.84
899.7	9330.83
900.015	9320.43
900.33	9131.06
900.644	9218.97
900.959	9221.9
901.273	9202.24
901.588	9112.98
901.902	9101.46
902.216	9073.21
902.531	9089.7
902.845	9025.75
903.159	8961.57
903.473	8913.21
903.787	8904.62
904.101	8878.86
904.415	8864.85
904.729	8774.68
905.042	8759.32
905.356	8739.88
905.67	8702.82
905.984	8743.72
906.297	8715.93
906.611	8624.63
906.924	8553
907.237	8642.48
907.551	8536.5
907.864	8501.92
908.177	8565.42
908.491	8489.49
908.804	8406.33
909.117	8390.97
909.43	8311.87
909.743	8280.23
910.056	8312.1
910.368	8184.42
910.681	8198.2
910.994	8171.54
911.307	8145.77
911.619	8049.73
911.932	8067.36
912.244	7956.63
912.557	8049.51
912.869	7939.9
913.181	7903.07
913.494	7906.68
913.806	7820.81
914.118	7837.76
914.43	7771.55
914.742	7758.89
915.054	7689.52
915.366	7704.2
915.678	7648.39
915.99	7591.66
916.302	7619.69
916.613	7459.24
916.925	7528.16
917.236	7519.8
917.548	7459.92
917.859	7415.4
918.171	7377.66
918.482	7372.24
918.794	7353.25
919.105	7355.96
919.416	7247.49
919.727	7266.7
920.038	7211.34
920.349	7221.05
920.66	7140.38
920.971	7133.6
921.282	7169.08
921.593	7071
921.903	7034.84
922.214	7061.96
922.525	7031
922.835	6949.65
923.146	6966.6
923.456	6838.46
923.767	6908.07
924.077	6823.78
924.387	6847.5
924.697	6759.37
925.008	6702.87
925.318	6766.38
925.628	6662.2
925.938	6678.69
926.248	6603.22
926.558	6597.57
926.867	6638.47
927.177	6561.86
927.487	6486.84
927.796	6470.79
928.106	6418.36
928.416	6419.49
928.725	6436.21
929.034	6437.8
929.344	6373.39
929.653	6361.19
929.962	6271.47
930.271	6277.8
930.581	6219.95
930.89	6223.57
931.199	6229.89
931.508	6183.34
931.817	6184.92
932.125	6130.69
932.434	6063.12
932.743	6059.73
933.051	6017.47
933.36	6046.85
933.669	5963.23
933.977	5963.91
934.286	5918.94
934.594	5976.34
934.902	5836
935.21	5805.95
935.519	5850.92
935.827	5852.05
936.135	5756.68
936.443	5726.4
936.751	5715.1
937.059	5718.95
937.367	5678.72
937.674	5682.11
937.982	5686.18
938.29	5615.67
938.597	5614.54
938.905	5520.53
939.213	5488.22
939.52	5525.73
939.827	5497.48
940.135	5460.65
940.442	5469.46
940.749	5422.91
941.056	5414.55
941.363	5370.71
941.67	5339.07
941.977	5299.3
942.284	5257.94
942.591	5266.53
942.898	5324.15
943.205	5227.66
943.511	5223.82
943.818	5154.44
944.125	5182.46
944.431	5120.32
944.738	5096.59
945.044	5078.06
945.35	5122.8
945.657	5006.2
945.963	5016.82
946.269	5040.55
946.575	4963.49
946.881	4997.83
947.187	4940.21
947.493	4918.29
947.799	4920.55
948.105	4889.59
948.41	4871.51
948.716	4877.16
949.022	4838.06
949.327	4808.69
949.633	4784.51
949.938	4740.67
950.244	4745.86
950.549	4700.67
950.854	4669.26
951.16	4681.46
951.465	4649.37
951.77	4672.87
952.075	4628.35
952.38	4565.76
952.685	4552.42
952.99	4490.28
953.294	4520.33
953.599	4529.15
953.904	4501.12
954.209	4462.71
954.513	4413.9
954.818	4478.53
955.122	4466.55
955.426	4402.6
955.731	4365.08
956.035	4342.94
956.339	4330.28
956.643	4303.39
956.948	4318.98
957.252	4274.46
957.556	4252.09
957.86	4278.98
958.163	4256.84
958.467	4215.48
958.771	4170.51
959.075	4189.72
959.378	4156.95
959.682	4142.94
959.985	4126.22
960.289	4093.68
960.592	4102.94
960.896	4038.54
961.199	4054.58
961.502	4037.41
961.805	4009.16
962.108	4041.93
962.411	4013.45
962.714	3979.78
963.017	3958.77
963.32	3964.87
963.623	3890.07
963.926	3911.54
964.228	3888.94
964.531	3881.71
964.833	3867.02
965.136	3804.65
965.438	3816.4
965.741	3782.27
966.043	3792.22
966.345	3757.64
966.648	3681.94
966.95	3698.43
967.252	3700.92
967.554	3710.64
967.856	3673.35
968.158	3621.6
968.46	3679.9
968.761	3595.39
969.063	3622.05
969.365	3573.69
969.666	3600.81
969.968	3551.77
970.269	3552.67
970.571	3542.28
970.872	3507.7
971.174	3532.34
971.475	3506.12
971.776	3510.19
972.077	3460.47
972.378	3465.45
972.679	3436.52
972.98	3414.6
973.281	3448.5
973.582	3391.78
973.883	3357.88
974.183	3345.22
974.484	3350.19
974.785	3316.75
975.085	3320.59
975.386	3300.93
975.686	3295.73
975.986	3238.78
976.287	3232.91
976.587	3251.21
976.887	3217.77
977.187	3215.06
977.487	3196.07
977.787	3217.54
978.087	3180.48
978.387	3145.45
978.687	3146.58
978.987	3157.43
979.286	3104.1
979.586	3093.93
979.885	3065.91
980.185	3035.4
980.484	3022.52
980.784	3041.95
981.083	3023.2
981.382	3023.2
981.682	2990.88
981.981	2986.14
982.28	3003.99
982.579	2918.79
982.878	2975.06
983.177	2952.46
983.475	2956.98
983.774	2905.91
984.073	2905.69
984.372	2859.81
984.67	2864.78
984.969	2841.51
985.267	2859.59
985.566	2828.85
985.864	2811.9
986.162	2807.84
986.461	2787.95
986.759	2765.13
987.057	2745.24
987.355	2743.43
987.653	2755.18
987.951	2702.53
988.249	2713.6
988.547	2721.28
988.844	2694.84
989.142	2686.26
989.44	2662.75
989.737	2671.57
990.035	2641.06
990.332	2643.55
990.63	2627.05
990.927	2611.91
991.224	2604.68
991.521	2582.53
991.819	2569.65
992.116	2551.12
992.413	2558.8
992.71	2530.33
993.006	2554.28
993.303	2564.68
993.6	2513.15
993.897	2531.68
994.193	2472.25
994.49	2440.84
994.787	2454.62
995.083	2467.28
995.379	2439.71
995.676	2407.85
995.972	2422.31
996.268	2419.15
996.565	2367.85
996.861	2358.58
997.157	2398.81
997.453	2352.71
997.749	2345.25
998.044	2341.86
998.34	2372.14
998.636	2320.62
998.932	2278.58
999.227	2290.56
999.523	2269.32
999.818	2259.38
1000.114	2236.33
1000.409	2198.81
1000.704	2225.25
1001	2198.81
1001.295	2212.6
1001.59	2184.8
1001.885	2204.46
1002.18	2150.23
1002.475	2136.67
1002.77	2166.5
1003.065	2109.1
1003.359	2147.74
1003.654	2109.32
1003.949	2109.55
1004.243	2091.02
1004.538	2074.97
1004.832	2060.51
1005.127	2044.01
1005.421	2034.75
1005.715	2041.3
1006.009	1991.13
1006.304	2009.21
1006.598	1990.91
1006.892	1994.98
1007.186	1951.36
1007.48	1957.46
1007.773	1948.2
1008.067	1936.9
1008.361	1916.11
1008.655	1917.69
1008.948	1933.28
1009.242	1874.3
1009.535	1866.17
1009.829	1896.22
1010.122	1861.87
1010.415	1860.74
1010.708	1826.62
1011.001	1816
1011.295	1816.22
1011.588	1833.17
1011.881	1792.5
1012.173	1823.45
1012.466	1778.94
1012.759	1766.96
1013.052	1777.81
1013.344	1758.82
1013.637	1739.16
1013.93	1728.77
1014.222	1709.11
1014.514	1736
1014.807	1675.66
1015.099	1688.32
1015.391	1672.72
1015.683	1668.88
1015.976	1660.52
1016.268	1658.26
1016.56	1632.73
1016.851	1609.9
1017.143	1627.08
1017.435	1602.44
1017.727	1613.74
1018.018	1555.89
1018.31	1578.72
1018.602	1537.13
1018.893	1575.55
1019.185	1556.8
1019.476	1538.49
1019.767	1524.25
1020.058	1512.05
1020.35	1521.99
1020.641	1492.84
1020.932	1506.4
1021.223	1441.54
1021.514	1472.05
1021.804	1446.74
1022.095	1458.94
1022.386	1442
1022.677	1415.56
1022.967	1426.86
1023.258	1414.2
1023.548	1417.82
1023.839	1388.89
1024.129	1406.29
1024.419	1371.04
1024.709	1352.05
1025	1355.22
1025.29	1335.78
1025.58	1328.1
1025.87	1313.41
1026.16	1347.99
1026.449	1298.5
1026.739	1310.93
1027.029	1295.11
1027.319	1280.19
1027.608	1292.17
1027.898	1269.57
1028.187	1274.99
1028.477	1259.85
1028.766	1264.83
1029.055	1266.41
1029.344	1244.26
1029.634	1219.63
1029.923	1210.82
1030.212	1218.95
1030.501	1171.27
1030.79	1192.51
1031.078	1192.06
1031.367	1194.09
1031.656	1173.3
1031.945	1143.47
1032.233	1144.6
1032.522	1155.68
1032.81	1147.31
1033.099	1136.92
1033.387	1111.38
1033.675	1122.91
1033.963	1118.39
1034.251	1119.29
1034.54	1083.59
1034.828	1079.52
1035.116	1075.45
1035.403	1087.88
1035.691	1048.79
1035.979	1055.79
1036.267	1048.11
1036.554	1035.9
1036.842	1041.78
1037.129	1041.55
1037.417	1051.95
1037.704	1016.7
1037.992	1020.31
1038.279	1000.88
1038.566	984.15
1038.853	984.15
1039.14	984.15
