Data from hue_290_FLMS001491_00013.txt Node
Date: Tue Feb 07 15:52:22 GMT 2017
User: dcchb
Spectrometer: FLMS00149
Trigger mode: 0
Integration Time (sec): 2.000000E-2
Scans to average: 10
Electric dark correction enabled: true
Nonlinearity correction enabled: false
Boxcar width: 0
XAxis mode: Wavelengths
Number of Pixels in Spectrum: 2048
>>>>>Begin Spectral Data<<<<<
341.393	-9.51
341.776	-9.51
342.16	-9.51
342.543	-56.51
342.927	-69.84
343.31	-55.83
343.693	-70.75
344.077	-66
344.46	-74.81
344.843	-46.34
345.226	-39.34
345.61	-22.61
345.993	-7.92
346.376	-15.83
346.759	26.2
347.142	30.95
347.525	45.18
347.908	41.34
348.291	59.65
348.674	99.42
349.057	96.71
349.44	124.28
349.823	133.54
350.206	164.5
350.588	176.93
350.971	188
351.354	204.5
351.737	232.97
352.119	237.04
352.502	239.3
352.884	269.36
353.267	285.63
353.65	300.99
354.032	290.37
354.414	306.42
354.797	298.28
355.179	314.55
355.562	311.39
355.944	324.95
356.326	311.62
356.709	316.14
357.091	311.84
357.473	330.6
357.855	331.28
358.238	316.59
358.62	312.29
359.002	340.09
359.384	328.79
359.766	315.23
360.148	326.76
360.53	318.4
360.912	334.89
361.294	338.28
361.676	318.4
362.057	323.37
362.439	331.95
362.821	322.69
363.203	310.94
363.584	333.31
363.966	317.27
364.348	320.88
364.729	318.4
365.111	298.51
365.493	303.71
365.874	319.07
366.256	315.68
366.637	302.58
367.019	328.79
367.4	314.33
367.781	313.2
368.163	317.49
368.544	290.83
368.925	319.07
369.306	312.97
369.688	307.55
370.069	300.54
370.45	302.12
370.831	295.57
371.212	293.99
371.593	304.84
371.974	297.83
372.355	286.98
372.736	280.66
373.117	307.32
373.498	312.07
373.879	304.61
374.26	304.38
374.641	300.99
375.021	311.16
375.402	312.07
375.783	316.81
376.163	316.14
376.544	323.59
376.925	328.56
377.305	299.19
377.686	314.55
378.066	324.95
378.447	310.94
378.827	325.4
379.208	292.63
379.588	314.78
379.968	317.72
380.349	338.51
380.729	310.26
381.109	322.01
381.489	342.58
381.87	335.12
382.25	318.62
382.63	341.45
383.01	334.67
383.39	349.58
383.77	328.11
384.15	320.88
384.53	337.15
384.91	351.39
385.29	356.59
385.67	336.47
386.049	337.15
386.429	333.99
386.809	338.06
387.189	347.55
387.568	331.95
387.948	347.32
388.328	354.78
388.707	358.17
389.087	362.46
389.466	340.99
389.846	344.38
390.225	344.84
390.605	343.25
390.984	350.03
391.363	370.15
391.743	353.65
392.122	352.74
392.501	372.18
392.881	375.8
393.26	373.54
393.639	366.98
394.018	372.18
394.397	381.22
394.776	362.01
395.155	383.48
395.534	373.31
395.913	359.07
396.292	378.51
396.671	374.21
397.05	384.16
397.429	394.33
397.808	383.48
398.186	388.45
398.565	392.29
398.944	386.87
399.323	380.77
399.701	408.56
400.08	417.15
400.458	408.56
400.837	410.14
401.215	394.55
401.594	400.88
401.972	398.39
402.351	394.55
402.729	395.46
403.107	422.57
403.486	426.64
403.864	425.51
404.242	419.18
404.62	435.68
404.999	416.25
405.377	394.78
405.755	433.42
406.133	431.84
406.511	451.73
406.889	424.61
407.267	433.65
407.645	472.29
408.023	472.29
408.401	459.63
408.779	473.87
409.156	448.56
409.534	473.65
409.912	488.11
410.29	504.38
410.667	492.63
411.045	486.3
411.422	511.38
411.8	525.17
412.178	511.84
412.555	521.78
412.933	534.66
413.31	527.2
413.687	535.11
414.065	530.59
414.442	547.54
414.819	581.21
415.197	557.03
415.574	584.83
415.951	599.52
416.328	608.11
416.705	598.16
417.082	605.85
417.46	596.35
417.837	634.09
418.214	627.54
418.591	628.9
418.967	656.24
419.344	656.24
419.721	666.86
420.098	663.02
420.475	663.7
420.852	668.44
421.228	677.93
421.605	711.38
421.982	685.84
422.358	705.5
422.735	743.92
423.111	733.98
423.488	716.58
423.864	745.95
424.241	746.41
424.617	759.29
424.994	751.83
425.37	773.3
425.746	800.87
426.123	816.46
426.499	810.81
426.875	814.88
427.251	838.38
427.627	853.97
428.003	876.8
428.379	868.21
428.756	833.64
429.132	868.89
429.507	906.63
429.883	896.01
430.259	880.64
430.635	896.69
431.011	919.74
431.387	924.48
431.763	946.63
432.138	930.36
432.514	953.86
432.89	992.28
433.265	1004.71
433.641	1010.81
434.016	1030.92
434.392	1015.1
434.767	1039.51
435.143	1033.18
435.518	1050.58
435.894	1042.44
436.269	1074.76
436.644	1105.04
437.02	1144.81
437.395	1117.47
437.77	1114.98
438.145	1156.11
438.52	1163.35
438.895	1197.69
439.271	1172.16
439.646	1200.86
440.021	1203.34
440.395	1206.06
440.77	1191.37
441.145	1215.77
441.52	1262.55
441.895	1225.26
442.27	1261.65
442.645	1291.25
443.019	1252.61
443.394	1272.72
443.769	1292.38
444.143	1267.52
444.518	1302.1
444.892	1259.39
445.267	1317.24
445.641	1317.24
446.016	1303.45
446.39	1330.57
446.764	1325.83
447.139	1325.6
447.513	1353.85
447.887	1346.39
448.262	1357.01
448.636	1337.8
449.01	1366.28
449.384	1376.45
449.758	1402.43
450.132	1403.79
450.506	1410.34
450.88	1383.68
451.254	1398.59
451.628	1418.48
452.002	1449.21
452.376	1415.09
452.75	1462.55
453.123	1451.25
453.497	1476.11
453.871	1473.17
454.244	1497.57
454.618	1485.82
454.992	1501.42
455.365	1494.64
455.739	1559.94
456.112	1566.27
456.486	1533.73
456.859	1572.6
457.232	1590.9
457.606	1588.19
457.979	1610.34
458.352	1638.81
458.725	1646.04
459.099	1635.42
459.472	1654.41
459.845	1676.78
460.218	1686.27
460.591	1671.58
460.964	1702.31
461.337	1715.42
461.71	1731.01
462.083	1756.55
462.456	1765.59
462.829	1767.4
463.201	1761.52
463.574	1786.38
463.947	1830.45
464.32	1846.04
464.692	1860.95
465.065	1840.84
465.438	1893.5
465.81	1895.3
466.183	1864.12
466.555	1952.02
466.928	1931.23
467.3	1949.09
467.672	1945.92
468.045	1990.44
468.417	1997.9
468.789	2007.16
469.161	2043.55
469.534	2069.31
469.906	2053.94
470.278	2081.29
470.65	2113.38
471.022	2163.32
471.394	2173.49
471.766	2173.94
472.138	2141.62
472.51	2225.92
472.882	2282.41
473.253	2292.35
473.625	2314.05
473.997	2346.59
474.369	2321.51
474.74	2296.2
475.112	2356.76
475.484	2415.29
475.855	2425.46
476.227	2472.69
476.598	2527.38
476.97	2505.46
477.341	2534.83
477.713	2551.33
478.084	2597.66
478.455	2621.61
478.827	2617.09
479.198	2711.78
479.569	2695.06
479.94	2775.05
480.311	2761.5
480.682	2850.08
481.053	2862.28
481.424	2875.62
481.795	2896.63
482.166	2912
482.537	2981.38
482.908	3013.47
483.279	3035.16
483.65	3063.63
484.021	3119.45
484.391	3170.75
484.762	3139.79
485.133	3167.81
485.503	3175.72
485.874	3239.22
486.244	3288.04
486.615	3377.07
486.985	3362.38
487.356	3394.47
487.726	3382.27
488.097	3453.68
488.467	3460.23
488.837	3495.94
489.207	3518.09
489.578	3570.74
489.948	3595.82
490.318	3649.61
490.688	3646.9
491.058	3648.93
491.428	3703.62
491.798	3733.22
492.168	3771.86
492.538	3732.77
492.908	3824.29
493.278	3881.47
493.648	3838.53
494.017	3879.66
494.387	3954.23
494.757	3944.51
495.126	3949.03
495.496	3999.2
495.866	4038.07
496.235	4009.82
496.605	4044.4
496.974	4041.24
497.344	4058.41
497.713	4118.52
498.082	4149.03
498.452	4139.99
498.821	4146.54
499.19	4169.59
499.559	4222.47
499.928	4210.5
500.298	4219.08
500.667	4294.79
501.036	4246.88
501.405	4299.31
501.774	4292.3
502.143	4368.46
502.512	4319.42
502.88	4338.63
503.249	4399.19
503.618	4401.9
503.987	4407.55
504.356	4409.14
504.724	4437.84
505.093	4464.5
505.462	4474.22
505.83	4499.3
506.199	4534.33
506.567	4553.31
506.936	4540.43
507.304	4579.07
507.672	4567.78
508.041	4577.27
508.409	4650.03
508.777	4641.67
509.145	4651.39
509.514	4641.45
509.882	4649.58
510.25	4657.04
510.618	4714.66
510.986	4732.29
511.354	4756.47
511.722	4768.45
512.09	4754.89
512.458	4780.43
512.826	4802.8
513.193	4823.36
513.561	4781.33
513.929	4859.97
514.297	4848.45
514.664	4866.3
515.032	4887.09
515.4	4896.13
515.767	4951.72
516.135	4962.34
516.502	4920.08
516.869	4987.65
517.237	4917.37
517.604	4930.03
517.972	5015.22
518.339	4985.84
518.706	4996.01
519.073	5018.61
519.44	4995.56
519.808	5029.91
520.175	5081.43
520.542	5104.48
520.909	5118.95
521.276	5070.36
521.643	5171.38
522.009	5160.75
522.376	5157.59
522.743	5182.22
523.11	5214.31
523.477	5255.67
523.843	5302.9
524.21	5308.55
524.577	5288.89
524.943	5335.66
525.31	5283.69
525.676	5371.14
526.043	5429
526.409	5429.22
526.776	5465.6
527.142	5477.13
527.508	5479.84
527.874	5515.32
528.241	5518.94
528.607	5557.35
528.973	5591.25
529.339	5591.03
529.705	5626.05
530.071	5633.06
530.437	5646.84
530.803	5684.81
531.169	5699.95
531.535	5702.89
531.901	5731.36
532.267	5756.44
532.632	5806.61
532.998	5766.84
533.364	5824.01
533.73	5820.4
534.095	5878.02
534.461	5866.95
534.826	5887.74
535.192	5929.1
535.557	5964.57
535.923	5899.49
536.288	5944.01
536.653	5963.9
537.019	5971.81
537.384	5955.76
537.749	6061.3
538.114	6031.24
538.479	6042.99
538.845	6077.11
539.21	6050
539.575	6057.68
539.94	6136.77
540.305	6092.03
540.67	6109.88
541.034	6145.14
541.399	6150.11
541.764	6167.28
542.129	6192.82
542.494	6155.76
542.858	6254.28
543.223	6219.94
543.587	6282.31
543.952	6272.36
544.316	6257
544.681	6282.08
545.045	6307.16
545.41	6328.86
545.774	6395.98
546.138	6394.17
546.503	6407.05
546.867	6380.38
547.231	6464.22
547.595	6459.7
547.959	6470.32
548.324	6501.51
548.688	6459.7
549.052	6492.7
549.416	6585.35
549.779	6525.01
550.143	6484.11
550.507	6544.22
550.871	6560.94
551.235	6522.3
551.599	6573.37
551.962	6619.02
552.326	6617.66
552.689	6664.44
553.053	6588.74
553.417	6651.11
553.78	6683.2
554.143	6640.94
554.507	6723.88
554.87	6690.21
555.234	6727.94
555.597	6765.68
555.96	6735.18
556.323	6712.8
556.686	6783.54
557.05	6806.36
557.413	6785.12
557.776	6877.77
558.139	6867.6
558.502	6840.48
558.865	6848.85
559.228	6916.64
559.59	6910.31
559.953	6889.97
560.316	7014.04
560.679	6994.83
561.041	7061.04
561.404	7100.36
561.767	7062.17
562.129	7061.72
562.492	7080.48
562.854	7094.71
563.217	7101.95
563.579	7087.48
563.941	7164.77
564.304	7142.17
564.666	7293.58
565.028	7276.4
565.39	7220.59
565.753	7259.68
566.115	7303.52
566.477	7351.88
566.839	7284.77
567.201	7330.64
567.563	7402.5
567.925	7460.58
568.287	7430.07
568.648	7488.15
569.01	7520.92
569.372	7553.23
569.734	7535.61
570.095	7532.67
570.457	7609.28
570.819	7633.23
571.18	7598.43
571.542	7699.9
571.903	7724.53
572.265	7768.37
572.626	7814.47
572.987	7792.78
573.349	7851.76
573.71	7793.68
574.071	7876.84
574.432	7968.36
574.794	8026.22
575.155	8068.47
575.516	8044.97
575.877	8058.08
576.238	8113.67
576.599	8202.03
576.96	8157.74
577.32	8244.06
577.681	8274.57
578.042	8364.06
578.403	8412.42
578.763	8495.13
579.124	8559.99
579.485	8559.99
579.845	8682.24
580.206	8731.51
580.566	8756.14
580.927	8807.89
581.287	8949.58
581.648	8985.51
582.008	9051.05
582.368	9167.65
582.728	9270.02
583.089	9305.5
583.449	9378.04
583.809	9541.66
584.169	9560.41
584.529	9630.69
584.889	9822.33
585.249	9849.9
585.609	9916.79
585.969	10057.35
586.329	10166.27
586.688	10328.3
587.048	10364.23
587.408	10500.73
587.768	10573.72
588.127	10812.58
588.487	10846.25
588.846	10993.6
589.206	11057.55
589.565	11232.91
589.925	11394.94
590.284	11460.7
590.643	11705.21
591.003	11902.5
591.362	11993.57
591.721	12019.1
592.08	12194.92
592.44	12346.33
592.799	12504.06
593.158	12667.45
593.517	12806.88
593.876	12869.7
594.235	13013.43
594.593	13155.57
594.952	13307.66
595.311	13378.17
595.67	13635.79
596.029	13707.65
596.387	13934.31
596.746	14013.18
597.104	14046.17
597.463	14215.88
597.822	14424.92
598.18	14485.03
598.538	14639.6
598.897	14805.92
599.255	14790.11
599.613	15176.76
599.972	15145.8
600.33	15212.47
600.688	15285.46
601.046	15450.65
601.404	15660.59
601.762	15654.26
602.12	15886.35
602.478	15998.89
602.836	16088.15
603.194	16065.1
603.552	16309.84
603.91	16374.24
604.268	16529.04
604.625	16529.27
604.983	16607.01
605.341	16772.43
605.698	16890.39
606.056	16987.11
606.413	17002.7
606.771	17141.23
607.128	17233.88
607.485	17378.74
607.843	17383.94
608.2	17439.75
608.557	17732.63
608.914	17575.34
609.272	17783.7
609.629	17880.65
609.986	17948.44
610.343	17997.48
610.7	18078.15
611.057	18194.99
611.414	18255.33
611.771	18395.89
612.127	18450.35
612.484	18447.64
612.841	18606.05
613.198	18599.95
613.554	18579.38
613.911	18762.88
614.267	18794.75
614.624	18812.6
614.98	18962.2
615.337	19047.17
615.693	19137.11
616.05	19036.1
616.406	19215.3
616.762	19231.34
617.118	19291.23
617.475	19293.72
617.831	19418.91
618.187	19482.86
618.543	19535.29
618.899	19583.43
619.255	19657.1
619.611	19613.48
619.967	19740.03
620.323	19749.3
620.678	19744.1
621.034	19786.13
621.39	19760.14
621.746	19805.11
622.101	20040.14
622.457	19963.3
622.812	19986.8
623.168	20106.8
623.523	19991.32
623.879	20150.19
624.234	20040.14
624.589	20141.15
624.945	20268.61
625.3	20142.96
625.655	20213.24
626.01	20264.76
626.365	20233.35
626.72	20300.47
627.075	20328.72
627.43	20341.15
627.785	20283.97
628.14	20354.7
628.495	20434.7
628.85	20289.62
629.205	20362.39
629.559	20351.54
629.914	20231.32
630.269	20367.13
630.623	20348.38
630.978	20330.07
631.332	20391.77
631.687	20418.66
632.041	20353.12
632.396	20434.93
632.75	20362.39
633.104	20366.68
633.459	20276.74
633.813	20308.38
634.167	20270.19
634.521	20272.45
634.875	20326.46
635.229	20446.68
635.583	20184.09
635.937	20236.97
636.291	20334.82
636.645	20229.74
636.999	20210.53
637.352	20346.12
637.706	20234.48
638.06	20279.45
638.413	20182.51
638.767	20091.89
639.121	20241.04
639.474	20139.8
639.828	20097.54
640.181	20210.75
640.534	20103.19
640.888	20143.19
641.241	19949.74
641.594	20113.13
641.947	20091.43
642.301	20083.75
642.654	20128.27
643.007	20086.92
643.36	20125.33
643.713	20166.24
644.066	20137.99
644.419	20000.36
644.771	19877.2
645.124	19637.89
645.477	19653.93
645.83	19637.21
646.182	19535.29
646.535	19492.13
646.888	19593.14
647.24	19403.54
647.593	19554.05
647.945	19485.58
648.298	19371.68
648.65	19382.08
649.002	19401.74
649.355	19517.21
649.707	19465.91
650.059	19563.99
650.411	19767.38
650.763	19732.8
651.115	19919.01
651.467	19875.62
651.819	19905
652.171	19840.59
652.523	19769.64
652.875	19825.23
653.227	19776.42
653.578	19948.84
653.93	19843.53
654.282	19827.26
654.633	19734.83
654.985	19812.12
655.337	19833.59
655.688	19900.03
656.039	19935.51
656.391	19698.22
656.742	19803.53
657.094	19944.32
657.445	19848.28
657.796	19860.71
658.147	19829.29
658.498	19862.74
658.849	19857.32
659.2	19939.57
659.551	19869.75
659.902	19862.74
660.253	19877.66
660.604	20043.07
660.955	19849.41
661.306	19982.96
661.656	19929.18
662.007	19889.41
662.358	19935.51
662.708	20020.02
663.059	19896.86
663.409	19849.18
663.76	20027.93
664.11	19920.59
664.461	20040.81
664.811	19962.62
665.161	20037.43
665.511	19915.17
665.862	19880.37
666.212	20024.32
666.562	19913.36
666.912	19976.86
667.262	19925.11
667.612	19959.69
667.962	19998.1
668.312	19910.65
668.662	20079.23
669.011	19997.65
669.361	19879.24
669.711	20010.99
670.06	19912.68
670.41	19853.93
670.76	19847.83
671.109	20057.31
671.459	19952.68
671.808	19836.53
672.157	19936.18
672.507	19775.06
672.856	19849.63
673.205	19773.48
673.554	19845.34
673.904	19775.29
674.253	19909.97
674.602	19765.57
674.951	19611
675.3	19494.39
675.649	19669.98
675.998	19738.22
676.346	19681.95
676.695	19775.74
677.044	19679.24
677.393	19633.37
677.741	19652.8
678.09	19539.36
678.438	19561.51
678.787	19644.22
679.135	19613.26
679.484	19450.77
679.832	19506.37
680.181	19331
680.529	19511.34
680.877	19336.43
681.225	19413.94
681.573	19452.36
681.922	19406.03
682.27	19237.22
682.618	19280.16
682.966	19169.43
683.314	19260.27
683.661	19140.05
684.009	19143.89
684.357	19081.97
684.705	19100.27
685.053	19134.17
685.4	19016.44
685.748	18926.27
686.095	18932.37
686.443	18849.66
686.79	18803.79
687.138	18812.6
687.485	18869.09
687.832	18749.55
688.18	18706.84
688.527	18608.76
688.874	18713.84
689.221	18600.85
689.568	18623.23
689.915	18429.78
690.262	18459.61
690.609	18451.25
690.956	18288.32
691.303	18236.79
691.65	18222.11
691.997	18236.57
692.344	18037.03
692.69	18083.35
693.037	18146.4
693.383	18001.77
693.73	18010.13
694.077	17951.15
694.423	17861.21
694.769	17830.03
695.116	17832.74
695.462	17739.63
695.808	17667.77
696.155	17745.51
696.501	17528.11
696.847	17514.78
697.193	17524.04
697.539	17331.28
697.885	17312.75
698.231	17293.77
698.577	17223.49
698.923	17264.16
699.269	17109.59
699.614	17038.86
699.96	17029.59
700.306	16959.99
700.651	16841.8
700.997	16797.74
701.342	16752.09
701.688	16736.72
702.033	16602.94
702.379	16647.91
702.724	16664.41
703.069	16574.92
703.415	16328.6
703.76	16298.77
704.105	16414.02
704.45	16302.61
704.795	16260.8
705.14	16230.75
705.485	16198.88
705.83	16182.39
706.175	16123.63
706.52	15988.49
706.865	16008.83
707.209	15955.05
707.554	15930.87
707.899	15845.44
708.243	15818.78
708.588	15772.68
708.932	15739.23
709.277	15731.78
709.621	15657.43
709.966	15599.8
710.31	15636.64
710.654	15474.38
710.998	15460.14
711.342	15429.18
711.687	15433.25
712.031	15320.94
712.375	15335.63
712.719	15304.22
713.063	15232.81
713.407	15294.72
713.75	15209.98
714.094	15165.46
714.438	15038.23
714.782	15050.44
715.125	15039.82
715.469	15063.32
715.812	14947.62
716.156	14932.93
716.499	14934.28
716.843	14998.24
717.186	14831.69
717.53	14931.8
717.873	14894.28
718.216	14736.32
718.559	14783.78
718.902	14682.54
719.246	14847.51
719.589	14668.07
719.932	14599.83
720.275	14680.96
720.617	14666.27
720.96	14677.79
721.303	14577
721.646	14609.77
721.989	14624.01
722.331	14565.93
722.674	14610.68
723.016	14517.8
723.359	14539.94
723.701	14590.11
724.044	14464.92
724.386	14424.01
724.729	14462.43
725.071	14493.84
725.413	14405.03
725.755	14445.26
726.097	14388.53
726.439	14248.42
726.782	14332.26
727.124	14372.04
727.465	14306.95
727.807	14285.49
728.149	14259.5
728.491	14312.6
728.833	14299.27
729.175	14275.77
729.516	14223.34
729.858	14342.43
730.199	14236.9
730.541	14104.02
730.882	14166.62
731.224	14282.77
731.565	14141.99
731.906	14216.34
732.248	14148.99
732.589	14101.76
732.93	14108.09
733.271	14155.09
733.612	14179.5
733.953	14138.15
734.294	14042.55
734.635	14062.21
734.976	14134.98
735.317	14106.96
735.658	14028.09
735.999	14050.92
736.339	14005.27
736.68	14051.14
737.021	14079.39
737.361	14052.72
737.702	14092.72
738.042	14054.31
738.383	14079.62
738.723	14136.34
739.063	14094.08
739.404	14105.83
739.744	14084.59
740.084	14087.3
740.424	14065.38
740.764	14131.82
741.104	14113.51
741.444	14115.09
741.784	14144.7
742.124	14123.68
742.464	14113.97
742.804	14133.17
743.143	14109.22
743.483	14172.72
743.823	14180.4
744.162	14120.74
744.502	14261.76
744.841	14220.63
745.181	14265.83
745.52	14249.33
745.86	14334.3
746.199	14256.11
746.538	14424.92
746.877	14518.47
747.216	14558.93
747.556	14543.78
747.895	14581.07
748.234	14593.27
748.573	14680.73
748.911	14695.19
749.25	14702.2
749.589	14737
749.928	14807.05
750.267	14940.84
750.605	14953.27
750.944	15041.85
751.283	15073.71
751.621	15202.98
751.96	15221.73
752.298	15280.04
752.636	15372.24
752.975	15477.77
753.313	15438
753.651	15606.58
753.989	15666.24
754.327	15741.27
754.666	15773.58
755.004	15990.53
755.342	15998.89
755.679	16187.58
756.017	16252.67
756.355	16259.22
756.693	16425.77
757.031	16611.75
757.368	16592.32
757.706	16669.38
758.044	16786.66
758.381	16896.49
758.719	16946.43
759.056	17009.48
759.394	17166.99
759.731	17225.07
760.068	17357.95
760.405	17409.92
760.743	17506.64
761.08	17621.9
761.417	17682.68
761.754	17706.19
762.091	17863.24
762.428	17959.51
762.765	17954.32
763.102	18178.04
763.438	18117.02
763.775	18211.03
764.112	18248.09
764.449	18460.74
764.785	18524.24
765.122	18444.7
765.458	18634.98
765.795	18639.5
766.131	18718.59
766.467	18641.76
766.804	18763.56
767.14	18783.45
767.476	18891.69
767.812	18916.32
768.148	18978.92
768.485	18968.53
768.821	18891.92
769.157	19031.58
769.492	19069.77
769.828	19127.84
770.164	18971.69
770.5	19156.32
770.836	19112.03
771.171	19193.15
771.507	19194.51
771.842	19132.36
772.178	19128.52
772.513	19068.41
772.849	19126.04
773.184	19196.77
773.519	19132.14
773.855	19086.04
774.19	19069.09
774.525	19089.43
774.86	19062.08
775.195	19115.87
775.53	19081.74
775.865	18999.26
776.2	19031.35
776.535	18810.56
776.87	18858.25
777.205	18908.87
777.539	18844.46
777.874	18875.65
778.209	18691.92
778.543	18724.47
778.878	18709.78
779.212	18716.33
779.547	18625.48
779.881	18753.84
780.215	18517.01
780.55	18628.2
780.884	18508.43
781.218	18517.24
781.552	18510.46
781.886	18298.49
782.22	18330.8
782.554	18374.87
782.888	18178.94
783.222	18145.5
783.556	18116.12
783.889	18115.22
784.223	17995.9
784.557	17990.47
784.89	18063.24
785.224	18030.92
785.557	17794.77
785.891	17880.87
786.224	17876.58
786.558	17815.56
786.891	17741.44
787.224	17582.57
787.557	17628
787.891	17583.7
788.224	17582.35
788.557	17535.12
788.89	17537.38
789.223	17484.95
789.556	17297.84
789.888	17325.18
790.221	17222.81
790.554	17148.91
790.887	17146.88
791.219	17127.22
791.552	17088.35
791.884	17039.54
792.217	17019.65
792.549	16881.12
792.882	16772.43
793.214	16749.15
793.546	16827.34
793.879	16662.6
794.211	16566.56
794.543	16607.23
794.875	16552.32
795.207	16609.27
795.539	16530.4
795.871	16538.53
796.203	16405.66
796.535	16345.09
796.867	16303.74
797.198	16224.87
797.53	16234.59
797.862	16101.94
798.193	16254.7
798.525	16007.93
798.856	16141.48
799.188	15880.47
799.519	15844.54
799.85	15740.81
800.182	15822.85
800.513	15770.64
800.844	15668.27
801.175	15738.33
801.506	15790.31
801.837	15720.25
802.168	15540.37
802.499	15525.68
802.83	15480.71
803.161	15428.05
803.491	15365.23
803.822	15353.71
804.153	15212.92
804.483	15193.71
804.814	15154.62
805.145	15211.56
805.475	15130.44
805.805	15127.05
806.136	15018.57
806.466	15028.74
806.796	15046.14
807.126	14902.42
807.457	14851.8
807.787	14842.76
808.117	14809.31
808.447	14743.55
808.777	14839.6
809.107	14765.25
809.436	14657.23
809.766	14671.46
810.096	14650.45
810.426	14498.81
810.755	14500.4
811.085	14474.63
811.414	14504.92
811.744	14348.76
812.073	14371.36
812.403	14348.54
812.732	14361.19
813.061	14326.84
813.39	14274.86
813.719	14231.93
814.049	14184.02
814.378	14198.93
814.707	14177.01
815.036	14095.89
815.365	14047.98
815.693	13964.59
816.022	13985.61
816.351	13957.81
816.68	13880.3
817.008	13944.48
817.337	13753.3
817.665	13816.35
817.994	13786.52
818.322	13776.35
818.651	13724.14
818.979	13655.9
819.307	13711.04
819.636	13654.32
819.964	13591.27
820.292	13603.47
820.62	13583.81
820.948	13529.57
821.276	13560.31
821.604	13532.74
821.932	13485.96
822.259	13470.82
822.587	13489.8
822.915	13514.66
823.243	13569.35
823.57	13443.47
823.898	13518.95
824.225	13404.83
824.553	13497.71
824.88	13494.55
825.207	13511.27
825.535	13500.2
825.862	13492.06
826.189	13424.72
826.516	13453.42
826.843	13546.07
827.17	13537.26
827.497	13502.91
827.824	13566.18
828.151	13558.73
828.478	13528.9
828.805	13530.03
829.131	13554.66
829.458	13416.13
829.785	13473.98
830.111	13431.27
830.438	13501.1
830.764	13520.76
831.09	13484.6
831.417	13323.48
831.743	13477.15
832.069	13505.62
832.395	13347.66
832.722	13381.1
833.048	13367.09
833.374	13449.35
833.7	13353.99
834.026	13353.08
834.351	13333.87
834.677	13358.96
835.003	13328.67
835.329	13327.77
835.654	13276.25
835.98	13233.08
836.306	13235.34
836.631	13191.28
836.956	13275.12
837.282	13243.48
837.607	13167.1
837.932	13199.86
838.258	13189.24
838.583	13173.42
838.908	13024.5
839.233	13035.35
839.558	13059.76
839.883	13061.56
840.208	13016.37
840.533	12989.02
840.858	13006.2
841.182	12977.27
841.507	12902.92
841.832	12892.3
842.156	12845.75
842.481	12936.37
842.805	12811.4
843.13	12792.19
843.454	12770.95
843.778	12705.64
844.103	12678.07
844.427	12685.75
844.751	12675.13
845.075	12639.43
845.399	12573.21
845.723	12486.44
846.047	12538.87
846.371	12457.29
846.695	12407.12
847.019	12384.74
847.343	12166.45
847.666	12163.51
847.99	12107.92
848.313	12190.63
848.637	11996.73
848.96	11990.63
849.284	11958.09
849.607	11843.29
849.931	11866.79
850.254	11765.33
850.577	11728.04
850.9	11713.12
851.223	11589.96
851.546	11583.18
851.869	11542.96
852.192	11562.85
852.515	11526.46
852.838	11452.57
853.161	11429.06
853.483	11408.73
853.806	11396.97
854.129	11344.77
854.451	11276.3
854.774	11158.56
855.096	11236.98
855.419	11226.58
855.741	11118.34
856.063	11106.36
856.385	11100.48
856.708	11040.37
857.03	10953.37
857.352	10883.09
857.674	10955.63
857.996	10860.72
858.318	10815.52
858.64	10869.98
858.961	10825.69
859.283	10792.92
859.605	10703.66
859.926	10717.44
860.248	10701.17
860.57	10661.17
860.891	10662.3
861.212	10572.14
861.534	10557
861.855	10532.82
862.176	10562.65
862.498	10538.47
862.819	10572.36
863.14	10528.97
863.461	10496.43
863.782	10516.09
864.103	10420.28
864.424	10367.62
864.745	10381.86
865.065	10361.3
865.386	10308.19
865.707	10281.52
866.027	10336.21
866.348	10272.71
866.668	10243.33
866.989	10244.46
867.309	10204.92
867.63	10191.36
867.95	10149.32
868.27	10114.75
868.59	10103
868.91	10150.45
869.23	10110.91
869.55	10098.7
869.87	10191.13
870.19	10060.96
870.51	10082.43
870.83	10089.89
871.15	10041.08
871.469	9990.68
871.789	10030.46
872.109	9944.36
872.428	9917.24
872.748	9939.16
873.067	9985.49
873.386	9943.45
873.706	9867.52
874.025	9847.86
874.344	9866.85
874.663	9837.47
874.982	9824.59
875.301	9805.15
875.62	9737.81
875.939	9772.16
876.258	9783.01
876.577	9752.27
876.896	9700.52
877.214	9679.51
877.533	9702.78
877.852	9682.9
878.17	9646.74
878.489	9733.97
878.807	9658.71
879.125	9611.48
879.444	9593.63
879.762	9601.09
880.08	9556.8
880.398	9532.39
880.716	9559.28
881.034	9484.26
881.352	9543.46
881.67	9454.43
881.988	9522.67
882.306	9429.12
882.624	9416.91
882.941	9358.84
883.259	9366.07
883.577	9376.91
883.894	9308.89
884.212	9307.31
884.529	9268.22
884.846	9218.73
885.164	9223.92
885.481	9252.17
885.798	9144.83
886.115	9243.13
886.432	9152.97
886.75	9112.29
887.067	9073.19
887.383	9099.18
887.7	9092.4
888.017	9029.13
888.334	9133.08
888.651	8958.85
888.967	8982.8
889.284	8922.69
889.6	8889.7
889.917	8820.32
890.233	8890.37
890.55	8830.71
890.866	8882.69
891.182	8824.61
891.498	8760.66
891.815	8755.24
892.131	8666.65
892.447	8682.92
892.763	8663.03
893.079	8680.66
893.395	8673.88
893.71	8591.85
894.026	8617.16
894.342	8523.15
894.657	8485.19
894.973	8463.72
895.289	8507.33
895.604	8423.95
895.92	8399.54
896.235	8296.94
896.55	8336.94
896.865	8308.69
897.181	8298.3
897.496	8325.42
897.811	8220.33
898.126	8187.57
898.441	8252.42
898.756	8164.74
899.071	8071.41
899.386	8063.05
899.7	8048.59
900.015	8019.66
900.33	8010.62
900.644	7965.65
900.959	7928.59
901.273	7945.31
901.588	7950.51
901.902	7844.53
902.216	7790.97
902.531	7807.46
902.845	7776.05
903.159	7688.15
903.473	7699.44
903.787	7635.49
904.101	7639.11
904.415	7635.72
904.729	7636.62
905.042	7606.57
905.356	7565.66
905.67	7527.47
905.984	7522.5
906.297	7535.15
906.611	7487.25
906.924	7403.86
907.237	7413.58
907.551	7324.31
907.864	7285.44
908.177	7284.09
908.491	7247.93
908.804	7241.38
909.117	7168.84
909.43	7117.76
909.743	7120.93
910.056	7094.71
910.368	7037.99
910.681	7074.15
910.994	6994.38
911.307	7013.13
911.619	6913.02
911.932	7002.74
912.244	6908.28
912.557	6893.59
912.869	6852.24
913.181	6831.67
913.494	6850.88
913.806	6761.62
914.118	6699.02
914.43	6692.92
914.742	6680.49
915.054	6672.13
915.366	6644.78
915.678	6620.15
915.99	6551.68
916.302	6559.36
916.613	6498.57
916.925	6460.83
917.236	6443.43
917.548	6462.87
917.859	6410.66
918.171	6341.51
918.482	6351.68
918.794	6302.87
919.105	6315.75
919.416	6264.68
919.727	6247.96
920.038	6253.15
920.349	6171.8
920.66	6173.16
920.971	6153.72
921.282	6149.2
921.593	6144.23
921.903	6071.46
922.214	6049.77
922.525	6024.01
922.835	5991.47
923.146	5991.24
923.456	5995.31
923.767	5953.28
924.077	5958.47
924.387	5888.64
924.697	5895.42
925.008	5812.04
925.318	5818.59
925.628	5825.6
925.938	5757.57
926.248	5748.31
926.558	5684.58
926.867	5654.3
927.177	5704.02
927.487	5670.12
927.796	5602.1
928.106	5603.45
928.416	5571.82
928.725	5534.3
929.034	5485.04
929.344	5503.12
929.653	5516.68
929.962	5452.27
930.271	5438.26
930.581	5371.82
930.89	5366.4
931.199	5358.49
931.508	5337.25
931.817	5335.89
932.125	5296.57
932.434	5297.25
932.743	5207.76
933.051	5215.44
933.36	5207.08
933.669	5165.27
933.977	5121.66
934.286	5132.05
934.594	5112.39
934.902	5059.97
935.21	5054.09
935.519	5073.3
935.827	5057.93
936.135	5005.96
936.443	4977.93
936.751	4963.7
937.059	4930.7
937.367	4926.18
937.674	4904.72
937.982	4871.95
938.29	4875.11
938.597	4870.14
938.905	4799.86
939.213	4791.95
939.52	4788.33
939.827	4802.35
940.135	4736.36
940.442	4795.79
940.749	4727.32
941.056	4688.68
941.363	4645.74
941.67	4594.44
941.977	4595.8
942.284	4560.09
942.591	4588.57
942.898	4552.86
943.205	4552.63
943.511	4507.66
943.818	4514.44
944.125	4437.61
944.431	4448.46
944.738	4408.01
945.044	4404.39
945.35	4395.58
945.657	4329.59
945.963	4374.11
946.269	4341.57
946.575	4332.75
946.881	4331.62
947.187	4271.74
947.493	4275.13
947.799	4235.58
948.105	4208.69
948.41	4163.49
948.716	4198.97
949.022	4177.28
949.327	4159.88
949.633	4094.79
949.938	4105.41
950.244	4102.48
950.549	4053.21
950.854	4051.63
951.16	4053.21
951.465	4036.72
951.77	4051.63
952.075	4047.79
952.38	4037.62
952.685	3988.58
952.99	3934.12
953.294	3923.5
953.599	3945.19
953.904	3898.41
954.209	3847.79
954.513	3898.87
954.818	3841.47
955.122	3786.55
955.426	3838.08
955.731	3798.08
956.035	3746.33
956.339	3765.54
956.643	3750.85
956.948	3749.94
957.252	3728.7
957.556	3726.44
957.86	3692.54
958.163	3651.64
958.467	3651.87
958.771	3626.11
959.075	3634.24
959.378	3614.58
959.682	3628.59
959.985	3601.93
960.289	3582.72
960.592	3515.83
960.896	3502.94
961.199	3542.27
961.502	3501.81
961.805	3531.42
962.108	3490.74
962.411	3459.33
962.714	3452.1
963.017	3450.06
963.32	3417.07
963.623	3377.07
963.926	3401.25
964.228	3359.9
964.531	3372.1
964.833	3343.4
965.136	3312.89
965.438	3343.63
965.741	3297.75
966.043	3306.79
966.345	3309.96
966.648	3253.01
966.95	3246.68
967.252	3200.13
967.554	3200.81
967.856	3228.6
968.158	3181.82
968.46	3158.32
968.761	3180.92
969.063	3114.48
969.365	3144.99
969.666	3101.83
969.968	3100.24
970.269	3135.72
970.571	3071.09
970.872	3047.82
971.174	3014.14
971.475	3039.45
971.776	3024.54
972.077	3034.48
972.378	2989.74
972.679	2954.26
972.98	2980.92
973.281	2969.85
973.582	2916.97
973.883	2937.31
974.183	2943.86
974.484	2911.55
974.785	2847.14
975.085	2883.98
975.386	2871.1
975.686	2822.96
975.986	2817.76
976.287	2818.89
976.587	2812.34
976.887	2802.4
977.187	2748.84
977.487	2806.24
977.787	2777.77
978.087	2760.14
978.387	2771.66
978.687	2775.51
978.987	2731.21
979.286	2714.26
979.586	2704.32
979.885	2694.6
980.185	2676.75
980.484	2651.89
980.784	2673.59
981.083	2661.16
981.382	2655.96
981.682	2599.47
981.981	2625.68
982.28	2597.66
982.579	2567.38
982.878	2563.31
983.177	2547.49
983.475	2570.77
983.774	2528.73
984.073	2535.29
984.372	2510.88
984.67	2524.67
984.969	2490.99
985.267	2504.33
985.566	2491.67
985.864	2453.71
986.162	2435.4
986.461	2403.09
986.759	2433.37
987.057	2399.02
987.355	2393.82
987.653	2373.48
987.951	2395.86
988.249	2368.29
988.547	2370.77
988.844	2345.23
989.142	2353.82
989.44	2303.65
989.737	2307.72
990.035	2284.9
990.332	2311.56
990.63	2259.36
990.927	2283.09
991.224	2246.71
991.521	2281.06
991.819	2263.2
992.116	2234.05
992.413	2213.04
992.71	2177.78
993.006	2175.3
993.303	2207.84
993.6	2194.05
993.897	2179.59
994.193	2173.71
994.49	2144.56
994.787	2119.48
995.083	2151.79
995.379	2120.61
995.676	2087.61
995.972	2114.96
996.268	2090.33
996.565	2057.11
996.861	2097.78
997.157	2056.43
997.453	2068.18
997.749	2058.46
998.044	2039.25
998.34	2006.71
998.636	1987.73
998.932	1972.14
999.227	1959.71
999.523	1957.9
999.818	1970.33
1000.114	1985.02
1000.409	1930.1
1000.704	1934.62
1001	1918.81
1001.295	1903.21
1001.59	1902.99
1001.885	1937.56
1002.18	1867.28
1002.475	1872.25
1002.77	1866.15
1003.065	1864.57
1003.359	1793.84
1003.654	1793.39
1003.949	1818.47
1004.243	1831.35
1004.538	1786.15
1004.832	1808.3
1005.127	1780.05
1005.421	1772.82
1005.715	1755.42
1006.009	1768.07
1006.304	1708.42
1006.598	1745.48
1006.892	1709.55
1007.186	1675.87
1007.48	1730.34
1007.773	1663.44
1008.067	1697.57
1008.361	1691.92
1008.655	1686.5
1008.948	1668.19
1009.242	1652.82
1009.535	1634.29
1009.829	1625.03
1010.122	1621.19
1010.415	1627.06
1010.708	1607.18
1011.001	1591.81
1011.295	1597.01
1011.588	1616.44
1011.881	1578.93
1012.173	1575.09
1012.466	1502.55
1012.759	1568.08
1013.052	1535.76
1013.344	1531.92
1013.637	1509.55
1013.93	1511.13
1014.222	1480.62
1014.514	1503.68
1014.807	1479.72
1015.099	1450.8
1015.391	1439.95
1015.683	1449.21
1015.976	1458.25
1016.268	1422.55
1016.56	1394.75
1016.851	1407.41
1017.143	1401.3
1017.435	1371.25
1017.727	1353.4
1018.018	1404.92
1018.31	1382.77
1018.602	1375.54
1018.893	1364.02
1019.185	1335.54
1019.476	1355.43
1019.767	1358.59
1020.058	1311.82
1020.35	1305.04
1020.641	1297.35
1020.932	1292.16
1021.223	1304.13
1021.514	1286.73
1021.804	1303.45
1022.095	1263
1022.386	1264.36
1022.677	1274.3
1022.967	1242.21
1023.258	1230.91
1023.548	1223.46
1023.839	1220.29
1024.129	1233.63
1024.419	1227.98
1024.709	1199.28
1025	1205.38
1025.29	1189.79
1025.58	1151.37
1025.87	1154.08
1026.16	1160.18
1026.449	1160.86
1026.739	1148.66
1027.029	1133.74
1027.319	1117.47
1027.608	1127.64
1027.898	1106.17
1028.187	1110.01
1028.477	1108.21
1028.766	1098.04
1029.055	1091.71
1029.344	1082.9
1029.634	1084.7
1029.923	1067.75
1030.212	1046.51
1030.501	1065.27
1030.79	1043.12
1031.078	1032.5
1031.367	1038.38
1031.656	1022.56
1031.945	986.63
1032.233	990.92
1032.522	1022.11
1032.81	1010.13
1033.099	997.93
1033.387	994.54
1033.675	978.49
1033.963	997.25
1034.251	980.3
1034.54	999.51
1034.828	960.41
1035.116	972.16
1035.403	943.92
1035.691	940.07
1035.979	916.8
1036.267	951.37
1036.554	920.87
1036.842	927.42
1037.129	908.66
1037.417	900.75
1037.704	917.25
1037.992	926.74
1038.279	863.92
1038.566	879.51
1038.853	879.51
1039.14	879.51
