Data from hue_38_FLMS001491_00059.txt Node
Date: Tue Feb 07 17:31:42 GMT 2017
User: dcchb
Spectrometer: FLMS00149
Trigger mode: 0
Integration Time (sec): 2.000000E-2
Scans to average: 10
Electric dark correction enabled: true
Nonlinearity correction enabled: false
Boxcar width: 0
XAxis mode: Wavelengths
Number of Pixels in Spectrum: 2048
>>>>>Begin Spectral Data<<<<<
341.393	-11.84
341.776	-11.84
342.16	-11.84
342.543	-63.36
342.927	-53.42
343.31	-76.47
343.693	-79.18
344.077	-53.64
344.46	-55.22
344.843	-56.13
345.226	-67.65
345.61	-52.06
345.993	-16.13
346.376	-14.77
346.759	36.52
347.142	26.13
347.525	42.63
347.908	64.77
348.291	82.4
348.674	99.35
349.057	119.46
349.44	135.05
349.823	149.29
350.206	161.49
350.588	172.34
350.971	215.05
351.354	216.18
351.737	265.9
352.119	254.37
352.502	269.06
352.884	291.88
353.267	302.73
353.65	312.22
354.032	322.17
354.414	304.77
354.797	324.88
355.179	323.52
355.562	341.38
355.944	334.82
356.326	313.81
356.709	336.4
357.091	314.26
357.473	349.74
357.855	340.47
358.238	354.03
358.62	318.55
359.002	359
359.384	348.61
359.766	362.39
360.148	341.6
360.53	350.64
360.912	336.63
361.294	336.86
361.676	342.96
362.057	341.83
362.439	352
362.821	340.47
363.203	336.18
363.584	332.56
363.966	321.26
364.348	308.16
364.729	307.93
365.111	322.17
365.493	317.42
365.874	289.85
366.256	310.87
366.637	319.45
367.019	304.99
367.4	322.62
367.781	302.28
368.163	338.44
368.544	327.82
368.925	311.55
369.306	321.71
369.688	324.2
370.069	315.39
370.45	329.17
370.831	309.74
371.212	336.4
371.593	310.64
371.974	292.34
372.355	294.82
372.736	333.47
373.117	314.26
373.498	339.79
373.879	323.3
374.26	334.82
374.641	311.77
375.021	305.67
375.402	318.32
375.783	319
376.163	333.92
376.544	345.22
376.925	331.43
377.305	346.35
377.686	334.82
378.066	324.88
378.447	325.56
378.827	355.84
379.208	333.92
379.588	325.56
379.968	331.21
380.349	317.42
380.729	332.56
381.109	337.76
381.489	342.73
381.87	354.48
382.25	345.44
382.63	351.77
383.01	342.51
383.39	344.31
383.77	335.05
384.15	329.4
384.53	375.72
384.91	336.86
385.29	344.54
385.67	352.67
386.049	342.51
386.429	356.74
386.809	363.75
387.189	349.96
387.568	339.79
387.948	348.38
388.328	353.13
388.707	372.11
389.087	364.43
389.466	371.2
389.846	352
390.225	380.7
390.605	384.54
390.984	351.09
391.363	368.49
391.743	372.11
392.122	395.84
392.501	375.5
392.881	403.75
393.26	400.36
393.639	391.54
394.018	372.79
394.397	384.76
394.776	373.24
395.155	396.97
395.534	376.18
395.913	365.78
396.292	380.92
396.671	394.93
397.05	400.13
397.429	383.86
397.808	409.4
398.186	400.13
398.565	398.1
398.944	408.27
399.323	391.32
399.701	389.06
400.08	413.69
400.458	413.92
400.837	409.17
401.215	422.5
401.594	408.49
401.972	425.89
402.351	412.79
402.729	419.11
403.107	419.57
403.486	417.31
403.864	403.07
404.242	417.31
404.62	441.26
404.999	434.03
405.377	419.34
405.755	432.22
406.133	430.19
406.511	444.2
406.889	425.89
407.267	436.29
407.645	440.81
408.023	443.29
408.401	460.92
408.779	444.65
409.156	453.01
409.534	444.88
409.912	462.73
410.29	460.92
410.667	458.43
411.045	468.38
411.422	482.61
411.8	482.16
412.178	476.51
412.555	511.09
412.933	504.31
413.31	467.02
413.687	495.95
414.065	497.98
414.442	527.13
414.819	511.99
415.197	492.11
415.574	484.2
415.951	513.57
416.328	500.02
416.705	508.15
417.082	540.24
417.46	531.2
417.837	524.42
418.214	528.71
418.591	530.3
418.967	523.29
419.344	534.36
419.721	526.91
420.098	527.13
420.475	536.4
420.852	537.3
421.228	540.01
421.605	574.82
421.982	563.74
422.358	552.22
422.735	571.65
423.111	559.22
423.488	603.29
423.864	582.95
424.241	582.72
424.617	589.96
424.994	583.85
425.37	570.75
425.746	615.94
426.123	602.84
426.499	617.53
426.875	618.66
427.251	600.35
427.627	603.52
428.003	617.53
428.379	605.78
428.756	640.12
429.132	629.05
429.507	641.03
429.883	628.15
430.259	645.1
430.635	630.86
431.011	645.32
431.387	669.28
431.763	673.8
432.138	678.32
432.514	687.81
432.89	711.08
433.265	687.35
433.641	707.02
434.016	697.98
434.392	699.56
434.767	724.64
435.143	694.59
435.518	739.56
435.894	731.65
436.269	733.23
436.644	752.89
437.02	745.21
437.395	756.28
437.77	750.18
438.145	767.13
438.52	782.95
438.895	798.76
439.271	797.63
439.646	785.66
440.021	800.35
440.395	786.79
440.77	812.55
441.145	798.31
441.52	820.68
441.895	819.1
442.27	843.73
442.645	808.03
443.019	823.4
443.394	834.47
443.769	859.33
444.143	850.29
444.518	852.55
444.892	849.84
445.267	861.81
445.641	875.82
446.016	850.06
446.39	877.41
446.764	864.53
447.139	878.76
447.513	889.61
447.887	889.84
448.262	887.8
448.636	888.48
449.01	885.09
449.384	914.02
449.758	883.96
450.132	912.66
450.506	915.37
450.88	916.05
451.254	938.87
451.628	953.79
452.002	960.12
452.376	982.26
452.75	979.78
453.123	978.87
453.497	968.7
453.871	1005.76
454.244	1008.48
454.618	1008.02
454.992	1003.73
455.365	1029.72
455.739	1037.18
456.112	1046.22
456.486	1095.03
456.859	1071.3
457.232	1088.93
457.606	1112.2
457.979	1103.62
458.352	1107.23
458.725	1149.26
459.099	1178.64
459.472	1139.77
459.845	1157.85
460.218	1162.14
460.591	1187.68
460.964	1209.15
461.337	1239.88
461.71	1212.99
462.083	1268.36
462.456	1251.63
462.829	1276.72
463.201	1280.56
463.574	1297.96
463.947	1342.48
464.32	1341.35
464.692	1326.21
465.065	1360.56
465.438	1375.92
465.81	1400.56
466.183	1415.7
466.555	1445.98
466.928	1466.09
467.3	1485.53
467.672	1491.85
468.045	1545.19
468.417	1536.82
468.789	1532.98
469.161	1577.5
469.534	1603.04
469.906	1618.86
470.278	1651.4
470.65	1669.02
471.022	1723.71
471.394	1744.95
471.766	1777.27
472.138	1789.92
472.51	1816.14
472.882	1879.87
473.253	1891.84
473.625	1952.18
473.997	2006.87
474.369	2012.97
474.74	1984.5
475.112	2082.12
475.484	2125.74
475.855	2190.37
476.227	2218.61
476.598	2247.31
476.97	2307.2
477.341	2345.84
477.713	2414.99
478.084	2479.4
478.455	2533.86
478.827	2591.49
479.198	2690.47
479.569	2702.67
479.94	2824.47
480.311	2878.71
480.682	2934.75
481.053	3024.92
481.424	3117.35
481.795	3161.41
482.166	3219.72
482.537	3300.17
482.908	3409.77
483.279	3452.25
483.65	3562.53
484.021	3655.19
484.391	3750.78
484.762	3791.91
485.133	3821.96
485.503	3972.01
485.874	4099.69
486.244	4170.2
486.615	4268.73
486.985	4384.66
487.356	4450.87
487.726	4544.65
488.097	4691.09
488.467	4796.85
488.837	4950.52
489.207	5000.69
489.578	5124.3
489.948	5217.18
490.318	5313.67
490.688	5414.69
491.058	5504.63
491.428	5634.34
491.798	5715.7
492.168	5884.05
492.538	5971.06
492.908	6062.81
493.278	6272.29
493.648	6272.07
494.017	6439.07
494.387	6514.32
494.757	6597.48
495.126	6760.64
495.496	6804.71
495.866	6902.11
496.235	7070.46
496.605	7126.73
496.974	7144.13
497.344	7291.47
497.713	7392.04
498.082	7508.42
498.452	7615.31
498.821	7674.97
499.19	7724.46
499.559	7867.05
499.928	8032.7
500.298	8097.1
500.667	8200.38
501.036	8231.11
501.405	8371.22
501.774	8411.45
502.143	8539.13
502.512	8630.42
502.88	8673.13
503.249	8770.98
503.618	8817.54
503.987	8944.76
504.356	9023.63
504.724	9059.34
505.093	9112.67
505.462	9212.33
505.83	9292.33
506.199	9318.09
506.567	9570.06
506.936	9493.45
507.304	9728.92
507.672	9708.13
508.041	9738.64
508.409	9929.82
508.777	9996.26
509.145	10123.04
509.514	10112.87
509.882	10158.29
510.25	10253.43
510.618	10302.7
510.986	10396.93
511.354	10468.34
511.722	10607.55
512.09	10696.13
512.458	10678.5
512.826	10722.35
513.193	10892.96
513.561	10948.55
513.929	10980.19
514.297	11152.84
514.664	11160.07
515.032	11229
515.4	11313.97
515.767	11468.31
516.135	11419.05
516.502	11396.9
516.869	11623.79
517.237	11686.61
517.604	11662.43
517.972	11816.33
518.339	11815.42
518.706	11870.79
519.073	11933.16
519.44	11985.36
519.808	12122.76
520.175	12200.72
520.542	12246.82
520.909	12411.34
521.276	12371.79
521.643	12515.07
522.009	12628.06
522.376	12628.74
522.743	12671.67
523.11	12827.37
523.477	12981.49
523.843	12983.08
524.21	13152.79
524.577	13206.57
524.943	13302.62
525.31	13302.16
525.676	13469.17
526.043	13474.36
526.409	13601.37
526.776	13747.8
527.142	13802.72
527.508	13800.68
527.874	13913.9
528.241	14049.26
528.607	13997.97
528.973	14223.04
529.339	14206.77
529.705	14297.62
530.071	14446.77
530.437	14503.26
530.803	14584.16
531.169	14641.34
531.535	14686.31
531.901	14735.35
532.267	14734.9
532.632	14900.77
532.998	14956.36
533.364	15044.27
533.73	15048.56
534.095	15146.64
534.461	15361.77
534.826	15351.15
535.192	15376.01
535.557	15514.08
535.923	15430.24
536.288	15594.76
536.653	15764.7
537.019	15620.3
537.384	15731.25
537.749	15758.6
538.114	15837.24
538.479	15949.33
538.845	16028.42
539.21	15997.46
539.575	16078.59
539.94	16105.03
540.305	16168.08
540.67	16233.84
541.034	16376.43
541.399	16387.51
541.764	16479.48
542.129	16495.75
542.494	16580.5
542.858	16643.77
543.223	16638.8
543.587	16816.2
543.952	16724.9
544.316	16834.27
544.681	16935.74
545.045	16953.37
545.41	17037.21
545.774	17033.82
546.138	17192.23
546.503	17178.9
546.867	17274.04
547.231	17423.41
547.595	17466.12
547.959	17520.13
548.324	17469.06
548.688	17549.51
549.052	17597.87
549.416	17657.08
549.779	17714.93
550.143	17765.78
550.507	17901.82
550.871	17869.05
551.235	17908.37
551.599	18069.27
551.962	18067.01
552.326	18120.79
552.689	18245.09
553.053	18227.91
553.417	18303.61
553.78	18578.86
554.143	18466.1
554.507	18522.14
554.87	18688.01
555.234	18800.1
555.597	18741.34
555.96	18740.44
556.323	18886.2
556.686	18839.87
557.05	18965.74
557.413	18874.45
557.776	19127.55
558.139	19209.58
558.502	19243.48
558.865	19264.04
559.228	19338.84
559.59	19373.64
559.953	19480.53
560.316	19646.4
560.679	19635.11
561.041	19859.28
561.404	19948.54
561.767	20030.35
562.129	19858.83
562.492	20120.29
562.854	20036.22
563.217	20112.83
563.579	20142.21
563.941	20260.17
564.304	20381.98
564.666	20454.52
565.028	20480.51
565.39	20587.4
565.753	20661.29
566.115	20780.16
566.477	20828.07
566.839	21008.18
567.201	21069.64
567.563	20992.81
567.925	21174.5
568.287	21242.52
568.648	21346.47
569.01	21416.3
569.372	21588.73
569.734	21610.42
570.095	21611.55
570.457	21810.42
570.819	21885.89
571.18	21793.69
571.542	22008.15
571.903	22063.29
572.265	22184.42
572.626	22278.65
572.987	22300.12
573.349	22483.17
573.71	22480.45
574.071	22600.9
574.432	22728.13
574.794	22840.22
575.155	22921.12
575.516	22947.79
575.877	23130.61
576.238	23249.25
576.599	23397.49
576.96	23436.14
577.32	23517.94
577.681	23725.39
578.042	23807.2
578.403	23901.89
578.763	24024.82
579.124	24161.54
579.485	24456.9
579.845	24571.25
580.206	24644.01
580.566	24753.39
580.927	25001.29
581.287	25254.84
581.648	25260.04
582.008	25559.7
582.368	25618.68
582.728	25755.17
583.089	25900.03
583.449	26166.46
583.809	26283.29
584.169	26531.65
584.529	26625.2
584.889	27066.32
585.249	26973.44
585.609	27308.35
585.969	27571.62
586.329	27613.88
586.688	27980.42
587.048	28094.09
587.408	28344.93
587.768	28617.47
588.127	28734.75
588.487	28910.79
588.846	29224.23
589.206	29328.18
589.565	29578.8
589.925	29941.95
590.284	30012.69
590.643	30261.04
591.003	30561.82
591.362	30793.23
591.721	30948.03
592.08	31112.54
592.44	31457.62
592.799	31615.58
593.158	31730.83
593.517	31990.71
593.876	32166.3
594.235	32236.36
594.593	32594.31
594.952	32913.85
595.311	33001.76
595.67	33212.83
596.029	33564.46
596.387	33881.96
596.746	34148.85
597.104	34139.13
597.463	34266.58
597.822	34649.85
598.18	34742.73
598.538	34982.72
598.897	35359.21
599.255	35170.52
599.613	35904.96
599.972	35789.03
600.33	36039.19
600.688	36011.17
601.046	36478.96
601.404	36759.85
601.762	36707.42
602.12	37004.37
602.478	37236.68
602.836	37371.14
603.194	37333.85
603.552	37600.06
603.91	37523.22
604.268	37853.61
604.625	37851.12
604.983	38287.04
605.341	38224.9
605.698	38500.82
606.056	38630.54
606.413	38710.99
606.771	38947.37
607.128	39145.78
607.485	39206.34
607.843	39290.18
608.2	39606.11
608.557	39764.75
608.914	39797.51
609.272	40084.96
609.629	40264.39
609.986	40503.48
610.343	40218.07
610.7	40715.45
611.057	40812.4
611.414	40813.76
611.771	40971.72
612.127	41308.66
612.484	41364.48
612.841	41544.13
613.198	41420.97
613.554	41565.6
613.911	41852.83
614.267	41870.68
614.624	41857.8
614.98	42142.54
615.337	42310.22
615.693	42299.14
616.05	42251.69
616.406	42755.18
616.762	42530.55
617.118	42695.52
617.475	42676.99
617.831	42892.35
618.187	42965.79
618.543	43092.57
618.899	43410.07
619.255	43272.9
619.611	43203.3
619.967	43616.4
620.323	43608.49
620.678	43422.28
621.034	43454.82
621.39	43550.41
621.746	43618.2
622.101	44124.86
622.457	43756.73
622.812	44042.6
623.168	44187.91
623.523	44133.22
623.879	44278.75
624.234	44155.36
624.589	44327.79
624.945	44220.22
625.3	44492.3
625.655	44248.02
626.01	44484.62
626.365	44513.77
626.72	44483.94
627.075	44560.33
627.43	44649.59
627.785	44494.34
628.14	44641.23
628.495	44735.69
628.85	44771.39
629.205	44594.67
629.559	44847.78
629.914	44689.59
630.269	44724.84
630.623	44633.32
630.978	44462.25
631.332	44774.33
631.687	44834.67
632.041	44655.01
632.396	44746.54
632.75	44725.74
633.104	44902.46
633.459	44530.04
633.813	44651.85
634.167	44636.26
634.521	44701.56
634.875	44751.96
635.229	44763.71
635.583	44533.89
635.937	44620.66
636.291	44520.55
636.645	44705.63
636.999	44589.03
637.352	44685.29
637.706	44501.34
638.06	44691.62
638.413	44408.47
638.767	44495.02
639.121	44547.67
639.474	44347
639.828	44430.16
640.181	44575.69
640.534	44518.07
640.888	44311.29
641.241	44165.53
641.594	44309.48
641.947	44375.25
642.301	44283.72
642.654	44172.54
643.007	44415.92
643.36	44235.14
643.713	44200.56
644.066	44373.44
644.419	44136.61
644.771	43867.69
645.124	43511.77
645.477	43346.57
645.83	43152.23
646.182	43063.87
646.535	43032.46
646.888	43139.35
647.24	42830.88
647.593	43218.89
647.945	43002.17
648.298	42879.92
648.65	42754.5
649.002	42655.74
649.355	42853.7
649.707	42825.23
650.059	43153.81
650.411	43523.29
650.763	43527.36
651.115	43847.58
651.467	43798.09
651.819	43738.88
652.171	43653.46
652.523	43501.37
652.875	43608.94
653.227	43496.62
653.578	43761.02
653.93	43655.72
654.282	43418.43
654.633	43406.01
654.985	43468.83
655.337	43363.07
655.688	43523.97
656.039	43625.21
656.391	43305.22
656.742	43406.91
657.094	43404.88
657.445	43466.12
657.796	43384.09
658.147	43296.18
658.498	43311.54
658.849	43443.29
659.2	43310.87
659.551	43165.79
659.902	43388.38
660.253	43260.02
660.604	43421.37
660.955	42932.57
661.306	43254.6
661.656	43232
662.007	43237.2
662.358	43180.02
662.708	43320.58
663.059	43080.14
663.409	43116.52
663.76	43158.1
664.11	43116.97
664.461	43143.64
664.811	43062.96
665.161	43036.98
665.511	43177.31
665.862	43123.53
666.212	43168.95
666.562	43224.09
666.912	43062.96
667.262	43033.13
667.612	43173.7
667.962	43208.95
668.312	42946.36
668.662	43315.16
669.011	43128.72
669.361	43086.69
669.711	42947.94
670.06	43096.18
670.41	42804.67
670.76	42940.03
671.109	43115.39
671.459	42928.73
671.808	42815.74
672.157	42937.09
672.507	42680.15
672.856	42876.53
673.205	42814.38
673.554	42947.49
673.904	42790.2
674.253	43036.75
674.602	42782.07
674.951	42231.35
675.3	42169.43
675.649	42612.58
675.998	42634.73
676.346	42737.32
676.695	42808.51
677.044	42390.44
677.393	42638.12
677.741	42704.78
678.09	42631.11
678.438	42443.77
678.787	42647.16
679.135	42538.68
679.484	42348.18
679.832	42512.02
680.181	42281.74
680.529	42360.61
680.877	42268.86
681.225	42176.21
681.573	42462.98
681.922	42117.23
682.27	42097.79
682.618	42001.3
682.966	41822.09
683.314	42137.56
683.661	41891.47
684.009	41672.72
684.357	41556.11
684.705	41545.26
685.053	41450.8
685.4	41545.72
685.748	41355.44
686.095	41325.83
686.443	41163.35
686.79	41150.7
687.138	41290.35
687.485	41200.19
687.832	41035.45
688.18	41132.17
688.527	40919.97
688.874	40853.3
689.221	40760.65
689.568	40739.41
689.915	40620.99
690.262	40731.73
690.609	40626.64
690.956	40443.6
691.303	40255.58
691.65	40135.13
691.997	40185.3
692.344	39905.76
692.69	39815.37
693.037	39919.77
693.383	39541.93
693.73	39857.62
694.077	39534.24
694.423	39486.79
694.769	39402.5
695.116	39295.38
695.462	39364.3
695.808	39162.28
696.155	39349.39
696.501	38835.5
696.847	38968.83
697.193	38730.87
697.539	38873.92
697.885	38614.04
698.231	38543.31
698.577	38675.28
698.923	38404.1
699.269	38340.38
699.614	38148.29
699.96	37923.89
700.306	38144.22
700.651	37958.92
700.997	37834.4
701.342	37721.18
701.688	37679.38
702.033	37499.95
702.379	37486.39
702.724	37322.55
703.069	37554.63
703.415	36998.04
703.76	37136.79
704.105	37093.18
704.45	36932.28
704.795	36744.03
705.14	36712.62
705.485	36673.75
705.83	36431.05
706.175	36612.06
706.52	36559.18
706.865	36384.5
707.209	36274.22
707.554	36033.09
707.899	36273.31
708.243	36096.59
708.588	36025.18
708.932	35742.25
709.277	35719.88
709.621	35828.58
709.966	35671.07
710.31	35692.76
710.654	35426.78
710.998	35447.34
711.342	35407.35
711.687	35244.19
712.031	35075.38
712.375	35062.5
712.719	35062.5
713.063	34971.2
713.407	35177.52
713.75	34909.05
714.094	34947.02
714.438	34654.37
714.782	34650.08
715.125	34554.03
715.469	34688.27
715.812	34386.81
716.156	34275.4
716.499	34397.65
716.843	34326.92
717.186	34105.69
717.53	34220.26
717.873	34210.99
718.216	34158.11
718.559	33912.24
718.902	33823.88
719.246	33896.43
719.589	33809.65
719.932	33590.44
720.275	33685.81
720.617	33647.62
720.96	33466.83
721.303	33450.56
721.646	33589.77
721.989	33298.7
722.331	33387.51
722.674	33323.11
723.016	33285.37
723.359	33285.14
723.701	33266.61
724.044	33072.94
724.386	32958.82
724.729	33096.67
725.071	33057.35
725.413	32921.31
725.755	32814.42
726.097	32746.4
726.439	32650.13
726.782	32436.58
727.124	32933.29
727.465	32579.17
727.807	32526.97
728.149	32502.34
728.491	32389.35
728.833	32560.19
729.175	32269.8
729.516	32299.63
729.858	32178.73
730.199	32180.31
730.541	32140.77
730.882	32222.12
731.224	32238.16
731.565	31961.11
731.906	31877.04
732.248	31845.86
732.589	31771.51
732.93	31704.39
733.271	31710.95
733.612	31787.1
733.953	31830.04
734.294	31643.83
734.635	31677.95
734.976	31651.96
735.317	31611.29
735.658	31425.3
735.999	31496.49
736.339	31285.65
736.68	31484.51
737.021	31268.02
737.361	31126.78
737.702	31268.7
738.042	31144.63
738.383	31080.68
738.723	31058.99
739.063	31038.42
739.404	31171.75
739.744	30895.37
740.084	30797.98
740.424	30881.36
740.764	30801.14
741.104	30807.47
741.444	30620.58
741.784	30579.68
742.124	30684.98
742.464	30616.06
742.804	30435.73
743.143	30485.89
743.483	30513.46
743.823	30456.29
744.162	30269.4
744.502	30432.79
744.841	30238.44
745.181	30459.91
745.52	30239.57
745.86	30247.26
746.199	30163.64
746.538	30173.13
746.877	30177.88
747.216	30089.52
747.556	30047.94
747.895	30018.33
748.234	29849.3
748.573	29819.24
748.911	29847.27
749.25	29870.77
749.589	29800.26
749.928	29811.11
750.267	29703.77
750.605	29550.1
750.944	29475.75
751.283	29480.04
751.621	29491.57
751.96	29340.84
752.298	29432.36
752.636	29362.98
752.975	29221.52
753.313	29075.08
753.651	29183.55
753.989	28908.53
754.327	29097.23
754.666	28914.86
755.004	28941.08
755.342	28968.65
755.679	28789.89
756.017	28688.43
756.355	28795.77
756.693	28543.57
757.031	28691.14
757.368	28524.81
757.706	28389.9
758.044	28468.09
758.381	28438.94
758.719	28241.88
759.056	28273.75
759.394	28151.72
759.731	27889.58
760.068	28128.22
760.405	27856.36
760.743	27626.08
761.08	27884.83
761.417	27669.47
761.754	27590.6
762.091	27608
762.428	27463.6
762.765	27357.61
763.102	27423.15
763.438	27342.47
763.775	27125.76
764.112	27232.65
764.449	27177.96
764.785	26972.09
765.122	26942.03
765.458	26800.79
765.795	26687.58
766.131	26635.83
766.467	26489.16
766.804	26482.16
767.14	26297.3
767.476	26329.62
767.812	26276.51
768.148	26301.6
768.485	26012.56
768.821	25902.29
769.157	25893.7
769.492	25872.46
769.828	25779.8
770.164	25472.92
770.5	25466.82
770.836	25412.58
771.171	25342.53
771.507	25236.09
771.842	25109.76
772.178	25210.1
772.513	25027.05
772.849	24934.63
773.184	24840.62
773.519	24873.61
773.855	24650.79
774.19	24660.28
774.525	24396.11
774.86	24475.2
775.195	24487.41
775.53	24310.01
775.865	24270.24
776.2	24055.33
776.535	23968.32
776.87	23950.92
777.205	23838.84
777.539	23686.52
777.874	23713.87
778.209	23633.42
778.543	23482.46
778.878	23325.18
779.212	23294.67
779.547	23284.27
779.881	23265.07
780.215	23071.17
780.55	23158.4
780.884	22902.14
781.218	22815.59
781.552	22924.96
781.886	22661.24
782.22	22643.16
782.554	22649.49
782.888	22333.11
783.222	22254.02
783.556	22200.01
783.889	22091.09
784.223	21939.9
784.557	22005.21
784.89	21906.01
785.224	21766.35
785.557	21720.7
785.891	21636.18
786.224	21559.12
786.558	21500.59
786.891	21424.21
787.224	21273.48
787.557	21189.19
787.891	21148.51
788.224	21141.05
788.557	21080.72
788.89	21055.86
789.223	21090.89
789.556	20905.81
789.888	20847.5
790.221	20830.1
790.554	20581.97
790.887	20714.17
791.219	20496.78
791.552	20547.17
791.884	20350.57
792.217	20376.1
792.549	20286.84
792.882	20135.66
793.214	20015.21
793.546	20044.36
793.879	19985.38
794.211	19904.48
794.543	19911.71
794.875	19897.7
795.207	19800.98
795.539	19664.03
795.871	19645.05
796.203	19542.9
796.535	19547.88
796.867	19339.07
797.198	19379.29
797.53	19276.24
797.862	19121.9
798.193	19170.48
798.525	19083.48
798.856	19066.08
799.188	18882.81
799.519	18935.46
799.85	18736.6
800.182	18819.08
800.513	18740.44
800.844	18586.32
801.175	18692.53
801.506	18592.42
801.837	18571.4
802.168	18349.72
802.499	18379.54
802.83	18357.85
803.161	18310.39
803.491	18304.07
803.822	18271.53
804.153	18157.63
804.483	18022.94
804.814	17875.15
805.145	17948.6
805.475	17918.54
805.805	17775.04
806.136	17836.06
806.466	17775.49
806.796	17790.86
807.126	17604.88
807.457	17607.59
807.787	17731.65
808.117	17405.79
808.447	17376.18
808.777	17469.96
809.107	17278.11
809.436	17308.61
809.766	17315.17
810.096	17194.27
810.426	17198.56
810.755	17175.51
811.085	17070.2
811.414	17079.69
811.744	16891.22
812.073	16836.99
812.403	16860.71
812.732	16714.96
813.061	16851.22
813.39	16662.53
813.719	16585.92
814.049	16746.14
814.378	16667.73
814.707	16567.84
815.036	16597.44
815.365	16463.44
815.693	16354.74
816.022	16313.61
816.351	16302.99
816.68	16244.23
817.008	16264.57
817.337	16068.42
817.665	16049.44
817.994	16075.88
818.322	16041.3
818.651	15959.27
818.979	15867.52
819.307	16007.63
819.636	15968.99
819.964	15836.79
820.292	15851.02
820.62	15930.12
820.948	15786.84
821.276	15782.33
821.604	15808.99
821.932	15816.45
822.259	15731.48
822.587	15822.78
822.915	15703.23
823.243	15690.35
823.57	15661.42
823.898	15754.76
824.225	15637.7
824.553	15608.09
824.88	15679.95
825.207	15771.93
825.535	15613.52
825.862	15748.88
826.189	15687.64
826.516	15784.13
826.843	15749.78
827.17	15693.06
827.497	15781.87
827.824	15792.49
828.151	15734.42
828.478	15729.67
828.805	15756.34
829.131	15680.63
829.458	15709.11
829.785	15603.8
830.111	15635.44
830.438	15696.23
830.764	15718.37
831.09	15644.7
831.417	15606.96
831.743	15592.27
832.069	15631.37
832.395	15592.27
832.722	15612.61
833.048	15574.42
833.374	15594.76
833.7	15491.71
834.026	15507.3
834.351	15569.22
834.677	15503.69
835.003	15576.23
835.329	15488.55
835.654	15513.86
835.98	15418.72
836.306	15411.94
836.631	15362
836.956	15439.28
837.282	15390.7
837.607	15279.29
837.932	15250.81
838.258	15290.59
838.583	15318.61
838.908	15223.02
839.233	15258.05
839.558	15183.02
839.883	15139.4
840.208	15040.42
840.533	15088.11
840.858	15031.61
841.182	15006.75
841.507	15027.99
841.832	14893.31
842.156	14924.49
842.481	14915
842.805	14874.33
843.13	14830.94
843.454	14778.06
843.778	14642.24
844.103	14706.2
844.427	14722.69
844.751	14655.8
845.075	14680.66
845.399	14609.47
845.723	14521.57
846.047	14570.15
846.371	14435.24
846.695	14436.15
847.019	14281.57
847.343	14278.64
847.666	14123.84
847.99	14127.68
848.313	14090.62
848.637	13952.54
848.96	13980.56
849.284	13954.8
849.607	13937.18
849.931	13859.89
850.254	13666.45
850.577	13589.16
850.9	13630.07
851.223	13503.29
851.546	13524.31
851.869	13377.19
852.192	13456.96
852.515	13285.22
852.838	13255.61
853.161	13223.3
853.483	13175.39
853.806	13104.2
854.129	13115.73
854.451	13024.88
854.774	13054.04
855.096	12934.49
855.419	12945.11
855.741	12934.26
856.063	12781.73
856.385	12769.07
856.708	12807.26
857.03	12698.79
857.352	12652.24
857.674	12706.02
857.996	12625.8
858.318	12567.72
858.64	12533.15
858.961	12407.5
859.283	12423.77
859.605	12415.86
859.926	12453.83
860.248	12443.88
860.57	12341.29
860.891	12304.22
861.212	12329.99
861.534	12239.59
861.855	12200.27
862.176	12281.63
862.498	12145.81
862.819	12172.25
863.14	12156.88
863.461	12057.68
863.782	12067.39
864.103	12074.4
864.424	12020.16
864.745	12102.2
865.065	12010.22
865.386	11895.65
865.707	11836.67
866.027	11909.66
866.348	11939.71
866.668	11890
866.989	11814.52
867.309	11819.94
867.63	11815.65
867.95	11779.49
868.27	11692.72
868.59	11790.34
868.91	11624.02
869.23	11668.76
869.55	11539.72
869.87	11705.37
870.19	11675.54
870.51	11721.64
870.83	11646.61
871.15	11569.55
871.469	11587.86
871.789	11569.33
872.109	11621.76
872.428	11427.19
872.748	11539.27
873.067	11494.08
873.386	11453.85
873.706	11434.19
874.025	11394.64
874.344	11384.93
874.663	11417.69
874.982	11415.89
875.301	11293.86
875.62	11354.19
875.939	11299.96
876.258	11267.87
876.577	11184.93
876.896	11298.15
877.214	11139.96
877.533	11223.8
877.852	11184.25
878.17	11158.72
878.489	11194.65
878.807	11152.16
879.125	11112.17
879.444	11100.87
879.762	11017.25
880.08	10986.97
880.398	10910.81
880.716	11041.21
881.034	10932.96
881.352	10992.39
881.67	10989.68
881.988	10946.97
882.306	10912.85
882.624	10845.05
882.941	10789.01
883.259	10860.42
883.577	10786.75
883.894	10781.55
884.212	10753.08
884.529	10706.07
884.846	10669.92
885.164	10658.39
885.481	10639.86
885.798	10570.03
886.115	10558.73
886.432	10603.25
886.75	10563.93
887.067	10660.43
887.383	10469.02
887.7	10495.46
888.017	10441.9
888.334	10556.7
888.651	10403.26
888.967	10295.24
889.284	10355.35
889.6	10327.78
889.917	10274.67
890.233	10259.53
890.55	10202.58
890.866	10231.74
891.182	10201.91
891.498	10193.32
891.815	10113.55
892.131	10146.32
892.447	10088.92
892.763	9964.85
893.079	10007.11
893.395	9952.2
893.71	9910.39
894.026	9911.97
894.342	9908.81
894.657	9833.55
894.973	9807.79
895.289	9782.71
895.604	9858.64
895.92	9663.16
896.235	9660.9
896.55	9688.7
896.865	9637.4
897.181	9554.47
897.496	9624.07
897.811	9554.92
898.126	9438.99
898.441	9439.89
898.756	9449.84
899.071	9373.68
899.386	9393.11
899.7	9275.15
900.015	9305.43
900.33	9240.58
900.644	9199.45
900.959	9173.69
901.273	9150.86
901.588	9193.35
901.902	9086
902.216	9091.2
902.531	9091.88
902.845	9042.84
903.159	8978.44
903.473	8903.18
903.787	8841.26
904.101	8870.87
904.415	8824.99
904.729	8795.84
905.042	8767.37
905.356	8784.99
905.67	8711.78
905.984	8693.25
906.297	8690.08
906.611	8598.79
906.924	8626.13
907.237	8540.48
907.551	8466.81
907.864	8479.47
908.177	8447.83
908.491	8390.88
908.804	8350.43
909.117	8335.06
909.43	8364.67
909.743	8238.12
910.056	8243.99
910.368	8156.31
910.681	8150.66
910.994	8149.31
911.307	8118.12
911.619	8075.86
911.932	8052.58
912.244	8004.45
912.557	7902.98
912.869	7907.96
913.181	7927.84
913.494	7891.23
913.806	7844.91
914.118	7813.04
914.43	7854.62
914.742	7816.43
915.054	7767.39
915.366	7757.45
915.678	7617.12
915.99	7632.03
916.302	7527.85
916.613	7557
916.925	7552.49
917.236	7465.93
917.548	7449.44
917.859	7518.14
918.171	7389.33
918.482	7367.63
918.794	7264.36
919.105	7309.33
919.416	7274.07
919.727	7254.41
920.038	7231.14
920.349	7189.33
920.66	7100.07
920.971	7160.4
921.282	7084.47
921.593	7024.82
921.903	6997.25
922.214	6928.55
922.525	6968.77
922.835	6907.08
923.146	6888.32
923.456	6870.7
923.767	6836.8
924.077	6871.6
924.387	6761.77
924.697	6729.23
925.008	6776.46
925.318	6711.15
925.628	6716.35
925.938	6633.41
926.248	6633.87
926.558	6605.84
926.867	6604.04
927.177	6544.15
927.487	6473.19
927.796	6453.3
928.106	6482.91
928.416	6449.24
928.725	6413.76
929.034	6357.26
929.344	6372.63
929.653	6393.19
929.962	6277.26
930.271	6240.2
930.581	6219.64
930.89	6215.35
931.199	6139.41
931.508	6147.55
931.817	6085.86
932.125	6130.83
932.434	6088.57
932.743	6051.06
933.051	5994.33
933.36	5989.59
933.669	5943.71
933.977	5895.13
934.286	5908.69
934.594	5935.8
934.902	5813.77
935.21	5854.68
935.519	5801.57
935.827	5846.54
936.135	5778.97
936.443	5711.63
936.751	5729.48
937.059	5710.5
937.367	5663.04
937.674	5673.89
937.982	5584.85
938.29	5569.26
938.597	5615.36
938.905	5477.29
939.213	5507.34
939.52	5449.72
939.827	5494.46
940.135	5477.74
940.442	5401.58
940.749	5432.77
941.056	5416.72
941.363	5346.44
941.67	5336.72
941.977	5294.01
942.284	5265.31
942.591	5278.65
942.898	5239.78
943.205	5185.77
943.511	5198.42
943.818	5201.36
944.125	5096.5
944.431	5114.81
944.738	5117.07
945.044	5087.92
945.35	5000.69
945.657	5051.99
945.963	5052.44
946.269	4995.72
946.575	4990.07
946.881	4911.2
947.187	4952.78
947.493	4915.27
947.799	4901.03
948.105	4910.52
948.41	4879.56
948.716	4811.31
949.022	4823.52
949.327	4807.7
949.633	4797.98
949.938	4778.09
950.244	4755.27
950.549	4713.01
950.854	4679.79
951.16	4642.51
951.465	4629.17
951.77	4637.53
952.075	4588.5
952.38	4585.56
952.685	4564.99
952.99	4548.04
953.294	4579.23
953.599	4487.71
953.904	4473.02
954.209	4490.42
954.513	4474.6
954.818	4430.76
955.122	4393.92
955.426	4397.31
955.731	4360.25
956.035	4329.29
956.339	4328.16
956.643	4320.48
956.948	4278.22
957.252	4270.99
957.556	4257.2
957.86	4254.94
958.163	4235.06
958.467	4178.11
958.771	4167.26
959.075	4164.55
959.378	4156.42
959.682	4113.48
959.985	4080.71
960.289	4084.78
960.592	4047.27
960.896	4043.42
961.199	4002.07
961.502	4060.6
961.805	4003.2
962.108	3993.03
962.411	3989.41
962.714	3916.2
963.017	3920.72
963.32	3899.02
963.623	3938.79
963.926	3888.85
964.228	3849.31
964.531	3854.5
964.833	3843.66
965.136	3767.5
965.438	3821.74
965.741	3759.36
966.043	3785.58
966.345	3753.04
966.648	3756.43
966.95	3772.7
967.252	3700.38
967.554	3711.68
967.856	3672.59
968.158	3665.58
968.46	3605.24
968.761	3610.22
969.063	3634.85
969.365	3562.99
969.666	3587.62
969.968	3568.18
970.269	3559.14
970.571	3567.51
970.872	3485.47
971.174	3514.63
971.475	3462.42
971.776	3494.51
972.077	3414.74
972.378	3459.94
972.679	3465.13
972.98	3451.58
973.281	3408.41
973.582	3380.84
973.883	3354.18
974.183	3326.38
974.484	3368.19
974.785	3290.68
975.085	3315.31
975.386	3323.22
975.686	3283.44
975.986	3295.87
976.287	3228.3
976.587	3244.35
976.887	3235.76
977.187	3211.36
977.487	3198.02
977.787	3205.93
978.087	3157.12
978.387	3206.16
978.687	3153.28
978.987	3111.92
979.286	3097.69
979.586	3096.11
979.885	3078.7
980.185	3044.13
980.484	3050
980.784	3018.37
981.083	3051.59
981.382	2995.32
981.682	2997.58
981.981	3026.5
982.28	2967.97
982.579	2972.49
982.878	2958.03
983.177	2943.79
983.475	2923.23
983.774	2920.29
984.073	2899.95
984.372	2900.18
984.67	2860.41
984.969	2851.82
985.267	2853.4
985.566	2851.82
985.864	2793.97
986.162	2798.26
986.461	2760.75
986.759	2795.55
987.057	2757.36
987.355	2716.91
987.653	2767.98
987.951	2730.69
988.249	2718.94
988.547	2711.03
988.844	2696.57
989.142	2664.03
989.44	2656.79
989.737	2649.11
990.035	2638.04
990.332	2633.74
990.63	2608.21
990.927	2592.39
991.224	2600.3
991.521	2592.16
991.819	2562.33
992.116	2585.61
992.413	2563.46
992.71	2536.8
993.006	2490.92
993.303	2503.13
993.6	2506.29
993.897	2477.14
994.193	2460.42
994.49	2474.43
994.787	2446.18
995.083	2417.93
995.379	2373.86
995.676	2420.42
995.972	2360.08
996.268	2384.49
996.565	2379.74
996.861	2379.97
997.157	2346.75
997.453	2339.74
997.749	2319.4
998.044	2295.67
998.34	2283.02
998.636	2311.49
998.932	2245.96
999.227	2230.59
999.523	2236.92
999.818	2238.27
1000.114	2233.75
1000.409	2232.4
1000.704	2223.81
1001	2223.36
1001.295	2192.63
1001.59	2196.47
1001.885	2141.55
1002.18	2152.63
1002.475	2138.62
1002.77	2168.22
1003.065	2110.59
1003.359	2084.38
1003.654	2095
1003.949	2113.08
1004.243	2087.54
1004.538	2069.01
1004.832	2052.52
1005.127	2042.12
1005.421	2023.36
1005.715	2045.06
1006.009	2011.61
1006.304	1975.46
1006.598	1968.68
1006.892	2015.23
1007.186	1956.47
1007.48	1965.51
1007.773	1942.01
1008.067	1901.11
1008.361	1919.86
1008.655	1899.75
1008.948	1905.4
1009.242	1906.76
1009.535	1858.85
1009.829	1852.97
1010.122	1867.44
1010.415	1857.27
1010.708	1863.37
1011.001	1811.62
1011.295	1808.23
1011.588	1776.82
1011.881	1816.82
1012.173	1746.08
1012.466	1773.2
1012.759	1767.1
1013.052	1764.39
1013.344	1737.27
1013.637	1719.19
1013.93	1743.15
1014.222	1714.22
1014.514	1714.9
1014.807	1686.2
1015.099	1704.05
1015.391	1694.11
1015.683	1653.66
1015.976	1670.61
1016.268	1633.32
1016.56	1644.17
1016.851	1613.66
1017.143	1621.12
1017.435	1613.66
1017.727	1611.85
1018.018	1604.17
1018.31	1553.55
1018.602	1553.09
1018.893	1525.3
1019.185	1532.53
1019.476	1511.51
1019.767	1539.54
1020.058	1525.75
1020.35	1501.34
1020.641	1493.21
1020.932	1492.53
1021.223	1476.03
1021.514	1442.36
1021.804	1453.44
1022.095	1451.18
1022.386	1426.32
1022.677	1420.22
1022.967	1425.41
1023.258	1428.13
1023.548	1392.42
1023.839	1402.59
1024.129	1383.83
1024.419	1373.21
1024.709	1361.24
1025	1385.64
1025.29	1325.3
1025.58	1333.89
1025.87	1324.17
1026.16	1345.64
1026.449	1306.55
1026.739	1312.2
1027.029	1265.64
1027.319	1310.39
1027.608	1268.58
1027.898	1284.63
1028.187	1247.11
1028.477	1240.11
1028.766	1257.96
1029.055	1219.54
1029.344	1246.44
1029.634	1228.36
1029.923	1215.02
1030.212	1205.53
1030.501	1190.39
1030.79	1195.14
1031.078	1183.84
1031.367	1159.21
1031.656	1164.18
1031.945	1156.27
1032.233	1144.74
1032.522	1113.11
1032.81	1131.86
1033.099	1103.84
1033.387	1142.48
1033.675	1114.69
1033.963	1097.97
1034.251	1097.29
1034.54	1082.37
1034.828	1087.8
1035.116	1075.59
1035.403	1087.8
1035.691	1054.8
1035.979	1046.44
1036.267	1044.86
1036.554	1031.53
1036.842	1034.46
1037.129	1023.62
1037.417	1031.75
1037.704	1041.7
1037.992	1022.04
1038.279	975.71
1038.566	1020.91
1038.853	1020.91
1039.14	1020.91
