Data from hue_36_FLMS001491_00075.txt Node
Date: Tue Feb 07 17:30:16 GMT 2017
User: dcchb
Spectrometer: FLMS00149
Trigger mode: 0
Integration Time (sec): 2.000000E-2
Scans to average: 10
Electric dark correction enabled: true
Nonlinearity correction enabled: false
Boxcar width: 0
XAxis mode: Wavelengths
Number of Pixels in Spectrum: 2048
>>>>>Begin Spectral Data<<<<<
341.393	-20.61
341.776	-20.61
342.16	-20.61
342.543	-44.11
342.927	-63.09
343.31	-65.13
343.693	-65.35
344.077	-65.58
344.46	-84.11
344.843	-48.18
345.226	-45.46
345.61	-45.24
345.993	-8.63
346.376	0.41
346.759	-4.79
347.142	31.37
347.525	54.65
347.908	42.89
348.291	97.81
348.674	95.55
349.057	109.79
349.44	111.37
349.823	139.61
350.206	161.76
350.588	204.7
350.971	211.25
351.354	226.39
351.737	265.94
352.119	248.31
352.502	275.66
352.884	248.76
353.267	297.58
353.65	293.74
354.032	318.37
354.414	309.55
354.797	306.84
355.179	312.27
355.562	339.38
355.944	320.63
356.326	326.73
356.709	340.97
357.091	338.48
357.473	322.89
357.855	337.35
358.238	332.15
358.62	346.84
359.002	352.49
359.384	361.53
359.766	347.29
360.148	331.25
360.53	325.15
360.912	341.87
361.294	331.47
361.676	342.77
362.057	338.71
362.439	331.02
362.821	340.29
363.203	351.81
363.584	306.39
363.966	340.97
364.348	319.95
364.729	302.55
365.111	333.51
365.493	328.54
365.874	321.31
366.256	334.64
366.637	312.94
367.019	308.42
367.4	309.1
367.781	313.4
368.163	341.42
368.544	320.63
368.925	300.51
369.306	327.86
369.688	313.17
370.069	313.85
370.45	309.33
370.831	334.64
371.212	325.82
371.593	327.86
371.974	344.81
372.355	309.55
372.736	310.91
373.117	301.87
373.498	324.02
373.879	326.95
374.26	312.27
374.641	311.81
375.021	304.13
375.402	347.07
375.783	312.72
376.163	334.19
376.544	332.38
376.925	332.15
377.305	321.31
377.686	333.73
378.066	315.43
378.447	324.47
378.827	352.72
379.208	343.45
379.588	333.06
379.968	320.63
380.349	328.08
380.729	328.31
381.109	347.97
381.489	353.62
381.87	328.31
382.25	344.36
382.63	345.49
383.01	345.49
383.39	331.25
383.77	342.32
384.15	356.33
384.53	357.91
384.91	348.88
385.29	336.45
385.67	332.6
386.049	361.3
386.429	358.14
386.809	345.03
387.189	351.36
387.568	344.58
387.948	350.46
388.328	352.26
388.707	352.72
389.087	365.15
389.466	366.5
389.846	372.83
390.225	368.08
390.605	374.41
390.984	381.19
391.363	369.44
391.743	386.16
392.122	368.99
392.501	376.22
392.881	365.82
393.26	369.67
393.639	370.34
394.018	383
394.397	370.57
394.776	383.45
395.155	371.93
395.534	390.23
395.913	392.04
396.292	393.39
396.671	406.5
397.05	384.81
397.429	370.12
397.808	402.21
398.186	388.2
398.565	394.52
398.944	381.42
399.323	398.14
399.701	397.01
400.08	391.13
400.458	400.17
400.837	398.37
401.215	422.32
401.594	408.53
401.972	391.59
402.351	391.13
402.729	411.47
403.107	395.65
403.486	418.93
403.864	400.4
404.242	411.02
404.62	431.58
404.999	416.44
405.377	413.73
405.755	411.25
406.133	448.76
406.511	415.77
406.889	439.04
407.267	431.36
407.645	444.01
408.023	423
408.401	432.94
408.779	455.09
409.156	454.86
409.534	432.26
409.912	441.53
410.29	440.85
410.667	459.38
411.045	437.91
411.422	459.83
411.8	454.63
412.178	454.63
412.555	447.18
412.933	443.56
413.31	474.07
413.687	492.37
414.065	460.74
414.442	471.36
414.819	471.81
415.197	484.92
415.574	478.59
415.951	483.11
416.328	495.76
416.705	505.26
417.082	480.85
417.46	503.9
417.837	493.05
418.214	509.55
418.591	503.67
418.967	514.97
419.344	513.62
419.721	494.18
420.098	499.38
420.475	501.87
420.852	524.46
421.228	533.73
421.605	504.13
421.982	536.21
422.358	547.97
422.735	551.58
423.111	551.36
423.488	535.54
423.864	539.83
424.241	544.8
424.617	550.23
424.994	585.48
425.37	575.08
425.746	567.4
426.123	573.28
426.499	577.12
426.875	581.19
427.251	577.57
427.627	593.61
428.003	588.19
428.379	593.84
428.756	572.82
429.132	585.48
429.507	576.44
429.883	592.26
430.259	624.35
430.635	605.14
431.011	622.99
431.387	629.09
431.763	620.05
432.138	646.95
432.514	637.68
432.89	622.77
433.265	663.67
433.641	651.47
434.016	663.67
434.392	674.06
434.767	676.1
435.143	654.86
435.518	673.39
435.894	677.45
436.269	688.3
436.644	710.22
437.02	681.75
437.395	707.06
437.77	730.33
438.145	712.93
438.52	717.9
438.895	720.39
439.271	736.44
439.646	718.13
440.021	748.64
440.395	720.62
440.77	726.04
441.145	751.35
441.52	764.46
441.895	752.48
442.27	755.64
442.645	772.14
443.019	750.67
443.394	777.34
443.769	777.34
444.143	777.56
444.518	803.78
444.892	775.98
445.267	774.63
445.641	793.16
446.016	789.54
446.39	769.88
446.764	814.63
447.139	806.04
447.513	810.56
447.887	823.89
448.262	807.17
448.636	846.26
449.01	823.44
449.384	849.43
449.758	829.99
450.132	856.43
450.506	866.83
450.88	855.3
451.254	853.04
451.628	872.93
452.002	872.7
452.376	907.96
452.75	891.69
453.123	900.95
453.497	904.34
453.871	899.82
454.244	925.36
454.618	922.42
454.992	935.07
455.365	948.63
455.739	964.23
456.112	954.51
456.486	952.25
456.859	986.82
457.232	1010.33
457.606	1003.32
457.979	996.77
458.352	1012.13
458.725	1018.69
459.099	1030.21
459.472	1063.43
459.845	1073.38
460.218	1062.08
460.591	1064.79
460.964	1100.95
461.337	1107.27
461.71	1125.13
462.083	1132.36
462.456	1112.47
462.829	1140.49
463.201	1168.51
463.574	1158.35
463.947	1172.36
464.32	1202.41
464.692	1222.75
465.065	1217.78
465.438	1248.29
465.81	1267.04
466.183	1273.37
466.555	1312.24
466.928	1296.87
467.3	1285.57
467.672	1298.45
468.045	1382.75
468.417	1389.75
468.789	1369.64
469.161	1376.42
469.534	1425.68
469.906	1441.73
470.278	1451.67
470.65	1476.53
471.022	1551.78
471.394	1557.66
471.766	1559.24
472.138	1561.95
472.51	1606.02
472.882	1635.62
473.253	1688.95
473.625	1702.51
473.997	1731.66
474.369	1763.75
474.74	1799.68
475.112	1811.21
475.484	1859.57
475.855	1916.29
476.227	1925.56
476.598	2001.71
476.97	2043.75
477.341	2076.06
477.713	2142.73
478.084	2179.34
478.455	2247.13
478.827	2242.16
479.198	2304.98
479.569	2371.87
479.94	2437.18
480.311	2500.68
480.682	2542.49
481.053	2610.28
481.424	2678.53
481.795	2755.59
482.166	2827
482.537	2887.11
482.908	2979.54
483.279	3021.57
483.65	3097.96
484.021	3218.63
484.391	3222.7
484.762	3302.92
485.133	3400.32
485.503	3472.18
485.874	3558.51
486.244	3621.33
486.615	3768.45
486.985	3831.5
487.356	3934.09
487.726	4021.32
488.097	4106.52
488.467	4171.37
488.837	4314.42
489.207	4421.31
489.578	4487.07
489.948	4565.26
490.318	4699.95
490.688	4701.75
491.058	4807.97
491.428	4977.91
491.798	5064.68
492.168	5224.9
492.538	5273.72
492.908	5366.14
493.278	5459.48
493.648	5491.56
494.017	5668.51
494.387	5767.72
494.757	5856.98
495.126	5976.52
495.496	5971.1
495.866	6103.3
496.235	6202.73
496.605	6293.35
496.974	6415.61
497.344	6492.89
497.713	6576.51
498.082	6621.93
498.452	6774.02
498.821	6803.17
499.19	6842.04
499.559	6947.8
499.928	7043.16
500.298	7127.91
500.667	7325.87
501.036	7330.16
501.405	7371.74
501.774	7475.24
502.143	7583.71
502.512	7610.83
502.88	7702.35
503.249	7738.06
503.618	7801.11
503.987	7884.72
504.356	8038.16
504.724	8071.84
505.093	8164.04
505.462	8175.34
505.83	8303.47
506.199	8408.78
506.567	8456.91
506.936	8463.92
507.304	8614.65
507.672	8646.06
508.041	8738.03
508.409	8803.34
508.777	8919.5
509.145	8967.63
509.514	8993.17
509.882	9076.78
510.25	9127.18
510.618	9198.13
510.986	9251.69
511.354	9344.34
511.722	9420.95
512.09	9517
512.458	9508.18
512.826	9582.76
513.193	9726.48
513.561	9647.61
513.929	9771
514.297	9874.95
514.664	9947.04
515.032	10012.12
515.4	10091.9
515.767	10125.34
516.135	10192.23
516.502	10170.99
516.869	10347.03
517.237	10332.12
517.604	10314.49
517.972	10471.32
518.339	10567.14
518.706	10660.47
519.073	10713.12
519.44	10705.21
519.808	10809.39
520.175	10792.22
520.542	10967.8
520.909	11040.8
521.276	11086.67
521.643	11152.66
522.009	11222.71
522.376	11269.72
522.743	11324.41
523.11	11420.67
523.477	11481.01
523.843	11573.44
524.21	11661.12
524.577	11677.16
524.943	11762.81
525.31	11904.73
525.676	11907.44
526.043	12061.79
526.409	12157.6
526.776	12248.68
527.142	12232.63
527.508	12354.44
527.874	12396.92
528.241	12518.27
528.607	12516.92
528.973	12655.22
529.339	12590.36
529.705	12746.97
530.071	12852.95
530.437	12939.96
530.803	13008.66
531.169	13017.69
531.535	13010.69
531.901	13179.05
532.267	13163.68
532.632	13281.64
532.998	13346.27
533.364	13476.89
533.73	13449.1
534.095	13509.66
534.461	13643.89
534.826	13651.8
535.192	13706.04
535.557	13745.58
535.923	13799.59
536.288	13818.13
536.653	14033.49
537.019	13955.3
537.384	13991.45
537.749	14120.49
538.114	14112.13
538.479	14164.56
538.845	14248.4
539.21	14228.28
539.575	14316.42
539.94	14308.96
540.305	14496.53
540.67	14443.87
541.034	14556.64
541.399	14637.09
541.764	14615.17
542.129	14749.4
542.494	14777.42
542.858	14807.7
543.223	14871.43
543.587	14943.07
543.952	14972.9
544.316	15041.14
544.681	15050.64
545.045	15190.07
545.41	15248.82
545.774	15280.01
546.138	15294.7
546.503	15324.53
546.867	15290.63
547.231	15374.69
547.595	15547.35
547.959	15599.32
548.324	15647.46
548.688	15640.9
549.052	15684.74
549.416	15755.7
549.779	15764.29
550.143	15902.36
550.507	16025.75
550.871	15888.58
551.235	15950.05
551.599	16116.6
551.962	16078.18
552.326	16219.19
552.689	16317.95
553.053	16242.69
553.417	16345.74
553.78	16560.43
554.143	16477.72
554.507	16560.43
554.87	16568.11
555.234	16783.92
555.597	16661.44
555.96	16763.13
556.323	16780.99
556.686	16821.44
557.05	17017.59
557.413	17033.18
557.776	17096.23
558.139	17098.72
558.502	17244.7
558.865	17229.56
559.228	17412.83
559.59	17358.37
559.953	17357.24
560.316	17507.29
560.679	17612.15
561.041	17653.5
561.404	17785.48
561.767	17932.14
562.129	17788.64
562.492	18061.18
562.854	17908.87
563.217	18037.45
563.579	18156.77
563.941	18138.24
564.304	18298.69
564.666	18368.51
565.028	18359.93
565.39	18382.53
565.753	18533.48
566.115	18624.55
566.477	18637.89
566.839	18704.32
567.201	18939.8
567.563	18861.38
567.925	19087.37
568.287	19033.36
568.648	19062.96
569.01	19254.14
569.372	19325.55
569.734	19250.3
570.095	19351.99
570.457	19484.42
570.819	19544.75
571.18	19643.28
571.542	19678.99
571.903	19749.95
572.265	19833.79
572.626	19878.31
572.987	19961.01
573.349	20050.96
573.71	20257.73
574.071	20259.31
574.432	20395.58
574.794	20602.58
575.155	20536.37
575.516	20565.29
575.877	20717.6
576.238	20932.97
576.599	20899.07
576.96	21035.11
577.32	21206.63
577.681	21287.08
578.042	21336.35
578.403	21524.82
578.763	21613.4
579.124	21808.2
579.485	21875.99
579.845	22173.61
580.206	22206.38
580.566	22243.21
580.927	22392.82
581.287	22538.12
581.648	22742.41
582.008	23025.11
582.368	23138.78
582.728	23252.45
583.089	23420.13
583.449	23589.85
583.809	23754.36
584.169	23916.16
584.529	24088.36
584.889	24367.68
585.249	24616.71
585.609	24589.14
585.969	25049.24
586.329	25068
586.688	25256.47
587.048	25568.32
587.408	25657.36
587.768	25890.8
588.127	26041.08
588.487	26207.18
588.846	26631.8
589.206	26608.3
589.565	26865.69
589.925	27183.65
590.284	27285.79
590.643	27629.51
591.003	27939.34
591.362	28147.24
591.721	28314.69
592.08	28550.17
592.44	28839.65
592.799	28994.22
593.158	29112.64
593.517	29410.48
593.876	29660.87
594.235	29832.39
594.593	29989.68
594.952	30321.42
595.311	30527.74
595.67	30873.27
596.029	31243.66
596.387	31383.99
596.746	31584.66
597.104	31666.24
597.463	31974.03
597.822	32215.38
598.18	32282.27
598.538	32452.21
598.897	32784.86
599.255	32708.93
599.613	33328.57
599.972	33394.79
600.33	33515.69
600.688	33597.72
601.046	34089
601.404	34344.14
601.762	34377.58
602.12	34709.55
602.478	34768.76
602.836	35054.86
603.194	34958.59
603.552	35280.16
603.91	35239.71
604.268	35578.23
604.625	35691
604.983	36010.08
605.341	35996.75
605.698	36284.2
606.056	36464.31
606.413	36575.49
606.771	36753.12
607.128	36978.65
607.485	37022.94
607.843	37110.85
608.2	37422.02
608.557	37683.03
608.914	37624.96
609.272	37886.65
609.629	38086.19
609.986	38282.57
610.343	38295.45
610.7	38680.52
611.057	38673.07
611.414	38696.34
611.771	38805.49
612.127	39060.85
612.484	39324.8
612.841	39377.91
613.198	39289.09
613.554	39331.8
613.911	39758.69
614.267	39712.36
614.624	39818.57
614.98	40021.28
615.337	40139.69
615.693	40274.15
616.05	40213.36
616.406	40603.18
616.762	40456.3
617.118	40504.43
617.475	40722.73
617.831	40970.86
618.187	40951.2
618.543	40992.1
618.899	41249.72
619.255	41211.76
619.611	41319.55
619.967	41460.34
620.323	41603.38
620.678	41646.32
621.034	41606.77
621.39	41585.76
621.746	41544.63
622.101	42179.64
622.457	41863.04
622.812	41890.61
623.168	42031.85
623.523	42117.04
623.879	42270.26
624.234	42129.92
624.589	42376.92
624.945	42289.24
625.3	42424.15
625.655	42532.17
626.01	42435.45
626.365	42581.21
626.72	42562.23
627.075	42601.78
627.43	42477.94
627.785	42475.9
628.14	42794.76
628.495	42698.72
628.85	42762.45
629.205	42612.4
629.559	42869.56
629.914	42623.92
630.269	42677.25
630.623	42642.9
630.978	42608.33
631.332	42731.72
631.687	42830.24
632.041	42774.65
632.396	42898.94
632.75	42728.1
633.104	42824.82
633.459	42799.28
633.813	42782.56
634.167	42750.02
634.521	42731.04
634.875	42947.75
635.229	42745.5
635.583	42529.69
635.937	42736.24
636.291	42622.11
636.645	42681.55
636.999	42656.92
637.352	42919.28
637.706	42518.16
638.06	42821.88
638.413	42617.14
638.767	42507.77
639.121	42655.11
639.474	42486.07
639.828	42459.63
640.181	42526.07
640.534	42570.82
640.888	42402.68
641.241	42358.62
641.594	42433.64
641.947	42498.28
642.301	42394.55
642.654	42437.71
643.007	42385.51
643.36	42425.96
643.713	42320.43
644.066	42427.99
644.419	42120.21
644.771	41894
645.124	41545.98
645.477	41531.52
645.83	41310.28
646.182	41177.18
646.535	41170.17
646.888	41196.39
647.24	41012.89
647.593	41256.73
647.945	41102.15
648.298	40944.42
648.65	40965.43
649.002	40732.9
649.355	40918.2
649.707	40917.3
650.059	41222.83
650.411	41534.46
650.763	41569.03
651.115	42017.38
651.467	41769.71
651.819	41749.59
652.171	41791.85
652.523	41653.55
652.875	41715.47
653.227	41518.41
653.578	41801.34
653.93	41603.16
654.282	41412.65
654.633	41427.34
654.985	41594.34
655.337	41623.27
655.688	41507.57
656.039	41746.66
656.391	41420.79
656.742	41510.05
657.094	41402.48
657.445	41663.49
657.796	41592.76
658.147	41427.12
658.498	41429.6
658.849	41512.31
659.2	41442.94
659.551	41360.68
659.902	41536.72
660.253	41396.61
660.604	41366.1
660.955	41257.4
661.306	41422.37
661.656	41273.9
662.007	41273.67
662.358	41340.79
662.708	41259.44
663.059	41273.22
663.409	41084.98
663.76	41415.59
664.11	41456.27
664.461	41291.98
664.811	41212.89
665.161	41247.01
665.511	41091.53
665.862	41198.87
666.212	41298.31
666.562	41228.03
666.912	41041.82
667.262	40980.12
667.612	41087.46
667.962	41183.51
668.312	41201.81
668.662	41327.91
669.011	41037.75
669.361	41166.11
669.711	41091.53
670.06	40942.61
670.41	41114.13
670.76	40880.46
671.109	41202.72
671.459	40977.41
671.808	41082.49
672.157	41073
672.507	40795.27
672.856	40761.15
673.205	40986
673.554	40998.88
673.904	40878.88
674.253	41066.22
674.602	41122.04
674.951	40521.15
675.3	40267.6
675.649	40770.41
675.998	40800.69
676.346	40832.1
676.695	40889.73
677.044	40529.29
677.393	40738.1
677.741	40852.67
678.09	40868.71
678.438	40585.78
678.787	40595.05
679.135	40630.75
679.484	40398.67
679.832	40494.03
680.181	40315.96
680.529	40585.33
680.877	40355.96
681.225	40303.08
681.573	40498.78
681.922	40065.34
682.27	40151.67
682.618	40144.44
682.966	40090.43
683.314	40002.75
683.661	40113.25
684.009	39901.06
684.357	39813.37
684.705	39702.87
685.053	39659.71
685.4	39849.53
685.748	39650.67
686.095	39453.16
686.443	39520.95
686.79	39403.22
687.138	39359.15
687.485	39457.45
687.832	39176.78
688.18	39337.45
688.527	39135.2
688.874	39059.72
689.221	39027.18
689.568	38999.38
689.915	38877.35
690.262	38949.67
690.609	38662.44
690.956	38636.23
691.303	38540.19
691.65	38404.6
691.997	38278.5
692.344	38146.53
692.69	38168.22
693.037	38205.28
693.383	37934.33
693.73	38035.79
694.077	37849.58
694.423	37718.29
694.769	37663.83
695.116	37622.92
695.462	37638.97
695.808	37436.04
696.155	37586.54
696.501	37329.37
696.847	37276.72
697.193	37069.27
697.539	37129.38
697.885	36879.89
698.231	36809.39
698.577	36803.96
698.923	36690.29
699.269	36592.89
699.614	36366.01
699.96	36328.72
700.306	36357.19
700.651	36189.97
700.997	36107.48
701.342	35935.51
701.688	36019.12
702.033	35886.25
702.379	35822.52
702.724	35811.9
703.069	35837.21
703.415	35358.35
703.76	35411
704.105	35486.26
704.45	35465.24
704.795	35083.78
705.14	35041.3
705.485	34955.2
705.83	34891.47
706.175	34803.34
706.52	34702.32
706.865	34686.73
707.209	34713.4
707.554	34502.78
707.899	34667.52
708.243	34427.98
708.588	34339.39
708.932	34029.57
709.277	34244.25
709.621	34182.56
709.966	33996.58
710.31	34032.96
710.654	33667.32
710.998	33846.98
711.342	33851.5
711.687	33706.64
712.031	33666.87
712.375	33455.12
712.719	33453.54
713.063	33437.27
713.407	33534.44
713.75	33356.82
714.094	33393.43
714.438	33288.8
714.782	33117.96
715.125	33115.92
715.469	33048.58
715.812	33143.94
716.156	32814.91
716.499	32761.58
716.843	32758.42
717.186	32638.42
717.53	32807.91
717.873	32857.85
718.216	32732.88
718.559	32516.39
718.902	32444.75
719.246	32411.53
719.589	32236.4
719.932	32059.45
720.275	32112.79
720.617	32144.42
720.96	32027.59
721.303	32106.46
721.646	32016.52
721.989	31814.71
722.331	32072.33
722.674	31932.45
723.016	31817.88
723.359	31773.13
723.701	31814.94
724.044	31562.74
724.386	31431.67
724.729	31603.65
725.071	31557.55
725.413	31466.93
725.755	31434.39
726.097	31194.84
726.439	31169.08
726.782	31181.28
727.124	31237.55
727.465	31035.98
727.807	31208.4
728.149	31014.28
728.491	30942.87
728.833	30992.82
729.175	30925.47
729.516	30725.25
729.858	30778.81
730.199	30713.95
730.541	30824.68
730.882	30601.86
731.224	30729.77
731.565	30517.57
731.906	30593.05
732.248	30514.41
732.589	30457.46
732.93	30393.96
733.271	30344.92
733.612	30377.46
733.953	30412.94
734.294	30166.62
734.635	30309.22
734.976	30230.58
735.317	30017.47
735.658	30047.3
735.999	30051.82
736.339	30000.75
736.68	29939.06
737.021	29876.69
737.361	29686.86
737.702	29805.5
738.042	29841.21
738.383	29718.95
738.723	29626.98
739.063	29605.05
739.404	29668.78
739.744	29496.58
740.084	29614.32
740.424	29489.35
740.764	29465.17
741.104	29613.42
741.444	29315.12
741.784	29216.82
742.124	29310.6
742.464	29220.43
742.804	29279.87
743.143	29067.22
743.483	29135.91
743.823	29007.78
744.162	28913.55
744.502	29068.12
744.841	28945.64
745.181	29107.89
745.52	28849.82
745.86	28935.02
746.199	28737.06
746.538	28768.01
746.877	28667.45
747.216	28772.08
747.556	28590.84
747.895	28588.81
748.234	28523.95
748.573	28497.97
748.911	28455.71
749.25	28363.51
749.589	28339.78
749.928	28361.25
750.267	28332.77
750.605	28333.68
750.944	28261.14
751.283	28040.12
751.621	28158.54
751.96	27909.05
752.298	28066.56
752.636	28055.49
752.975	27809.62
753.313	27761.94
753.651	27886.68
753.989	27762.62
754.327	27608.95
754.666	27633.13
755.004	27639.68
755.342	27596.29
755.679	27560.14
756.017	27419.8
756.355	27447.82
756.693	27313.82
757.031	27317.88
757.368	27072.92
757.706	27176.42
758.044	26963.32
758.381	27092.13
758.719	27011.22
759.056	26839.48
759.394	26841.06
759.731	26640.16
760.068	26629.99
760.405	26627.73
760.743	26391.81
761.08	26528.53
761.417	26370.56
761.754	26288.98
762.091	26316.33
762.428	26115.2
762.765	25956.56
763.102	26001.99
763.438	25970.35
763.775	25787.75
764.112	25886.06
764.449	25831.14
764.785	25621.88
765.122	25495.11
765.458	25343.47
765.795	25397.71
766.131	25336.24
766.467	25319.74
766.804	25144.61
767.14	24997.04
767.476	25044.27
767.812	24918.4
768.148	24894.67
768.485	24741.45
768.821	24619.65
769.157	24709.82
769.492	24486.55
769.828	24515.25
770.164	24192.32
770.5	24240.22
770.836	24205.42
771.171	24094.69
771.507	24007.91
771.842	23799.33
772.178	23899.67
772.513	23722.05
772.849	23757.3
773.184	23641.14
773.519	23527.93
773.855	23490.41
774.19	23366.8
774.525	23289.29
774.86	23303.3
775.195	23270.76
775.53	23213.36
775.865	22993.03
776.2	22774.73
776.535	22814.5
776.87	22747.61
777.205	22616.54
777.539	22553.71
777.874	22512.13
778.209	22457.67
778.543	22338.58
778.878	22297.45
779.212	22230.79
779.547	22169.77
779.881	22024.24
780.215	21972.04
780.55	21886.61
780.884	21794.19
781.218	21745.37
781.552	21765.49
781.886	21671.48
782.22	21591.03
782.554	21484.59
782.888	21294.09
783.222	21251.83
783.556	21113.07
783.889	21113.98
784.223	20902.68
784.557	20766.64
784.89	20927.54
785.224	20771.16
785.557	20655.23
785.891	20661.79
786.224	20626.99
786.558	20540.66
786.891	20285.07
787.224	20326.2
787.557	20212.76
787.891	20175.7
788.224	20161.01
788.557	20163.04
788.89	20075.59
789.223	20041.01
789.556	19816.39
789.888	19775.71
790.221	19720.8
790.554	19599.44
790.887	19634.47
791.219	19552.44
791.552	19439.9
791.884	19429.96
792.217	19310.18
792.549	19265.67
792.882	19083.75
793.214	19031.55
793.546	19201.49
793.879	18973.47
794.211	18874.49
794.543	18857.77
794.875	18822.06
795.207	18907.71
795.539	18705.45
795.871	18711.1
796.203	18567.15
796.535	18341.62
796.867	18376.65
797.198	18333.03
797.53	18278.35
797.862	18200.38
798.193	18193.38
798.525	18103.89
798.856	18082.42
799.188	17944.34
799.519	17855.53
799.85	17764.01
800.182	17809.43
800.513	17830.45
800.844	17660.28
801.175	17719.49
801.506	17699.83
801.837	17614.86
802.168	17535.54
802.499	17495.09
802.83	17420.74
803.161	17333.74
803.491	17393.4
803.822	17263.01
804.153	17125.16
804.483	17002.67
804.814	16946.18
805.145	17085.84
805.475	17030.24
805.805	16934.43
806.136	16896.91
806.466	16918.61
806.796	16904.82
807.126	16724.94
807.457	16704.15
807.787	16684.26
808.117	16726.3
808.447	16650.14
808.777	16605.85
809.107	16498.51
809.436	16507.77
809.766	16359.08
810.096	16327.66
810.426	16317.27
810.755	16324.73
811.085	16301.22
811.414	16213.77
811.744	16117.05
812.073	16002.02
812.403	16019.2
812.732	15986.2
813.061	15992.53
813.39	15871.4
813.719	15845.64
814.049	15934.91
814.378	15791.18
814.707	15733.78
815.036	15732.65
815.365	15636.38
815.693	15509.61
816.022	15553.45
816.351	15534.24
816.68	15459.66
817.008	15475.93
817.337	15306.45
817.665	15223.96
817.994	15235.04
818.322	15298.09
818.651	15225.09
818.979	15125.44
819.307	15228.71
819.636	15150.75
819.964	15002.5
820.292	15146
820.62	15107.58
820.948	15026.68
821.276	15059.45
821.604	15099.67
821.932	15059.45
822.259	15045.89
822.587	15028.26
822.915	15001.82
823.243	15029.17
823.57	15037.08
823.898	15023.74
824.225	14914.37
824.553	14909.17
824.88	14989.39
825.207	14985.55
825.535	14951.88
825.862	15043.63
826.189	14904.42
826.516	14997.53
826.843	15005.66
827.17	15015.83
827.497	14989.62
827.824	15035.04
828.151	15044.53
828.478	15058.09
828.805	15000.24
829.131	14927.02
829.458	14945.78
829.785	14940.81
830.111	14927.47
830.438	14954.82
830.764	14864.2
831.09	14899.45
831.417	14807.93
831.743	14912.79
832.069	14958.89
832.395	14796.86
832.722	14889.96
833.048	14812.9
833.374	14801.38
833.7	14822.84
834.026	14785.78
834.351	14818.1
834.677	14748.95
835.003	14785.33
835.329	14795.05
835.654	14734.49
835.98	14677.31
836.306	14682.74
836.631	14673.47
836.956	14659.91
837.282	14692.68
837.607	14521.84
837.932	14581.27
838.258	14548.95
838.583	14545.79
838.908	14399.13
839.233	14466.47
839.558	14433.93
839.883	14362.97
840.208	14280.03
840.533	14327.04
840.858	14304.67
841.182	14405.23
841.507	14315.29
841.832	14182.18
842.156	14209.98
842.481	14254.72
842.805	14175.63
843.13	14112.35
843.454	14103.09
843.778	14040.94
844.103	14056.54
844.427	14030.55
844.751	14002.75
845.075	13986.26
845.399	13871.46
845.723	13830.78
846.047	13869.65
846.371	13722.08
846.695	13760.95
847.019	13639.15
847.343	13571.13
847.666	13478.02
847.99	13419.94
848.313	13430.79
848.637	13350.34
848.96	13363.45
849.284	13279.38
849.607	13176.79
849.931	13177.92
850.254	13022.67
850.577	12959.62
850.9	12881.2
851.223	12877.36
851.546	12852.5
851.869	12799.17
852.192	12771.6
852.515	12656.57
852.838	12667.2
853.161	12698.61
853.483	12570.02
853.806	12537.93
854.129	12485.28
854.451	12399.41
854.774	12476.69
855.096	12409.8
855.419	12347.66
855.741	12347.66
856.063	12281.44
856.385	12213.2
856.708	12140.43
857.03	12033.54
857.352	12126.42
857.674	12036.25
857.996	12009.13
858.318	11857.27
858.64	11909.02
858.961	11868.57
859.283	11833.54
859.605	11801.23
859.926	11851.62
860.248	11794.45
860.57	11762.36
860.891	11771.63
861.212	11657.73
861.534	11623.15
861.855	11593.78
862.176	11630.61
862.498	11658.41
862.819	11593.33
863.14	11542.03
863.461	11539.54
863.782	11572.99
864.103	11536.83
864.424	11426.32
864.745	11490.73
865.065	11429.04
865.386	11337.06
865.707	11293.22
866.027	11419.09
866.348	11374.57
866.668	11363.73
866.989	11307.68
867.309	11223.62
867.63	11228.36
867.95	11282.6
868.27	11112.43
868.59	11202.15
868.91	11121.47
869.23	11132.55
869.55	11160.12
869.87	11161.92
870.19	11129.83
870.51	11066.56
870.83	11103.17
871.15	11079.44
871.469	11055.94
871.789	11018.2
872.109	10964.64
872.428	10926.68
872.748	10919.67
873.067	10901.59
873.386	10909.73
873.706	10928.26
874.025	10927.58
874.344	10835.6
874.663	10892.33
874.982	10791.54
875.301	10775.49
875.62	10756.06
875.939	10723.29
876.258	10670.86
876.577	10675.16
876.896	10643.75
877.214	10670.64
877.533	10673.35
877.852	10702.28
878.17	10637.87
878.489	10617.08
878.807	10633.12
879.125	10643.52
879.444	10549.51
879.762	10576.63
880.08	10491.89
880.398	10500.02
880.716	10513.81
881.034	10469.74
881.352	10529.17
881.67	10440.81
881.988	10421.15
882.306	10374.15
882.624	10431.77
882.941	10303.19
883.259	10291.66
883.577	10344.32
883.894	10274.26
884.212	10240.59
884.529	10170.31
884.846	10213.93
885.164	10156.07
885.481	10141.16
885.798	10097.09
886.115	10059.81
886.432	10090.99
886.75	10003.08
887.067	10043.99
887.383	9998.34
887.7	10064.1
888.017	9946.59
888.334	9965.8
888.651	9941.39
888.967	9947.27
889.284	9807.84
889.6	9830.43
889.917	9735.97
890.233	9793.15
890.55	9745.69
890.866	9727.39
891.182	9642.87
891.498	9678.57
891.815	9602.87
892.131	9703.43
892.447	9563.1
892.763	9529.65
893.079	9474.74
893.395	9452.14
893.71	9427.28
894.026	9374.4
894.342	9359.94
894.657	9339.15
894.973	9339.37
895.289	9372.14
895.604	9304.12
895.92	9217.34
896.235	9182.99
896.55	9241.3
896.865	9213.27
897.181	9182.99
897.496	9121.98
897.811	9061.19
898.126	9060.06
898.441	8990.91
898.756	8991.36
899.071	8964.47
899.386	8950.68
899.7	8856
900.015	8874.53
900.33	8814.64
900.644	8757.24
900.959	8783.23
901.273	8711.82
901.588	8678.37
901.902	8686.73
902.216	8724.47
902.531	8647.41
902.845	8649.45
903.159	8534.87
903.473	8467.76
903.787	8455.55
904.101	8426.18
904.415	8421.21
904.729	8329.23
905.042	8352.51
905.356	8318.16
905.67	8265.95
905.984	8255.56
906.297	8257.59
906.611	8199.06
906.924	8159.52
907.237	8176.24
907.551	8115
907.864	8048.33
908.177	8025.51
908.491	8105.96
908.804	8018.73
909.117	7953.87
909.43	7922.01
909.743	7867.77
910.056	7854.21
910.368	7823.93
910.681	7806.53
910.994	7718.17
911.307	7700.32
911.619	7651.28
911.932	7715.69
912.244	7585.52
912.557	7620.32
912.869	7555.47
913.181	7562.92
913.494	7512.3
913.806	7529.25
914.118	7525.86
914.43	7414.68
914.742	7368.58
915.054	7402.25
915.366	7337.39
915.678	7274.34
915.99	7299.65
916.302	7200.9
916.613	7188.7
916.925	7213.33
917.236	7134.01
917.548	7101.69
917.859	7107.79
918.171	7012.2
918.482	7072.31
918.794	6993.22
919.105	7021.92
919.416	6909.61
919.727	6889.72
920.038	6842.49
920.349	6800.46
920.66	6775.15
920.971	6754.36
921.282	6782.83
921.593	6700.35
921.903	6726.56
922.214	6675.26
922.525	6630.29
922.835	6607.02
923.146	6558.2
923.456	6576.96
923.767	6520.69
924.077	6532.44
924.387	6452.67
924.697	6420.58
925.008	6421.48
925.318	6382.39
925.628	6323.86
925.938	6365.44
926.248	6265.78
926.558	6272.11
926.867	6310.07
927.177	6251.09
927.487	6168.38
927.796	6161.83
928.106	6233.24
928.416	6117.31
928.725	6145.33
929.034	6033.02
929.344	6113.92
929.653	6045.45
929.962	5958.9
930.271	5928.16
930.581	5902.85
930.89	5948.95
931.199	5877.54
931.508	5891.33
931.817	5878.67
932.125	5847.94
932.434	5814.27
932.743	5712.58
933.051	5709.86
933.36	5727.26
933.669	5666.25
933.977	5643.65
934.286	5603.43
934.594	5639.81
934.902	5549.19
935.21	5582.86
935.519	5545.12
935.827	5549.42
936.135	5523.88
936.443	5490.66
936.751	5457.67
937.059	5468.97
937.367	5418.12
937.674	5398.01
937.982	5391.23
938.29	5386.48
938.597	5344
938.905	5294.28
939.213	5261.74
939.52	5230.1
939.827	5247.73
940.135	5230.1
940.442	5224.23
940.749	5186.71
941.056	5129.99
941.363	5109.88
941.67	5051.35
941.977	5086.38
942.284	5012.71
942.591	5048.86
942.898	4976.1
943.205	4976.1
943.511	4974.52
943.818	4962.09
944.125	4970.22
944.431	4902.65
944.738	4924.8
945.044	4833.5
945.35	4872.6
945.657	4819.72
945.963	4828.08
946.269	4782.88
946.575	4804.58
946.881	4741.75
947.187	4711.92
947.493	4715.09
947.799	4656.56
948.105	4679.38
948.41	4656.11
948.716	4626.28
949.022	4611.59
949.327	4603.68
949.633	4586.73
949.938	4527.07
950.244	4547.18
950.549	4485.49
950.854	4496.79
951.16	4467.41
951.465	4436
951.77	4403.91
952.075	4409.79
952.38	4394.87
952.685	4362.1
952.99	4348.32
953.294	4306.74
953.599	4306.06
953.904	4302.44
954.209	4278.94
954.513	4264.25
954.818	4184.93
955.122	4225.38
955.426	4218.38
955.731	4158.72
956.035	4166.4
956.339	4144.48
956.643	4143.35
956.948	4098.61
957.252	4080.53
957.556	4068.78
957.86	4018.84
958.163	4036.46
958.467	3995.78
958.771	4016.12
959.075	4023.13
959.378	3948.33
959.682	3996.91
959.985	3933.64
960.289	3892.51
960.592	3892.74
960.896	3864.26
961.199	3876.01
961.502	3856.81
961.805	3808.67
962.108	3809.12
962.411	3744.27
962.714	3787.88
963.017	3768.45
963.32	3761.89
963.623	3727.09
963.926	3711.5
964.228	3665.62
964.531	3703.82
964.833	3633.76
965.136	3633.76
965.438	3671.5
965.741	3622.91
966.043	3618.62
966.345	3637.38
966.648	3562.58
966.95	3576.81
967.252	3550.6
967.554	3532.52
967.856	3527.1
968.158	3477.83
968.46	3437.38
968.761	3484.84
969.063	3455.91
969.365	3441.9
969.666	3442.35
969.968	3351.06
970.269	3365.29
970.571	3351.96
970.872	3371.85
971.174	3300.21
971.475	3305.86
971.776	3321
972.077	3309.25
972.378	3271.96
972.679	3257.27
972.98	3300.66
973.281	3230.61
973.582	3194
973.883	3241.23
974.183	3187.67
974.484	3196.94
974.785	3172.08
975.085	3204.39
975.386	3151.06
975.686	3113.1
975.986	3123.27
976.287	3132.76
976.587	3082.14
976.887	3065.19
977.187	3060.44
977.487	3047.79
977.787	3064.96
978.087	3010.73
978.387	3038.07
978.687	3033.78
978.987	2939.77
979.286	2967.79
979.586	2954.23
979.885	2962.59
980.185	2928.02
980.484	2901.12
980.784	2891.41
981.083	2886.21
981.382	2915.36
981.682	2884.18
981.981	2873.55
982.28	2859.54
982.579	2810.28
982.878	2800.34
983.177	2780.45
983.475	2786.78
983.774	2782.03
984.073	2739.55
984.372	2739.77
984.67	2781.58
984.969	2740.22
985.267	2719.21
985.566	2705.65
985.864	2721.24
986.162	2664.97
986.461	2661.13
986.759	2665.42
987.057	2631.3
987.355	2631.3
987.653	2625.88
987.951	2580.23
988.249	2580.91
988.547	2596.73
988.844	2560.34
989.142	2604.18
989.44	2537.97
989.737	2570.06
990.035	2522.6
990.332	2513.34
990.63	2489.38
990.927	2486.9
991.224	2473.79
991.521	2433.34
991.819	2455.03
992.116	2456.62
992.413	2382.04
992.71	2404.64
993.006	2433.79
993.303	2404.41
993.6	2385.43
993.897	2349.5
994.193	2390.86
994.49	2365.77
994.787	2342.49
995.083	2305.89
995.379	2352.66
995.676	2286.9
995.972	2324.19
996.268	2330.29
996.565	2292.78
996.861	2276.96
997.157	2263.4
997.453	2231.54
997.749	2253.46
998.044	2212.55
998.34	2183.86
998.636	2200.35
998.932	2212.78
999.227	2174.82
999.523	2180.69
999.818	2156.74
1000.114	2129.62
1000.409	2136.4
1000.704	2104.08
1001	2117.87
1001.295	2111.09
1001.59	2084.2
1001.885	2079.22
1002.18	2060.24
1002.475	2073.12
1002.77	2042.39
1003.065	2024.99
1003.359	1983.18
1003.654	2027.7
1003.949	2003.52
1004.243	1984.76
1004.538	1975.05
1004.832	1955.16
1005.127	1947.48
1005.421	1964.2
1005.715	1963.07
1006.009	1929.4
1006.304	1915.61
1006.598	1894.37
1006.892	1892.56
1007.186	1854.82
1007.48	1894.37
1007.773	1855.5
1008.067	1870.42
1008.361	1810.98
1008.655	1790.65
1008.948	1840.81
1009.242	1822.28
1009.535	1794.94
1009.829	1792.68
1010.122	1785.22
1010.415	1805.56
1010.708	1766.69
1011.001	1768.05
1011.295	1733.47
1011.588	1745
1011.881	1698.67
1012.173	1726.01
1012.466	1709.97
1012.759	1691.66
1013.052	1712.23
1013.344	1656.41
1013.637	1673.13
1013.93	1662.96
1014.222	1647.6
1014.514	1630.65
1014.807	1620.71
1015.099	1601.27
1015.391	1613.02
1015.683	1582.51
1015.976	1590.42
1016.268	1568.73
1016.56	1541.84
1016.851	1529.41
1017.143	1554.72
1017.435	1544.55
1017.727	1532.57
1018.018	1521.5
1018.31	1496.87
1018.602	1500.48
1018.893	1479.24
1019.185	1486.47
1019.476	1479.69
1019.767	1476.98
1020.058	1454.61
1020.35	1446.93
1020.641	1428.62
1020.932	1408.96
1021.223	1406.47
1021.514	1418.23
1021.804	1403.99
1022.095	1384.78
1022.386	1375.51
1022.677	1369.64
1022.967	1364.22
1023.258	1358.79
1023.548	1321.28
1023.839	1319.47
1024.129	1355.18
1024.419	1322.41
1024.709	1314.27
1025	1318.57
1025.29	1265.46
1025.58	1298.23
1025.87	1243.99
1026.16	1258.46
1026.449	1268.17
1026.739	1250.09
1027.029	1266.14
1027.319	1238.57
1027.608	1245.12
1027.898	1214.61
1028.187	1207.84
1028.477	1207.38
1028.766	1211.68
1029.055	1172.58
1029.344	1181.4
1029.634	1164.45
1029.923	1203.32
1030.212	1125.13
1030.501	1145.01
1030.79	1126.26
1031.078	1132.13
1031.367	1104.79
1031.656	1116.54
1031.945	1129.42
1032.233	1109.31
1032.522	1106.82
1032.81	1079.7
1033.099	1058.91
1033.387	1084.45
1033.675	1065.69
1033.963	1085.8
1034.251	1044.68
1034.54	1014.85
1034.828	1057.56
1035.116	1050.33
1035.403	1020.27
1035.691	1024.56
1035.979	1011.91
1036.267	1022.53
1036.554	1002.87
1036.842	999.03
1037.129	994.73
1037.417	987.5
1037.704	982.3
1037.992	979.37
1038.279	962.42
1038.566	956.09
1038.853	956.09
1039.14	956.09
