Data from hue_110_FLMS001491_00046.txt Node
Date: Tue Feb 07 17:01:22 GMT 2017
User: dcchb
Spectrometer: FLMS00149
Trigger mode: 0
Integration Time (sec): 2.000000E-2
Scans to average: 10
Electric dark correction enabled: true
Nonlinearity correction enabled: false
Boxcar width: 0
XAxis mode: Wavelengths
Number of Pixels in Spectrum: 2048
>>>>>Begin Spectral Data<<<<<
341.393	-17.01
341.776	-17.01
342.16	-17.01
342.543	-50.9
342.927	-59.26
343.31	-80.05
343.693	-72.37
344.077	-45.93
344.46	-62.2
344.843	-51.58
345.226	-47.96
345.61	-26.04
345.993	-4.58
346.376	-6.84
346.759	-6.38
347.142	26.84
347.525	41.98
347.908	63.44
348.291	79.72
348.674	82.43
349.057	109.55
349.44	108.87
349.823	149.54
350.206	175.98
350.588	216.43
350.971	190.22
351.354	216.89
351.737	240.39
352.119	243.33
352.502	237.45
352.884	257.79
353.267	283.33
353.65	296.66
354.032	313.16
354.414	307.73
354.797	327.62
355.179	324.23
355.562	349.99
355.944	330.33
356.326	347.28
356.709	340.27
357.091	335.08
357.473	338.92
357.855	340.05
358.238	331.91
358.62	353.83
359.002	362.42
359.384	337.11
359.766	354.96
360.148	320.84
360.53	324.68
360.912	334.17
361.294	349.54
361.676	345.02
362.057	339.37
362.439	353.15
362.821	319.03
363.203	317.9
363.584	318.81
363.966	321.07
364.348	313.16
364.729	315.87
365.111	317.45
365.493	331.46
365.874	307.05
366.256	312.93
366.637	331.23
367.019	328.07
367.4	319.71
367.781	324.68
368.163	331.46
368.544	308.18
368.925	310.22
369.306	329.43
369.688	310.67
370.069	317.68
370.45	335.53
370.831	318.58
371.212	315.64
371.593	324.23
371.974	319.94
372.355	312.93
372.736	312.48
373.117	330.56
373.498	321.29
373.879	314.74
374.26	341.86
374.641	321.29
375.021	335.53
375.402	321.97
375.783	311.8
376.163	327.84
376.544	339.14
376.925	321.07
377.305	324.91
377.686	317.45
378.066	340.05
378.447	341.86
378.827	339.6
379.208	354.96
379.588	333.27
379.968	347.96
380.349	338.92
380.729	349.76
381.109	361.52
381.489	355.41
381.87	369.88
382.25	338.92
382.63	336.21
383.01	366.49
383.39	330.33
383.77	348.41
384.15	355.64
384.53	361.52
384.91	374.62
385.29	340.05
385.67	360.39
386.049	368.3
386.429	354.28
386.809	372.59
387.189	362.42
387.568	369.2
387.948	355.64
388.328	360.84
388.707	343.21
389.087	362.19
389.466	374.17
389.846	378.46
390.225	391.12
390.605	362.42
390.984	416.88
391.363	384.79
391.743	388.18
392.122	395.87
392.501	383.66
392.881	394.06
393.26	399.48
393.639	402.42
394.018	386.6
394.397	388.18
394.776	372.59
395.155	389.54
395.534	410.33
395.913	392.25
396.292	394.28
396.671	411.01
397.05	400.16
397.429	414.62
397.808	395.19
398.186	416.2
398.565	404
398.944	404.9
399.323	429.31
399.701	408.97
400.08	416.2
400.458	439.93
400.837	418.24
401.215	418.01
401.594	418.92
401.972	420.95
402.351	434.06
402.729	427.95
403.107	412.14
403.486	434.51
403.864	455.52
404.242	430.44
404.62	429.99
404.999	455.3
405.377	462.08
405.755	458.24
406.133	457.33
406.511	438.58
406.889	459.37
407.267	454.85
407.645	472.25
408.023	463.21
408.401	446.94
408.779	452.59
409.156	480.16
409.534	485.81
409.912	465.24
410.29	487.16
410.667	462.98
411.045	469.54
411.422	493.26
411.8	491.68
412.178	486.26
412.555	501.85
412.933	515.18
413.31	503.21
413.687	506.14
414.065	499.14
414.442	532.13
414.819	511.12
415.197	538.91
415.574	539.36
415.951	540.72
416.328	567.39
416.705	542.08
417.082	548.4
417.46	566.03
417.837	539.59
418.214	552.7
418.591	560.61
418.967	568.74
419.344	567.39
419.721	577.78
420.098	597.67
420.475	578.91
420.852	589.76
421.228	595.63
421.605	573.71
421.982	573.71
422.358	618.91
422.735	597.89
423.111	613.26
423.488	626.82
423.864	609.64
424.241	619.36
424.617	611.45
424.994	615.07
425.37	625.01
425.746	631.79
426.123	654.16
426.499	636.08
426.875	656.2
427.251	675.41
427.627	643.32
428.003	692.35
428.379	680.6
428.756	682.19
429.132	700.72
429.507	711.56
429.883	719.25
430.259	696.65
430.635	695.74
431.011	721.96
431.387	734.61
431.763	738.23
432.138	742.52
432.514	731.9
432.89	755.63
433.265	746.59
433.641	756.31
434.016	773.71
434.392	769.87
434.767	815.52
435.143	786.82
435.518	788.62
435.894	811.22
436.269	804.44
436.644	817.78
437.02	822.52
437.395	849.41
437.77	855.29
438.145	866.81
438.52	880.37
438.895	866.81
439.271	836.53
439.646	889.41
440.021	898
440.395	877.43
440.77	910.65
441.145	905.91
441.52	901.61
441.895	898.45
442.27	918.34
442.645	929.41
443.019	963.08
443.394	929.18
443.769	944.78
444.143	952.01
444.518	960.82
444.892	992.23
445.267	966.25
445.641	965.12
446.016	962.63
446.39	992.01
446.764	980.48
447.139	989.97
447.513	1008.28
447.887	1027.26
448.262	1006.02
448.636	1035.17
449.01	1041.27
449.384	1041.95
449.758	1051.44
450.132	1062.06
450.506	1077.2
450.88	1043.31
451.254	1091.89
451.628	1103.64
452.002	1104.55
452.376	1110.65
452.75	1123.98
453.123	1123.98
453.497	1168.5
453.871	1158.11
454.244	1164.88
454.618	1170.53
454.992	1190.42
455.365	1181.16
455.739	1239.68
456.112	1248.5
456.486	1256.63
456.859	1253.47
457.232	1291.66
457.606	1297.76
457.979	1330.08
458.352	1330.53
458.725	1312
459.099	1384.31
459.472	1377.08
459.845	1382.73
460.218	1403.52
460.591	1408.49
460.964	1430.41
461.337	1453.92
461.71	1461.15
462.083	1531.88
462.456	1521.03
462.829	1543.63
463.201	1545.44
463.574	1561.03
463.947	1589.96
464.32	1607.36
464.692	1636.06
465.065	1670.18
465.438	1687.81
465.81	1710.18
466.183	1767.81
466.555	1771.2
466.928	1788.6
467.3	1815.04
467.672	1818.65
468.045	1881.25
468.417	1884.41
468.789	1916.96
469.161	1931.42
469.534	1992.43
469.906	2007.35
470.278	2085.09
470.65	2086.89
471.022	2142.49
471.394	2223.16
471.766	2217.06
472.138	2283.95
472.51	2340.22
472.882	2371.86
473.253	2443.04
473.625	2429.71
473.997	2543.15
474.369	2577.95
474.74	2631.06
475.112	2665.86
475.484	2760.77
475.855	2810.72
476.227	2848.68
476.598	2966.42
476.97	2990.83
477.341	3146.98
477.713	3216.58
478.084	3246.86
478.455	3367.99
478.827	3420.87
479.198	3519.4
479.569	3600.98
479.94	3757.13
480.311	3841.2
480.682	3922.55
481.053	4076.9
481.424	4169.78
481.795	4290.45
482.166	4396.66
482.537	4519.37
482.908	4663.55
483.279	4752.13
483.65	4819.48
484.021	5041.84
484.391	5132.69
484.762	5249.52
485.133	5373.59
485.503	5518.44
485.874	5707.59
486.244	5747.81
486.615	5935.15
486.985	6096.96
487.356	6242.04
487.726	6392.77
488.097	6637.51
488.467	6691.74
488.837	6905.3
489.207	7053.54
489.578	7242.69
489.948	7349.35
490.318	7571.5
490.688	7698.5
491.058	7885.61
491.428	8053.29
491.798	8256
492.168	8438.59
492.538	8505.93
492.908	8734.4
493.278	8880.61
493.648	8998.8
494.017	9223.88
494.387	9338.91
494.757	9530.09
495.126	9701.61
495.496	9800.59
495.866	9975.95
496.235	10123.07
496.605	10302.95
496.974	10425.43
497.344	10521.47
497.713	10715.14
498.082	10876.72
498.452	11060.44
498.821	11156.03
499.19	11234.68
499.559	11408.91
499.928	11536.14
500.298	11617.49
500.667	11810.03
501.036	11744.95
501.405	11957.14
501.774	12090.7
502.143	12252.28
502.512	12324.14
502.88	12538.14
503.249	12557.81
503.618	12665.6
503.987	12739.72
504.356	12959.38
504.724	12977.91
505.093	13050.67
505.462	13237.34
505.83	13242.53
506.199	13335.41
506.567	13606.59
506.936	13532.02
507.304	13752.8
507.672	13830.99
508.041	13908.73
508.409	13962.51
508.777	14057.65
509.145	14210.19
509.514	14221.26
509.882	14333.58
510.25	14492.9
510.618	14465.1
510.986	14524.31
511.354	14614.25
511.722	14789.39
512.09	14928.82
512.458	14783.06
512.826	15012.88
513.193	14994.8
513.561	15030.06
513.929	15164.97
514.297	15277.73
514.664	15414.23
515.032	15525.64
515.4	15507.11
515.767	15432.53
516.135	15492.19
516.502	15543.94
516.869	15732.19
517.237	15759.98
517.604	15650.38
517.972	15825.29
518.339	15858.28
518.706	15945.51
519.073	15918.17
519.44	16051.27
519.808	16119.52
520.175	16098.5
520.542	16217.14
520.909	16307.99
521.276	16291.49
521.643	16342.79
522.009	16372.62
522.376	16464.6
522.743	16512.5
523.11	16642.67
523.477	16711.14
523.843	16705.72
524.21	16898.03
524.577	16883.34
524.943	16926.96
525.31	16994.98
525.676	17068.2
526.043	17100.96
526.409	17093.05
526.776	17316.55
527.142	17300.96
527.508	17258.7
527.874	17305.7
528.241	17273.16
528.607	17310.67
528.973	17505.47
529.339	17364.01
529.705	17394.74
530.071	17482.42
530.437	17478.81
530.803	17487.62
531.169	17536.43
531.535	17362.42
531.901	17429.77
532.267	17387.06
532.632	17496.43
532.998	17473.16
533.364	17506.6
533.73	17509.54
534.095	17608.97
534.461	17490.11
534.826	17662.08
535.192	17573.04
535.557	17553.61
535.923	17490.56
536.288	17564.91
536.653	17724.68
537.019	17477.45
537.384	17408.75
537.749	17417.34
538.114	17444.91
538.479	17414.63
538.845	17333.5
539.21	17284.69
539.575	17209.21
539.94	17344.12
540.305	17351.13
540.67	17168.98
541.034	17306.61
541.399	17192.49
541.764	17155.65
542.129	17221.86
542.494	17126.95
542.858	17160.85
543.223	17074.97
543.587	17090.79
543.952	16911.82
544.316	17008.31
544.681	16832.72
545.045	16913.85
545.41	17023
545.774	16960.4
546.138	16733.97
546.503	16851.03
546.867	16775.32
547.231	16856.68
547.595	16717.02
547.959	16716.57
548.324	16638.15
548.688	16630.01
549.052	16658.49
549.416	16595.67
549.779	16495.1
550.143	16450.36
550.507	16598.83
550.871	16418.72
551.235	16398.61
551.599	16372.39
551.962	16366.52
552.326	16364.48
552.689	16409.46
553.053	16305.73
553.417	16298.95
553.78	16393.86
554.143	16244.04
554.507	16238.39
554.87	16320.19
555.234	16298.5
555.597	16151.16
555.96	16095.79
556.323	16242.45
556.686	16119.97
557.05	16201.33
557.413	16084.04
557.776	16175.56
558.139	16147.99
558.502	16135.11
558.865	16085.4
559.228	16136.69
559.59	16172.17
559.953	16100.54
560.316	16190.48
560.679	16242.68
561.041	16318.84
561.404	16212.4
561.767	16269.12
562.129	16172.85
562.492	16322.23
562.854	16186.64
563.217	16203.13
563.579	16175.34
563.941	16233.41
564.304	16333.53
564.666	16366.97
565.028	16271.38
565.39	16284.49
565.753	16278.39
566.115	16398.16
566.477	16433.41
566.839	16422.34
567.201	16443.8
567.563	16359.29
567.925	16360.87
568.287	16466.4
568.648	16465.5
569.01	16476.8
569.372	16590.92
569.734	16428.66
570.095	16601.99
570.457	16630.47
570.819	16586.85
571.18	16637.7
571.542	16559.06
571.903	16670.92
572.265	16604.03
572.626	16707.3
572.987	16669.79
573.349	16772.61
573.71	16749.79
574.071	16762.21
574.432	16739.16
574.794	16879.27
575.155	16747.98
575.516	16770.12
575.877	16877.24
576.238	16734.87
576.599	16835.66
576.96	16825.04
577.32	16846.28
577.681	16848.99
578.042	16831.14
578.403	16799.28
578.763	16929.22
579.124	16862.78
579.485	16888.09
579.845	16965.83
580.206	16837.24
580.566	16808.09
580.927	16863.91
581.287	16865.94
581.648	16931.02
582.008	16926.73
582.368	16789.56
582.728	16861.65
583.089	16852.16
583.449	16746.85
583.809	16787.98
584.169	16873.62
584.529	16828.88
584.889	16831.37
585.249	16756.34
585.609	16690.35
585.969	16798.82
586.329	16807.64
586.688	16805.6
587.048	16810.8
587.408	16695.78
587.768	16711.37
588.127	16736.45
588.487	16601.99
588.846	16753.18
589.206	16664.14
589.565	16589.79
589.925	16718.6
590.284	16594.76
590.643	16719.28
591.003	16581.2
591.362	16684.93
591.721	16581.2
592.08	16580.52
592.44	16613.97
592.799	16613.29
593.158	16517.7
593.517	16484.26
593.876	16460.53
594.235	16581.88
594.593	16484.03
594.952	16470.7
595.311	16470.7
595.67	16476.12
596.029	16587.3
596.387	16535.33
596.746	16497.81
597.104	16561.32
597.463	16436.12
597.822	16562.9
598.18	16379.4
598.538	16384.37
598.897	16523.35
599.255	16357.71
599.613	16565.16
599.972	16441.77
600.33	16449.68
600.688	16382.79
601.046	16507.08
601.404	16521.09
601.762	16462.79
602.12	16530.13
602.478	16440.42
602.836	16534.88
603.194	16442
603.552	16507.76
603.91	16359.29
604.268	16412.17
604.625	16458.72
604.983	16568.32
605.341	16406.97
605.698	16476.35
606.056	16506.4
606.413	16439.96
606.771	16490.58
607.128	16505.27
607.485	16432.05
607.843	16407.42
608.2	16503.24
608.557	16633.86
608.914	16423.24
609.272	16505.72
609.629	16522.9
609.986	16647.64
610.343	16562.9
610.7	16657.81
611.057	16542.33
611.414	16618.72
611.771	16586.85
612.127	16737.58
612.484	16678.6
612.841	16738.71
613.198	16666.85
613.554	16672.05
613.911	16754.76
614.267	16707.75
614.624	16712.5
614.98	16787.52
615.337	16849.9
615.693	16709.11
616.05	16726.96
616.406	16892.38
616.762	16842.44
617.118	16832.72
617.475	16782.55
617.831	16943.45
618.187	16769.9
618.543	16856.68
618.899	16924.7
619.255	16897.8
619.611	16846.05
619.967	16917.46
620.323	16919.5
620.678	16911.59
621.034	16810.12
621.39	16918.14
621.746	16874.75
622.101	16993.17
622.457	16937.13
622.812	16862.1
623.168	16878.82
623.523	17027.52
623.879	17047.63
624.234	16847.41
624.589	16864.13
624.945	16967.18
625.3	16949.1
625.655	16990.46
626.01	16941.87
626.365	16992.94
626.72	16938.48
627.075	16909.78
627.43	16952.49
627.785	16840.18
628.14	16890.8
628.495	16954.53
628.85	16937.13
629.205	16866.84
629.559	16906.39
629.914	16869.1
630.269	16807.64
630.623	16879.95
630.978	16718.6
631.332	16832.5
631.687	16839.95
632.041	16819.61
632.396	16827.75
632.75	16806.28
633.104	16736.23
633.459	16608.09
633.813	16715.89
634.167	16744.36
634.521	16691.93
634.875	16646.29
635.229	16544.37
635.583	16561.09
635.937	16565.84
636.291	16576.91
636.645	16579.62
636.999	16399.06
637.352	16561.99
637.706	16480.19
638.06	16510.24
638.413	16421.88
638.767	16406.74
639.121	16443.35
639.474	16377.59
639.828	16363.13
640.181	16434.09
640.534	16305.73
640.888	16271.38
641.241	16211.49
641.594	16267.99
641.947	16300.53
642.301	16246.97
642.654	16244.94
643.007	16327.88
643.36	16232.96
643.713	16150.48
644.066	16214.21
644.419	16088.56
644.771	16140.54
645.124	15953.42
645.477	15878.4
645.83	15830.04
646.182	15789.81
646.535	15732.19
646.888	15819.19
647.24	15696.25
647.593	15675.69
647.945	15762.01
648.298	15606.31
648.65	15620.78
649.002	15634.56
649.355	15655.8
649.707	15651.74
650.059	15831.17
650.411	15977.83
650.763	15924.27
651.115	16125.17
651.467	16055.57
651.819	16057.15
652.171	16081.55
652.523	15997.71
652.875	15947.09
653.227	15950.71
653.578	16050.59
653.93	16056.92
654.282	15946.87
654.633	15910.94
654.985	15921.33
655.337	15980.09
655.688	16035
656.039	16032.52
656.391	15934.67
656.742	15940.77
657.094	16036.36
657.445	15984.38
657.796	16016.7
658.147	16024.61
658.498	15924.95
658.849	16031.39
659.2	15948.45
659.551	15972.4
659.902	16021.9
660.253	15985.51
660.604	15994.33
660.955	15973.99
661.306	16129.69
661.656	16068.67
662.007	16010.14
662.358	16081.33
662.708	16129.69
663.059	16099.18
663.409	15957.72
663.76	16176.69
664.11	16168.78
664.461	16124.04
664.811	16084.27
665.161	16050.14
665.511	16022.12
665.862	16104.83
666.212	16123.59
666.562	16182.34
666.912	16077.94
667.262	16180.76
667.612	16101.67
667.962	16170.37
668.312	16128.56
668.662	16292.85
669.011	16150.03
669.361	16030.48
669.711	16084.49
670.06	16091.27
670.41	16027.09
670.76	16028.45
671.109	16045.4
671.459	16043.82
671.808	15928.56
672.157	16054.66
672.507	15995.23
672.856	15876.36
673.205	15927.89
673.554	15991.61
673.904	15894.89
674.253	15917.49
674.602	15964.5
674.951	15635.92
675.3	15569.93
675.649	15863.26
675.998	15743.03
676.346	15766.76
676.695	15896.93
677.044	15828.68
677.393	15741
677.741	15821.9
678.09	15768.79
678.438	15787.1
678.787	15720.89
679.135	15728.34
679.484	15610.83
679.832	15684.73
680.181	15569.03
680.529	15681.57
680.877	15476.37
681.225	15538.52
681.573	15587.33
681.922	15430.5
682.27	15435.47
682.618	15381.69
682.966	15374
683.314	15383.95
683.661	15365.87
684.009	15288.36
684.357	15251.29
684.705	15296.94
685.053	15317.96
685.4	15267.79
685.748	15164.06
686.095	15182.82
686.443	15073.67
686.79	15049.72
687.138	15087.91
687.485	15083.84
687.832	15035.25
688.18	15072.77
688.527	14829.38
688.874	14915.03
689.221	14894.69
689.568	14802.94
689.915	14781.02
690.262	14803.62
690.609	14775.6
690.956	14649.95
691.303	14727.69
691.65	14526.34
691.997	14570.63
692.344	14481.6
692.69	14400.24
693.037	14431.88
693.383	14236.86
693.73	14207.48
694.077	14161.61
694.423	14128.84
694.769	14123.41
695.116	14167.93
695.462	14029.41
695.808	13994.38
696.155	14089.52
696.501	13788.96
696.847	13955.28
697.193	13826.7
697.539	13804.1
697.885	13639.13
698.231	13738.11
698.577	13626.7
698.923	13512.36
699.269	13499.02
699.614	13474.62
699.96	13436.65
700.306	13330.67
700.651	13322.98
700.997	13209.77
701.342	13271.23
701.688	13180.16
702.033	13114.63
702.379	13129.99
702.724	13020.62
703.069	13039.6
703.415	12934.07
703.76	12948.08
704.105	12952.37
704.45	12868.53
704.795	12840.06
705.14	12736.56
705.485	12724.35
705.83	12771.59
706.175	12700.85
706.52	12639.84
706.865	12620.18
707.209	12565.71
707.554	12503.8
707.899	12516
708.243	12457.24
708.588	12404.59
708.932	12338.83
709.277	12293.41
709.621	12281.43
709.966	12214.99
710.31	12309.22
710.654	12103.13
710.998	12205.95
711.342	12128.21
711.687	12118.49
712.031	12031.27
712.375	11940.87
712.719	12022.45
713.063	11907.43
713.407	12003.02
713.75	11880.76
714.094	11916.47
714.438	11825.62
714.782	11855
715.125	11846.41
715.469	11829.91
715.812	11714.89
716.156	11744.04
716.499	11691.39
716.843	11730.48
717.186	11713.76
717.53	11713.99
717.873	11738.39
718.216	11639.64
718.559	11591.96
718.902	11553.76
719.246	11601.9
719.589	11526.19
719.932	11542.46
720.275	11492.75
720.617	11510.6
720.96	11481
721.303	11536.59
721.646	11545.4
721.989	11433.54
722.331	11470.83
722.674	11376.37
723.016	11388.34
723.359	11356.48
723.701	11433.99
724.044	11318.29
724.386	11312.41
724.729	11394.9
725.071	11314.45
725.413	11310.15
725.755	11273.32
726.097	11252.53
726.439	11209.37
726.782	11230.16
727.124	11261.79
727.465	11154.9
727.807	11175.47
728.149	11190.84
728.491	11116.94
728.833	11162.59
729.175	11163.94
729.516	11143.61
729.858	11154.68
730.199	11123.72
730.541	11203.26
730.882	11111.52
731.224	11154.23
731.565	11092.99
731.906	11112.19
732.248	11113.55
732.589	11115.36
732.93	11065.87
733.271	11081.69
733.612	11132.76
733.953	11169.82
734.294	11113.55
734.635	11107.67
734.976	11132.08
735.317	11083.04
735.658	11073.55
735.999	11175.24
736.339	11104.96
736.68	11163.27
737.021	11123.72
737.361	11165.53
737.702	11171.18
738.042	11134.11
738.383	11142.93
738.723	11196.26
739.063	11069.48
739.404	11228.35
739.744	11160.33
740.084	11256.37
740.424	11240.55
740.764	11225.19
741.104	11302.47
741.444	11234
741.784	11242.81
742.124	11324.62
742.464	11395.58
742.804	11360.32
743.143	11356.71
743.483	11374.33
743.823	11297.05
744.162	11438.06
744.502	11444.16
744.841	11503.82
745.181	11504.05
745.52	11552.18
745.86	11666.53
746.199	11663.59
746.538	11672.4
746.877	11773.65
747.216	11811.84
747.556	11812.74
747.895	11919.63
748.234	11940.65
748.573	11926.41
748.911	12053.19
749.25	12193.07
749.589	12285.72
749.928	12270.58
750.267	12445.27
750.605	12465.6
750.944	12528.88
751.283	12730.46
751.621	12844.8
751.96	12864.46
752.298	12968.87
752.636	13072.14
752.975	13185.13
753.313	13269.2
753.651	13404.34
753.989	13571.56
754.327	13664.67
754.666	13789.41
755.004	13999.8
755.342	14134.71
755.679	14221.49
756.017	14409.73
756.355	14597.75
756.693	14626.68
757.031	14825.77
757.368	15000.23
757.706	15203.16
758.044	15303.04
758.381	15477.28
758.719	15684.95
759.056	15853.09
759.394	15983.48
759.731	16148.9
760.068	16288.78
760.405	16434.09
760.743	16665.49
761.08	16938.71
761.417	17030.91
761.754	17252.37
762.091	17327.85
762.428	17571.68
762.765	17665.47
763.102	17886.93
763.438	17994.95
763.775	18184.55
764.112	18464.32
764.449	18568.72
764.785	18764.42
765.122	18822.27
765.458	19016.84
765.795	19161.25
766.131	19349.04
766.467	19412.31
766.804	19607.11
767.14	19703.15
767.476	19869.25
767.812	19931.17
768.148	20282.35
768.485	20255.23
768.821	20311.5
769.157	20435.79
769.492	20551.72
769.828	20673.52
770.164	20719.85
770.5	20816.12
770.836	21011.14
771.171	20998.49
771.507	21240.29
771.842	21115.55
772.178	21315.99
772.513	21350.79
772.849	21476.67
773.184	21513.05
773.519	21625.36
773.855	21602.54
774.19	21685.48
774.525	21778.58
774.86	21772.03
775.195	21966.82
775.53	21939.48
775.865	21960.04
776.2	21805.25
776.535	21997.78
776.87	21978.57
777.205	21945.13
777.539	21961.63
777.874	22195.97
778.209	21962.76
778.543	22020.83
778.878	22034.84
779.212	22120.94
779.547	21986.03
779.881	22070.1
780.215	22030.55
780.55	22143.99
780.884	22056.99
781.218	22080.04
781.552	22179.93
781.886	22107.84
782.22	22149.42
782.554	22101.28
782.888	22007.5
783.222	21997.11
783.556	21930.44
783.889	21791.01
784.223	21802.76
784.557	21791.69
784.89	21961.4
785.224	21796.43
785.557	21666.27
785.891	21727.28
786.224	21738.35
786.558	21777.45
786.891	21723.67
787.224	21601.64
787.557	21528.87
787.891	21584.69
788.224	21596.66
788.557	21605.03
788.89	21497.91
789.223	21493.84
789.556	21299.95
789.888	21348.53
790.221	21273.51
790.554	21107.64
790.887	21231.93
791.219	21155.55
791.552	21074.19
791.884	21033.97
792.217	21098.15
792.549	20942.22
792.882	20890.47
793.214	20866.29
793.546	20929.79
793.879	20693.18
794.211	20671.04
794.543	20756.23
794.875	20683.69
795.207	20819.96
795.539	20577.93
795.871	20554.21
796.203	20330.26
796.535	20313.76
796.867	20406.19
797.198	20209.36
797.53	20279.41
797.862	20257.26
798.193	20118.28
798.525	20151.73
798.856	20163.93
799.188	19897.27
799.519	19813.66
799.85	19839.87
800.182	19761.91
800.513	19857.5
800.844	19682.82
801.175	19769.14
801.506	19768.92
801.837	19587.23
802.168	19512.2
802.499	19627.68
802.83	19454.57
803.161	19386.78
803.491	19405.31
803.822	19375.93
804.153	19276.5
804.483	19151.3
804.814	19252.32
805.145	19108.82
805.475	19091.19
805.805	19004.42
806.136	19061.82
806.466	19042.15
806.796	18998.77
807.126	18770.07
807.457	18818.21
807.787	18827.02
808.117	18733.24
808.447	18620.92
808.777	18655.72
809.107	18622.5
809.436	18687.59
809.766	18594.93
810.096	18465.22
810.426	18399.69
810.755	18463.19
811.085	18385.9
811.414	18350.65
811.744	18283.3
812.073	18262.29
812.403	18167.6
812.732	18150.43
813.061	18125.34
813.39	18024.78
813.719	17962.64
814.049	18058
814.378	18057.55
814.707	17897.55
815.036	17983.2
815.365	17779.59
815.693	17768.74
816.022	17621.18
816.351	17769.87
816.68	17639.03
817.008	17664.34
817.337	17578.69
817.665	17432.25
817.994	17539.6
818.322	17509.31
818.651	17482.2
818.979	17376.66
819.307	17383.67
819.636	17423.21
819.964	17290.34
820.292	17294.4
820.62	17314.29
820.948	17211.92
821.276	17292.14
821.604	17241.75
821.932	17314.74
822.259	17321.3
822.587	17233.84
822.915	17111.81
823.243	17209.43
823.57	17247.17
823.898	17251.47
824.225	17126.95
824.553	17103.22
824.88	17316.32
825.207	17310.67
825.535	17287.4
825.862	17232.26
826.189	17156.78
826.516	17290.79
826.843	17340.73
827.17	17309.77
827.497	17312.71
827.824	17274.97
828.151	17242.2
828.478	17255.99
828.805	17275.2
829.131	17170.79
829.458	17272.48
829.785	17194.29
830.111	17274.07
830.438	17359.26
830.764	17175.76
831.09	17275.42
831.417	17221.41
831.743	17202.88
832.069	17239.04
832.395	17108.42
832.722	17243.56
833.048	17108.19
833.374	17151.81
833.7	17100.28
834.026	17088.31
834.351	17139.61
834.677	17050.57
835.003	17090.79
835.329	17061.42
835.654	17081.3
835.98	17010.34
836.306	17039.5
836.631	16910.46
836.956	17014.64
837.282	16998.59
837.607	16812.61
837.932	16832.04
838.258	16891.25
838.583	16860.97
838.908	16721.31
839.233	16745.04
839.558	16731.25
839.883	16741.2
840.208	16627.53
840.533	16548.66
840.858	16569.9
841.182	16644.03
841.507	16508.89
841.832	16543.69
842.156	16457.59
842.481	16562.67
842.805	16403.58
843.13	16334.43
843.454	16371.72
843.778	16256.24
844.103	16286.29
844.427	16265.96
844.751	16281.32
845.075	16217.82
845.399	16107.77
845.723	16025.74
846.047	16013.08
846.371	15991.16
846.695	15911.84
847.019	15745.97
847.343	15736.48
847.666	15558.86
847.99	15531.74
848.313	15639.53
848.637	15422.81
848.96	15449.48
849.284	15418.07
849.607	15288.13
849.931	15260.11
850.254	15147.79
850.577	15094.01
850.9	15027.34
851.223	14996.39
851.546	14966.78
851.869	14827.35
852.192	14838.2
852.515	14723.62
852.838	14710.29
853.161	14652.67
853.483	14668.03
853.806	14580.35
854.129	14508.94
854.451	14485.66
854.774	14386.91
855.096	14316.4
855.419	14269.62
855.741	14199.8
856.063	14244.09
856.385	14177.65
856.708	14089.97
857.03	14080.93
857.352	14080.03
857.674	13996.19
857.996	13926.36
858.318	13796.64
858.64	13887.26
858.961	13802.29
859.283	13742.86
859.605	13673.71
859.926	13676.87
860.248	13733.14
860.57	13669.19
860.891	13616.08
861.212	13638.91
861.534	13555.07
861.855	13548.51
862.176	13416.54
862.498	13487.05
862.819	13545.35
863.14	13386.26
863.461	13367.05
863.782	13360.95
864.103	13357.33
864.424	13320.72
864.745	13346.71
865.065	13252.02
865.386	13230.78
865.707	13134.06
866.027	13206.6
866.348	13164.8
866.668	13176.77
866.989	13072.37
867.309	13021.3
867.63	13093.84
867.95	13070.56
868.27	13044.8
868.59	13037.57
868.91	12973.84
869.23	12966.38
869.55	12956.21
869.87	13013.84
870.19	12923.45
870.51	12939.04
870.83	12885.93
871.15	12800.96
871.469	12852.71
871.789	12799.83
872.109	12797.35
872.428	12722.77
872.748	12730.68
873.067	12729.33
873.386	12718.25
873.706	12668.31
874.025	12681.64
874.344	12544.92
874.663	12619.5
874.982	12611.59
875.301	12559.61
875.62	12690.01
875.939	12489.11
876.258	12577.92
876.577	12438.03
876.896	12488.88
877.214	12390.58
877.533	12400.97
877.852	12363.01
878.17	12451.14
878.489	12470.12
878.807	12323.46
879.125	12326.4
879.444	12401.2
879.762	12285.72
880.08	12341.99
880.398	12222.45
880.716	12264.03
881.034	12195.56
881.352	12199.17
881.67	12170.92
881.988	12131.15
882.306	12003.47
882.624	12058.84
882.941	11964.37
883.259	11975.45
883.577	11954.21
883.894	11927.99
884.212	11883.7
884.529	11917.37
884.846	11873.76
885.164	11890.25
885.481	11807.99
885.798	11715.57
886.115	11764.61
886.432	11686.19
886.75	11679.41
887.067	11687.09
887.383	11604.84
887.7	11654.78
888.017	11594.67
888.334	11649.13
888.651	11482.58
888.967	11506.76
889.284	11485.74
889.6	11440.55
889.917	11320.78
890.233	11371.85
890.55	11365.29
890.866	11296.14
891.182	11268.35
891.498	11188.58
891.815	11186.54
892.131	11156.49
892.447	11103.83
892.763	11087.56
893.079	11055.47
893.395	11010.05
893.71	11006.21
894.026	11003.72
894.342	10951.07
894.657	10876.27
894.973	10822.48
895.289	10762.6
895.604	10811.41
895.92	10714.01
896.235	10716.27
896.55	10651.41
896.865	10662.49
897.181	10639.21
897.496	10659.78
897.811	10532.77
898.126	10497.29
898.441	10474.7
898.756	10428.37
899.071	10393.12
899.386	10374.13
899.7	10285.77
900.015	10259.33
900.33	10158.55
900.644	10160.58
900.959	10134.59
901.273	10091.66
901.588	10063.18
901.902	10015.05
902.216	9986.12
902.531	9960.13
902.845	9935.05
903.159	9810.08
903.473	9868.16
903.787	9829.74
904.101	9728.28
904.415	9736.86
904.729	9711.78
905.042	9619.13
905.356	9654.15
905.67	9576.19
905.984	9605.79
906.297	9542.07
906.611	9487.38
906.924	9450.54
907.237	9424.78
907.551	9337.1
907.864	9311.34
908.177	9353.37
908.491	9332.35
908.804	9243.32
909.117	9148.4
909.43	9113.38
909.743	9110.21
910.056	9100.5
910.368	9037.22
910.681	8978.69
910.994	8983.66
911.307	8952.7
911.619	8826.83
911.932	8906.6
912.244	8827.73
912.557	8824.57
912.869	8730.34
913.181	8772.59
913.494	8639.04
913.806	8632.71
914.118	8568.53
914.43	8518.36
914.742	8524.92
915.054	8510.91
915.366	8496.22
915.678	8452.38
915.99	8440.17
916.302	8337.13
916.613	8317.69
916.925	8288.99
917.236	8247.18
917.548	8130.8
917.859	8209.67
918.171	8154.76
918.482	8158.83
918.794	8104.36
919.105	8062.33
919.416	7982.56
919.727	7965.38
920.038	7922.9
920.349	7933.52
920.66	7901.66
920.971	7905.95
921.282	7896.69
921.593	7773.52
921.903	7776.69
922.214	7728.1
922.525	7722
922.835	7683.58
923.146	7598.39
923.456	7592.06
923.767	7547.09
924.077	7566.75
924.387	7481.55
924.697	7418.73
925.008	7462.12
925.318	7398.62
925.628	7328.56
925.938	7334.21
926.248	7279.3
926.558	7265.52
926.867	7250.6
927.177	7211.73
927.487	7160.89
927.796	7139.42
928.106	7166.53
928.416	7074.79
928.725	7059.19
929.034	7023.49
929.344	7021.68
929.653	6991.85
929.962	6951.17
930.271	6899.42
930.581	6908.24
930.89	6863.94
931.199	6860.55
931.508	6782.59
931.817	6828.92
932.125	6807.67
932.434	6764.29
932.743	6711.63
933.051	6603.61
933.36	6589.37
933.669	6573.33
933.977	6552.31
934.286	6556.83
934.594	6507.34
934.902	6458.98
935.21	6431.64
935.519	6442.49
935.827	6426.22
936.135	6303.28
936.443	6312.09
936.751	6304.86
937.059	6288.37
937.367	6214.92
937.674	6255.15
937.982	6198.2
938.29	6157.97
938.597	6190.29
938.905	6134.92
939.213	6117.07
939.52	6070.97
939.827	6022.61
940.135	6040.01
940.442	5980.8
940.749	5987.36
941.056	6007.02
941.363	5886.79
941.67	5885.21
941.977	5847.47
942.284	5845.44
942.591	5806.12
942.898	5805.44
943.205	5802.5
943.511	5705.78
943.818	5730.87
944.125	5702.84
944.431	5682.05
944.738	5662.39
945.044	5604.77
945.35	5565.67
945.657	5542.4
945.963	5526.8
946.269	5492.68
946.575	5469.86
946.881	5502.4
947.187	5441.38
947.493	5416.75
947.799	5476.86
948.105	5381.04
948.41	5306.92
948.716	5373.81
949.022	5343.31
949.327	5297.43
949.633	5243.2
949.938	5284.78
950.244	5236.87
950.549	5193.48
950.854	5187.38
951.16	5148.96
951.465	5140.37
951.77	5111.22
952.075	5116.42
952.38	5091.11
952.685	5026.03
952.99	4995.29
953.294	5020.15
953.599	4959.36
953.904	4960.49
954.209	4934.73
954.513	4910.32
954.818	4866.93
955.122	4858.12
955.426	4837.33
955.731	4837.56
956.035	4788.97
956.339	4812.02
956.643	4781.06
956.948	4741.06
957.252	4682.31
957.556	4734.96
957.86	4663.1
958.163	4678.92
958.467	4660.39
958.771	4607.28
959.075	4589.2
959.378	4564.57
959.682	4589.65
959.985	4547.17
960.289	4545.59
960.592	4507.85
960.896	4497
961.199	4452.93
961.502	4474.4
961.805	4440.73
962.108	4438.47
962.411	4438.24
962.714	4364.12
963.017	4323.9
963.32	4370.9
963.623	4366.83
963.926	4318.02
964.228	4243.9
964.531	4266.27
964.833	4230.57
965.136	4236.67
965.438	4225.14
965.741	4174.52
966.043	4183.79
966.345	4108.76
966.648	4104.69
966.95	4131.36
967.252	4074.86
967.554	4060.4
967.856	4063.57
968.158	3981.76
968.46	4053.85
968.761	3969.56
969.063	3972.27
969.365	3983.79
969.666	3972.04
969.968	3930.69
970.269	3921.2
970.571	3885.04
970.872	3834.42
971.174	3869.9
971.475	3840.07
971.776	3847.07
972.077	3805.95
972.378	3792.84
972.679	3788.32
972.98	3769.56
973.281	3730.24
973.582	3699.73
973.883	3705.61
974.183	3692.05
974.484	3667.19
974.785	3645.5
975.085	3674.2
975.386	3609.34
975.686	3587.65
975.986	3607.53
976.287	3579.74
976.587	3558.27
976.887	3531.38
977.187	3530.92
977.487	3512.17
977.787	3476.69
978.087	3512.85
978.387	3479.17
978.687	3437.82
978.987	3426.97
979.286	3426.75
979.586	3411.61
979.885	3392.62
980.185	3372.96
980.484	3367.31
980.784	3322.57
981.083	3319.63
981.382	3290.25
981.682	3299.52
981.981	3308.78
982.28	3304.26
982.579	3289.12
982.878	3232.17
983.177	3239.63
983.475	3246.64
983.774	3197.15
984.073	3167.32
984.372	3160.54
984.67	3165.06
984.969	3138.84
985.267	3137.49
985.566	3142.01
985.864	3116.7
986.162	3061.56
986.461	3043.93
986.759	3060.65
987.057	3048.45
987.355	3035.34
987.653	3008.68
987.951	2981.79
988.249	3026.76
988.547	2995.57
988.844	2960.32
989.142	2953.09
989.44	2913.99
989.737	2930.04
990.035	2930.94
990.332	2904.5
990.63	2875.35
990.927	2848.91
991.224	2827.44
991.521	2861.79
991.819	2814.78
992.116	2768.23
992.413	2794.45
992.71	2735.24
993.006	2802.13
993.303	2733.43
993.6	2771.4
993.897	2718.52
994.193	2690.95
994.49	2717.84
994.787	2680.55
995.083	2656.6
995.379	2670.38
995.676	2681
995.972	2644.62
996.268	2624.51
996.565	2588.35
996.861	2577.95
997.157	2564.85
997.453	2597.62
997.749	2547.9
998.044	2571.18
998.34	2509.48
998.636	2549.93
998.932	2526.88
999.227	2497.05
999.523	2475.36
999.818	2461.35
1000.114	2480.33
1000.409	2424.74
1000.704	2421.57
1001	2419.09
1001.295	2373.21
1001.59	2429.26
1001.885	2357.85
1002.18	2334.35
1002.475	2355.81
1002.77	2352.65
1003.065	2319.88
1003.359	2316.04
1003.654	2302.26
1003.949	2279.43
1004.243	2257.29
1004.538	2259.32
1004.832	2275.14
1005.127	2243.73
1005.421	2208.7
1005.715	2180
1006.009	2224.97
1006.304	2171.19
1006.598	2157.63
1006.892	2140.45
1007.186	2130.51
1007.48	2126.67
1007.773	2130.51
1008.067	2107.01
1008.361	2107.23
1008.655	2062.71
1008.948	2062.49
1009.242	2057.97
1009.535	2066.33
1009.829	2042.38
1010.122	2003.28
1010.415	2003.73
1010.708	1994.47
1011.001	1994.47
1011.295	1973.9
1011.588	1967.35
1011.881	1928.93
1012.173	1920.57
1012.466	1901.14
1012.759	1935.26
1013.052	1911.53
1013.344	1892.32
1013.637	1881.93
1013.93	1899.33
1014.222	1867.47
1014.514	1872.44
1014.807	1865.21
1015.099	1799.67
1015.391	1808.03
1015.683	1779.78
1015.976	1807.35
1016.268	1803.51
1016.56	1792.89
1016.851	1748.82
1017.143	1755.83
1017.435	1722.16
1017.727	1715.6
1018.018	1707.02
1018.31	1692.1
1018.602	1657.75
1018.893	1690.52
1019.185	1702.95
1019.476	1631.54
1019.767	1644.42
1020.058	1644.19
1020.35	1630.64
1020.641	1613.91
1020.932	1612.56
1021.223	1596.51
1021.514	1550.19
1021.804	1582.5
1022.095	1553.8
1022.386	1554.7
1022.677	1552.9
1022.967	1511.32
1023.258	1510.19
1023.548	1498.44
1023.839	1483.52
1024.129	1513.35
1024.419	1507.25
1024.709	1507.02
1025	1445.33
1025.29	1448.27
1025.58	1452.56
1025.87	1415.05
1026.16	1415.95
1026.449	1397.87
1026.739	1391.55
1027.029	1366.01
1027.319	1405.1
1027.608	1403.52
1027.898	1349.06
1028.187	1360.13
1028.477	1330.3
1028.766	1308.84
1029.055	1305.45
1029.344	1331.89
1029.634	1323.07
1029.923	1295.95
1030.212	1328.95
1030.501	1269.51
1030.79	1269.74
1031.078	1263.64
1031.367	1246.24
1031.656	1238.1
1031.945	1253.02
1032.233	1240.59
1032.522	1210.53
1032.81	1229.74
1033.099	1198.1
1033.387	1230.42
1033.675	1198.1
1033.963	1199.69
1034.251	1173.92
1034.54	1163.08
1034.828	1146.13
1035.116	1149.29
1035.403	1142.96
1035.691	1150.42
1035.979	1153.13
1036.267	1120.37
1036.554	1121.04
1036.842	1085.34
1037.129	1109.07
1037.417	1079.46
1037.704	1080.37
1037.992	1090.99
1038.279	1075.4
1038.566	1061.84
1038.853	1061.84
1039.14	1061.84
