Data from hue_70_FLMS001491_60.txt Node
Date: Mon Feb 06 15:21:08 GMT 2017
User: dcchb
Spectrometer: FLMS00149
Trigger mode: 0
Integration Time (sec): 2.000000E-2
Scans to average: 10
Electric dark correction enabled: true
Nonlinearity correction enabled: false
Boxcar width: 0
XAxis mode: Wavelengths
Number of Pixels in Spectrum: 2048
>>>>>Begin Spectral Data<<<<<
341.393	8.73
341.776	8.73
342.16	8.73
342.543	-70.37
342.927	-71.5
343.31	-73.53
343.693	-59.97
344.077	-59.29
344.46	-64.72
344.843	-46.41
345.226	-57.94
345.61	-27.88
345.993	-25.62
346.376	12.57
346.759	13.02
347.142	29.07
347.525	20.93
347.908	72.46
348.291	76.52
348.674	89.18
349.057	101.61
349.44	113.58
349.823	135.73
350.206	167.59
350.588	208.72
350.971	207.59
351.354	223.19
351.737	231.1
352.119	243.3
352.502	261.83
352.884	280.59
353.267	261.38
353.65	323.75
354.032	323.52
354.414	301.15
354.797	293.01
355.179	296.4
355.562	345.44
355.944	337.99
356.326	348.38
356.709	354.48
357.091	341.38
357.473	347.93
357.855	340.02
358.238	341.83
358.62	328.27
359.002	353.35
359.384	334.6
359.766	341.38
360.148	343.41
360.53	335.5
360.912	343.41
361.294	348.38
361.676	336.86
362.057	330.98
362.439	308.38
362.821	336.4
363.203	345.44
363.584	308.83
363.966	323.3
364.348	319.45
364.729	317.42
365.111	302.96
365.493	336.18
365.874	351.32
366.256	327.36
366.637	316.52
367.019	308.61
367.4	328.95
367.781	323.75
368.163	298.44
368.544	318.78
368.925	342.73
369.306	320.36
369.688	303.41
370.069	319.68
370.45	313.58
370.831	307.7
371.212	293.92
371.593	319.68
371.974	308.38
372.355	305.22
372.736	314.03
373.117	333.24
373.498	309.74
373.879	312.45
374.26	320.13
374.641	302.96
375.021	303.18
375.402	316.29
375.783	336.63
376.163	326.46
376.544	305.9
376.925	327.59
377.305	304.77
377.686	327.14
378.066	311.55
378.447	333.69
378.827	333.69
379.208	337.08
379.588	324.65
379.968	322.17
380.349	322.62
380.729	336.4
381.109	341.15
381.489	349.96
381.87	304.77
382.25	319.45
382.63	347.25
383.01	332.79
383.39	323.97
383.77	334.82
384.15	335.73
384.53	335.27
384.91	336.86
385.29	347.25
385.67	357.65
386.049	332.79
386.429	335.27
386.809	339.12
387.189	334.37
387.568	339.34
387.948	349.96
388.328	342.96
388.707	360.36
389.087	365.78
389.466	355.39
389.846	346.12
390.225	371.2
390.605	349.96
390.984	341.83
391.363	359
391.743	341.38
392.122	366.91
392.501	374.14
392.881	351.77
393.26	372.79
393.639	385.44
394.018	360.58
394.397	359.45
394.776	382.73
395.155	369.4
395.534	379.11
395.913	354.48
396.292	378.44
396.671	369.85
397.05	365.56
397.429	394.71
397.808	375.05
398.186	362.84
398.565	372.56
398.944	392
399.323	382.28
399.701	387.93
400.08	344.09
400.458	394.03
400.837	384.99
401.215	392.45
401.594	377.08
401.972	379.79
402.351	391.77
402.729	399
403.107	388.83
403.486	387.25
403.864	405.33
404.242	398.55
404.62	394.71
404.999	395.39
405.377	403.07
405.755	391.54
406.133	397.64
406.511	402.39
406.889	418.21
407.267	401.71
407.645	418.21
408.023	406.91
408.401	420.02
408.779	424.99
409.156	414.37
409.534	416.85
409.912	400.36
410.29	436.06
410.667	413.92
411.045	440.13
411.422	431.77
411.8	435.84
412.178	438.55
412.555	422.95
412.933	442.84
413.31	453.46
413.687	441.26
414.065	449.39
414.442	443.97
414.819	465.44
415.197	482.84
415.574	452.56
415.951	471.54
416.328	470.19
416.705	450.07
417.082	468.83
417.46	466.8
417.837	459.79
418.214	492.11
418.591	479.68
418.967	473.12
419.344	473.35
419.721	486.68
420.098	502.05
420.475	503.86
420.852	490.75
421.228	503.4
421.605	478.77
421.982	487.59
422.358	504.76
422.735	515.83
423.111	512.9
423.488	509.05
423.864	523.52
424.241	514.7
424.617	522.16
424.994	520.13
425.37	513.12
425.746	522.84
426.123	513.8
426.499	522.84
426.875	502.95
427.251	549.05
427.627	529.62
428.003	551.31
428.379	532.1
428.756	541.37
429.132	540.69
429.507	536.62
429.883	554.93
430.259	551.09
430.635	569.17
431.011	558.32
431.387	575.04
431.763	594.7
432.138	586.79
432.514	592.67
432.89	571.43
433.265	602.84
433.641	604.19
434.016	604.19
434.392	608.94
434.767	641.71
435.143	616.62
435.518	629.28
435.894	622.05
436.269	636.96
436.644	657.07
437.02	629.28
437.395	652.55
437.77	662.27
438.145	651.88
438.52	648.71
438.895	651.88
439.271	658.88
439.646	671.31
440.021	674.25
440.395	687.13
440.77	666.34
441.145	681.93
441.52	700.01
441.895	676.96
442.27	696.39
442.645	700.46
443.019	711.08
443.394	681.48
443.769	707.92
444.143	720.35
444.518	725.09
444.892	708.15
445.267	743.17
445.641	737.97
446.016	725.77
446.39	711.08
446.764	739.33
447.139	726.45
447.513	750.18
447.887	727.81
448.262	770.06
448.636	744.3
449.01	754.02
449.384	772.1
449.758	766.45
450.132	788.6
450.506	779.33
450.88	765.77
451.254	775.49
451.628	795.15
452.002	808.93
452.376	819.33
452.75	808.93
453.123	826.56
453.497	837.41
453.871	837.86
454.244	839.44
454.618	864.75
454.992	857.97
455.365	870.85
455.739	870.85
456.112	905.2
456.486	904.75
456.859	900.91
457.232	887.8
457.606	916.95
457.979	936.16
458.352	925.54
458.725	946.11
459.099	949.95
459.472	972.77
459.845	985.43
460.218	982.94
460.591	984.52
460.964	1015.48
461.337	1003.96
461.71	1010.28
462.083	1032.43
462.456	1056.16
462.829	1052.99
463.201	1069.72
463.574	1076.95
463.947	1082.82
464.32	1127.12
464.692	1132.31
465.065	1118.98
465.438	1142.94
465.81	1150.85
466.183	1182.48
466.555	1199.88
466.928	1206.21
467.3	1227.91
467.672	1228.81
468.045	1249.37
468.417	1262.03
468.789	1282.82
469.161	1294.34
469.534	1330.5
469.906	1341.12
470.278	1361.24
470.65	1408.24
471.022	1413.66
471.394	1455.7
471.766	1470.39
472.138	1539.08
472.51	1520.55
472.882	1575.02
473.253	1579.31
473.625	1639.42
473.997	1653.88
474.369	1673.54
474.74	1724.84
475.112	1765.29
475.484	1822.69
475.855	1855.01
476.227	1878.28
476.598	1970.94
476.97	1942.92
477.341	2036.92
477.713	2098.39
478.084	2144.27
478.455	2199.86
478.827	2253.64
479.198	2291.83
479.569	2413.19
479.94	2447.76
480.311	2501.09
480.682	2597.36
481.053	2670.13
481.424	2727.3
481.795	2828.99
482.166	2906.05
482.537	2977.92
482.908	3057.24
483.279	3167.29
483.65	3270.11
484.021	3355.99
484.391	3410.22
484.762	3482.54
485.133	3594.85
485.503	3652.47
485.874	3831.45
486.244	3907.16
486.615	4051.79
486.985	4108.73
487.356	4278.67
487.726	4385.11
488.097	4524.54
488.467	4581.72
488.837	4692.22
489.207	4830.75
489.578	4960.69
489.948	5105.32
490.318	5262.83
490.688	5312.77
491.058	5436.83
491.428	5656.04
491.798	5796.82
492.168	5919.53
492.538	6007.89
492.908	6198.85
493.278	6338.73
493.648	6421.22
494.017	6517.48
494.387	6710.47
494.757	6827.76
495.126	6976.45
495.496	7105.04
495.866	7258.03
496.235	7417.8
496.605	7584.8
496.974	7634.52
497.344	7757.9
497.713	7923.77
498.082	8013.04
498.452	8220.04
498.821	8297.78
499.19	8422.74
499.559	8592.01
499.928	8742.51
500.298	8793.58
500.667	8956.52
501.036	8989.51
501.405	9138.21
501.774	9263.85
502.143	9410.52
502.512	9532.77
502.88	9633.56
503.249	9753.78
503.618	9832.2
503.987	9963.27
504.356	10103.15
504.724	10194.9
505.093	10242.58
505.462	10376.14
505.83	10524.16
506.199	10697.94
506.567	10892.74
506.936	10818.16
507.304	11042.79
507.672	11161.88
508.041	11184.48
508.409	11342.44
508.777	11450.01
509.145	11589.22
509.514	11615.88
509.882	11768.42
510.25	11819.72
510.618	11989.43
510.986	12051.35
511.354	12239.14
511.722	12351.68
512.09	12377.44
512.458	12451.34
512.826	12546.03
513.193	12651.56
513.561	12782.18
513.929	12880.93
514.297	13036.41
514.664	13070.08
515.032	13179.23
515.4	13291.09
515.767	13368.6
516.135	13350.52
516.502	13470.97
516.869	13610.4
517.237	13749.61
517.604	13735.83
517.972	13926.33
518.339	13971.3
518.706	14067.34
519.073	14117.74
519.44	14158.41
519.808	14453.77
520.175	14253.55
520.542	14513.88
520.909	14594.11
521.276	14619.19
521.643	14790.26
522.009	14809.24
522.376	14939.18
522.743	14977.37
523.11	15173.08
523.477	15230.25
523.843	15349.57
524.21	15530.58
524.577	15592.05
524.943	15695.1
525.31	15724.02
525.676	15814.87
526.043	15993.84
526.409	15994.07
526.776	16147.29
527.142	16144.58
527.508	16229.32
527.874	16386.15
528.241	16385.47
528.607	16454.17
528.973	16512.93
529.339	16488.75
529.705	16769.19
530.071	16920.37
530.437	16907.72
530.803	16894.16
531.169	17023.42
531.535	16961.05
531.901	17094.16
532.267	17153.14
532.632	17236.52
532.998	17235.17
533.364	17319.01
533.73	17298.22
534.095	17375.96
534.461	17397.88
534.826	17481.04
535.192	17533.01
535.557	17662.73
535.923	17546.12
536.288	17618.66
536.653	17809.62
537.019	17674.93
537.384	17797.41
537.749	17769.62
538.114	17818.2
538.479	17784.98
538.845	17894.59
539.21	17833.34
539.575	17841.93
539.94	17889.16
540.305	18049.38
540.67	17945.21
541.034	18001.48
541.399	18029.95
541.764	18086.22
542.129	18078.54
542.494	18165.31
542.858	18127.35
543.223	18136.84
543.587	18222.49
543.952	18137.07
544.316	18291.41
544.681	18180.91
545.045	18210.74
545.41	18333.44
545.774	18344.29
546.138	18300.68
546.503	18297.29
546.867	18300.45
547.231	18480.79
547.595	18424.52
547.959	18529.37
548.324	18403.27
548.688	18440.56
549.052	18499.32
549.416	18467
549.779	18468.81
550.143	18494.8
550.507	18576.15
550.871	18577.28
551.235	18562.82
551.599	18623.61
551.962	18710.84
552.326	18776.6
552.689	18824.51
553.053	18659.09
553.417	18631.06
553.78	18913.32
554.143	18830.83
554.507	18846.2
554.87	18921.23
555.234	19024.05
555.597	18978.4
555.96	18961.22
556.323	19020.43
556.686	19041.22
557.05	19098.17
557.413	19117.83
557.776	19119.86
558.139	19258.39
558.502	19277.6
558.865	19353.76
559.228	19410.48
559.59	19430.59
559.953	19516.24
560.316	19626.29
560.679	19567.31
561.041	19694.31
561.404	19739.28
561.767	19848.88
562.129	19730.7
562.492	19948.09
562.854	19929.79
563.217	19890.01
563.579	20039.61
563.941	20093.85
564.304	20138.37
564.666	20254.07
565.028	20252.26
565.39	20299.95
565.753	20409.55
566.115	20377.68
566.477	20514.18
566.839	20480.28
567.201	20660.16
567.563	20581.52
567.925	20874.39
568.287	20740.16
568.648	20725.25
569.01	20903.55
569.372	20942.42
569.734	20873.26
570.095	20972.92
570.457	21122.75
570.819	21115.07
571.18	21077.78
571.542	21135.18
571.903	21242.97
572.265	21276.64
572.626	21374.72
572.987	21314.16
573.349	21267.15
573.71	21480.71
574.071	21513.47
574.432	21494.72
574.794	21690.19
575.155	21575.62
575.516	21548.95
575.877	21693.58
576.238	21715.28
576.599	21840.02
576.96	21799.12
577.32	21787.36
577.681	21964.99
578.042	21861.04
578.403	21942.62
578.763	21877.98
579.124	21986.46
579.485	22082.05
579.845	22017.64
580.206	21998.21
580.566	21990.98
580.927	22047.25
581.287	22091.31
581.648	22074.36
582.008	22194.36
582.368	22068.94
582.728	22091.54
583.089	22049.96
583.449	22135.15
583.809	22112.78
584.169	22103.51
584.529	22071.88
584.889	22259.67
585.249	22146.23
585.609	22066.68
585.969	22164.98
586.329	22096.96
586.688	22148.49
587.048	22172.44
587.408	22099.67
587.768	22074.14
588.127	22196.17
588.487	22073.46
588.846	22321.59
589.206	22082.72
589.565	22051.31
589.925	22122.72
590.284	22115.04
590.643	22156.85
591.003	22162.04
591.362	22250.63
591.721	22094.93
592.08	22171.99
592.44	22152.78
592.799	22257.18
593.158	22204.98
593.517	22219.9
593.876	22272.78
594.235	22202.5
594.593	22196.62
594.952	22239.33
595.311	22224.19
595.67	22245.21
596.029	22299.44
596.387	22315.03
596.746	22447.23
597.104	22206.11
597.463	22339.89
597.822	22338.08
598.18	22242.04
598.538	22111.88
598.897	22424.41
599.255	22162.27
599.613	22481.36
599.972	22434.81
600.33	22378.54
600.688	22318.65
601.046	22385.99
601.404	22553.45
601.762	22417.4
602.12	22531.3
602.478	22522.26
602.836	22457.86
603.194	22447.91
603.552	22498.31
603.91	22544.18
604.268	22607
604.625	22465.54
604.983	22607.23
605.341	22500.34
605.698	22534.92
606.056	22661.92
606.413	22606.33
606.771	22609.26
607.128	22682.26
607.485	22590.96
607.843	22602.94
608.2	22754.57
608.557	22803.61
608.914	22827.56
609.272	22957.28
609.629	22933.55
609.986	22965.64
610.343	22791.41
610.7	23035.24
611.057	22966.99
611.414	22962.25
611.771	22965.87
612.127	23046.31
612.484	23060.55
612.841	23057.39
613.198	23064.85
613.554	23139.65
613.911	23248.34
614.267	23179.87
614.624	23309.58
614.98	23265.97
615.337	23412.86
615.693	23383.93
616.05	23280.89
616.406	23411.28
616.762	23365.85
617.118	23375.12
617.475	23387.32
617.831	23488.56
618.187	23461.67
618.543	23521.78
618.899	23667.32
619.255	23678.16
619.611	23583.02
619.967	23661.67
620.323	23696.92
620.678	23670.71
621.034	23492.4
621.39	23655.11
621.746	23602.91
622.101	23767.88
622.457	23671.84
622.812	23761.32
623.168	23804.49
623.523	23782.79
623.879	23832.73
624.234	23692.85
624.589	23757.71
624.945	23902.56
625.3	23839.51
625.655	23964.48
626.01	23746.64
626.365	23777.82
626.72	23887.65
627.075	23872.96
627.43	23780.53
627.785	23744.38
628.14	23692.4
628.495	23752.29
628.85	23766.52
629.205	23712.74
629.559	23948.89
629.914	23736.24
630.269	23813.3
630.623	23729.91
630.978	23659.63
631.332	23839.74
631.687	23785.28
632.041	23686.3
632.396	23734.43
632.75	23591.16
633.104	23658.05
633.459	23576.24
633.813	23619.86
634.167	23670.71
634.521	23636.13
634.875	23614.21
635.229	23478.85
635.583	23443.59
635.937	23458.73
636.291	23362.46
636.645	23418.73
636.999	23394.33
637.352	23438.17
637.706	23350.04
638.06	23435.23
638.413	23391.84
638.767	23411.73
639.121	23388.68
639.474	23238.63
639.828	23277.72
640.181	23244.28
640.534	23199.31
640.888	23217.84
641.241	23162.92
641.594	23201.11
641.947	23171.51
642.301	23109.36
642.654	23203.37
643.007	23186.2
643.36	23115.92
643.713	23041.8
644.066	23162.24
644.419	23007.9
644.771	22977.39
645.124	22693.1
645.477	22735.81
645.83	22441.36
646.182	22325.2
646.535	22378.99
646.888	22336.73
647.24	22352.55
647.593	22508.7
647.945	22317.07
648.298	22228.71
648.65	22299.89
649.002	22163.17
649.355	22307.35
649.707	22251.53
650.059	22289.5
650.411	22706.89
650.763	22641.13
651.115	22753.67
651.467	22822.37
651.819	22861.01
652.171	22710.05
652.523	22719.32
652.875	22664.86
653.227	22712.76
653.578	22719.54
653.93	22685.19
654.282	22576.04
654.633	22565.65
654.985	22585.54
655.337	22711.86
655.688	22645.2
656.039	22708.24
656.391	22568.59
656.742	22514.13
657.094	22533.79
657.445	22600.22
657.796	22584.63
658.147	22630.05
658.498	22625.08
658.849	22739.43
659.2	22632.54
659.551	22542.15
659.902	22666.89
660.253	22616.5
660.604	22746.66
660.955	22570.4
661.306	22622.15
661.656	22650.39
662.007	22559.77
662.358	22582.37
662.708	22680
663.059	22567.01
663.409	22494.47
663.76	22658.3
664.11	22640.9
664.461	22713.22
664.811	22641.81
665.161	22651.75
665.511	22581.24
665.862	22541.47
666.212	22595.71
666.562	22636.16
666.912	22525.42
667.262	22654.69
667.612	22622.6
667.962	22637.06
668.312	22528.14
668.662	22699.88
669.011	22559.32
669.361	22466.9
669.711	22515.48
670.06	22469.61
670.41	22404.3
670.76	22463.28
671.109	22536.72
671.459	22523.84
671.808	22420.12
672.157	22527.91
672.507	22420.57
672.856	22303.28
673.205	22421.25
673.554	22423.51
673.904	22369.27
674.253	22480.23
674.602	22407.01
674.951	22109.16
675.3	21997.75
675.649	22299.67
675.998	22230.07
676.346	22315.49
676.695	22363.85
677.044	22245.21
677.393	22262.15
677.741	22291.76
678.09	22303.51
678.438	22132.67
678.787	22184.19
679.135	22157.98
679.484	22021.48
679.832	22118.2
680.181	21974.93
680.529	22093.35
680.877	21996.85
681.225	21974.03
681.573	21990.07
681.922	21885.44
682.27	21810.42
682.618	21806.35
682.966	21822.62
683.314	21890.41
683.661	21809.51
684.009	21692.23
684.357	21666.46
684.705	21591.21
685.053	21567.48
685.4	21551.44
685.748	21380.82
686.095	21420.37
686.443	21335.17
686.79	21313.93
687.138	21350.99
687.485	21389.41
687.832	21245.23
688.18	21349.64
688.527	21152.81
688.874	21217.21
689.221	21138.79
689.568	21017.67
689.915	20960.95
690.262	20998.69
690.609	20874.62
690.956	20775.64
691.303	20829.42
691.65	20654.74
691.997	20670.56
692.344	20579.49
692.69	20598.47
693.037	20576.1
693.383	20360.06
693.73	20430.11
694.077	20268.76
694.423	20315.54
694.769	20234.86
695.116	20122.55
695.462	20203.9
695.808	20087.75
696.155	20010.69
696.501	19892.5
696.847	19943.35
697.193	19752.39
697.539	19831.94
697.885	19654.77
698.231	19540.19
698.577	19576.12
698.923	19607.54
699.269	19497.71
699.614	19394.21
699.96	19301.33
700.306	19259.52
700.651	19284.61
700.997	19137.94
701.342	19169.13
701.688	19067.21
702.033	19093.2
702.379	19018.4
702.724	18854.56
703.069	18887.78
703.415	18669.71
703.76	18702.25
704.105	18781.57
704.45	18674.23
704.795	18497.96
705.14	18442.59
705.485	18493.89
705.83	18502.93
706.175	18430.39
706.52	18384.52
706.865	18207.57
707.209	18217.29
707.554	18147.69
707.899	18303.39
708.243	18141.81
708.588	18109.27
708.932	18001.02
709.277	17960.35
709.621	17912.89
709.966	17822.72
710.31	17897.3
710.654	17621.6
710.998	17817.3
711.342	17657.98
711.687	17657.53
712.031	17655.72
712.375	17517.87
712.719	17534.14
713.063	17544.99
713.407	17598.77
713.75	17417.99
714.094	17387.25
714.438	17353.58
714.782	17338.22
715.125	17187.03
715.469	17301.38
715.812	17202.85
716.156	17198.33
716.499	17181.16
716.843	17161.05
717.186	17067.94
717.53	17072.91
717.873	17122.18
718.216	17076.98
718.559	17001.73
718.902	16807.61
719.246	16935.52
719.589	16832.47
719.932	16874.73
720.275	16842.18
720.617	16786.59
720.96	16739.59
721.303	16780.72
721.646	16767.61
721.989	16621.4
722.331	16642.19
722.674	16695.75
723.016	16580.27
723.359	16604.22
723.701	16575.07
724.044	16525.36
724.386	16385.93
724.729	16552.25
725.071	16405.36
725.413	16421.4
725.755	16325.14
726.097	16314.06
726.439	16364
726.782	16346.38
727.124	16440.16
727.465	16299.6
727.807	16269.32
728.149	16236.78
728.491	16259.6
728.833	16288.53
729.175	16157
729.516	16186.61
729.858	16246.72
730.199	16166.95
730.541	16161.98
730.882	16155.2
731.224	16206.72
731.565	16087.63
731.906	16114.07
732.248	16148.19
732.589	16062.32
732.93	15951.59
733.271	16029.78
733.612	16066.61
733.953	16057.12
734.294	16018.7
734.635	15981.64
734.976	15980.96
735.317	15894.19
735.658	15968.08
735.999	15888.31
736.339	15895.09
736.68	15971.92
737.021	15958.82
737.361	15971.47
737.702	15988.87
738.042	15877.92
738.383	15917.69
738.723	15913.85
739.063	15893.28
739.404	16059.38
739.744	15854.41
740.084	15872.72
740.424	15863
740.764	15838.37
741.104	15928.99
741.444	15886.5
741.784	15745.49
742.124	15936.9
742.464	15738.26
742.804	15847.18
743.143	15868.65
743.483	15838.37
743.823	15846.05
744.162	15749.11
744.502	15903.9
744.841	15835.21
745.181	15947.52
745.52	15870.46
745.86	15981.19
746.199	15938.71
746.538	15956.33
746.877	15931.25
747.216	16070
747.556	16061.41
747.895	16097.57
748.234	16108.42
748.573	16131.92
748.911	16098.25
749.25	16122.88
749.589	16199.72
749.928	16255.08
750.267	16288.07
750.605	16288.98
750.944	16357
751.283	16314.97
751.621	16447.39
751.96	16346.83
752.298	16465.25
752.636	16610.78
752.975	16604
753.313	16664.56
753.651	16796.31
753.989	16688.97
754.327	16826.14
754.666	16823.88
755.004	16968.96
755.342	16950.2
755.679	17023.87
756.017	17013.48
756.355	17147.49
756.693	17120.14
757.031	17356.52
757.368	17268.39
757.706	17391.55
758.044	17384.32
758.381	17551.09
758.719	17481.04
759.056	17600.81
759.394	17749.96
759.731	17686.68
760.068	17716.06
760.405	17754.7
760.743	17846.45
761.08	17933.91
761.417	17978.43
761.754	18037.41
762.091	18130.74
762.428	18081.7
762.765	18116.95
763.102	18276.04
763.438	18163.05
763.775	18186.56
764.112	18391.97
764.449	18421.35
764.785	18430.62
765.122	18373.22
765.458	18336.61
765.795	18498.86
766.131	18463.38
766.467	18486.43
766.804	18420.45
767.14	18530.73
767.476	18532.08
767.812	18478.98
768.148	18579.77
768.485	18467
768.821	18447.57
769.157	18468.13
769.492	18549.03
769.828	18515.59
770.164	18470.16
770.5	18450.5
770.836	18481.92
771.171	18431.3
771.507	18501.12
771.842	18343.39
772.178	18421.8
772.513	18366.44
772.849	18337.51
773.184	18315.59
773.519	18405.31
773.855	18220.91
774.19	18251.64
774.525	18174.13
774.86	18331.86
775.195	18303.61
775.53	18220
775.865	18173.67
776.2	18025.2
776.535	18001.48
776.87	17976.84
777.205	17949.73
777.539	17891.42
777.874	17997.41
778.209	17831.76
778.543	17846
778.878	17653.91
779.212	17729.62
779.547	17617.31
779.881	17766
780.215	17586.57
780.55	17643.97
780.884	17497.53
781.218	17495.27
781.552	17469.74
781.886	17363.98
782.22	17266.81
782.554	17303.64
782.888	17080.6
783.222	17209.63
783.556	17119.69
783.889	17089.64
784.223	16885.8
784.557	16881.51
784.89	16908.4
785.224	16770.55
785.557	16780.72
785.891	16711.79
786.224	16657.33
786.558	16642.87
786.891	16515.87
787.224	16603.09
787.557	16549.54
787.891	16480.16
788.224	16398.81
788.557	16502.76
788.89	16387.73
789.223	16302.31
789.556	16207.4
789.888	16237.68
790.221	16154.74
790.554	16072.26
790.887	16026.39
791.219	15957.24
791.552	15928.08
791.884	15884.02
792.217	15780.52
792.549	15811.7
792.882	15742.55
793.214	15644.02
793.546	15634.76
793.879	15554.08
794.211	15500.98
794.543	15540.52
794.875	15473.86
795.207	15468.21
795.539	15479.06
795.871	15357.25
796.203	15323.81
796.535	15171.95
796.867	15212.62
797.198	15162.68
797.53	15172.85
797.862	14915
798.193	15012.4
798.525	14886.53
798.856	14956.58
799.188	14765.4
799.519	14858.51
799.85	14747.55
800.182	14756.36
800.513	14683.14
800.844	14550.04
801.175	14635.24
801.506	14574
801.837	14504.39
802.168	14442.47
802.499	14443.83
802.83	14347.33
803.161	14328.35
803.491	14337.62
803.822	14256.26
804.153	14247
804.483	14149.6
804.814	14153.44
805.145	14061.01
805.475	14072.77
805.805	13996.38
806.136	13974.92
806.466	13991.41
806.796	13913
807.126	13842.26
807.457	13809.5
807.787	13854.24
808.117	13753.9
808.447	13778.76
808.777	13799.33
809.107	13671.19
809.436	13654.25
809.766	13657.64
810.096	13687.24
810.426	13600.01
810.755	13525.21
811.085	13557.07
811.414	13437.53
811.744	13359.34
812.073	13327.47
812.403	13371.32
812.732	13255.84
813.061	13229.85
813.39	13198.21
813.719	13178.55
814.049	13200.92
814.378	13130.42
814.707	13170.64
815.036	13116.18
815.365	13039.57
815.693	12962.51
816.022	13032.34
816.351	12895.62
816.68	12838
817.008	12927.94
817.337	12786.92
817.665	12699.92
817.994	12749.64
818.322	12730.65
818.651	12666.25
818.979	12678.68
819.307	12675.06
819.636	12663.99
819.964	12622.63
820.292	12623.99
820.62	12622.63
820.948	12560.26
821.276	12630.77
821.604	12517.33
821.932	12570.88
822.259	12563.2
822.587	12572.01
822.915	12458.34
823.243	12618.34
823.57	12511.22
823.898	12493.6
824.225	12472.58
824.553	12386.93
824.88	12392.36
825.207	12526.59
825.535	12515.29
825.862	12477.78
826.189	12483.88
826.516	12458.57
826.843	12551.22
827.17	12580.6
827.497	12501.06
827.824	12510.77
828.151	12540.83
828.478	12482.52
828.805	12493.82
829.131	12400.49
829.458	12447.05
829.785	12417.44
830.111	12463.09
830.438	12449.98
830.764	12436.65
831.09	12451.34
831.417	12413.6
831.743	12452.24
832.069	12475.29
832.395	12396.88
832.722	12403.88
833.048	12342.42
833.374	12388.29
833.7	12281.17
834.026	12325.47
834.351	12322.53
834.677	12298.57
835.003	12349.42
835.329	12270.55
835.654	12304.45
835.98	12239.59
836.306	12278.01
836.631	12227.39
836.956	12271.01
837.282	12230.55
837.607	12236.43
837.932	12104.46
838.258	12187.39
838.583	12097.68
838.908	12026.27
839.233	12119.6
839.558	12013.84
839.883	11993.05
840.208	11947.4
840.533	11978.58
840.858	11961.63
841.182	12005.02
841.507	11974.29
841.832	11940.39
842.156	11929.77
842.481	11897.68
842.805	11866.04
843.13	11863.78
843.454	11845.93
843.778	11780.85
844.103	11696.78
844.427	11699.72
844.751	11654.52
845.075	11688.2
845.399	11601.87
845.723	11544.7
846.047	11616.11
846.371	11464.7
846.695	11475.77
847.019	11390.8
847.343	11413.17
847.666	11295.21
847.99	11135.44
848.313	11226.74
848.637	11139.96
848.96	11144.25
849.284	11069.45
849.607	11075.78
849.931	10995.78
850.254	10934.99
850.577	10930.7
850.9	10805.51
851.223	10776.58
851.546	10764.38
851.869	10634.21
852.192	10714.44
852.515	10585.85
852.838	10596.92
853.161	10523.48
853.483	10475.57
853.806	10539.75
854.129	10501.79
854.451	10362.81
854.774	10343.6
855.096	10413.43
855.419	10325.97
855.741	10255.46
856.063	10126.2
856.385	10150.38
856.708	10171.17
857.03	10136.6
857.352	10067.45
857.674	10152.64
857.996	10074
858.318	9955.36
858.64	9998.07
858.961	10036.94
859.283	9916.04
859.605	9905.87
859.926	9923.27
860.248	9894.34
860.57	9770.73
860.891	9781.35
861.212	9799.21
861.534	9747.91
861.855	9785.65
862.176	9769.15
862.498	9769.6
862.819	9788.36
863.14	9659.77
863.461	9644.41
863.782	9645.76
864.103	9674.46
864.424	9573.45
864.745	9631.98
865.065	9563.96
865.386	9546.1
865.707	9504.98
866.027	9490.51
866.348	9479.21
866.668	9528.03
866.989	9488.03
867.309	9457.97
867.63	9426.33
867.95	9441.25
868.27	9388.59
868.59	9405.77
868.91	9360.12
869.23	9371.87
869.55	9270.86
869.87	9364.41
870.19	9363.51
870.51	9314.7
870.83	9281.03
871.15	9229.5
871.469	9234.25
871.789	9274.7
872.109	9267.47
872.428	9147.7
872.748	9231.54
873.067	9201.03
873.386	9189.5
873.706	9233.8
874.025	9090.75
874.344	9077.42
874.663	9104.08
874.982	9112.44
875.301	9081.26
875.62	9020.24
875.939	9019.79
876.258	9044.42
876.577	8986.35
876.896	8971.88
877.214	8934.37
877.533	8960.36
877.852	8947.02
878.17	8960.58
878.489	8909.29
878.807	8926.46
879.125	8813.02
879.444	8859.34
879.762	8831.32
880.08	8844.65
880.398	8748.16
880.716	8795.84
881.034	8828.84
881.352	8814.37
881.67	8779.12
881.988	8740.25
882.306	8789.29
882.624	8742.28
882.941	8649.41
883.259	8619.8
883.577	8622.29
883.894	8570.31
884.212	8577.77
884.529	8609.41
884.846	8509.3
885.164	8576.64
885.481	8493.48
885.798	8523.98
886.115	8479.24
886.432	8476.53
886.75	8409.64
887.067	8428.85
887.383	8345.68
887.7	8413.71
888.017	8310.43
888.334	8335.52
888.651	8277.89
888.967	8284.67
889.284	8249.19
889.6	8247.38
889.917	8206.48
890.233	8281.96
890.55	8158.34
890.866	8134.16
891.182	8166.25
891.498	8088.74
891.815	8072.25
892.131	8068.86
892.447	8081.96
892.763	8028.18
893.079	8000.61
893.395	8001.06
893.71	7934.85
894.026	7935.98
894.342	7931.46
894.657	7839.03
894.973	7806.94
895.289	7786.38
895.604	7801.29
895.92	7755.42
896.235	7681.3
896.55	7691.46
896.865	7694.4
897.181	7703.67
897.496	7695.31
897.811	7614.86
898.126	7647.4
898.441	7524.92
898.756	7566.95
899.071	7517.01
899.386	7479.27
899.7	7407.63
900.015	7407.86
900.33	7336.45
900.644	7390.46
900.959	7362.21
901.273	7318.37
901.588	7277.24
901.902	7273.85
902.216	7245.15
902.531	7231.82
902.845	7214.87
903.159	7193.85
903.473	7170.12
903.787	7099.16
904.101	7052.39
904.415	7050.58
904.729	6977.13
905.042	6993.63
905.356	6959.51
905.67	6919.28
905.984	6934.42
906.297	6913.41
906.611	6850.81
906.924	6796.57
907.237	6796.35
907.551	6759.74
907.864	6765.16
908.177	6708.67
908.491	6712.06
908.804	6664.15
909.117	6626.41
909.43	6609.91
909.743	6610.36
910.056	6579.18
910.368	6578.73
910.681	6530.14
910.994	6520.2
911.307	6496.92
911.619	6387.77
911.932	6481.78
912.244	6383.48
912.557	6407.2
912.869	6398.17
913.181	6307.77
913.494	6288.56
913.806	6258.96
914.118	6247.66
914.43	6237.94
914.742	6139.41
915.054	6206.98
915.366	6157.04
915.678	6157.95
915.99	6136.93
916.302	6035.24
916.613	6108.91
916.925	6019.64
917.236	6032.98
917.548	5969.93
917.859	6039.08
918.171	5941.68
918.482	5891.96
918.794	5834.11
919.105	5890.61
919.416	5823.72
919.727	5852.64
920.038	5804.96
920.349	5737.17
920.66	5717.96
920.971	5739.2
921.282	5714.34
921.593	5654
921.903	5600.45
922.214	5607.23
922.525	5597.73
922.835	5607.23
923.146	5575.81
923.456	5533.33
923.767	5508.47
924.077	5517.74
924.387	5483.61
924.697	5424.63
925.008	5464.4
925.318	5400
925.628	5406.78
925.938	5350.96
926.248	5336.95
926.558	5293.11
926.867	5278.42
927.177	5277.97
927.487	5226.67
927.796	5143.28
928.106	5197.52
928.416	5230.51
928.725	5164.3
929.034	5109.16
929.344	5073.23
929.653	5124.53
929.962	5032.55
930.271	5031.65
930.581	5004.98
930.89	4976.06
931.199	4996.62
931.508	4964.76
931.817	4938.32
932.125	4921.14
932.434	4937.19
932.743	4869.17
933.051	4855.83
933.36	4849.51
933.669	4808.83
933.977	4781.71
934.286	4734.93
934.594	4777.87
934.902	4722.73
935.21	4684.09
935.519	4689.51
935.827	4698.1
936.135	4676.63
936.443	4642.73
936.751	4635.73
937.059	4583.52
937.367	4568.83
937.674	4583.98
937.982	4579.68
938.29	4484.54
938.597	4547.59
938.905	4441.61
939.213	4424.43
939.52	4450.65
939.827	4451.32
940.135	4414.49
940.442	4383.08
940.749	4378.78
941.056	4425.11
941.363	4320.71
941.67	4314.38
941.977	4281.38
942.284	4258.33
942.591	4287.71
942.898	4254.27
943.205	4263.31
943.511	4164.55
943.818	4176.75
944.125	4183.76
944.431	4152.57
944.738	4129.98
945.044	4116.87
945.35	4125.46
945.657	4121.84
945.963	4079.58
946.269	4035.97
946.575	4015.18
946.881	3992.8
947.187	3971.79
947.493	3966.82
947.799	3964.56
948.105	3951.68
948.41	3888.17
948.716	3904.22
949.022	3891.56
949.327	3887.04
949.633	3849.98
949.938	3846.82
950.244	3847.95
950.549	3776.54
950.854	3750.55
951.16	3828.06
951.465	3765.69
951.77	3753.26
952.075	3713.49
952.38	3760.95
952.685	3699.25
952.99	3665.58
953.294	3697.67
953.599	3661.51
953.904	3601.85
954.209	3619.48
954.513	3617.9
954.818	3597.56
955.122	3572.48
955.426	3545.58
955.731	3590.1
956.035	3546.04
956.339	3531.35
956.643	3466.26
956.948	3494.06
957.252	3495.42
957.556	3451.8
957.86	3463.1
958.163	3466.72
958.467	3434.63
958.771	3431.69
959.075	3417.68
959.378	3328.64
959.682	3365.48
959.985	3312.6
960.289	3340.84
960.592	3318.02
960.896	3313.95
961.199	3320.51
961.502	3274.41
961.805	3254.29
962.108	3275.08
962.411	3235.54
962.714	3243.22
963.017	3179.49
963.32	3234.41
963.623	3186.95
963.926	3189.89
964.228	3158.02
964.531	3160.51
964.833	3103.56
965.136	3140.85
965.438	3077.8
965.741	3092.72
966.043	3089.55
966.345	3072.38
966.648	3042.1
966.95	3023.79
967.252	3012.94
967.554	2979.5
967.856	3009.33
968.158	2951.25
968.46	2974.07
968.761	2980.63
969.063	2942.44
969.365	2937.69
969.666	2903.79
969.968	2868.54
970.269	2885.26
970.571	2824.93
970.872	2860.63
971.174	2826.96
971.475	2826.28
971.776	2833.06
972.077	2825.38
972.378	2816.34
972.679	2817.47
972.98	2782.44
973.281	2765.72
973.582	2749.22
973.883	2748.77
974.183	2760.07
974.484	2746.74
974.785	2686.85
975.085	2657.25
975.386	2709.45
975.686	2685.04
975.986	2674.65
976.287	2645.04
976.587	2641.2
976.887	2607.08
977.187	2644.37
977.487	2606.4
977.787	2632.39
978.087	2540.64
978.387	2607.08
978.687	2524.59
978.987	2545.61
979.286	2517.36
979.586	2525.72
979.885	2524.82
980.185	2506.29
980.484	2486.18
980.784	2481.66
981.083	2459.96
981.382	2471.04
981.682	2456.8
981.981	2447.76
982.28	2443.47
982.579	2404.37
982.878	2437.37
983.177	2387.88
983.475	2360.53
983.774	2381.77
984.073	2404.15
984.372	2382.45
984.67	2366.41
984.969	2348.33
985.267	2315.79
985.566	2328.67
985.864	2316.69
986.162	2320.31
986.461	2252.74
986.759	2285.5
987.057	2237.6
987.355	2247.99
987.653	2246.18
987.951	2209.12
988.249	2225.62
988.547	2249.12
988.844	2203.47
989.142	2207.09
989.44	2186.3
989.737	2173.19
990.035	2153.3
990.332	2149.24
990.63	2159.18
990.927	2145.85
991.224	2150.14
991.521	2134.1
991.819	2106.98
992.116	2120.54
992.413	2079.18
992.71	2069.69
993.006	2079.63
993.303	2071.95
993.6	2076.92
993.897	2044.16
994.193	2048
994.49	2048.9
994.787	2036.92
995.083	2001.22
995.379	2022.91
995.676	1991.05
995.972	1995.57
996.268	2002.35
996.565	1963.48
996.861	1972.07
997.157	1943.59
997.453	1913.09
997.749	1930.49
998.044	1898.62
998.34	1909.24
998.636	1885.52
998.932	1926.64
999.227	1887.78
999.523	1887.78
999.818	1882.58
1000.114	1859.98
1000.409	1845.74
1000.704	1852.75
1001	1803.03
1001.295	1799.42
1001.59	1826.76
1001.885	1810.49
1002.18	1773.43
1002.475	1776.14
1002.77	1756.71
1003.065	1763.26
1003.359	1786.31
1003.654	1726.65
1003.949	1727.78
1004.243	1733.88
1004.538	1721.45
1004.832	1713.77
1005.127	1661.34
1005.421	1648.91
1005.715	1695.69
1006.009	1652.53
1006.304	1683.03
1006.598	1652.75
1006.892	1644.39
1007.186	1622.7
1007.48	1638.52
1007.773	1637.84
1008.067	1614.79
1008.361	1603.04
1008.655	1585.41
1008.948	1572.08
1009.242	1581.57
1009.535	1544.28
1009.829	1565.07
1010.122	1549.25
1010.415	1539.76
1010.708	1535.92
1011.001	1520.33
1011.295	1535.02
1011.588	1510.84
1011.881	1499.54
1012.173	1505.64
1012.466	1449.82
1012.759	1467
1013.052	1468.13
1013.344	1436.04
1013.637	1461.57
1013.93	1448.46
1014.222	1423.61
1014.514	1423.15
1014.807	1408.24
1015.099	1401.23
1015.391	1358.52
1015.683	1412.31
1015.976	1387.68
1016.268	1398.3
1016.56	1365.76
1016.851	1345.64
1017.143	1367.56
1017.435	1331.63
1017.727	1296.6
1018.018	1316.94
1018.31	1328.02
1018.602	1322.14
1018.893	1315.81
1019.185	1282.37
1019.476	1303.16
1019.767	1282.14
1020.058	1284.63
1020.35	1250.96
1020.641	1238.3
1020.932	1234.91
1021.223	1242.14
1021.514	1241.46
1021.804	1228.13
1022.095	1213.22
1022.386	1199.21
1022.677	1205.53
1022.967	1197.4
1023.258	1163.95
1023.548	1176.16
1023.839	1175.03
1024.129	1190.84
1024.419	1142.71
1024.709	1153.11
1025	1156.04
1025.29	1149.26
1025.58	1107
1025.87	1136.38
1026.16	1102.71
1026.449	1125.99
1026.739	1118.53
1027.029	1111.07
1027.319	1096.16
1027.608	1103.16
1027.898	1093.9
1028.187	1065.42
1028.477	1072.2
1028.766	1060.68
1029.055	1060.45
1029.344	1068.14
1029.634	1031.53
1029.923	1028.81
1030.212	1008.7
1030.501	996.5
1030.79	1022.49
1031.078	1010.51
1031.367	988.59
1031.656	982.49
1031.945	985.43
1032.233	981.13
1032.522	961.02
1032.81	980.45
1033.099	941.81
1033.387	951.75
1033.675	948.82
1033.963	919.89
1034.251	942.94
1034.54	928.03
1034.828	936.39
1035.116	910.17
1035.403	931.19
1035.691	919.89
1035.979	921.02
1036.267	920.79
1036.554	905.2
1036.842	878.08
1037.129	869.72
1037.417	879.21
1037.704	887.58
1037.992	873.56
1038.279	864.07
1038.566	859.55
1038.853	859.55
1039.14	859.55
