Data from hue_210_FLMS001491_00021.txt Node
Date: Tue Feb 07 16:40:56 GMT 2017
User: dcchb
Spectrometer: FLMS00149
Trigger mode: 0
Integration Time (sec): 2.000000E-2
Scans to average: 10
Electric dark correction enabled: true
Nonlinearity correction enabled: false
Boxcar width: 0
XAxis mode: Wavelengths
Number of Pixels in Spectrum: 2048
>>>>>Begin Spectral Data<<<<<
341.393	-15.59
341.776	-15.59
342.16	-15.59
342.543	-68.7
342.927	-68.25
343.31	-56.04
343.693	-81.81
344.077	-71.41
344.46	-64.41
344.843	-51.52
345.226	-45.42
345.61	-25.54
345.993	-15.59
346.376	-6.33
346.759	13.33
347.142	20.11
347.525	37.06
347.908	58.53
348.291	77.29
348.674	96.72
349.057	115.03
349.44	138.75
349.823	123.16
350.206	151.86
350.588	195.02
350.971	193.22
351.354	220.33
351.737	241.58
352.119	236.83
352.502	278.41
352.884	270.95
353.267	283.38
353.65	293.55
354.032	284.29
354.414	287.68
354.797	304.4
355.179	312.31
355.562	315.47
355.944	321.8
356.326	325.87
356.709	308.47
357.091	328.58
357.473	321.8
357.855	324.06
358.238	355.92
358.62	335.58
359.002	329.26
359.384	322.25
359.766	332.87
360.148	332.65
360.53	331.06
360.912	336.04
361.294	334.91
361.676	335.36
362.057	331.06
362.439	354.11
362.821	327.9
363.203	328.13
363.584	325.87
363.966	325.64
364.348	316.6
364.729	307.34
365.111	286.32
365.493	342.14
365.874	322.25
366.256	287.22
366.637	293.1
367.019	322.48
367.4	336.04
367.781	320.67
368.163	323.16
368.544	308.01
368.925	316.6
369.306	308.24
369.688	303.27
370.069	318.41
370.45	318.18
370.831	304.85
371.212	318.41
371.593	322.48
371.974	297.62
372.355	302.36
372.736	327
373.117	310.95
373.498	310.95
373.879	314.79
374.26	300.56
374.641	296.49
375.021	319.31
375.402	332.87
375.783	317.73
376.163	319.99
376.544	317.51
376.925	336.26
377.305	308.69
377.686	320.9
378.066	308.47
378.447	322.7
378.827	330.84
379.208	322.48
379.588	329.03
379.968	320.67
380.349	345.75
380.729	330.16
381.109	329.48
381.489	336.94
381.87	318.18
382.25	338.52
382.63	317.73
383.01	334.45
383.39	320.44
383.77	333.32
384.15	337.17
384.53	331.52
384.91	323.61
385.29	332.19
385.67	357.05
386.049	328.35
386.429	333.32
386.809	362.48
387.189	344.4
387.568	350.27
387.948	330.84
388.328	349.6
388.707	339.65
389.087	344.17
389.466	342.82
389.846	371.29
390.225	355.92
390.605	367
390.984	361.35
391.363	368.8
391.743	363.38
392.122	359.09
392.501	391.85
392.881	377.62
393.26	371.74
393.639	376.49
394.018	362.25
394.397	376.26
394.776	363.61
395.155	382.81
395.534	388.01
395.913	388.46
396.292	382.81
396.671	383.94
397.05	397.05
397.429	366.32
397.808	391.4
398.186	395.47
398.565	397.28
398.944	406.09
399.323	390.05
399.701	402.02
400.08	389.59
400.458	405.87
400.837	416.71
401.215	424.62
401.594	414.9
401.972	418.07
402.351	418.52
402.729	415.81
403.107	430.05
403.486	409.71
403.864	442.93
404.242	431.18
404.62	429.82
404.999	422.14
405.377	459.65
405.755	440.44
406.133	468.46
406.511	467.56
406.889	449.03
407.267	467.56
407.645	478.18
408.023	487.44
408.401	484.73
408.779	471.4
409.156	498.29
409.534	490.61
409.912	511.62
410.29	526.09
410.667	521.79
411.045	522.92
411.422	570.15
411.8	557.5
412.178	552.75
412.555	577.84
412.933	575.13
413.31	573.54
413.687	603.37
414.065	595.01
414.442	621.23
414.819	621.68
415.197	621.45
415.574	648.12
415.951	658.74
416.328	635.01
416.705	641.34
417.082	673.88
417.46	690.6
417.837	697.83
418.214	701
418.591	696.25
418.967	719.53
419.344	740.32
419.721	722.47
420.098	734.44
420.475	751.62
420.852	764.73
421.228	778.28
421.605	786.42
421.982	789.36
422.358	806.31
422.735	876.14
423.111	835.91
423.488	858.06
423.864	844.05
424.241	868.68
424.617	912.07
424.994	914.78
425.37	939.41
425.746	946.42
426.123	952.74
426.499	950.94
426.875	981.9
427.251	985.28
427.627	1024.61
428.003	1025.51
428.379	1025.96
428.756	1036.81
429.132	1063.25
429.507	1072.51
429.883	1073.87
430.259	1110.25
430.635	1103.7
431.011	1102.57
431.387	1153.42
431.763	1158.16
432.138	1166.97
432.514	1211.04
432.89	1209.23
433.265	1240.87
433.641	1279.29
434.016	1267.31
434.392	1297.59
434.767	1307.76
435.143	1346.63
435.518	1379.4
435.894	1372.62
436.269	1395.9
436.644	1425.05
437.02	1471.6
437.395	1472.28
437.77	1535.33
438.145	1533.97
438.52	1541.2
438.895	1587.75
439.271	1591.14
439.646	1626.85
440.021	1647.19
440.395	1670.24
440.77	1647.19
441.145	1681.31
441.52	1749.78
441.895	1726.51
442.27	1752.04
442.645	1766.06
443.019	1795.21
443.394	1835.66
443.769	1821.42
444.143	1838.37
444.518	1903.23
444.892	1854.87
445.267	1895.54
445.641	1903.68
446.016	1914.07
446.39	1946.16
446.764	1978.03
447.139	1972.83
447.513	1980.74
447.887	1985.71
448.262	2008.31
448.636	2009.44
449.01	2044.24
449.384	2079.72
449.758	2092.15
450.132	2133.5
450.506	2177.34
450.88	2125.14
451.254	2135.09
451.628	2153.62
452.002	2220.73
452.376	2239.72
452.75	2214.86
453.123	2217.79
453.497	2256.89
453.871	2317.68
454.244	2345.25
454.618	2375.53
454.992	2386.6
455.365	2361.97
455.739	2451.69
456.112	2486.26
456.486	2472.03
456.859	2499.6
457.232	2560.61
457.606	2563.1
457.979	2588.41
458.352	2623.89
458.725	2623.21
459.099	2689.65
459.472	2710.21
459.845	2779.81
460.218	2754.5
460.591	2785.69
460.964	2813.26
461.337	2855.29
461.71	2909.3
462.083	2944.78
462.456	2937.32
462.829	2892.81
463.201	2960.15
463.574	3014.61
463.947	3060.48
464.32	3140.03
464.692	3132.35
465.065	3166.92
465.438	3216.86
465.81	3242.17
466.183	3264.77
466.555	3364.88
466.928	3359.01
467.3	3401.04
467.672	3406.01
468.045	3505.22
468.417	3503.41
468.789	3545.22
469.161	3547.48
469.534	3614.37
469.906	3690.98
470.278	3723.74
470.65	3761.03
471.022	3805.78
471.394	3828.6
471.766	3945.66
472.138	3961.93
472.51	3967.35
472.882	4102.72
473.253	4094.58
473.625	4152.66
473.997	4210.96
474.369	4261.81
474.74	4281.24
475.112	4353.11
475.484	4447.57
475.855	4520.11
476.227	4514.46
476.598	4687.56
476.97	4658.86
477.341	4749.03
477.713	4799.65
478.084	4872.87
478.455	4977.04
478.827	5053.65
479.198	5170.94
479.569	5155.12
479.94	5271.05
480.311	5296.36
480.682	5391.95
481.053	5487.09
481.424	5565.28
481.795	5657.7
482.166	5675.56
482.537	5735.44
482.908	5877.13
483.279	5927.75
483.65	5975.89
484.021	6083.68
484.391	6164.36
484.762	6186.96
485.133	6215.43
485.503	6319.38
485.874	6455.42
486.244	6511.69
486.615	6633.27
486.985	6631.69
487.356	6768.86
487.726	6832.81
488.097	6928.18
488.467	6974.05
488.837	7054.28
489.207	7154.61
489.578	7159.59
489.948	7284.33
490.318	7309.64
490.688	7360.94
491.058	7450.43
491.428	7549.63
491.798	7636.41
492.168	7756.63
492.538	7817.87
492.908	7842.96
493.278	7995.5
493.648	7891.32
494.017	7995.27
494.387	8018.09
494.757	8160.01
495.126	8200.91
495.496	8191.88
495.866	8225.09
496.235	8337.86
496.605	8291.76
496.974	8428.25
497.344	8438.2
497.713	8507.57
498.082	8546.67
498.452	8613.56
498.821	8656.72
499.19	8638.19
499.559	8724.74
499.928	8746.66
500.298	8794.57
500.667	8791.86
501.036	8803.84
501.405	8912.99
501.774	8849.26
502.143	8971.52
502.512	8949.37
502.88	9029.59
503.249	8979.2
503.618	9051.74
503.987	9026.66
504.356	9128.8
504.724	9152.75
505.093	9236.59
505.462	9169.93
505.83	9286.76
506.199	9254.45
506.567	9304.61
506.936	9334.44
507.304	9414.67
507.672	9376.93
508.041	9333.54
508.409	9477.26
508.777	9487.89
509.145	9524.95
509.514	9542.35
509.882	9457.83
510.25	9520.2
510.618	9549.81
510.986	9580.77
511.354	9619.63
511.722	9627.54
512.09	9688.11
512.458	9625.96
512.826	9705.73
513.193	9700.31
513.561	9745.73
513.929	9750.93
514.297	9778.05
514.664	9848.33
515.032	9795.67
515.4	9865.73
515.767	9865.96
516.135	9826.18
516.502	9828.67
516.869	9839.06
517.237	9917.25
517.604	9843.81
517.972	9963.81
518.339	10003.13
518.706	9928.1
519.073	9906.63
519.44	9964.48
519.808	10003.35
520.175	9949.79
520.542	10039.06
520.909	10074.31
521.276	9999.74
521.643	9994.77
522.009	10044.03
522.376	10086.06
522.743	10105.5
523.11	10140.75
523.477	10153.41
523.843	10169.22
524.21	10227.75
524.577	10194.08
524.943	10159.51
525.31	10234.99
525.676	10319.05
526.043	10242.44
526.409	10173.29
526.776	10288.32
527.142	10290.12
527.508	10253.52
527.874	10369.67
528.241	10368.77
528.607	10281.76
528.973	10327.86
529.339	10287.87
529.705	10334.19
530.071	10276.34
530.437	10354.98
530.803	10342.78
531.169	10290.35
531.535	10287.64
531.901	10237.92
532.267	10238.15
532.632	10223.46
532.998	10233.18
533.364	10285.83
533.73	10230.01
534.095	10307.3
534.461	10212.84
534.826	10196.79
535.192	10210.13
535.557	10216.45
535.923	10157.92
536.288	10173.74
536.653	10095.33
537.019	9995.9
537.384	10080.19
537.749	10122.22
538.114	10083.8
538.479	10027.53
538.845	9975.78
539.21	9961.77
539.575	9913.41
539.94	9884.94
540.305	9944.82
540.67	9817.59
541.034	9834.54
541.399	9855.79
541.764	9761.78
542.129	9796.8
542.494	9760.87
542.858	9726.98
543.223	9702.34
543.587	9742.57
543.952	9636.36
544.316	9632.52
544.681	9591.61
545.045	9614.89
545.41	9555
545.774	9500.09
546.138	9483.82
546.503	9460.77
546.867	9453.31
547.231	9544.61
547.595	9392.97
547.959	9376.48
548.324	9368.57
548.688	9302.81
549.052	9284.05
549.416	9230.49
549.779	9275.46
550.143	9196.82
550.507	9170.38
550.871	9182.13
551.235	9130.16
551.599	9154.34
551.962	9105.98
552.326	9048.58
552.689	9080.89
553.053	8912.08
553.417	9040.44
553.78	9044.06
554.143	9023.04
554.507	8985.75
554.87	8962.7
555.234	8979.88
555.597	8904.17
555.96	8898.3
556.323	8859.65
556.686	8876.38
557.05	8886.77
557.413	8851.52
557.776	8861.01
558.139	8805.64
558.502	8861.24
558.865	8790.05
559.228	8814.01
559.59	8790.96
559.953	8785.08
560.316	8877.73
560.679	8829.82
561.041	8839.09
561.404	8865.3
561.767	8814.46
562.129	8765.19
562.492	8788.47
562.854	8771.75
563.217	8779.2
563.579	8801.35
563.941	8793.22
564.304	8774.91
564.666	8821.24
565.028	8812.2
565.39	8789.37
565.753	8859.43
566.115	8818.98
566.477	8849.26
566.839	8842.71
567.201	8828.02
567.563	8870.05
567.925	8890.16
568.287	8876.6
568.648	8871.18
569.01	8899.43
569.372	8905.75
569.734	8874.79
570.095	8964.06
570.457	8975.13
570.819	8983.94
571.18	8993.21
571.542	8968.58
571.903	8988.01
572.265	9017.84
572.626	8987.79
572.987	8945.3
573.349	9021.68
573.71	8992.53
574.071	9035.24
574.432	9067.11
574.794	9061.91
575.155	9090.38
575.516	9056.03
575.877	9058.29
576.238	9129.03
576.599	9129.93
576.96	9108.24
577.32	9161.57
577.681	9189.81
578.042	9167.67
578.403	9166.09
578.763	9180.1
579.124	9168.35
579.485	9157.95
579.845	9263.94
580.206	9223.03
580.566	9285.86
580.927	9233.43
581.287	9344.16
581.648	9232.98
582.008	9256.71
582.368	9297.16
582.728	9312.52
583.089	9271.62
583.449	9334.67
583.809	9396.36
584.169	9354.1
584.529	9261
584.889	9361.79
585.249	9317.27
585.609	9281.79
585.969	9346.42
586.329	9359.75
586.688	9322.01
587.048	9364.05
587.408	9312.75
587.768	9358.17
588.127	9302.81
588.487	9321.79
588.846	9403.37
589.206	9303.26
589.565	9308.23
589.925	9405.63
590.284	9390.94
590.643	9337.61
591.003	9450.6
591.362	9435.23
591.721	9443.59
592.08	9392.52
592.44	9434.33
592.799	9420.09
593.158	9424.61
593.517	9475.91
593.876	9471.39
594.235	9390.04
594.593	9421.67
594.952	9381
595.311	9408.11
595.67	9451.5
596.029	9500.09
596.387	9516.13
596.746	9528.79
597.104	9461.9
597.463	9500.32
597.822	9461.9
598.18	9478.17
598.538	9460.54
598.897	9545.29
599.255	9404.05
599.613	9593.65
599.972	9418.28
600.33	9537.38
600.688	9523.82
601.046	9523.37
601.404	9547.32
601.762	9520.43
602.12	9575.12
602.478	9549.58
602.836	9562.69
603.194	9521.56
603.552	9500.77
603.91	9502.35
604.268	9544.16
604.625	9533.76
604.983	9571.95
605.341	9487.21
605.698	9549.13
606.056	9639.97
606.413	9522.91
606.771	9559.3
607.128	9636.81
607.485	9568.34
607.843	9612.4
608.2	9611.05
608.557	9624.83
608.914	9607.21
609.272	9626.41
609.629	9658.73
609.986	9663.7
610.343	9631.84
610.7	9721.1
611.057	9637.49
611.414	9679.29
611.771	9657.37
612.127	9721.33
612.484	9727.2
612.841	9725.39
613.198	9644.94
613.554	9687.43
613.911	9796.58
614.267	9785.51
614.624	9716.58
614.98	9714.09
615.337	9800.19
615.693	9808.33
616.05	9788.22
616.406	9833.87
616.762	9769.01
617.118	9769.69
617.475	9757.48
617.831	9776.01
618.187	9729.01
618.543	9806.3
618.899	9824.37
619.255	9849.23
619.611	9790.93
619.967	9770.82
620.323	9849.68
620.678	9800.19
621.034	9796.8
621.39	9788.67
621.746	9774.43
622.101	9966.29
622.457	9800.65
622.812	9800.19
623.168	9881.1
623.523	9899.4
623.879	9978.95
624.234	9870.7
624.589	9881.32
624.945	9895.78
625.3	9863.7
625.655	9824.15
626.01	9856.92
626.365	9816.69
626.72	9816.24
627.075	9827.09
627.43	9771.49
627.785	9811.95
628.14	9805.39
628.495	9877.48
628.85	9853.98
629.205	9782.34
629.559	9826.18
629.914	9804.94
630.269	9788.9
630.623	9762.91
630.978	9738.28
631.332	9735.11
631.687	9727.43
632.041	9631.39
632.396	9722.68
632.75	9726.3
633.104	9638.84
633.459	9665.06
633.813	9683.36
634.167	9657.15
634.521	9636.13
634.875	9719.07
635.229	9658.05
635.583	9665.96
635.937	9573.53
636.291	9589.13
636.645	9634.1
636.999	9589.35
637.352	9554.33
637.706	9513.2
638.06	9538.51
638.413	9512.97
638.767	9454.44
639.121	9514.78
639.474	9384.84
639.828	9466.64
640.181	9407.44
640.534	9468.9
640.888	9458.96
641.241	9445.85
641.594	9439.75
641.947	9437.27
642.301	9375.57
642.654	9421.22
643.007	9446.98
643.36	9378.74
643.713	9409.02
644.066	9367.21
644.419	9382.13
644.771	9338.51
645.124	9255.8
645.477	9274.56
645.83	9141.68
646.182	9128.12
646.535	9070.5
646.888	9069.82
647.24	9028.24
647.593	9065.98
647.945	9055.36
648.298	9012.19
648.65	8994.57
649.002	8965.19
649.355	9143.04
649.707	9104.39
650.059	9062.59
650.411	9169.02
650.763	9209.02
651.115	9353.88
651.467	9319.53
651.819	9232.53
652.171	9288.12
652.523	9251.73
652.875	9247.44
653.227	9203.37
653.578	9279.08
653.93	9260.55
654.282	9191.4
654.633	9165.41
654.985	9274.78
655.337	9328.12
655.688	9258.06
656.039	9305.29
656.391	9256.71
656.742	9250.15
657.094	9249.7
657.445	9287.89
657.796	9276.37
658.147	9260.1
658.498	9240.21
658.849	9352.75
659.2	9337.61
659.551	9313.2
659.902	9258.29
660.253	9317.72
660.604	9334.9
660.955	9264.62
661.306	9358.62
661.656	9359.75
662.007	9389.36
662.358	9342.81
662.708	9346.87
663.059	9269.13
663.409	9243.15
663.76	9327.44
664.11	9364.27
664.461	9318.85
664.811	9329.02
665.161	9365.18
665.511	9387.32
665.862	9395.46
666.212	9336.48
666.562	9377.38
666.912	9431.84
667.262	9354.1
667.612	9382.35
667.962	9314.11
668.312	9287.44
668.662	9443.37
669.011	9319.3
669.361	9343.03
669.711	9336.25
670.06	9379.64
670.41	9301.22
670.76	9277.04
671.109	9307.55
671.459	9274.78
671.808	9283.6
672.157	9294.44
672.507	9237.95
672.856	9278.85
673.205	9218.51
673.554	9326.76
673.904	9207.67
674.253	9279.3
674.602	9247.89
674.951	9160.89
675.3	9109.82
675.649	9173.77
675.998	9250.6
676.346	9208.35
676.695	9171.06
677.044	9118.86
677.393	9184.39
677.741	9257.38
678.09	9145.3
678.438	9154.11
678.787	9103.72
679.135	9137.16
679.484	9002.02
679.832	9002.25
680.181	9026.43
680.529	9049.03
680.877	9051.06
681.225	9033.21
681.573	9043.6
681.922	9006.99
682.27	8966.77
682.618	9015.13
682.966	8969.26
683.314	9065.52
683.661	8922.93
684.009	8918.18
684.357	8878.86
684.705	8856.49
685.053	8859.43
685.4	8821.01
685.748	8795.93
686.095	8774.91
686.443	8776.27
686.79	8743.72
687.138	8770.62
687.485	8718.64
687.832	8715.25
688.18	8719.32
688.527	8629.83
688.874	8644.29
689.221	8580.57
689.568	8563.16
689.915	8570.17
690.262	8583.73
690.609	8512.09
690.956	8510.28
691.303	8460.79
691.65	8454.92
691.997	8435.94
692.344	8384.41
692.69	8311.19
693.037	8375.82
693.383	8232.1
693.73	8284.53
694.077	8201.82
694.423	8189.84
694.769	8189.39
695.116	8111.65
695.462	8106.91
695.808	8143.29
696.155	8134.7
696.501	8021.03
696.847	8014.7
697.193	7995.95
697.539	7964.08
697.885	7902.17
698.231	7907.14
698.577	7903.3
698.923	7826.69
699.269	7821.04
699.614	7748.72
699.96	7706.46
700.306	7690.19
700.651	7708.72
700.997	7644.09
701.342	7673.47
701.688	7544.66
702.033	7577.88
702.379	7560.71
702.724	7550.31
703.069	7558.9
703.415	7469.63
703.76	7432.12
704.105	7506.24
704.45	7435.51
704.795	7326.81
705.14	7383.76
705.485	7283.42
705.83	7310.77
706.175	7317.55
706.52	7250.43
706.865	7193.71
707.209	7195.29
707.554	7164.56
707.899	7198.68
708.243	7148.51
708.588	7220.6
708.932	7094.95
709.277	7102.64
709.621	7116.42
709.966	7042.75
710.31	7077.1
710.654	6978.8
710.998	7023.77
711.342	6988.97
711.687	6911.68
712.031	6946.94
712.375	6901.51
712.719	6920.04
713.063	6880.05
713.407	6909.87
713.75	6889.08
714.094	6891.57
714.438	6831.46
714.782	6851.12
715.125	6775.87
715.469	6812.48
715.812	6806.83
716.156	6767.73
716.499	6747.17
716.843	6790.56
717.186	6718.24
717.53	6720.5
717.873	6716.43
718.216	6738.13
718.559	6691.8
718.902	6699.48
719.246	6688.86
719.589	6722.08
719.932	6656.32
720.275	6640.05
720.617	6682.76
720.96	6619.71
721.303	6615.65
721.646	6654.06
721.989	6576.32
722.331	6631.69
722.674	6574.74
723.016	6632.59
723.359	6616.78
723.701	6617.68
724.044	6537.91
724.386	6559.83
724.729	6634.63
725.071	6599.15
725.413	6625.81
725.755	6569.32
726.097	6519.83
726.439	6557.79
726.782	6544.01
727.124	6479.83
727.465	6492.26
727.807	6473.05
728.149	6547.17
728.491	6545.36
728.833	6522.31
729.175	6447.06
729.516	6516.89
729.858	6518.02
730.199	6503.11
730.541	6515.31
730.882	6518.25
731.224	6535.42
731.565	6475.08
731.906	6467.17
732.248	6548.75
732.589	6459.27
732.93	6483.45
733.271	6468.3
733.612	6527.96
733.953	6518.02
734.294	6508.3
734.635	6473.28
734.976	6485.71
735.317	6473.95
735.658	6458.59
735.999	6495.42
736.339	6516.44
736.68	6541.07
737.021	6473.95
737.361	6475.08
737.702	6544.46
738.042	6486.84
738.383	6474.18
738.723	6595.76
739.063	6497.46
739.404	6580.62
739.744	6486.38
740.084	6578.81
740.424	6573.39
740.764	6621.75
741.104	6632.14
741.444	6597.57
741.784	6576.32
742.124	6594.63
742.464	6662.2
742.804	6665.59
743.143	6707.39
743.483	6727.28
743.823	6747.39
744.162	6751.23
744.502	6782.87
744.841	6805.02
745.181	6851.57
745.52	6863.32
745.86	6878.46
746.199	6929.76
746.538	6956.43
746.877	7036.43
747.216	7060.15
747.556	7109.87
747.895	7143.32
748.234	7149.87
748.573	7162.75
748.911	7273.71
749.25	7350.54
749.589	7339.47
749.928	7395.06
750.267	7544.89
750.605	7578.33
750.944	7685.22
751.283	7668.95
751.621	7804.09
751.96	7869.62
752.298	7934.48
752.636	8082.95
752.975	8129.05
753.313	8171.31
753.651	8340.57
753.989	8380.8
754.327	8462.38
754.666	8567.68
755.004	8809.49
755.342	8798.64
755.679	8968.58
756.017	9054.68
756.355	9218.51
756.693	9316.82
757.031	9517.04
757.368	9609.92
757.706	9792.28
758.044	9890.59
758.381	10094.2
758.719	10202.44
759.056	10321.76
759.394	10478.82
759.731	10684.69
760.068	10840.84
760.405	10947.96
760.743	11059.14
761.08	11273.38
761.417	11413.49
761.754	11559.47
762.091	11782.97
762.428	11996.75
762.765	12124.43
763.102	12307.92
763.438	12342.05
763.775	12581.36
764.112	12790.85
764.449	12949.26
764.785	13083.5
765.122	13244.4
765.458	13384.73
765.795	13521.68
766.131	13720.09
766.467	13897.04
766.804	14042.57
767.14	14086.86
767.476	14302.22
767.812	14446.63
768.148	14666.06
768.485	14656.34
768.821	14806.84
769.157	15008.87
769.492	15146.95
769.828	15374.74
770.164	15395.75
770.5	15504.45
770.836	15606.37
771.171	15651.11
771.507	15881.39
771.842	15854.27
772.178	15977.88
772.513	16051.78
772.849	16231.21
773.184	16271.89
773.519	16373.13
773.855	16427.36
774.19	16442.73
774.525	16473.92
774.86	16686.79
775.195	16777.86
775.53	16734.25
775.865	16858.99
776.2	16808.15
776.535	16746.9
776.87	16939.44
777.205	17018.08
777.539	16986.22
777.874	17058.08
778.209	17163.62
778.543	17183.28
778.878	17144.86
779.212	17193.9
779.547	17222.6
779.881	17416.04
780.215	17317.96
780.55	17453.78
780.884	17315.7
781.218	17489.71
781.552	17458.98
781.886	17373.55
782.22	17371.29
782.554	17437.06
782.888	17360.45
783.222	17341.92
783.556	17350.05
783.889	17364.97
784.223	17380.33
784.557	17358.41
784.89	17490.39
785.224	17296.49
785.557	17326.1
785.891	17360.9
786.224	17341.46
786.558	17383.95
786.891	17341.92
787.224	17268.7
787.557	17277.51
787.891	17253.11
788.224	17317.96
788.557	17323.39
788.89	17268.47
789.223	17299.43
789.556	17117.74
789.888	17222.37
790.221	17212.2
790.554	17072.55
790.887	17049.27
791.219	16993.9
791.552	17028.7
791.884	17030.74
792.217	16995.49
792.549	16930.85
792.882	16911.87
793.214	16882.95
793.546	16913.23
793.879	16803.63
794.211	16719.56
794.543	16799.11
794.875	16803.4
795.207	16829.61
795.539	16707.81
795.871	16746.45
796.203	16605.67
796.535	16499.91
796.867	16527.02
797.198	16521.6
797.53	16505.33
797.862	16434.82
798.193	16488.61
798.525	16320.02
798.856	16355.73
799.188	16175.85
799.519	16214.94
799.85	16115.06
800.182	16147.82
800.513	16170.87
800.844	16042.97
801.175	16217.2
801.506	16093.36
801.837	15983.99
802.168	16016.98
802.499	15968.17
802.83	15956.64
803.161	15906.93
803.491	15894.95
803.822	15887.94
804.153	15842.52
804.483	15689.53
804.814	15706.71
805.145	15669.64
805.475	15656.54
805.805	15567.95
806.136	15599.59
806.466	15611.34
806.796	15552.81
807.126	15514.85
807.457	15515.52
807.787	15442.98
808.117	15381.97
808.447	15316.89
808.777	15372.48
809.107	15297.9
809.436	15300.39
809.766	15314.85
810.096	15203.89
810.426	15146.49
810.755	15215.42
811.085	15176.1
811.414	15091.81
811.744	14940.85
812.073	15095.2
812.403	15038.02
812.732	14857.01
813.061	14982.66
813.39	14810.91
813.719	14752.15
814.049	14856.78
814.378	14821.53
814.707	14836.22
815.036	14765.71
815.365	14781.08
815.693	14586.51
816.022	14638.71
816.351	14617.02
816.68	14476.68
817.008	14564.36
817.337	14405.5
817.665	14442.78
817.994	14471.94
818.322	14474.42
818.651	14415.44
818.979	14381.77
819.307	14399.62
819.636	14372.96
819.964	14267.87
820.292	14344.03
820.62	14266.07
820.948	14333.18
821.276	14305.39
821.604	14305.84
821.932	14291.6
822.259	14309.91
822.587	14271.94
822.915	14263.35
823.243	14301.54
823.57	14260.42
823.898	14196.24
824.225	14152.17
824.553	14200.3
824.88	14236.46
825.207	14276.01
825.535	14245.28
825.862	14342.45
826.189	14266.52
826.516	14320.3
826.843	14464.25
827.17	14359.85
827.497	14320.98
827.824	14350.13
828.151	14357.81
828.478	14273.75
828.805	14335.89
829.131	14276.23
829.458	14257.7
829.785	14281.66
830.111	14316.23
830.438	14373.18
830.764	14296.8
831.09	14355.55
831.417	14205.05
831.743	14347.19
832.069	14337.25
832.395	14297.93
832.722	14279.62
833.048	14235.33
833.374	14273.07
833.7	14193.53
834.026	14226.29
834.351	14233.07
834.677	14129.57
835.003	14289.12
835.329	14248.44
835.654	14281.88
835.98	14069.01
836.306	14180.64
836.631	14083.47
836.956	14194.43
837.282	14075.34
837.607	14046.41
837.932	14003.93
838.258	14025.85
838.583	14059.29
838.908	13932.06
839.233	13922.12
839.558	13986.75
839.883	13904.95
840.208	13779.3
840.533	13815.68
840.858	13848
841.182	13813.42
841.507	13764.84
841.832	13805.96
842.156	13728.9
842.481	13751.95
842.805	13675.57
843.13	13682.8
843.454	13591.96
843.778	13544.05
844.103	13556.03
844.427	13523.71
844.751	13495.69
845.075	13460.21
845.399	13394.68
845.723	13445.3
846.047	13398.07
846.371	13273.55
846.695	13185.42
847.019	13180.22
847.343	13165.76
847.666	13042.59
847.99	13008.02
848.313	13016.38
848.637	12893.9
848.96	12835.37
849.284	12898.64
849.607	12804.86
849.931	12761.02
850.254	12741.81
850.577	12551.99
850.9	12508.6
851.223	12522.83
851.546	12422.72
851.869	12405.55
852.192	12443.06
852.515	12326.68
852.838	12259.34
853.161	12284.2
853.483	12275.84
853.806	12166.91
854.129	12131.21
854.451	12123.75
854.774	12001.94
855.096	11981.15
855.419	11985.45
855.741	11979.35
856.063	11906.13
856.385	11820.03
856.708	11754.27
857.03	11764.44
857.352	11738
857.674	11699.81
857.996	11697.09
858.318	11558.34
858.64	11636.3
858.961	11555.4
859.283	11528.96
859.605	11434.05
859.926	11532.58
860.248	11480.15
860.57	11344.11
860.891	11408.29
861.212	11379.36
861.534	11289.42
861.855	11337.56
862.176	11342.53
862.498	11276.99
862.819	11214.62
863.14	11244.9
863.461	11248.52
863.782	11200.16
864.103	11165.58
864.424	11078.8
864.745	11121.74
865.065	11048.75
865.386	11030.9
865.707	11099.14
866.027	11103.21
866.348	10961.07
866.668	11032.25
866.989	10976.66
867.309	10911.35
867.63	10975.53
867.95	10918.58
868.27	10807.85
868.59	10884.23
868.91	10836.55
869.23	10838.36
869.55	10772.37
869.87	10849.88
870.19	10796.1
870.51	10815.99
870.83	10792.03
871.15	10692.37
871.469	10716.33
871.789	10677.46
872.109	10729.44
872.428	10633.39
872.748	10748.64
873.067	10612.38
873.386	10627.74
873.706	10571.47
874.025	10559.72
874.344	10562.89
874.663	10626.39
874.982	10572.6
875.301	10468.43
875.62	10513.62
875.939	10447.86
876.258	10467.75
876.577	10428.88
876.896	10459.16
877.214	10339.84
877.533	10400.4
877.852	10387.07
878.17	10354.76
878.489	10373.74
878.807	10332.16
879.125	10380.29
879.444	10330.8
879.762	10277.47
880.08	10284.48
880.398	10219.62
880.716	10213.52
881.034	10214.65
881.352	10242.67
881.67	10153.63
881.988	10197.92
882.306	10141.2
882.624	10106.63
882.941	10056.68
883.259	10087.64
883.577	9973.75
883.894	9953.18
884.212	9961.32
884.529	9959.51
884.846	9895.56
885.164	9929.23
885.481	9861.44
885.798	9894.2
886.115	9801.55
886.432	9834.32
886.75	9831.61
887.067	9722.68
887.383	9773.3
887.7	9818.72
888.017	9632.06
888.334	9692.85
888.651	9666.86
888.967	9658.5
889.284	9621.22
889.6	9496.7
889.917	9471.62
890.233	9551.16
890.55	9426.64
890.866	9507.55
891.182	9461.67
891.498	9447.66
891.815	9344.61
892.131	9357.49
892.447	9316.82
892.763	9283.37
893.079	9217.61
893.395	9200.21
893.71	9175.58
894.026	9205.86
894.342	9131.51
894.657	9154.79
894.973	9072.98
895.289	9118.4
895.604	9077.73
895.92	8936.04
896.235	8937.84
896.55	8873.21
896.865	8920.22
897.181	8867.11
897.496	8907.79
897.811	8817.17
898.126	8821.91
898.441	8764.29
898.756	8712.77
899.071	8680.68
899.386	8731.3
899.7	8704.18
900.015	8560.45
900.33	8530.85
900.644	8525.2
900.959	8557.52
901.273	8491.98
901.588	8421.47
901.902	8430.51
902.216	8357.29
902.531	8313.68
902.845	8329.27
903.159	8280.69
903.473	8236.39
903.787	8173.34
904.101	8180.35
904.415	8164.98
904.729	8162.95
905.042	8140.8
905.356	8082.73
905.67	8062.61
905.984	8066.45
906.297	7977.19
906.611	7949.62
906.924	7907.14
907.237	7848.61
907.551	7905.78
907.864	7856.74
908.177	7788.72
908.491	7790.3
908.804	7719.57
909.117	7692.45
909.43	7647.93
909.743	7616.97
910.056	7531.33
910.368	7560.93
910.681	7562.29
910.994	7487.26
911.307	7532.01
911.619	7420.37
911.932	7449.97
912.244	7392.35
912.557	7343.99
912.869	7270.54
913.181	7283.2
913.494	7270.77
913.806	7177.44
914.118	7198.23
914.43	7171.79
914.742	7187.38
915.054	7113.26
915.366	7122.3
915.678	7071.68
915.99	7011.79
916.302	7050.66
916.613	6997.33
916.925	6927.95
917.236	6841.63
917.548	6943.09
917.859	6803.66
918.171	6833.27
918.482	6804.34
918.794	6760.27
919.105	6748.75
919.416	6721.63
919.727	6721.63
920.038	6630.56
920.349	6603.22
920.66	6635.76
920.971	6611.8
921.282	6577
921.593	6521.86
921.903	6520.96
922.214	6496.33
922.525	6428.76
922.835	6425.82
923.146	6378.36
923.456	6401.87
923.767	6336.33
924.077	6315.54
924.387	6299.04
924.697	6244.81
925.008	6235.54
925.318	6195.54
925.628	6218.14
925.938	6148.09
926.248	6169.33
926.558	6111.7
926.867	6127.97
927.177	6018.37
927.487	6019.73
927.796	5992.84
928.106	5989
928.416	5958.26
928.725	5955.55
929.034	5905.61
929.344	5908.55
929.653	5913.29
929.962	5833.97
930.271	5825.16
930.581	5812.73
930.89	5720.08
931.199	5742.9
931.508	5696.8
931.817	5700.64
932.125	5701.55
932.434	5709.23
932.743	5633.52
933.051	5552.85
933.36	5596.01
933.669	5569.8
933.977	5520.76
934.286	5539.97
934.594	5546.97
934.902	5460.2
935.21	5475.56
935.519	5461.33
935.827	5406.19
936.135	5384.72
936.443	5328
936.751	5371.84
937.059	5292.29
937.367	5285.06
937.674	5316.92
937.982	5281.67
938.29	5236.25
938.597	5252.29
938.905	5134.1
939.213	5164.38
939.52	5126.87
939.827	5167.32
940.135	5096.59
940.442	5100.88
940.749	5066.53
941.056	5034.44
941.363	4967.78
941.67	4965.75
941.977	4985.86
942.284	4925.75
942.591	4938.4
942.898	4936.37
943.205	4922.36
943.511	4864.5
943.818	4865.63
944.125	4827.44
944.431	4807.33
944.738	4775.69
945.044	4748.35
945.35	4743.38
945.657	4712.42
945.963	4696.83
946.269	4650.05
946.575	4636.04
946.881	4651.63
947.187	4639.2
947.493	4618.64
947.799	4551.97
948.105	4593.1
948.41	4521.01
948.716	4527.56
949.022	4543.16
949.327	4520.79
949.633	4462.03
949.938	4488.7
950.244	4476.49
950.549	4440.34
950.854	4364.18
951.16	4364.41
951.465	4426.1
951.77	4324.86
952.075	4292.54
952.38	4318.53
952.685	4262.94
952.99	4228.82
953.294	4223.17
953.599	4147.24
953.904	4207.8
954.209	4151.53
954.513	4205.77
954.818	4163.96
955.122	4146.33
955.426	4111.53
955.731	4119.89
956.035	4133
956.339	4077.63
956.643	4097.75
956.948	4005.32
957.252	3986.34
957.556	4023.17
957.86	3976.39
958.163	3944.98
958.467	3967.35
958.771	3976.39
959.075	3900.91
959.378	3888.26
959.682	3900.01
959.985	3855.72
960.289	3866.11
960.592	3833.8
960.896	3814.81
961.199	3812.1
961.502	3761.71
961.805	3766
962.108	3744.31
962.411	3717.64
962.714	3737.08
963.017	3669.06
963.32	3691.2
963.623	3659.79
963.926	3669.51
964.228	3668.6
964.531	3625.22
964.833	3613.69
965.136	3629.06
965.438	3575.5
965.741	3582.5
966.043	3566.01
966.345	3514.48
966.648	3504.99
966.95	3508.16
967.252	3445.11
967.554	3494.82
967.856	3446.01
968.158	3401.72
968.46	3414.15
968.761	3394.26
969.063	3412.57
969.365	3433.13
969.666	3396.29
969.968	3336.64
970.269	3302.96
970.571	3312.46
970.872	3311.1
971.174	3309.97
971.475	3291.89
971.776	3260.71
972.077	3222.97
972.378	3252.8
972.679	3214.6
972.98	3207.6
973.281	3187.03
973.582	3228.39
973.883	3162.63
974.183	3169.41
974.484	3106.58
974.785	3116.75
975.085	3144.1
975.386	3099.81
975.686	3048.51
975.986	3076.08
976.287	3082.18
976.587	3015.06
976.887	3030.88
977.187	3007.15
977.487	3010.32
977.787	2988.62
978.087	3003.54
978.387	2964.22
978.687	2914.5
978.987	2891
979.286	2941.84
979.586	2929.64
979.885	2907.72
980.185	2895.97
980.484	2867.5
980.784	2858.68
981.083	2841.28
981.382	2852.58
981.682	2827.04
981.981	2804.45
982.28	2817.55
982.579	2764
982.878	2786.82
983.177	2772.36
983.475	2738.46
983.774	2708.18
984.073	2774.84
984.372	2716.09
984.67	2693.26
984.969	2683.77
985.267	2701.4
985.566	2673.83
985.864	2659.14
986.162	2688.52
986.461	2618.24
986.759	2605.81
987.057	2566.03
987.355	2601.74
987.653	2608.74
987.951	2588.41
988.249	2591.57
988.547	2556.99
988.844	2531.68
989.142	2519.03
989.44	2500.73
989.737	2517
990.035	2500.5
990.332	2469.09
990.63	2462.99
990.927	2438.13
991.224	2443.33
991.521	2405.13
991.819	2411.01
992.116	2411.69
992.413	2404.23
992.71	2360.39
993.006	2374.17
993.303	2356.55
993.6	2371.46
993.897	2329.2
994.193	2313.84
994.49	2298.47
994.787	2323.33
995.083	2325.59
995.379	2293.95
995.676	2291.24
995.972	2253.27
996.268	2264.12
996.565	2251.24
996.861	2252.14
997.157	2236.55
997.453	2214.18
997.749	2235.87
998.044	2187.06
998.34	2173.05
998.636	2168.08
998.932	2168.98
999.227	2150
999.523	2127.4
999.818	2166.95
1000.114	2113.62
1000.409	2103.22
1000.704	2091.92
1001	2106.84
1001.295	2045.14
1001.59	2056.9
1001.885	2056.9
1002.18	2036.56
1002.475	2023.45
1002.77	2000.4
1003.065	2018.25
1003.359	1987.97
1003.654	2009.44
1003.949	1987.74
1004.243	1957.46
1004.538	1962.21
1004.832	1914.98
1005.127	1936.67
1005.421	1891.02
1005.715	1889.67
1006.009	1892.83
1006.304	1887.18
1006.598	1885.83
1006.892	1881.31
1007.186	1839.05
1007.48	1844.92
1007.773	1833.85
1008.067	1809.9
1008.361	1793.63
1008.655	1787.52
1008.948	1786.17
1009.242	1773.96
1009.535	1761.99
1009.829	1744.36
1010.122	1736.9
1010.415	1735.32
1010.708	1727.64
1011.001	1726.28
1011.295	1690.8
1011.588	1677.24
1011.881	1663.91
1012.173	1674.98
1012.466	1680.41
1012.759	1662.1
1013.052	1643.57
1013.344	1608.32
1013.637	1630.47
1013.93	1629.56
1014.222	1603.12
1014.514	1618.71
1014.807	1614.19
1015.099	1556.34
1015.391	1565.83
1015.683	1565.83
1015.976	1558.6
1016.268	1554.08
1016.56	1504.59
1016.851	1550.69
1017.143	1541.65
1017.435	1550.02
1017.727	1518.83
1018.018	1472.73
1018.31	1478.83
1018.602	1462.11
1018.893	1449
1019.185	1451.26
1019.476	1449.23
1019.767	1452.39
1020.058	1418.27
1020.35	1424.14
1020.641	1412.62
1020.932	1405.61
1021.223	1358.16
1021.514	1376.01
1021.804	1371.72
1022.095	1368.55
1022.386	1369.46
1022.677	1331.94
1022.967	1307.31
1023.258	1304.15
1023.548	1327.2
1023.839	1304.15
1024.129	1299.17
1024.419	1298.27
1024.709	1281.55
1025	1276.12
1025.29	1246.75
1025.58	1242
1025.87	1238.16
1026.16	1250.81
1026.449	1264.15
1026.739	1232.74
1027.029	1191.38
1027.319	1229.8
1027.608	1224.37
1027.898	1214.88
1028.187	1179.18
1028.477	1180.53
1028.766	1162.68
1029.055	1146.18
1029.344	1176.24
1029.634	1145.51
1029.923	1146.41
1030.212	1127.2
1030.501	1131.27
1030.79	1133.98
1031.078	1110.03
1031.367	1117.26
1031.656	1124.49
1031.945	1109.35
1032.233	1085.17
1032.522	1085.17
1032.81	1076.13
1033.099	1047.66
1033.387	1056.47
1033.675	1074.77
1033.963	1034.32
1034.251	1035.9
1034.54	1014.66
1034.828	1021.44
1035.116	1020.31
1035.403	992.97
1035.691	999.07
1035.979	996.13
1036.267	969.24
1036.554	986.87
1036.842	968.34
1037.129	979.18
1037.417	983.93
1037.704	938.73
1037.992	962.23
1038.279	936.7
1038.566	932.86
1038.853	932.86
1039.14	932.86
