Data from hue_200_FLMS001491_00005.txt Node
Date: Tue Feb 07 16:42:44 GMT 2017
User: dcchb
Spectrometer: FLMS00149
Trigger mode: 0
Integration Time (sec): 2.000000E-2
Scans to average: 10
Electric dark correction enabled: true
Nonlinearity correction enabled: false
Boxcar width: 0
XAxis mode: Wavelengths
Number of Pixels in Spectrum: 2048
>>>>>Begin Spectral Data<<<<<
341.393	-8.12
341.776	-8.12
342.16	-8.12
342.543	-57.16
342.927	-56.71
343.31	-60.55
343.693	-69.81
344.077	-59.65
344.46	-58.06
344.843	-49.25
345.226	-47.22
345.61	-27.1
345.993	-13.09
346.376	-8.12
346.759	15.38
347.142	17.87
347.525	40.69
347.908	38.21
348.291	71.42
348.674	105.1
349.057	104.19
349.44	136.51
349.823	142.38
350.206	179.67
350.588	198.2
350.971	210.63
351.354	234.36
351.737	232.78
352.119	231.65
352.502	256.73
352.884	268.93
353.267	307.35
353.65	296.5
354.032	310.51
354.414	296.73
354.797	317.75
355.179	317.07
355.562	344.86
355.944	308.48
356.326	342.6
356.709	324.07
357.091	368.82
357.473	348.71
357.855	329.72
358.238	352.55
358.62	333.79
359.002	326.33
359.384	330.63
359.766	331.08
360.148	343.06
360.53	345.77
360.912	337.63
361.294	331.08
361.676	335.37
362.057	331.53
362.439	341.47
362.821	342.6
363.203	312.55
363.584	343.06
363.966	326.33
364.348	334.47
364.729	340.34
365.111	338.31
365.493	324.53
365.874	329.05
366.256	321.36
366.637	303.96
367.019	311.19
367.4	325.88
367.781	315.49
368.163	331.08
368.544	334.24
368.925	297.41
369.306	297.86
369.688	311.42
370.069	307.12
370.45	324.53
370.831	295.37
371.212	318.42
371.593	303.96
371.974	343.51
372.355	320.68
372.736	328.14
373.117	318.42
373.498	309.61
373.879	322.04
374.26	321.59
374.641	324.07
375.021	320.91
375.402	330.85
375.783	319.78
376.163	330.85
376.544	331.53
376.925	354.81
377.305	326.11
377.686	336.28
378.066	317.75
378.447	326.79
378.827	331.53
379.208	332.21
379.588	322.04
379.968	351.64
380.349	348.93
380.729	336.5
381.109	335.82
381.489	344.41
381.87	347.58
382.25	364.75
382.63	317.97
383.01	362.26
383.39	351.64
383.77	357.97
384.15	340.34
384.53	342.38
384.91	372.43
385.29	355.71
385.67	333.56
386.049	364.75
386.429	341.02
386.809	362.94
387.189	380.57
387.568	353.23
387.948	358.42
388.328	365.65
388.707	362.26
389.087	374.92
389.466	372.66
389.846	384.86
390.225	387.8
390.605	378.08
390.984	391.42
391.363	384.64
391.743	390.74
392.122	388.25
392.501	381.47
392.881	398.2
393.26	379.44
393.639	402.94
394.018	391.42
394.397	394.35
394.776	407.69
395.155	411.53
395.534	407.46
395.913	398.87
396.292	401.13
396.671	414.24
397.05	419.21
397.429	409.04
397.808	421.7
398.186	418.31
398.565	432.09
398.944	416.95
399.323	430.74
399.701	430.51
400.08	421.02
400.458	430.51
400.837	440.91
401.215	460.12
401.594	433.45
401.972	441.58
402.351	420.57
402.729	455.82
403.107	455.14
403.486	461.47
403.864	471.64
404.242	466.44
404.62	477.97
404.999	480.23
405.377	473.45
405.755	498.08
406.133	491.3
406.511	488.81
406.889	489.27
407.267	516.16
407.645	504.41
408.023	514.8
408.401	527.23
408.779	530.62
409.156	538.08
409.534	554.12
409.912	558.19
410.29	558.64
410.667	583.5
411.045	569.49
411.422	579.66
411.8	614.69
412.178	614.46
412.555	637.06
412.933	628.7
413.31	630.73
413.687	650.39
414.065	673.89
414.442	669.38
414.819	687.68
415.197	688.81
415.574	680.45
415.951	709.15
416.328	729.94
416.705	726.77
417.082	731.07
417.46	760.22
417.837	768.36
418.214	791.18
418.591	796.83
418.967	782.14
419.344	804.29
419.721	818.52
420.098	803.38
420.475	825.76
420.852	849.94
421.228	851.74
421.605	858.07
421.982	906.2
422.358	926.77
422.735	935.13
423.111	955.02
423.488	970.61
423.864	975.81
424.241	982.59
424.617	1004.51
424.994	1032.76
425.37	1042.25
425.746	1074.56
426.123	1076.37
426.499	1071.4
426.875	1104.84
427.251	1152.53
427.627	1143.71
428.003	1131.96
428.379	1164.5
428.756	1175.12
429.132	1185.52
429.507	1218.74
429.883	1231.17
430.259	1234.78
430.635	1276.59
431.011	1278.17
431.387	1274.33
431.763	1313.65
432.138	1339.87
432.514	1343.48
432.89	1392.75
433.265	1376.02
433.641	1441.56
434.016	1446.98
434.392	1478.39
434.767	1527.21
435.143	1573.08
435.518	1545.28
435.894	1585.74
436.269	1643.13
436.644	1632.06
437.02	1672.29
437.395	1679.07
437.77	1750.7
438.145	1755.22
438.52	1795
438.895	1832.96
439.271	1826.63
439.646	1885.61
440.021	1913.86
440.395	1964.71
440.77	1924.71
441.145	1950.02
441.52	2028.21
441.895	2011.94
442.27	2059.85
442.645	2049.68
443.019	2091.26
443.394	2069.34
443.769	2166.96
444.143	2159.51
444.518	2167.41
444.892	2189.56
445.267	2238.6
445.641	2251.25
446.016	2254.42
446.39	2268.88
446.764	2269.78
447.139	2257.36
447.513	2336.9
447.887	2352.04
448.262	2345.49
448.636	2387.75
449.01	2420.29
449.384	2452.61
449.758	2456.45
450.132	2510.46
450.506	2487.86
450.88	2529.21
451.254	2512.94
451.628	2534.86
452.002	2608.31
452.376	2633.84
452.75	2646.5
453.123	2664.58
453.497	2712.94
453.871	2723.56
454.244	2779.6
454.618	2810.11
454.992	2848.98
455.365	2824.8
455.739	2892.14
456.112	2938.47
456.486	2956.55
456.859	3004.23
457.232	3014.4
457.606	3032.48
457.979	3072.7
458.352	3166.03
458.725	3211.91
459.099	3191.12
459.472	3260.95
459.845	3337.1
460.218	3323.99
460.591	3345.91
460.964	3333.49
461.337	3443.09
461.71	3523.76
462.083	3528.06
462.456	3555.63
462.829	3586.59
463.201	3653.25
463.574	3663.42
463.947	3756.75
464.32	3779.58
464.692	3789.74
465.065	3841.95
465.438	3918.78
465.81	3962.62
466.183	4004.88
466.555	4073.13
466.928	4085.1
467.3	4070.19
467.672	4171.43
468.045	4269.05
468.417	4279
468.789	4341.82
469.161	4334.14
469.534	4438.77
469.906	4513.79
470.278	4543.17
470.65	4554.7
471.022	4676.28
471.394	4808.25
471.766	4815.25
472.138	4875.82
472.51	4942.71
472.882	5011.41
473.253	5058.86
473.625	5144.06
473.997	5261.8
474.369	5246.88
474.74	5310.61
475.112	5413.88
475.484	5485.52
475.855	5579.98
476.227	5654.33
476.598	5813.87
476.97	5797.15
477.341	5942.68
477.713	6019.29
478.084	6025.17
478.455	6167.08
478.827	6217.25
479.198	6410.24
479.569	6431.94
479.94	6628.54
480.311	6652.04
480.682	6740.18
481.053	6851.13
481.424	6965.93
481.795	7047.51
482.166	7140.84
482.537	7216.32
482.908	7346.26
483.279	7370.67
483.65	7571.11
484.021	7721.17
484.391	7767.72
484.762	7856.98
485.133	7848.85
485.503	7997.32
485.874	8151.21
486.244	8207.26
486.615	8393.92
486.985	8489.06
487.356	8516.17
487.726	8597.53
488.097	8841.14
488.467	8804.53
488.837	8988.48
489.207	9063.28
489.578	9131.98
489.948	9263.73
490.318	9345.08
490.688	9364.97
491.058	9434.12
491.428	9616.03
491.798	9646.99
492.168	9841.56
492.538	9877.27
492.908	9947.32
493.278	10074.33
493.648	10105.74
494.017	10145.06
494.387	10311.83
494.757	10297.14
495.126	10428.21
495.496	10414.2
495.866	10483.81
496.235	10567.19
496.605	10697.36
496.974	10665.27
497.344	10739.62
497.713	10862.55
498.082	10912.04
498.452	10991.82
498.821	11016.22
499.19	10972.16
499.559	11133.73
499.928	11068.88
500.298	11145.03
500.667	11272.26
501.036	11258.93
501.405	11352.26
501.774	11328.98
502.143	11415.31
502.512	11439.26
502.88	11519.26
503.249	11456.89
503.618	11515.19
503.987	11584.12
504.356	11679.71
504.724	11667.96
505.093	11692.81
505.462	11702.31
505.83	11746.15
506.199	11835.86
506.567	11873.83
506.936	11876.99
507.304	12027.04
507.672	12035.18
508.041	12078.34
508.409	12142.97
508.777	12170.54
509.145	12276.3
509.514	12203.08
509.882	12247.38
510.25	12180.26
510.618	12201.28
510.986	12204.21
511.354	12256.64
511.722	12376.86
512.09	12528.05
512.458	12387.71
512.826	12453.25
513.193	12492.79
513.561	12497.99
513.929	12586.58
514.297	12605.78
514.664	12586.35
515.032	12665.44
515.4	12743.86
515.767	12743.86
516.135	12689.4
516.502	12581.83
516.869	12817.76
517.237	12787.7
517.604	12702.73
517.972	12823.41
518.339	12881.94
518.706	12831.54
519.073	12824.99
519.44	12760.13
519.808	12895.95
520.175	12864.31
520.542	12994.25
520.909	12965.32
521.276	12963.06
521.643	13015.94
522.009	13051.2
522.376	13057.07
522.743	13034.25
523.11	13129.16
523.477	13175.26
523.843	13165.77
524.21	13234.24
524.577	13219.1
524.943	13165.32
525.31	13218.2
525.676	13262.04
526.043	13299.55
526.409	13309.04
526.776	13376.16
527.142	13350.17
527.508	13345.65
527.874	13376.84
528.241	13367.12
528.607	13440.79
528.973	13304.98
529.339	13446.44
529.705	13442.15
530.071	13429.94
530.437	13387.91
530.803	13450.96
531.169	13464.97
531.535	13376.84
531.901	13329.61
532.267	13317.63
532.632	13335.48
532.998	13293.9
533.364	13329.38
533.73	13281.25
534.095	13374.8
534.461	13271.3
534.826	13372.77
535.192	13200.35
535.557	13203.51
535.923	13240.34
536.288	13187.92
536.653	13134.58
537.019	13062.5
537.384	13020.69
537.749	13044.87
538.114	13001.71
538.479	12893.69
538.845	12853.91
539.21	12838.55
539.575	12897.3
539.94	12840.81
540.305	12818.89
540.67	12707.93
541.034	12659.79
541.399	12741.15
541.764	12666.57
542.129	12654.37
542.494	12566.46
542.858	12559.68
543.223	12516.52
543.587	12563.53
543.952	12412.12
544.316	12431.78
544.681	12336.41
545.045	12376.19
545.41	12294.15
545.774	12232.91
546.138	12234.27
546.503	12176.64
546.867	12135.74
547.231	12098.91
547.595	12085.8
547.959	12026.59
548.324	12019.13
548.688	11900.04
549.052	11818.91
549.416	11899.14
549.779	11838.35
550.143	11780.27
550.507	11841.51
550.871	11730.33
551.235	11618.01
551.599	11721.74
551.962	11634.51
552.326	11601.97
552.689	11575.75
553.053	11510.67
553.417	11520.16
553.78	11587.73
554.143	11429.54
554.507	11413.73
554.87	11403.78
555.234	11522.87
555.597	11364.01
555.96	11316.78
556.323	11407.62
556.686	11294.41
557.05	11301.41
557.413	11323.56
557.776	11189.32
558.139	11354.29
558.502	11197.46
558.865	11221.19
559.228	11241.07
559.59	11185.03
559.953	11224.8
560.316	11220.06
560.679	11155.65
561.041	11167.86
561.404	11155.65
561.767	11215.54
562.129	11150
562.492	11194.75
562.854	11105.94
563.217	11118.37
563.579	11138.93
563.941	11171.25
564.304	11077.46
564.666	11228.42
565.028	11202.66
565.39	11151.59
565.753	11154.07
566.115	11153.85
566.477	11149.78
566.839	11189.32
567.201	11159.49
567.563	11223.22
567.925	11265.48
568.287	11183.9
568.648	11206.27
569.01	11260.96
569.372	11300.96
569.734	11186.16
570.095	11216.44
570.457	11265.25
570.819	11272.94
571.18	11184.13
571.542	11288.3
571.903	11272.49
572.265	11300.96
572.626	11319.26
572.987	11325.37
573.349	11284.92
573.71	11339.38
574.071	11392.03
574.432	11382.54
574.794	11345.48
575.155	11412.6
575.516	11284.69
575.877	11458.24
576.238	11347.29
576.599	11326.72
576.96	11366.72
577.32	11360.39
577.681	11402.65
578.042	11379.15
578.403	11386.61
578.763	11378.92
579.124	11432.48
579.485	11458.92
579.845	11458.02
580.206	11423.44
580.566	11505.7
580.927	11356.78
581.287	11477.68
581.648	11353.84
582.008	11502.54
582.368	11437.23
582.728	11470.45
583.089	11442.43
583.449	11375.99
583.809	11396.32
584.169	11433.39
584.529	11344.12
584.889	11407.17
585.249	11350.9
585.609	11365.37
585.969	11356.1
586.329	11387.06
586.688	11390
587.048	11348.64
587.408	11331.47
587.768	11302.99
588.127	11387.96
588.487	11313.61
588.846	11378.02
589.206	11308.42
589.565	11310.68
589.925	11337.12
590.284	11311.36
590.643	11310.23
591.003	11396.1
591.362	11339.83
591.721	11294.41
592.08	11308.42
592.44	11289.66
592.799	11265.03
593.158	11253.96
593.517	11271.81
593.876	11285.82
594.235	11340.05
594.593	11309.1
594.952	11295.54
595.311	11218.02
595.67	11274.29
596.029	11347.29
596.387	11274.75
596.746	11262.77
597.104	11248.31
597.463	11196.1
597.822	11268.42
598.18	11153.17
598.538	11209.89
598.897	11270.68
599.255	11194.07
599.613	11297.57
599.972	11259.61
600.33	11230.68
600.688	11227.06
601.046	11219.15
601.404	11235.88
601.762	11285.82
602.12	11276.55
602.478	11267.51
602.836	11203.34
603.194	11282.2
603.552	11289.43
603.91	11216.89
604.268	11231.81
604.625	11204.24
604.983	11231.58
605.341	11196.33
605.698	11223.67
606.056	11262.09
606.413	11270.23
606.771	11263.22
607.128	11329.43
607.485	11238.36
607.843	11237.23
608.2	11240.17
608.557	11240.17
608.914	11255.76
609.272	11311.36
609.629	11270.45
609.986	11261.41
610.343	11227.06
610.7	11328.08
611.057	11300.96
611.414	11276.1
611.771	11253.28
612.127	11314.52
612.484	11320.39
612.841	11394.06
613.198	11381.41
613.554	11266.84
613.911	11461.41
614.267	11364.24
614.624	11369.21
614.98	11351.35
615.337	11465.48
615.693	11424.8
616.05	11397.68
616.406	11422.76
616.762	11450.79
617.118	11535.08
617.475	11373.05
617.831	11479.49
618.187	11493.95
618.543	11503.89
618.899	11471.8
619.255	11425.7
619.611	11493.5
619.967	11462.54
620.323	11518.13
620.678	11528.75
621.034	11503.21
621.39	11404.01
621.746	11495.08
622.101	11654.17
622.457	11493.05
622.812	11461.41
623.168	11484.68
623.523	11443.1
623.879	11490.79
624.234	11430.22
624.589	11495.76
624.945	11506.83
625.3	11467.51
625.655	11446.04
626.01	11442.65
626.365	11449.66
626.72	11490.56
627.075	11452.14
627.43	11441.75
627.785	11448.75
628.14	11510.67
628.495	11456.21
628.85	11401.97
629.205	11406.72
629.559	11426.61
629.914	11308.87
630.269	11396.55
630.623	11377.34
630.978	11369.43
631.332	11332.15
631.687	11419.15
632.041	11342.09
632.396	11380.51
632.75	11269.77
633.104	11276.55
633.459	11263.67
633.813	11248.31
634.167	11245.82
634.521	11159.04
634.875	11267.29
635.229	11229.1
635.583	11152.26
635.937	11109.78
636.291	11153.39
636.645	11144.58
636.999	11150.68
637.352	11174.86
637.706	11081.53
638.06	11090.8
638.413	11096.45
638.767	11121.76
639.121	11059.61
639.474	11009.44
639.828	11072.27
640.181	11037.69
640.534	11048.76
640.888	11030.91
641.241	10952.04
641.594	10950.69
641.947	11042.21
642.301	10970.12
642.654	10964.47
643.007	10933.29
643.36	10836.57
643.713	10916.79
644.066	10836.34
644.419	10898.03
644.771	10846.73
645.124	10771.71
645.477	10717.02
645.83	10646.51
646.182	10564.26
646.535	10544.6
646.888	10517.03
647.24	10467.08
647.593	10584.14
647.945	10562
648.298	10457.37
648.65	10478.83
649.002	10405.16
649.355	10528.32
649.707	10557.25
650.059	10553.63
650.411	10718.83
650.763	10707.76
651.115	10842.21
651.467	10779.39
651.819	10695.78
652.171	10742.1
652.523	10705.04
652.875	10780.07
653.227	10655.55
653.578	10780.52
653.93	10804.93
654.282	10706.17
654.633	10658.26
654.985	10681.99
655.337	10758.15
655.688	10665.95
656.039	10795.21
656.391	10690.58
656.742	10706.85
657.094	10740.3
657.445	10777.13
657.796	10711.6
658.147	10682.67
658.498	10746.62
658.849	10781.2
659.2	10655.33
659.551	10686.29
659.902	10637.93
660.253	10829.11
660.604	10740.52
660.955	10713.4
661.306	10809
661.656	10733.97
662.007	10731.71
662.358	10709.34
662.708	10758.83
663.059	10775.1
663.409	10745.72
663.76	10773.97
664.11	10765.83
664.461	10783.91
664.811	10829.56
665.161	10749.56
665.511	10730.13
665.862	10758.15
666.212	10734.65
666.562	10797.7
666.912	10823.23
667.262	10698.04
667.612	10672.5
667.962	10784.82
668.312	10793.63
668.662	10841.54
669.011	10757.25
669.361	10799.73
669.711	10691.26
670.06	10704.37
670.41	10685.61
670.76	10739.84
671.109	10733.74
671.459	10704.37
671.808	10754.99
672.157	10749.11
672.507	10624.59
672.856	10657.59
673.205	10614.2
673.554	10753.86
673.904	10635.44
674.253	10688.55
674.602	10581.66
674.951	10474.09
675.3	10466.86
675.649	10669.34
675.998	10677.7
676.346	10581.2
676.695	10633.18
677.044	10580.07
677.393	10572.84
677.741	10560.41
678.09	10513.18
678.438	10489.68
678.787	10495.78
679.135	10491.94
679.484	10520.42
679.832	10482.22
680.181	10400.19
680.529	10451.72
680.877	10354.09
681.225	10434.77
681.573	10392.74
681.922	10441.77
682.27	10324.49
682.618	10365.62
682.966	10355.9
683.314	10332.62
683.661	10313.87
684.009	10258.95
684.357	10229.58
684.705	10232.74
685.053	10181.44
685.4	10178.96
685.748	10084.04
686.095	10110.26
686.443	10071.39
686.79	10020.32
687.138	10105.29
687.485	10000.43
687.832	9962.92
688.18	10069.13
688.527	9968.57
688.874	9950.49
689.221	9885.86
689.568	9857.61
689.915	9862.13
690.262	9836.82
690.609	9780.77
690.956	9809.25
691.303	9749.81
691.65	9680.66
691.997	9694.45
692.344	9662.13
692.69	9571.74
693.037	9576.94
693.383	9478.86
693.73	9533.32
694.077	9487.45
694.423	9472.53
694.769	9416.94
695.116	9421.46
695.462	9384.4
695.808	9292.65
696.155	9377.85
696.501	9246.78
696.847	9195.25
697.193	9162.71
697.539	9167.23
697.885	9115.71
698.231	9039.1
698.577	9109.61
698.923	9081.36
699.269	8934.02
699.614	8964.07
699.96	8888.59
700.306	8993.45
700.651	8889.5
700.997	8840.46
701.342	8829.39
701.688	8826.67
702.033	8693.8
702.379	8749.61
702.724	8663.52
703.069	8721.82
703.415	8598.43
703.76	8571.99
704.105	8574.7
704.45	8554.82
704.795	8518.43
705.14	8483.18
705.485	8479.57
705.83	8419.68
706.175	8471.2
706.52	8444.31
706.865	8305.78
707.209	8350.76
707.554	8321.6
707.899	8291.32
708.243	8274.37
708.588	8261.49
708.932	8190.31
709.277	8211.55
709.621	8176.52
709.966	8121.38
710.31	8091.78
710.654	7996.87
710.998	8133.59
711.342	8060.37
711.687	8051.78
712.031	8015.62
712.375	7933.82
712.719	7991.67
713.063	7956.42
713.407	8062.18
713.75	7939.69
714.094	7972.46
714.438	7941.73
714.782	7899.02
715.125	7896.76
715.469	7934.95
715.812	7849.98
716.156	7774.5
716.499	7805.01
716.843	7808.4
717.186	7736.99
717.53	7835.29
717.873	7764.56
718.216	7750.32
718.559	7709.87
718.902	7668.97
719.246	7754.39
719.589	7718.46
719.932	7643.88
720.275	7648.85
720.617	7623.09
720.96	7694.95
721.303	7644.78
721.646	7611.57
721.989	7644.11
722.331	7659.25
722.674	7612.92
723.016	7618.57
723.359	7574.96
723.701	7595.75
724.044	7499.93
724.386	7428.75
724.729	7577.44
725.071	7558.01
725.413	7578.35
725.755	7508.07
726.097	7504
726.439	7461.06
726.782	7431.91
727.124	7491.12
727.465	7447.05
727.807	7458.35
728.149	7391.68
728.491	7395.75
728.833	7440.5
729.175	7450.67
729.516	7442.53
729.858	7454.96
730.199	7501.06
730.541	7408.63
730.882	7428.52
731.224	7438.69
731.565	7456.99
731.906	7429.42
732.248	7445.69
732.589	7402.76
732.93	7402.98
733.271	7434.39
733.612	7423.55
733.953	7419.93
734.294	7461.96
734.635	7386.94
734.976	7475.3
735.317	7408.18
735.658	7500.61
735.999	7452.02
736.339	7409.54
736.68	7515.75
737.021	7472.81
737.361	7448.63
737.702	7498.57
738.042	7451.8
738.383	7462.87
738.723	7465.81
739.063	7439.14
739.404	7492.02
739.744	7499.93
740.084	7509.2
740.424	7495.86
740.764	7490.66
741.104	7552.13
741.444	7558.69
741.784	7550.32
742.124	7570.21
742.464	7603.88
742.804	7596.42
743.143	7585.35
743.483	7665.35
743.823	7582.41
744.162	7692.47
744.502	7670.55
744.841	7698.34
745.181	7770.43
745.52	7817.21
745.86	7828.96
746.199	7844.33
746.538	7930.88
746.877	7979.47
747.216	8068.5
747.556	7997.32
747.895	8111.44
748.234	8146.24
748.573	8158.67
748.911	8262.62
749.25	8280.25
749.589	8337.2
749.928	8391.43
750.267	8487.7
750.605	8521.82
750.944	8579.45
751.283	8745.32
751.621	8729.5
751.96	8847.69
752.298	8978.76
752.636	9051.98
752.975	9069.15
753.313	9170.62
753.651	9391.41
753.989	9383.27
754.327	9557.95
754.666	9599.08
755.004	9740.1
755.342	9907.78
755.679	10034.78
756.017	10100.31
756.355	10317.03
756.693	10418.27
757.031	10600.64
757.368	10714.08
757.706	10904.36
758.044	11030.23
758.381	11198.59
758.719	11420.05
759.056	11512.03
759.394	11710.89
759.731	11818.46
760.068	11994.73
760.405	12164.89
760.743	12326.02
761.08	12576.18
761.417	12657.08
761.754	12887.58
762.091	13068.15
762.428	13179.78
762.765	13460.68
763.102	13605.31
763.438	13765.75
763.775	13973.43
764.112	14157.38
764.449	14450.03
764.785	14429.92
765.122	14594.43
765.458	14773.86
765.795	14976.57
766.131	15121.2
766.467	15203
766.804	15394.41
767.14	15531.36
767.476	15821.75
767.812	15904.68
768.148	16021.51
768.485	16168.18
768.821	16256.54
769.157	16522.07
769.492	16607.94
769.828	16722.29
770.164	16762.74
770.5	16936.97
770.836	17207.7
771.171	17123.63
771.507	17322.95
771.842	17406.79
772.178	17564.98
772.513	17602.04
772.849	17717.97
773.184	17807
773.519	18025.3
773.855	17981.46
774.19	18134.68
774.525	18188.01
774.86	18303.49
775.195	18418.74
775.53	18435.69
775.865	18511.17
776.2	18407.67
776.535	18512.07
776.87	18604.04
777.205	18686.08
777.539	18698.73
777.874	18799.29
778.209	18657.83
778.543	18760.65
778.878	18722.91
779.212	18878.61
779.547	18958.61
779.881	19019.63
780.215	18893.53
780.55	19070.25
780.884	19042.68
781.218	19015.33
781.552	19211.03
781.886	19155.89
782.22	19084.26
782.554	18999.74
782.888	18844.49
783.222	18966.3
783.556	19016.46
783.889	19018.05
784.223	18935.11
784.557	19045.62
784.89	19125.16
785.224	19039.74
785.557	19030.47
785.891	19026.18
786.224	19020.76
786.558	18871.38
786.891	18881.55
787.224	18927.88
787.557	18921.32
787.891	18898.73
788.224	18822.8
788.557	18953.19
788.89	18942.79
789.223	18927.88
789.556	18842.91
789.888	18735.34
790.221	18793.87
790.554	18665.06
790.887	18667.32
791.219	18686.3
791.552	18668.68
791.884	18569.47
792.217	18645.63
792.549	18511.17
792.882	18443.82
793.214	18446.76
793.546	18494.67
793.879	18381.68
794.211	18331.96
794.543	18383.71
794.875	18374.67
795.207	18472.07
795.539	18295.13
795.871	18328.12
796.203	18186.2
796.535	18196.15
796.867	18056.26
797.198	18049.94
797.53	18052.87
797.862	17937.62
798.193	17952.08
798.525	17888.58
798.856	17999.31
799.188	17772.2
799.519	17807.68
799.85	17694.92
800.182	17715.03
800.513	17639.1
800.844	17604.52
801.175	17679.1
801.506	17692.88
801.837	17651.53
802.168	17528.14
802.499	17466
802.83	17440.69
803.161	17379.22
803.491	17334.7
803.822	17389.61
804.153	17262.39
804.483	17209.51
804.814	17098.1
805.145	17175.61
805.475	17181.48
805.805	17099.23
806.136	16991.66
806.466	17019.45
806.796	17037.98
807.126	16895.84
807.457	16842.06
807.787	16825.56
808.117	16801.15
808.447	16784.66
808.777	16808.39
809.107	16632.57
809.436	16736.07
809.766	16741.49
810.096	16532.01
810.426	16490.88
810.755	16549.64
811.085	16501.5
811.414	16600.71
811.744	16398.9
812.073	16308.06
812.403	16465.34
812.732	16312.58
813.061	16375.18
813.39	16165.69
813.719	16179.93
814.049	16255.86
814.378	16121.85
814.707	16158.23
815.036	16163.88
815.365	15978.8
815.693	15930.67
816.022	15990.33
816.351	15932.48
816.68	15849.99
817.008	15898.58
817.337	15776.77
817.665	15805.25
817.994	15900.16
818.322	15779.03
818.651	15674.86
818.979	15647.51
819.307	15742.65
819.636	15737.45
819.964	15609.32
820.292	15718.02
820.62	15678.02
820.948	15647.06
821.276	15693.84
821.604	15572.71
821.932	15616.1
822.259	15658.81
822.587	15607.74
822.915	15558.02
823.243	15575.88
823.57	15600.96
823.898	15579.27
824.225	15519.38
824.553	15502.88
824.88	15547.4
825.207	15582.43
825.535	15554.63
825.862	15633.5
826.189	15565.48
826.516	15654.74
826.843	15642.99
827.17	15577.91
827.497	15692.71
827.824	15608.64
828.151	15706.72
828.478	15619.04
828.805	15758.02
829.131	15666.49
829.458	15552.6
829.785	15523.22
830.111	15657
830.438	15732.48
830.764	15640.51
831.09	15653.61
831.417	15531.58
831.743	15681.18
832.069	15632.15
832.395	15531.36
832.722	15682.31
833.048	15582.43
833.374	15607.74
833.7	15523.67
834.026	15466.95
834.351	15557.57
834.677	15516.22
835.003	15547.85
835.329	15540.62
835.654	15472.83
835.98	15461.3
836.306	15485.48
836.631	15394.64
836.956	15447.29
837.282	15531.13
837.607	15341.31
837.932	15362.32
838.258	15392.6
838.583	15232.61
838.908	15267.64
839.233	15274.19
839.558	15266.96
839.883	15188.77
840.208	15084.59
840.533	15115.32
840.858	15145.15
841.182	15145.83
841.507	15094.08
841.832	15044.59
842.156	15090.92
842.481	15035.55
842.805	14902
843.13	14908.1
843.454	14865.39
843.778	14827.42
844.103	14790.81
844.427	14774.54
844.751	14817.93
845.075	14688.22
845.399	14720.53
845.723	14639.63
846.047	14658.16
846.371	14508.79
846.695	14496.58
847.019	14439.41
847.343	14329.13
847.666	14311.95
847.99	14201.67
848.313	14180.43
848.637	14137.72
848.96	14059.76
849.284	13982.02
849.607	13917.39
849.931	13911.51
850.254	13752.42
850.577	13782.7
850.9	13649.6
851.223	13644.85
851.546	13664.97
851.869	13479.21
852.192	13575.48
852.515	13377.29
852.838	13408.93
853.161	13378.19
853.483	13282.83
853.806	13258.42
854.129	13254.13
854.451	13190.63
854.774	13094.36
855.096	13076.51
855.419	13137.52
855.741	13029.73
856.063	12991.54
856.385	12967.58
856.708	12870.18
857.03	12835.16
857.352	12855.95
857.674	12737.53
857.996	12746.8
858.318	12688.27
858.64	12688.95
858.961	12704.99
859.283	12543.87
859.605	12537.99
859.926	12534.37
860.248	12586.8
860.57	12507.03
860.891	12482.62
861.212	12369.41
861.534	12376.41
861.855	12314.94
862.176	12356.53
862.498	12346.36
862.819	12286.02
863.14	12224.55
863.461	12149.98
863.782	12170.77
864.103	12232.69
864.424	12177.1
864.745	12179.58
865.065	12064.33
865.386	12076.31
865.707	12001.51
866.027	12001.96
866.348	12086.93
866.668	12053.71
866.989	12031.79
867.309	11964.22
867.63	11971.22
867.95	11889.42
868.27	11824.11
868.59	11917.67
868.91	11820.49
869.23	11812.13
869.55	11764.22
869.87	11780.72
870.19	11811.91
870.51	11796.77
870.83	11748.63
871.15	11703.44
871.469	11765.81
871.789	11706.82
872.109	11663.44
872.428	11673.61
872.748	11649.2
873.067	11613.49
873.386	11646.71
873.706	11587.51
874.025	11588.18
874.344	11474.51
874.663	11551.35
874.982	11556.55
875.301	11444.91
875.62	11421.63
875.939	11418.92
876.258	11460.5
876.577	11436.55
876.896	11388.87
877.214	11298.25
877.533	11372.6
877.852	11333.28
878.17	11366.72
878.489	11286.05
878.807	11230.91
879.125	11272.03
879.444	11292.15
879.762	11159.04
880.08	11227.74
880.398	11135.09
880.716	11118.82
881.034	11128.99
881.352	11151.59
881.67	11010.57
881.988	11074.3
882.306	11018.03
882.624	10954.53
882.941	10966.05
883.259	10896
883.577	10944.59
883.894	10905.49
884.212	10892.16
884.529	10902.78
884.846	10784.14
885.164	10839.5
885.481	10793.4
885.798	10783.46
886.115	10680.41
886.432	10703.46
886.75	10686.96
887.067	10657.14
887.383	10670.47
887.7	10608.77
888.017	10621.2
888.334	10543.92
888.651	10557.02
888.967	10581.66
889.284	10460.76
889.6	10453.75
889.917	10479.29
890.233	10342.12
890.55	10361.1
890.866	10355.22
891.182	10338.73
891.498	10175.11
891.815	10231.61
892.131	10224.38
892.447	10188.45
892.763	10129.01
893.079	10127.43
893.395	10031.16
893.71	10001.56
894.026	10008.79
894.342	9926.76
894.657	9929.92
894.973	9892.64
895.289	9965.18
895.604	9833.43
895.92	9790.04
896.235	9732.87
896.55	9790.94
896.865	9696.03
897.181	9701
897.496	9675.92
897.811	9622.36
898.126	9605.64
898.441	9559.54
898.756	9508.46
899.071	9453.55
899.386	9418.98
899.7	9369.03
900.015	9305.98
900.33	9337.85
900.644	9285.87
900.959	9324.06
901.273	9293.1
901.588	9236.38
901.902	9144.86
902.216	9187.8
902.531	9136.95
902.845	9063.05
903.159	9028.7
903.473	9017.86
903.787	8961.81
904.101	8896.05
904.415	8899.67
904.729	8870.52
905.042	8808.6
905.356	8722.04
905.67	8773.34
905.984	8790.74
906.297	8767.02
906.611	8659.22
906.924	8590.07
907.237	8653.8
907.551	8561.82
907.864	8531.09
908.177	8587.58
908.491	8471.66
908.804	8403.86
909.117	8375.61
909.43	8328.61
909.743	8305.56
910.056	8329.96
910.368	8195.5
910.681	8225.11
910.994	8209.97
911.307	8193.25
911.619	8046.58
911.932	8157.54
912.244	8061.5
912.557	7989.18
912.869	8024.66
913.181	7994.38
913.494	7903.54
913.806	7842.75
914.118	7907.15
914.43	7829.86
914.742	7807.72
915.054	7787.83
915.366	7779.7
915.678	7724.1
915.99	7675.07
916.302	7579.48
916.613	7602.53
916.925	7557.56
917.236	7499.48
917.548	7492.47
917.859	7468.29
918.171	7420.61
918.482	7401.18
918.794	7359.14
919.105	7360.27
919.416	7323.44
919.727	7324.34
920.038	7295.64
920.349	7270.78
920.66	7214.74
920.971	7126.38
921.282	7152.59
921.593	7167.28
921.903	7055.42
922.214	7136.78
922.525	6970
922.835	6991.47
923.146	7006.61
923.456	6983.11
923.767	6884.13
924.077	6882.32
924.387	6920.51
924.697	6810.68
925.008	6829.67
925.318	6769.78
925.628	6793.51
925.938	6704.47
926.248	6694.3
926.558	6634.19
926.867	6634.64
927.177	6619.05
927.487	6566.17
927.796	6542.67
928.106	6548.99
928.416	6514.87
928.725	6523.46
929.034	6421.31
929.344	6479.39
929.653	6439.62
929.962	6381.09
930.271	6344.48
930.581	6272.84
930.89	6278.95
931.199	6240.75
931.508	6221.32
931.817	6300.41
932.125	6212.73
932.434	6241.88
932.743	6154.65
933.051	6073.75
933.36	6058.61
933.669	6011.61
933.977	5996.69
934.286	6015.68
934.594	5958.28
934.902	6017.26
935.21	5939.29
935.519	5940.2
935.827	5929.35
936.135	5883.25
936.443	5858.84
936.751	5808.45
937.059	5763.03
937.367	5789.92
937.674	5780.88
937.982	5755.34
938.29	5691.39
938.597	5673.99
938.905	5599.19
939.213	5568.68
939.52	5594.44
939.827	5621.11
940.135	5536.59
940.442	5533.88
940.749	5485.07
941.056	5526.87
941.363	5455.46
941.67	5451.17
941.977	5424.28
942.284	5363.71
942.591	5353.55
942.898	5335.69
943.205	5333.43
943.511	5350.38
943.818	5318.07
944.125	5222.02
944.431	5236.71
944.738	5213.66
945.044	5178.86
945.35	5174.12
945.657	5096.83
945.963	5110.39
946.269	5056.83
946.575	5071.97
946.881	5047.34
947.187	5004.4
947.493	4989.49
947.799	5004.63
948.105	4995.59
948.41	4903.61
948.716	4927.57
949.022	4922.6
949.327	4918.08
949.633	4884.63
949.938	4839.89
950.244	4829.94
950.549	4801.92
950.854	4743.84
951.16	4784.07
951.465	4712.88
951.77	4674.24
952.075	4745.2
952.38	4699.55
952.685	4649.38
952.99	4634.92
953.294	4625.2
953.599	4550.4
953.904	4563.74
954.209	4519.67
954.513	4577.52
954.818	4554.47
955.122	4521.7
955.426	4470.41
955.731	4483.06
956.035	4442.16
956.339	4439.9
956.643	4396.96
956.948	4368.94
957.252	4356.28
957.556	4370.52
957.86	4333.91
958.163	4331.88
958.467	4291.65
958.771	4265.44
959.075	4234.93
959.378	4207.14
959.682	4255.95
959.985	4182.95
960.289	4220.24
960.592	4166.68
960.896	4152.67
961.199	4117.65
961.502	4083.07
961.805	4104.76
962.108	4056.63
962.411	4013.69
962.714	4039
963.017	4015.73
963.32	4029.74
963.623	3994.26
963.926	3930.53
964.228	3913.13
964.531	3923.98
964.833	3940.02
965.136	3929.85
965.438	3886.01
965.741	3868.39
966.043	3838.33
966.345	3812.57
966.648	3814.83
966.95	3817.09
967.252	3754.94
967.554	3761.05
967.856	3768.28
968.158	3770.54
968.46	3731.22
968.761	3707.71
969.063	3699.8
969.365	3667.26
969.666	3681.73
969.968	3652.35
970.269	3614.61
970.571	3623.42
970.872	3568.96
971.174	3553.37
971.475	3583.42
971.776	3507.04
972.077	3521.96
972.378	3530.32
972.679	3509.53
972.98	3471.11
973.281	3453.93
973.582	3479.92
973.883	3430.88
974.183	3451
974.484	3395.86
974.785	3388.85
975.085	3383.2
975.386	3402.64
975.686	3355.86
975.986	3328.74
976.287	3332.81
976.587	3308.63
976.887	3301.17
977.187	3260.72
977.487	3306.14
977.787	3229.76
978.087	3232.02
978.387	3192.47
978.687	3258.69
978.987	3171
979.286	3130.33
979.586	3178.69
979.885	3143.66
980.185	3099.59
980.484	3090.33
980.784	3119.93
981.083	3118.8
981.382	3059.14
981.682	3090.78
981.981	3057.79
982.28	3043.78
982.579	3003.78
982.878	3041.74
983.177	3012.82
983.475	2979.14
983.774	2945.47
984.073	2937.79
984.372	2968.75
984.67	2908.86
984.969	2899.82
985.267	2946.6
985.566	2885.14
985.864	2866.38
986.162	2836.32
986.461	2812.6
986.759	2794.74
987.057	2808.53
987.355	2792.26
987.653	2802.65
987.951	2764.91
988.249	2819.83
988.547	2774.86
988.844	2745.93
989.142	2672.49
989.44	2715.42
989.737	2699.15
990.035	2739.38
990.332	2660.06
990.63	2667.29
990.927	2646.95
991.224	2651.92
991.521	2634.3
991.819	2613.5
992.116	2620.06
992.413	2585.03
992.71	2579.61
993.006	2585.71
993.303	2542.32
993.6	2540.96
993.897	2491.02
994.193	2517.91
994.49	2493.06
994.787	2502.32
995.083	2460.51
995.379	2458.48
995.676	2443.11
995.972	2473.17
996.268	2441.98
996.565	2415.54
996.861	2379.16
997.157	2374.19
997.453	2377.8
997.749	2390.69
998.044	2375.77
998.34	2356.79
998.636	2335.77
998.932	2338.71
999.227	2285.38
999.523	2312.5
999.818	2278.37
1000.114	2253.06
1000.409	2238.15
1000.704	2248.77
1001	2234.31
1001.295	2214.42
1001.59	2230.69
1001.885	2225.49
1002.18	2208.54
1002.475	2170.13
1002.77	2154.99
1003.065	2150.24
1003.359	2171.03
1003.654	2141.65
1003.949	2130.13
1004.243	2095.78
1004.538	2118.83
1004.832	2083.58
1005.127	2057.81
1005.421	2065.72
1005.715	2041.77
1006.009	2018.49
1006.304	2048.32
1006.598	2019.85
1006.892	1987.31
1007.186	2004.48
1007.48	1987.76
1007.773	1964.26
1008.067	1955.44
1008.361	1937.14
1008.655	1947.76
1008.948	1908.44
1009.242	1931.94
1009.535	1889.91
1009.829	1892.62
1010.122	1864.37
1010.415	1900.08
1010.708	1849.46
1011.001	1847.2
1011.295	1838.38
1011.588	1796.35
1011.881	1797.03
1012.173	1790.25
1012.466	1796.35
1012.759	1775.79
1013.052	1764.04
1013.344	1755.67
1013.637	1738.5
1013.93	1731.72
1014.222	1723.58
1014.514	1761.32
1014.807	1724.94
1015.099	1703.47
1015.391	1712.74
1015.683	1675
1015.976	1684.26
1016.268	1663.93
1016.56	1663.7
1016.851	1628.45
1017.143	1627.54
1017.435	1611.5
1017.727	1622.12
1018.018	1603.59
1018.31	1588.45
1018.602	1591.38
1018.893	1564.94
1019.185	1527.43
1019.476	1542.35
1019.767	1529.69
1020.058	1526.3
1020.35	1512.29
1020.641	1503.93
1020.932	1476.59
1021.223	1494.89
1021.514	1470.71
1021.804	1482.46
1022.095	1464.38
1022.386	1443.59
1022.677	1441.11
1022.967	1444.72
1023.258	1429.13
1023.548	1401.56
1023.839	1421.45
1024.129	1392.29
1024.419	1386.42
1024.709	1375.57
1025	1380.54
1025.29	1345.06
1025.58	1337.61
1025.87	1309.36
1026.16	1322.69
1026.449	1325.18
1026.739	1320.21
1027.029	1311.39
1027.319	1281.11
1027.608	1275.46
1027.898	1288.12
1028.187	1278.4
1028.477	1261.45
1028.766	1230.94
1029.055	1249.7
1029.344	1242.02
1029.634	1224.61
1029.923	1250.15
1030.212	1214.45
1030.501	1219.42
1030.79	1206.31
1031.078	1179.64
1031.367	1184.39
1031.656	1157.95
1031.945	1164.5
1032.233	1125.86
1032.522	1149.81
1032.81	1148.46
1033.099	1126.09
1033.387	1150.04
1033.675	1138.97
1033.963	1111.62
1034.251	1118.18
1034.54	1119.31
1034.828	1121.57
1035.116	1116.82
1035.403	1091.06
1035.691	1079.08
1035.979	1048.8
1036.267	1075.92
1036.554	1051.51
1036.842	1054.9
1037.129	1048.8
1037.417	1044.28
1037.704	1023.72
1037.992	1003.6
1038.279	1002.02
1038.566	992.53
1038.853	992.53
1039.14	992.53
