Data from hue_90_FLMS001491_88.txt Node
Date: Mon Feb 06 15:25:48 GMT 2017
User: dcchb
Spectrometer: FLMS00149
Trigger mode: 0
Integration Time (sec): 2.000000E-2
Scans to average: 10
Electric dark correction enabled: true
Nonlinearity correction enabled: false
Boxcar width: 0
XAxis mode: Wavelengths
Number of Pixels in Spectrum: 2048
>>>>>Begin Spectral Data<<<<<
341.393	-27.06
341.776	-27.06
342.16	-27.06
342.543	-65.03
342.927	-65.7
343.31	-79.94
343.693	-55.31
344.077	-41.98
344.46	-52.6
344.843	-55.76
345.226	-37.91
345.61	-36.1
345.993	-17.57
346.376	19.04
346.759	0.28
347.142	22.2
347.525	28.98
347.908	53.61
348.291	72.6
348.674	73.05
349.057	107.4
349.44	129.54
349.823	153.05
350.206	180.84
350.588	189.66
350.971	216.77
351.354	226.04
351.737	246.83
352.119	239.15
352.502	258.13
352.884	283.89
353.267	285.47
353.65	299.94
354.032	306.94
354.414	317.79
354.797	302.2
355.179	338.13
355.562	318.01
355.944	313.49
356.326	340.61
356.709	327.73
357.091	323.66
357.473	344.23
357.855	358.24
358.238	353.72
358.62	335.87
359.002	367.28
359.384	345.58
359.766	337
360.148	328.18
360.53	350.78
360.912	351.01
361.294	338.8
361.676	322.31
362.057	302.87
362.439	340.16
362.821	334.96
363.203	314.85
363.584	338.35
363.966	319.14
364.348	321.18
364.729	321.4
365.111	312.82
365.493	324.12
365.874	325.7
366.256	323.21
366.637	328.64
367.019	322.76
367.4	317.11
367.781	317.11
368.163	311.46
368.544	319.6
368.925	315.08
369.306	331.12
369.688	323.21
370.069	315.75
370.45	311.91
370.831	317.11
371.212	327.96
371.593	319.14
371.974	309.88
372.355	322.08
372.736	309.43
373.117	317.79
373.498	313.49
373.879	305.59
374.26	311.46
374.641	315.3
375.021	318.47
375.402	329.09
375.783	325.92
376.163	339.48
376.544	318.92
376.925	322.76
377.305	334.51
377.686	334.06
378.066	334.28
378.447	344.45
378.827	330.44
379.208	318.69
379.588	330.22
379.968	345.58
380.349	332.48
380.729	343.78
381.109	350.78
381.489	352.59
381.87	332.03
382.25	345.81
382.63	352.36
383.01	352.36
383.39	364.79
383.77	341.52
384.15	361.18
384.53	342.19
384.91	356.66
385.29	351.01
385.67	365.02
386.049	344
386.429	367.96
386.809	359.14
387.189	385.81
387.568	358.92
387.948	371.12
388.328	330.44
388.707	384.23
389.087	347.84
389.466	367.05
389.846	363.89
390.225	375.87
390.605	364.11
390.984	378.8
391.363	374.96
391.743	382.19
392.122	397.11
392.501	390.1
392.881	392.59
393.26	378.35
393.639	382.42
394.018	385.13
394.397	365.02
394.776	393.27
395.155	384
395.534	400.05
395.913	388.07
396.292	427.16
396.671	411.8
397.05	404.34
397.429	412.7
397.808	406.15
398.186	384.91
398.565	399.82
398.944	398.24
399.323	424.23
399.701	421.06
400.08	412.48
400.458	433.94
400.837	424.45
401.215	431.01
401.594	406.83
401.972	432.81
402.351	401.4
402.729	424.45
403.107	402.53
403.486	434.4
403.864	423.55
404.242	442.53
404.62	432.14
404.999	426.94
405.377	446.82
405.755	453.15
406.133	430.78
406.511	454.06
406.889	431.68
407.267	439.37
407.645	456.77
408.023	473.04
408.401	471.46
408.779	454.28
409.156	446.6
409.534	469.42
409.912	479.37
410.29	492.25
410.667	498.12
411.045	481.17
411.422	475.3
411.8	484.34
412.178	472.13
412.555	488.18
412.933	489.76
413.31	500.83
413.687	492.25
414.065	507.61
414.442	496.31
414.819	506.48
415.197	517.11
415.574	521.4
415.951	518.23
416.328	527.95
416.705	530.89
417.082	532.92
417.46	530.21
417.837	540.16
418.214	550.1
418.591	562.53
418.967	556.88
419.344	549.87
419.721	554.62
420.098	536.99
420.475	553.49
420.852	576.31
421.228	555.3
421.605	551.91
421.982	594.62
422.358	565.47
422.735	570.21
423.111	603.88
423.488	586.93
423.864	609.76
424.241	630.77
424.617	606.82
424.994	602.3
425.37	610.66
425.746	616.31
426.123	618.35
426.499	596.42
426.875	623.77
427.251	623.99
427.627	640.94
428.003	634.16
428.379	644.33
428.756	652.47
429.132	659.25
429.507	672.13
429.883	656.31
430.259	701.51
430.635	667.16
431.011	669.87
431.387	672.13
431.763	691.56
432.138	690.21
432.514	698.8
432.89	722.52
433.265	729.53
433.641	726.82
434.016	726.14
434.392	744.9
434.767	776.08
435.143	754.39
435.518	767.49
435.894	776.99
436.269	783.54
436.644	790.77
437.02	774.73
437.395	760.71
437.77	778.34
438.145	805.01
438.52	808.62
438.895	808.4
439.271	825.57
439.646	809.75
440.021	823.76
440.395	818.34
440.77	829.64
441.145	841.62
441.52	887.94
441.895	852.69
442.27	880.26
442.645	863.54
443.019	866.25
443.394	879.58
443.769	875.29
444.143	897.89
444.518	900.82
444.892	915.29
445.267	917.77
445.641	898.56
446.016	939.69
446.39	924.1
446.764	913.25
447.139	923.87
447.513	935.17
447.887	940.6
448.262	942.18
448.636	930.88
449.01	971.56
449.384	983.53
449.758	995.06
450.132	995.51
450.506	996.64
450.88	1001.84
451.254	1010.43
451.628	1012.91
452.002	1033.48
452.376	1014.49
452.75	1058.33
453.123	1045.45
453.497	1051.1
453.871	1080.93
454.244	1103.53
454.618	1087.71
454.992	1098.78
455.365	1097.65
455.739	1143.08
456.112	1122.29
456.486	1155.28
456.859	1155.28
457.232	1166.58
457.606	1169.74
457.979	1162.29
458.352	1217.43
458.725	1245.45
459.099	1245.9
459.472	1240.48
459.845	1277.09
460.218	1291.1
460.591	1288.84
460.964	1317.54
461.337	1332.45
461.71	1360.7
462.083	1365.67
462.456	1382.62
462.829	1405.44
463.201	1431.43
463.574	1422.17
463.947	1441.37
464.32	1462.39
464.692	1461.71
465.065	1498.1
465.438	1502.62
465.81	1557.76
466.183	1545.78
466.555	1622.16
466.928	1624.42
467.3	1610.18
467.672	1650.86
468.045	1689.28
468.417	1718.66
468.789	1711.42
469.161	1741.48
469.534	1793
469.906	1810.86
470.278	1829.16
470.65	1876.84
471.022	1877.3
471.394	1935.37
471.766	1974.24
472.138	1996.39
472.51	2055.14
472.882	2100.34
473.253	2114.35
473.625	2186.44
473.997	2209.26
474.369	2263.5
474.74	2320
475.112	2303.72
475.484	2404.97
475.855	2467.79
476.227	2475.02
476.598	2571.51
476.97	2593.66
477.341	2660.33
477.713	2723.6
478.084	2771.74
478.455	2877.49
478.827	2953.65
479.198	3026.64
479.569	3047.43
479.94	3183.25
480.311	3242.91
480.682	3337.6
481.053	3404.03
481.424	3514.77
481.795	3597.7
482.166	3658.49
482.537	3767.42
482.908	3910.01
483.279	3923.34
483.65	4085.15
484.021	4193.62
484.391	4241.53
484.762	4298.7
485.133	4428.41
485.503	4557.9
485.874	4639.03
486.244	4771.23
486.615	4855.97
486.985	5003.99
487.356	5153.14
487.726	5243.08
488.097	5405.79
488.467	5452.57
488.837	5676.97
489.207	5754.48
489.578	5895.95
489.948	5956.51
490.318	6175.94
490.688	6172.78
491.058	6351.3
491.428	6542.94
491.798	6671.75
492.168	6818.86
492.538	6891.85
492.908	7064.28
493.278	7174.11
493.648	7238.96
494.017	7425.62
494.387	7532.06
494.757	7730.93
495.126	7843.01
495.496	7899.28
495.866	7993.97
496.235	8119.39
496.605	8250.24
496.974	8348.09
497.344	8513.73
497.713	8624.24
498.082	8759.6
498.452	8826.04
498.821	8949.88
499.19	8978.8
499.559	9120.04
499.928	9254.28
500.298	9387.83
500.667	9448.17
501.036	9555.51
501.405	9653.81
501.774	9708.05
502.143	9840.7
502.512	9936.29
502.88	10049.06
503.249	10072.56
503.618	10177.42
503.987	10244.53
504.356	10327.02
504.724	10419.22
505.093	10487.46
505.462	10511.42
505.83	10581.93
506.199	10758.19
506.567	10842.48
506.936	10924.06
507.304	10960.9
507.672	11008.13
508.041	11123.38
508.409	11263.72
508.777	11310.72
509.145	11393.66
509.514	11371.51
509.882	11453.54
510.25	11555.68
510.618	11595.91
510.986	11617.38
511.354	11793.87
511.722	11884.04
512.09	11970.36
512.458	11950.7
512.826	12037.03
513.193	12159.74
513.561	12115.22
513.929	12149.57
514.297	12311.82
514.664	12363.57
515.032	12396.34
515.4	12392.95
515.767	12508.2
516.135	12575.77
516.502	12448.32
516.869	12703.9
517.237	12723.56
517.604	12589.56
517.972	12719.5
518.339	12823.22
518.706	12852.15
519.073	12829.55
519.44	13001.52
519.808	13010.34
520.175	12982.99
520.542	13136.66
520.909	13121.97
521.276	13140.28
521.643	13198.13
522.009	13233.38
522.376	13354.28
522.743	13408.97
523.11	13448.52
523.477	13497.1
523.843	13580.94
524.21	13699.36
524.577	13742.52
524.943	13707.49
525.31	13735.51
525.676	13854.16
526.043	13788.62
526.409	13879.92
526.776	13936.64
527.142	13981.61
527.508	14018.22
527.874	14029.74
528.241	14055.28
528.607	14025.68
528.973	14126.01
529.339	14087.14
529.705	14272
530.071	14225.67
530.437	14238.33
530.803	14311.54
531.169	14332.56
531.535	14249.85
531.901	14193.13
532.267	14316.29
532.632	14336.18
532.998	14402.16
533.364	14366.46
533.73	14295.5
534.095	14373.01
534.461	14288.49
534.826	14391.99
535.192	14395.84
535.557	14361.94
535.923	14329.85
536.288	14429.73
536.653	14360.81
537.019	14263.41
537.384	14302.51
537.749	14296.4
538.114	14294.37
538.479	14274.03
538.845	14275.39
539.21	14131.66
539.575	14246.01
539.94	14210.53
540.305	14277.42
540.67	14208.72
541.034	14246.01
541.399	14205.56
541.764	14191.55
542.129	14108.16
542.494	14169.18
542.858	14095.96
543.223	14101.83
543.587	14102.74
543.952	14003.3
544.316	14015.73
544.681	13982.97
545.045	14064.55
545.41	14025.45
545.774	14035.39
546.138	13977.54
546.503	13912.23
546.867	13940.48
547.231	13995.39
547.595	13858.45
547.959	13968.95
548.324	13845.57
548.688	13854.61
549.052	13884.89
549.416	13798.79
549.779	13792.91
550.143	13801.5
550.507	13778.68
550.871	13815.74
551.235	13804.67
551.599	13825.46
551.962	13691.22
552.326	13723.09
552.689	13724.67
553.053	13630.43
553.417	13606.48
553.78	13746.36
554.143	13658.45
554.507	13650.77
554.87	13683.99
555.234	13749.3
555.597	13607.61
555.96	13662.75
556.323	13701.39
556.686	13592.47
557.05	13687.61
557.413	13618.23
557.776	13691
558.139	13660.26
558.502	13635.4
558.865	13653.93
559.228	13715.63
559.59	13688.74
559.953	13632.69
560.316	13792.69
560.679	13778.9
561.041	13776.87
561.404	13791.11
561.767	13888.28
562.129	13756.76
562.492	13858.9
562.854	13791.11
563.217	13688.51
563.579	13768.73
563.941	13867.04
564.304	13853.03
564.666	13930.99
565.028	13853.03
565.39	13962.85
565.753	13901.84
566.115	14053.02
566.477	13970.54
566.839	13956.07
567.201	14049.86
567.563	14015.28
567.925	14099.35
568.287	14055.73
568.648	14096.41
569.01	14100.25
569.372	14103.64
569.734	14135.5
570.095	14190.42
570.457	14154.94
570.819	14176.18
571.18	14263.86
571.542	14283.97
571.903	14222.73
572.265	14300.92
572.626	14333.92
572.987	14345.67
573.349	14280.13
573.71	14426.34
574.071	14387.93
574.432	14472.67
574.794	14501.6
575.155	14401.71
575.516	14476.74
575.877	14456.85
576.238	14532.33
576.599	14519
576.96	14474.93
577.32	14538.66
577.681	14542.5
578.042	14538.43
578.403	14452.56
578.763	14503.86
579.124	14553.8
579.485	14630.63
579.845	14533.23
580.206	14527.81
580.566	14493.69
580.927	14488.49
581.287	14619.56
581.648	14498.21
582.008	14618.43
582.368	14550.86
582.728	14587.7
583.089	14672.21
583.449	14516.96
583.809	14576.17
584.169	14598.32
584.529	14495.49
584.889	14676.51
585.249	14502.95
585.609	14508.83
585.969	14538.88
586.329	14447.59
586.688	14542.95
587.048	14482.16
587.408	14532.33
587.768	14384.09
588.127	14400.58
588.487	14359.23
588.846	14417.98
589.206	14437.87
589.565	14399
589.925	14389.28
590.284	14382.73
590.643	14444.65
591.003	14474.93
591.362	14352
591.721	14393.35
592.08	14404.2
592.44	14393.8
592.799	14461.37
593.158	14394.48
593.517	14322.84
593.876	14473.8
594.235	14401.49
594.593	14390.19
594.952	14340.02
595.311	14349.06
595.67	14331.88
596.029	14401.49
596.387	14366.01
596.746	14380.92
597.104	14358.55
597.463	14352
597.822	14486
598.18	14351.54
598.538	14275.61
598.897	14374.82
599.255	14297.76
599.613	14478.77
599.972	14364.88
600.33	14444.87
600.688	14352.67
601.046	14373.46
601.404	14468.6
601.762	14429.06
602.12	14381.15
602.478	14406.23
602.836	14438.32
603.194	14392.67
603.552	14365.55
603.91	14264.77
604.268	14333.69
604.625	14359.9
604.983	14394.48
605.341	14372.33
605.698	14401.03
606.056	14401.94
606.413	14367.81
606.771	14323.07
607.128	14432.9
607.485	14353.13
607.843	14370.07
608.2	14393.8
608.557	14475.83
608.914	14337.98
609.272	14474.25
609.629	14457.3
609.986	14512.44
610.343	14471.77
610.7	14573.68
611.057	14611.2
611.414	14571.65
611.771	14523.29
612.127	14604.87
612.484	14630.18
612.841	14588.37
613.198	14481.03
613.554	14633.57
613.911	14622.5
614.267	14606.45
614.624	14653.23
614.98	14628.37
615.337	14702.49
615.693	14685.09
616.05	14707.92
616.406	14702.04
616.762	14658.43
617.118	14728.03
617.475	14691.42
617.831	14729.39
618.187	14659.56
618.543	14704.3
618.899	14772.1
619.255	14797.18
619.611	14753.57
619.967	14820.68
620.323	14775.71
620.678	14794.02
621.034	14727.13
621.39	14765.32
621.746	14699.78
622.101	14935.71
622.457	14805.99
622.812	14832.43
623.168	14838.99
623.523	14840.34
623.879	14845.09
624.234	14862.72
624.589	14823.85
624.945	14823.62
625.3	14782.49
625.655	14779.1
626.01	14833.11
626.365	14825.43
626.72	14776.17
627.075	14900.91
627.43	14743.4
627.785	14822.27
628.14	14806.45
628.495	14779.33
628.85	14771.87
629.205	14680.57
629.559	14832.66
629.914	14660.46
630.269	14792.21
630.623	14685.32
630.978	14718.09
631.332	14711.31
631.687	14732.1
632.041	14655.04
632.396	14726.45
632.75	14702.49
633.104	14715.15
633.459	14574.81
633.813	14627.24
634.167	14551.31
634.521	14570.97
634.875	14591.09
635.229	14505.89
635.583	14461.82
635.937	14427.02
636.291	14485.1
636.645	14486.91
636.999	14460.24
637.352	14438.77
637.706	14371.66
638.06	14396.29
638.413	14373.69
638.767	14366.23
639.121	14393.12
639.474	14235.61
639.828	14239.23
640.181	14225.67
640.534	14333.24
640.888	14197.88
641.241	14216.63
641.594	14199.01
641.947	14229.29
642.301	14208.5
642.654	14226.8
643.007	14164.2
643.36	14194.49
643.713	14189.74
644.066	14208.27
644.419	14123.53
644.771	14096.86
645.124	13923.76
645.477	13939.35
645.83	13836.53
646.182	13823.65
646.535	13662.75
646.888	13718.34
647.24	13634.05
647.593	13763.08
647.945	13698.68
648.298	13568.29
648.65	13697.32
649.002	13495.52
649.355	13650.09
649.707	13695.97
650.059	13782.52
650.411	13792.69
650.763	13787.49
651.115	13938.45
651.467	13974.6
651.819	13942.29
652.171	14016.64
652.523	13924.66
652.875	13947.26
653.227	13873.59
653.578	13974.6
653.93	13961.27
654.282	13900.48
654.633	13819.35
654.985	13902.52
655.337	13904.1
655.688	13928.28
656.039	13866.36
656.391	13822.52
656.742	13840.6
657.094	13897.32
657.445	13887.37
657.796	13864.32
658.147	13863.19
658.498	13865
658.849	13902.29
659.2	13916.98
659.551	13876.3
659.902	13924.89
660.253	13965.79
660.604	14020.7
660.955	13832.01
661.306	13914.27
661.656	13876.98
662.007	13921.05
662.358	13975.28
662.708	13925.79
663.059	13884.21
663.409	13805.57
663.76	14039.24
664.11	13899.35
664.461	14025.22
664.811	13872.23
665.161	13938.67
665.511	13864.1
665.862	13935.06
666.212	14013.25
666.562	13940.71
666.912	13933.02
667.262	14013.93
667.612	13947.49
667.962	14012.57
668.312	13901.61
668.662	14025.45
669.011	13992.23
669.361	13933.48
669.711	13897.77
670.06	13837.21
670.41	13860.26
670.76	13788.62
671.109	13920.14
671.459	13935.28
671.808	13853.25
672.157	13849.41
672.507	13789.98
672.856	13737.32
673.205	13725.8
673.554	13871.56
673.904	13761.73
674.253	13780.49
674.602	13805.8
674.951	13548.17
675.3	13580.94
675.649	13704.78
675.998	13741.62
676.346	13727.15
676.695	13851.22
677.044	13702.75
677.393	13727.15
677.741	13696.19
678.09	13721.5
678.438	13579.36
678.787	13679.24
679.135	13730.99
679.484	13515.41
679.832	13638.57
680.181	13527.38
680.529	13532.36
680.877	13582.07
681.225	13462.3
681.573	13532.13
681.922	13421.4
682.27	13411.68
682.618	13394.96
682.966	13419.36
683.314	13407.61
683.661	13282.19
684.009	13273.38
684.357	13237.9
684.705	13261.4
685.053	13204.46
685.4	13183.66
685.748	13152.25
686.095	13120.84
686.443	13088.53
686.79	13057.11
687.138	12994.07
687.485	13051.24
687.832	12970.11
688.18	12994.07
688.527	12886.27
688.874	12926.95
689.221	12886.05
689.568	12764.01
689.915	12751.59
690.262	12783.9
690.609	12732.83
690.956	12670.23
691.303	12675.88
691.65	12538.26
691.997	12591.36
692.344	12509.78
692.69	12489.67
693.037	12498.94
693.383	12316.12
693.73	12400.86
694.077	12379.39
694.423	12335.1
694.769	12230.7
695.116	12213.07
695.462	12168.32
695.808	12120.64
696.155	12199.28
696.501	12016.92
696.847	12038.84
697.193	11922.45
697.539	11963.81
697.885	11898.73
698.231	11758.62
698.577	11802.91
698.923	11802.91
699.269	11759.3
699.614	11588.9
699.96	11597.49
700.306	11691.95
700.651	11627.32
700.997	11559.07
701.342	11538.28
701.688	11512.52
702.033	11420.55
702.379	11553.65
702.724	11420.1
703.069	11458.96
703.415	11205.64
703.76	11256.26
704.105	11273.21
704.45	11297.16
704.795	11176.71
705.14	11124.28
705.485	11113.21
705.83	11076.38
706.175	11043.16
706.52	11016.49
706.865	10949.83
707.209	10948.92
707.554	10872.09
707.899	10921.58
708.243	10754.8
708.588	10790.06
708.932	10722.71
709.277	10747.12
709.621	10723.84
709.966	10664.41
710.31	10658.76
710.654	10604.75
710.998	10617.4
711.342	10580.12
711.687	10526.56
712.031	10541.25
712.375	10514.81
712.719	10508.25
713.063	10470.06
713.407	10474.13
713.75	10379.44
714.094	10429.84
714.438	10439.78
714.782	10349.16
715.125	10309.39
715.469	10375.38
715.812	10348.26
716.156	10212.67
716.499	10316.85
716.843	10277.53
717.186	10198.66
717.53	10284.76
717.873	10239.34
718.216	10228.94
718.559	10240.01
718.902	10115.27
719.246	10180.81
719.589	10055.39
719.932	10070.3
720.275	10061.71
720.617	9964.09
720.96	10052.9
721.303	10016.29
721.646	10059.23
721.989	9976.97
722.331	10038.44
722.674	9936.07
723.016	10003.86
723.359	9986.46
723.701	9919.12
724.044	9867.82
724.386	9887.71
724.729	9932.22
725.071	9886.58
725.413	9914.37
725.755	9821.95
726.097	9835.96
726.439	9779.69
726.782	9817.2
727.124	9825.79
727.465	9776.07
727.807	9790.08
728.149	9752.34
728.491	9791.89
728.833	9716.86
729.175	9771.1
729.516	9729.29
729.858	9720.25
730.199	9753.02
730.541	9708.28
730.882	9735.62
731.224	9748.95
731.565	9663.76
731.906	9706.47
732.248	9676.86
732.589	9712.34
732.93	9695.39
733.271	9681.38
733.612	9708.05
733.953	9717.09
734.294	9662.18
734.635	9633.7
734.976	9678.22
735.317	9628.5
735.658	9708.73
735.999	9708.05
736.339	9677.77
736.68	9678.45
737.021	9645
737.361	9632.35
737.702	9712.57
738.042	9670.76
738.383	9688.16
738.723	9642.97
739.063	9617.88
739.404	9668.05
739.744	9695.17
740.084	9733.59
740.424	9644.1
740.764	9696.3
741.104	9781.95
741.444	9674.15
741.784	9659.46
742.124	9713.7
742.464	9722.06
742.804	9715.51
743.143	9747.82
743.483	9792.57
743.823	9768.16
744.162	9892.45
744.502	9833.02
744.841	9835.73
745.181	9851.1
745.52	9935.84
745.86	9870.98
746.199	9981.94
746.538	9951.21
746.877	10007.93
747.216	10157.53
747.556	10007.25
747.895	10174.93
748.234	10182.39
748.573	10278.43
748.911	10220.35
749.25	10337.86
749.589	10304.19
749.928	10458.31
750.267	10447.01
750.605	10479.78
750.944	10609.27
751.283	10618.08
751.621	10729.04
751.96	10688.14
752.298	10876.61
752.636	10869.83
752.975	10936.27
753.313	11052.2
753.651	11207.45
753.989	11176.49
754.327	11315.69
754.666	11345.29
755.004	11461.68
755.342	11625.06
755.679	11693.99
756.017	11765.4
756.355	11956.8
756.693	12013.07
757.031	12162.67
757.368	12248.32
757.706	12397.02
758.044	12519.05
758.381	12634.53
758.719	12745.48
759.056	12950.68
759.394	13028.87
759.731	12987.06
760.068	13227.28
760.405	13348.63
760.743	13497.1
761.08	13648.74
761.417	13721.73
761.754	13834.95
762.091	13939.35
762.428	14059.12
762.765	14204.88
763.102	14316.06
763.438	14514.7
763.775	14573.46
764.112	14741.59
764.449	14827.01
764.785	14944.07
765.122	14959.21
765.458	15141.35
765.795	15319.88
766.131	15467.9
766.467	15489.14
766.804	15596.48
767.14	15647.1
767.476	15780.66
767.812	15875.8
768.148	16020.88
768.485	15976.13
768.821	16181.78
769.157	16228.33
769.492	16311.27
769.828	16496.8
770.164	16513.07
770.5	16549.68
770.836	16744.7
771.171	16793.29
771.507	16796.45
771.842	16823.79
772.178	16875.77
772.513	17051.36
772.849	17110.57
773.184	17069.89
773.519	17189.66
773.855	17091.13
774.19	17150.11
774.525	17213.16
774.86	17326.38
775.195	17357.11
775.53	17380.62
775.865	17356.89
776.2	17409.99
776.535	17327.74
776.87	17410.22
777.205	17429.43
777.539	17456.09
777.874	17508.3
778.209	17362.76
778.543	17381.52
778.878	17442.08
779.212	17470.56
779.547	17382.2
779.881	17515.75
780.215	17486.15
780.55	17549.88
780.884	17489.99
781.218	17534.74
781.552	17474.4
781.886	17560.05
782.22	17374.51
782.554	17487.73
782.888	17256.55
783.222	17269.66
783.556	17234.18
783.889	17254.52
784.223	17222.43
784.557	17217.91
784.89	17372.03
785.224	17248.19
785.557	17241.64
785.891	17151.02
786.224	17266.95
786.558	17253.84
786.891	17173.84
787.224	17051.59
787.557	16971.36
787.891	17066.95
788.224	17105.82
788.557	17185.14
788.89	17018.14
789.223	17049.33
789.556	16887.3
789.888	16891.82
790.221	16771.14
790.554	16727.98
790.887	16766.85
791.219	16753.51
791.552	16690.24
791.884	16707.19
792.217	16624.93
792.549	16621.31
792.882	16472.84
793.214	16484.37
793.546	16534.76
793.879	16423.35
794.211	16372.06
794.543	16477.36
794.875	16289.12
795.207	16401.43
795.539	16380.87
795.871	16333.41
796.203	16183.36
796.535	16216.35
796.867	16141.33
797.198	16043.02
797.53	16016.36
797.862	15881.67
798.193	15997.38
798.525	15875.57
798.856	15898.4
799.188	15792.86
799.519	15685.52
799.85	15599.19
800.182	15695.01
800.513	15703.82
800.844	15536.82
801.175	15654.33
801.506	15685.07
801.837	15557.39
802.168	15448.46
802.499	15372.99
802.83	15436.94
803.161	15326.89
803.491	15377.73
803.822	15382.48
804.153	15273.1
804.483	15129.15
804.814	15137.29
805.145	15126.89
805.475	15083.28
805.805	15076.72
806.136	15109.04
806.466	15038.76
806.796	15027.46
807.126	14877.63
807.457	14852.55
807.787	14928.48
808.117	14789.95
808.447	14793.57
808.777	14850.74
809.107	14726
809.436	14718.31
809.766	14779.78
810.096	14732.32
810.426	14606
810.755	14705.21
811.085	14533.46
811.414	14638.09
811.744	14412.56
812.073	14512.22
812.403	14400.13
812.732	14321.49
813.061	14418.43
813.39	14149.29
813.719	14286.69
814.049	14308.15
814.378	14302.73
814.707	14350.64
815.036	14154.03
815.365	14134.15
815.693	13993.36
816.022	14074.94
816.351	14069.29
816.68	13953.59
817.008	13962.4
817.337	13868.39
817.665	13876.3
817.994	13893.7
818.322	13860.26
818.651	13824.55
818.979	13794.04
819.307	13830.43
819.636	13788.62
819.964	13661.62
820.292	13798.11
820.62	13732.8
820.948	13604.44
821.276	13714.72
821.604	13639.02
821.932	13713.59
822.259	13723.31
822.587	13656.87
822.915	13625.46
823.243	13731.45
823.57	13592.02
823.898	13728.74
824.225	13586.37
824.553	13488.52
824.88	13620.26
825.207	13661.39
825.535	13674.95
825.862	13674.73
826.189	13620.49
826.516	13690.32
826.843	13660.71
827.17	13611.68
827.497	13666.14
827.824	13632.69
828.151	13629.08
828.478	13689.19
828.805	13747.94
829.131	13599.7
829.458	13649.19
829.785	13554.95
830.111	13538.46
830.438	13697.1
830.764	13709.07
831.09	13733.48
831.417	13575.52
831.743	13654.61
832.069	13638.34
832.395	13623.43
832.722	13648.96
833.048	13554.95
833.374	13578
833.7	13491
834.026	13545.69
834.351	13576.65
834.677	13524.67
835.003	13561.06
835.329	13594.28
835.654	13489.19
835.98	13509.53
836.306	13467.95
836.631	13494.39
836.956	13453.94
837.282	13492.13
837.607	13382.98
837.932	13430.44
838.258	13356.54
838.583	13344.11
838.908	13253.04
839.233	13262.08
839.558	13206.26
839.883	13233.61
840.208	13165.81
840.533	13208.75
840.858	13181.63
841.182	13211.01
841.507	13152.93
841.832	13073.16
842.156	13135.76
842.481	13147.96
842.805	13107.96
843.13	12968.98
843.454	13050.11
843.778	12962.43
844.103	12951.35
844.427	12971.47
844.751	12898.25
845.075	12896.67
845.399	12828.87
845.723	12757.91
846.047	12805.14
846.371	12577.13
846.695	12615.09
847.019	12568.54
847.343	12521.99
847.666	12437.7
847.99	12373.74
848.313	12357.47
848.637	12342.33
848.96	12234.54
849.284	12231.15
849.607	12167.19
849.931	12117.03
850.254	12064.15
850.577	12058.5
850.9	11979.63
851.223	11835.9
851.546	11813.31
851.869	11774.44
852.192	11822.8
852.515	11672.97
852.838	11668.9
853.161	11647.66
853.483	11641.11
853.806	11589.13
854.129	11528.34
854.451	11498.29
854.774	11470.04
855.096	11355.46
855.419	11328.35
855.741	11301.68
856.063	11275.92
856.385	11237.73
856.708	11193.89
857.03	11217.16
857.352	11196.6
857.674	11182.59
857.996	11088.35
858.318	10996.6
858.64	11078.64
858.961	11059.43
859.283	11037.28
859.605	10914.12
859.926	10933.55
860.248	10912.76
860.57	10844.07
860.891	10896.95
861.212	10783.28
861.534	10780.56
861.855	10723.39
862.176	10722.03
862.498	10755.71
862.819	10713.45
863.14	10665.76
863.461	10655.6
863.782	10600.46
864.103	10625.09
864.424	10577.18
864.745	10537.86
865.065	10475.04
865.386	10517.75
865.707	10490.85
866.027	10501.25
866.348	10494.02
866.668	10513.45
866.989	10432.78
867.309	10345.55
867.63	10431.65
867.95	10368.37
868.27	10332.89
868.59	10328.37
868.91	10306.9
869.23	10278.66
869.55	10249.05
869.87	10307.81
870.19	10269.62
870.51	10339.67
870.83	10288.37
871.15	10166.79
871.469	10187.81
871.789	10157.53
872.109	10204.76
872.428	10183.74
872.748	10143.74
873.067	10227.36
873.386	10159.34
873.706	10188.04
874.025	10104.65
874.344	10083.86
874.663	10068.27
874.982	10032.79
875.301	10075.95
875.62	9948.72
875.939	9998.21
876.258	9995.05
876.577	9907.14
876.896	9922.73
877.214	9882.06
877.533	9910.3
877.852	9864.88
878.17	9936.07
878.489	9937.2
878.807	9819.91
879.125	9816.97
879.444	9839.57
879.762	9783.3
880.08	9783.08
880.398	9786.69
880.716	9696.75
881.034	9704.66
881.352	9706.24
881.67	9685.45
881.988	9660.59
882.306	9610.65
882.624	9626.02
882.941	9580.37
883.259	9605.45
883.577	9529.98
883.894	9541.73
884.212	9506.47
884.529	9515.96
884.846	9423.31
885.164	9429.87
885.481	9445.68
885.798	9443.88
886.115	9383.31
886.432	9335.63
886.75	9270.55
887.067	9335.18
887.383	9345.12
887.7	9300.15
888.017	9242.75
888.334	9261.06
888.651	9237.1
888.967	9163.21
889.284	9159.59
889.6	9049.76
889.917	9052.02
890.233	9053.38
890.55	9054.73
890.866	9054.28
891.182	9040.04
891.498	9016.54
891.815	8960.95
892.131	8866.26
892.447	8856.32
892.763	8892.48
893.079	8828.52
893.395	8787.62
893.71	8802.54
894.026	8710.79
894.342	8787.4
894.657	8695.42
894.973	8679.6
895.289	8666.72
895.604	8631.69
895.92	8560.06
896.235	8595.54
896.55	8492.04
896.865	8506.27
897.181	8489.55
897.496	8490.91
897.811	8417.69
898.126	8389.89
898.441	8408.42
898.756	8353.74
899.071	8275.09
899.386	8333.4
899.7	8191.03
900.015	8172.95
900.33	8083.23
900.644	8201.65
900.959	8141.76
901.273	8077.13
901.588	8086.85
901.902	7944.93
902.216	8047.08
902.531	7958.49
902.845	7915.78
903.159	7927.98
903.473	7854.99
903.787	7917.36
904.101	7797.82
904.415	7780.64
904.729	7740.64
905.042	7715.11
905.356	7688.44
905.67	7675.79
905.984	7724.83
906.297	7675.56
906.611	7539.52
906.924	7554.89
907.237	7585.85
907.551	7480.09
907.864	7526.41
908.177	7387.88
908.491	7436.92
908.804	7410.94
909.117	7336.36
909.43	7348.34
909.743	7314.67
910.056	7250.94
910.368	7200.09
910.681	7183.6
910.994	7133.2
911.307	7079.19
911.619	7116.03
911.932	7097.05
912.244	7008.91
912.557	7060.66
912.869	6991.96
913.181	6937.73
913.494	6931.4
913.806	6831.29
914.118	6888.46
914.43	6825.19
914.742	6785.19
915.054	6773.44
915.366	6793.55
915.678	6739.77
915.99	6697.06
916.302	6585.87
916.613	6622.48
916.925	6667.68
917.236	6566.44
917.548	6558.3
917.859	6619.09
918.171	6493.45
918.482	6452.32
918.794	6414.13
919.105	6466.78
919.416	6380
919.727	6368.25
920.038	6353.34
920.349	6330.06
920.66	6286.9
920.971	6252.32
921.282	6297.52
921.593	6228.37
921.903	6231.76
922.214	6160.12
922.525	6192.44
922.835	6169.61
923.146	6057.75
923.456	6094.36
923.767	6043.06
924.077	6038.54
924.387	6009.62
924.697	5959.67
925.008	5945.21
925.318	5952.44
925.628	5964.65
925.938	5919.22
926.248	5849.62
926.558	5858.43
926.867	5850.07
927.177	5830.86
927.487	5781.37
927.796	5769.4
928.106	5710.87
928.416	5697.08
928.725	5705.67
929.034	5670.19
929.344	5633.35
929.653	5610.76
929.962	5575.96
930.271	5543.19
930.581	5556.75
930.89	5537.99
931.199	5438.11
931.508	5459.8
931.817	5508.61
932.125	5431.78
932.434	5417.09
932.743	5359.92
933.051	5372.12
933.36	5334.38
933.669	5299.58
933.977	5277.66
934.286	5219.81
934.594	5217.09
934.902	5215.29
935.21	5197.21
935.519	5198.34
935.827	5163.54
936.135	5147.72
936.443	5110.66
936.751	5093.71
937.059	5078.34
937.367	4996.54
937.674	5044.22
937.982	5011.9
938.29	5048.51
938.597	5001.73
938.905	4940.72
939.213	4933.71
939.52	4874.73
939.827	4918.57
940.135	4873.37
940.442	4861.85
940.749	4832.7
941.056	4834.28
941.363	4774.62
941.67	4737.79
941.977	4743.21
942.284	4686.94
942.591	4708.63
942.898	4660.27
943.205	4661.85
943.511	4666.15
943.818	4632.7
944.125	4594.29
944.431	4575.76
944.738	4560.16
945.044	4552.03
945.35	4499.6
945.657	4518.81
945.963	4434.52
946.269	4458.47
946.575	4475.19
946.881	4436.55
947.187	4375.99
947.493	4411.92
947.799	4386.38
948.105	4329.66
948.41	4360.85
948.716	4330.34
949.022	4261.41
949.327	4254.41
949.633	4247.18
949.938	4230.91
950.244	4209.89
950.549	4206.73
950.854	4198.82
951.16	4186.39
951.465	4173.51
951.77	4107.52
952.075	4100.29
952.38	4138.7
952.685	4126.28
952.99	4008.31
953.294	4045.15
953.599	4071.81
953.904	4045.6
954.209	3980.29
954.513	4014.64
954.818	3978.71
955.122	3968.99
955.426	3973.96
955.731	3948.2
956.035	3883.8
956.339	3898.49
956.643	3872.05
956.948	3819.62
957.252	3811.93
957.556	3832.95
957.86	3804.48
958.163	3789.79
958.467	3733.97
958.771	3756.79
959.075	3742.1
959.378	3711.6
959.682	3727.87
959.985	3705.5
960.289	3677.7
960.592	3693.52
960.896	3636.12
961.199	3641.54
961.502	3629.11
961.805	3593.41
962.108	3589.79
962.411	3548.89
962.714	3543.47
963.017	3565.84
963.32	3500.98
963.623	3490.36
963.926	3496.91
964.228	3471.6
964.531	3475.67
964.833	3466.86
965.136	3411.72
965.438	3434.09
965.741	3384.37
966.043	3394.32
966.345	3379.18
966.648	3366.97
966.95	3327.2
967.252	3287.88
967.554	3326.97
967.856	3312.74
968.158	3259.63
968.46	3285.85
968.761	3318.39
969.063	3265.06
969.365	3214.89
969.666	3227.32
969.968	3206.53
970.269	3196.81
970.571	3157.04
970.872	3151.84
971.174	3133.99
971.475	3150.26
971.776	3120.88
972.077	3133.76
972.378	3119.07
972.679	3086.08
972.98	3055.34
973.281	3056.25
973.582	3056.7
973.883	3023.48
974.183	3027.32
974.484	2992.29
974.785	2977.61
975.085	3005.4
975.386	2994.78
975.686	2978.28
975.986	2971.5
976.287	2927.44
976.587	2908.45
976.887	2886.53
977.187	2893.54
977.487	2897.38
977.787	2858.06
978.087	2831.85
978.387	2865.07
978.687	2846.54
978.987	2821.45
979.286	2810.15
979.586	2790.94
979.885	2772.19
980.185	2747.78
980.484	2713.21
980.784	2766.31
981.083	2714.56
981.382	2730.38
981.682	2746.65
981.981	2683.38
982.28	2699.19
982.579	2670.95
982.878	2679.53
983.177	2666.2
983.475	2636.6
983.774	2641.12
984.073	2606.99
984.372	2583.72
984.67	2619.65
984.969	2589.82
985.267	2587.56
985.566	2544.4
985.864	2519.76
986.162	2533.1
986.461	2508.69
986.759	2528.58
987.057	2478.86
987.355	2495.13
987.653	2478.18
987.951	2472.53
988.249	2462.36
988.547	2424.63
988.844	2437.28
989.142	2418.07
989.44	2415.81
989.737	2379.43
990.035	2366.32
990.332	2362.25
990.63	2403.38
990.927	2398.41
991.224	2363.38
991.521	2347.34
991.819	2302.37
992.116	2354.34
992.413	2284.52
992.71	2296.95
993.006	2297.62
993.303	2266.21
993.6	2267.79
993.897	2265.53
994.193	2240.45
994.49	2191.86
994.787	2228.7
995.083	2213.33
995.379	2202.26
995.676	2174.69
995.972	2151.41
996.268	2158.87
996.565	2161.36
996.861	2114.35
997.157	2130.4
997.453	2095.14
997.749	2102.15
998.044	2100.57
998.34	2098.98
998.636	2084.3
998.932	2066.67
999.227	2076.16
999.523	2042.94
999.818	2009.04
1000.114	2027.12
1000.409	2009.72
1000.704	1981.7
1001	1979.44
1001.295	2021.7
1001.59	1982.15
1001.885	1949.61
1002.18	1945.32
1002.475	1957.29
1002.77	1969.04
1003.065	1883.4
1003.359	1929.72
1003.654	1912.1
1003.949	1867.58
1004.243	1894.47
1004.538	1870.52
1004.832	1849.05
1005.127	1887.92
1005.421	1825.77
1005.715	1835.04
1006.009	1854.02
1006.304	1826.9
1006.598	1769.95
1006.892	1790.74
1007.186	1778.54
1007.48	1754.59
1007.773	1749.16
1008.067	1732.21
1008.361	1743.51
1008.655	1703.74
1008.948	1694.7
1009.242	1722.27
1009.535	1711.88
1009.829	1670.75
1010.122	1704.64
1010.415	1675.72
1010.708	1679.33
1011.001	1684.76
1011.295	1629.62
1011.588	1632.1
1011.881	1656.28
1012.173	1626.91
1012.466	1607.47
1012.759	1597.75
1013.052	1602.05
1013.344	1585.78
1013.637	1583.52
1013.93	1571.31
1014.222	1573.12
1014.514	1565.21
1014.807	1524.99
1015.099	1526.8
1015.391	1517.08
1015.683	1482.28
1015.976	1516.17
1016.268	1486.8
1016.56	1501.71
1016.851	1450.19
1017.143	1465.1
1017.435	1452
1017.727	1432.56
1018.018	1451.77
1018.31	1450.19
1018.602	1438.89
1018.893	1419.23
1019.185	1400.25
1019.476	1398.66
1019.767	1388.27
1020.058	1381.72
1020.35	1342.62
1020.641	1360.7
1020.932	1348.72
1021.223	1329.29
1021.514	1319.8
1021.804	1318.44
1022.095	1306.69
1022.386	1326.12
1022.677	1306.46
1022.967	1272.57
1023.258	1284.77
1023.548	1291.55
1023.839	1258.55
1024.129	1253.58
1024.419	1254.71
1024.709	1243.19
1025	1247.71
1025.29	1239.57
1025.58	1233.92
1025.87	1210.19
1026.16	1201.38
1026.449	1182.62
1026.739	1189.86
1027.029	1199.8
1027.319	1179.46
1027.608	1156.64
1027.898	1169.74
1028.187	1146.47
1028.477	1179.91
1028.766	1147.37
1029.055	1119.58
1029.344	1131.78
1029.634	1105.56
1029.923	1124.77
1030.212	1105.79
1030.501	1099.01
1030.79	1105.56
1031.078	1102.17
1031.367	1084.1
1031.656	1053.59
1031.945	1090.2
1032.233	1063.76
1032.522	1041.39
1032.81	1043.64
1033.099	1023.53
1033.387	1042.74
1033.675	1030.76
1033.963	1016.53
1034.251	1023.31
1034.54	1016.75
1034.828	992.12
1035.116	969.97
1035.403	971.78
1035.691	980.37
1035.979	997.54
1036.267	966.36
1036.554	960.94
1036.842	967.71
1037.129	951.9
1037.417	939.01
1037.704	953.03
1037.992	923.2
1038.279	907.6
1038.566	907.38
1038.853	907.38
1039.14	907.38
