Data from hue_160_FLMS001491_00017.txt Node
Date: Tue Feb 07 16:50:50 GMT 2017
User: dcchb
Spectrometer: FLMS00149
Trigger mode: 0
Integration Time (sec): 2.000000E-2
Scans to average: 10
Electric dark correction enabled: true
Nonlinearity correction enabled: false
Boxcar width: 0
XAxis mode: Wavelengths
Number of Pixels in Spectrum: 2048
>>>>>Begin Spectral Data<<<<<
341.393	-14.32
341.776	-14.32
342.16	-14.32
342.543	-80.08
342.927	-58.84
343.31	-66.98
343.693	-60.42
344.077	-60.2
344.46	-62.46
344.843	-45.28
345.226	-51.38
345.61	-42.8
345.993	-21.55
346.376	-13.42
346.759	16.19
347.142	14.15
347.525	65.68
347.908	56.86
348.291	64.32
348.674	100.03
349.057	107.26
349.44	138.44
349.823	150.42
350.206	167.14
350.588	195.16
350.971	211.21
351.354	210.98
351.737	234.26
352.119	233.81
352.502	236.75
352.884	292.34
353.267	282.62
353.65	289.4
354.032	266.8
354.414	299.34
354.797	313.13
355.179	315.16
355.562	309.06
355.944	317.65
356.326	314.48
356.709	324.88
357.091	315.39
357.473	337.76
357.855	337.99
358.238	329.62
358.62	339.57
359.002	337.31
359.384	346.35
359.766	324.43
360.148	324.2
360.53	328.95
360.912	334.82
361.294	317.87
361.676	331.21
362.057	308.83
362.439	319.23
362.821	320.81
363.203	331.88
363.584	322.17
363.966	328.27
364.348	306.35
364.729	328.72
365.111	320.81
365.493	308.16
365.874	309.29
366.256	301.83
366.637	308.83
367.019	303.18
367.4	320.58
367.781	319.91
368.163	307.93
368.544	305.9
368.925	299.34
369.306	314.03
369.688	290.08
370.069	297.76
370.45	303.86
370.831	319.45
371.212	323.97
371.593	297.31
371.974	316.97
372.355	313.81
372.736	297.99
373.117	312
373.498	302.51
373.879	327.14
374.26	332.11
374.641	288.72
375.021	320.58
375.402	326.01
375.783	332.34
376.163	330.98
376.544	323.3
376.925	323.3
377.305	330.08
377.686	329.17
378.066	320.81
378.447	324.2
378.827	331.88
379.208	325.33
379.588	323.52
379.968	293.92
380.349	339.12
380.729	322.84
381.109	321.94
381.489	337.08
381.87	336.63
382.25	319.68
382.63	329.17
383.01	335.95
383.39	345.89
383.77	339.12
384.15	343.18
384.53	355.16
384.91	356.06
385.29	339.79
385.67	333.01
386.049	352.45
386.429	348.15
386.809	352.9
387.189	373.69
387.568	353.8
387.948	361.26
388.328	354.71
388.707	330.98
389.087	373.01
389.466	365.1
389.846	349.96
390.225	371.2
390.605	340.25
390.984	350.87
391.363	361.71
391.743	364.2
392.122	359.68
392.501	366.91
392.881	385.67
393.26	363.97
393.639	377.98
394.018	362.84
394.397	383.63
394.776	385.22
395.155	364.65
395.534	367.36
395.913	346.35
396.292	390.64
396.671	357.87
397.05	360.81
397.429	370.98
397.808	374.14
398.186	377.76
398.565	378.21
398.944	388.15
399.323	376.4
399.701	387.25
400.08	384.09
400.458	403.75
400.837	387.93
401.215	404.2
401.594	412.79
401.972	377.08
402.351	385.67
402.729	403.75
403.107	439.68
403.486	431.54
403.864	399.45
404.242	409.85
404.62	401.49
404.999	423.41
405.377	398.1
405.755	401.49
406.133	400.36
406.511	421.83
406.889	421.6
407.267	437.87
407.645	410.75
408.023	408.94
408.401	436.51
408.779	402.39
409.156	447.59
409.534	439.45
409.912	447.36
410.29	441.49
410.667	432.45
411.045	456.85
411.422	441.71
411.8	466.57
412.178	453.01
412.555	453.24
412.933	464.31
413.31	475.83
413.687	472.22
414.065	482.61
414.442	480.35
414.819	466.12
415.197	485.1
415.574	474.48
415.951	477.87
416.328	502.5
416.705	509.28
417.082	493.24
417.46	504.53
417.837	481.03
418.214	509.51
418.591	532.1
418.967	505.89
419.344	517.42
419.721	518.55
420.098	536.17
420.475	512.67
420.852	530.75
421.228	531.88
421.605	529.84
421.982	554.02
422.358	554.25
422.735	546.34
423.111	540.24
423.488	564.19
423.864	550.86
424.241	557.19
424.617	543.86
424.994	586.57
425.37	553.57
425.746	593.12
426.123	561.03
426.499	563.97
426.875	562.16
427.251	587.92
427.627	628.37
428.003	622.27
428.379	587.47
428.756	600.35
429.132	608.26
429.507	633.8
429.883	614.14
430.259	628.37
430.635	621.14
431.011	643.74
431.387	634.25
431.763	681.48
432.138	667.02
432.514	674.93
432.89	667.02
433.265	684.19
433.641	670.18
434.016	685.55
434.392	706.56
434.767	710.86
435.143	711.08
435.518	718.77
435.894	705.66
436.269	719.44
436.644	732.1
437.02	746.11
437.395	750.18
437.77	743.17
438.145	748.6
438.52	762.16
438.895	776.84
439.271	783.4
439.646	787.69
440.021	778.43
440.395	798.76
440.77	782.27
441.145	795.83
441.52	812.1
441.895	832.66
442.27	809.84
442.645	818.2
443.019	841.02
443.394	856.16
443.769	849.61
444.143	842.6
444.518	877.41
444.892	860.23
445.267	867.46
445.641	859.55
446.016	886.9
446.39	892.32
446.764	880.12
447.139	895.03
447.513	885.77
447.887	898.2
448.262	890.51
448.636	916.05
449.01	925.09
449.384	916.28
449.758	941.13
450.132	925.77
450.506	966.67
450.88	964.64
451.254	941.59
451.628	944.75
452.002	977.74
452.376	999.44
452.75	987.91
453.123	1010.28
453.497	1019.1
453.871	1017.06
454.244	990.17
454.618	1048.02
454.992	1031.98
455.365	1064.75
455.739	1069.94
456.112	1098.64
456.486	1074.24
456.859	1107.23
457.232	1137.29
457.606	1128.02
457.979	1171.18
458.352	1167.57
458.725	1215.02
459.099	1165.99
459.472	1193.1
459.845	1219.09
460.218	1221.58
460.591	1235.59
460.964	1242.14
461.337	1279.43
461.71	1300.9
462.083	1299.09
462.456	1334.34
462.829	1333.21
463.201	1371.63
463.574	1336.38
463.947	1359.65
464.32	1419.76
464.692	1415.02
465.065	1433.78
465.438	1428.8
465.81	1488.69
466.183	1495.7
466.555	1563.26
466.928	1526.43
467.3	1590.16
467.672	1582.92
468.045	1607.1
468.417	1625.64
468.789	1642.36
469.161	1658.63
469.534	1706.54
469.906	1752.86
470.278	1797.83
470.65	1789.02
471.022	1814.33
471.394	1895.68
471.766	1884.39
472.138	1930.03
472.51	1997.38
472.882	2023.82
473.253	2060.88
473.625	2086.19
473.997	2146.75
474.369	2160.31
474.74	2240.53
475.112	2307.43
475.484	2337.48
475.855	2389.68
476.227	2430.36
476.598	2512.62
476.97	2551.03
477.341	2605.5
477.713	2681.88
478.084	2749.45
478.455	2831.93
478.827	2856.56
479.198	2979.72
479.569	3043.68
479.94	3099.49
480.311	3187.18
480.682	3312.37
481.053	3388.53
481.424	3494.29
481.795	3539.94
482.166	3643.66
482.537	3739.03
482.908	3807.05
483.279	3872.13
483.65	3945.57
484.021	4125.46
484.391	4206.36
484.762	4306.02
485.133	4417.88
485.503	4505.79
485.874	4623.3
486.244	4675.05
486.615	4835.95
486.985	4936.96
487.356	5104.19
487.726	5152.1
488.097	5341.92
488.467	5431.18
488.837	5595.93
489.207	5708.01
489.578	5870.27
489.948	5886.09
490.318	6020.32
490.688	6175.8
491.058	6325.62
491.428	6452.4
491.798	6536.24
492.168	6670.25
492.538	6779.62
492.908	6924.7
493.278	7064.59
493.648	7109.11
494.017	7320.85
494.387	7419.83
494.757	7494.63
495.126	7696.44
495.496	7699.83
495.866	7876.09
496.235	7966.26
496.605	8131.45
496.974	8156.54
497.344	8272.24
497.713	8358.79
498.082	8510.88
498.452	8615.73
498.821	8674.94
499.19	8744.32
499.559	8890.98
499.928	8950.87
500.298	9047.59
500.667	9219.56
501.036	9199.45
501.405	9306.56
501.774	9363.74
502.143	9537.97
502.512	9559.89
502.88	9675.14
503.249	9732.99
503.618	9742.26
503.987	9888.02
504.356	9936.83
504.724	9999.65
505.093	10058.18
505.462	10143.38
505.83	10108.58
506.199	10255.46
506.567	10419.08
506.936	10417.04
507.304	10535.46
507.672	10567.77
508.041	10625.4
508.409	10669.47
508.777	10701.1
509.145	10826.3
509.514	10790.59
509.882	10868.33
510.25	10916.24
510.618	10972.96
510.986	10990.81
511.354	11054.77
511.722	11127.98
512.09	11176.12
512.458	11193.75
512.826	11293.86
513.193	11319.17
513.561	11339.28
513.929	11422.44
514.297	11447.52
514.664	11574.3
515.032	11466.05
515.4	11677.12
515.767	11599.61
516.135	11603.23
516.502	11539.72
516.869	11737.01
517.237	11756.67
517.604	11657.46
517.972	11844.58
518.339	11816.1
518.706	11784.24
519.073	11810.23
519.44	11964.12
519.808	11981.07
520.175	11922.77
520.542	11990.79
520.909	12006.83
521.276	11973.61
521.643	12070.11
522.009	12168.86
522.376	12105.36
522.743	12199.37
523.11	12193.27
523.477	12282.53
523.843	12320.04
524.21	12285.92
524.577	12361.62
524.943	12450.66
525.31	12400.72
525.676	12523.2
526.043	12528.85
526.409	12441.85
526.776	12626.25
527.142	12530.66
527.508	12575.18
527.874	12621.28
528.241	12576.31
528.607	12602.52
528.973	12631.45
529.339	12586.02
529.705	12693.59
530.071	12655.18
530.437	12668.73
530.803	12683.42
531.169	12610.21
531.535	12598.91
531.901	12569.53
532.267	12569.98
532.632	12632.8
532.998	12621.05
533.364	12574.5
533.73	12611.34
534.095	12623.76
534.461	12629.64
534.826	12635.97
535.192	12565.91
535.557	12589.41
535.923	12576.76
536.288	12579.92
536.653	12469.87
537.019	12450.44
537.384	12443.2
537.749	12445.46
538.114	12394.84
538.479	12329.99
538.845	12371.34
539.21	12249.31
539.575	12267.84
539.94	12246.37
540.305	12304.22
540.67	12166.83
541.034	12166.38
541.399	12193.94
541.764	12105.59
542.129	12075.53
542.494	12059.71
542.858	12120.95
543.223	11978.36
543.587	12033.05
543.952	11884.8
544.316	11970.22
544.681	11905.36
545.045	11918.02
545.41	11928.42
545.774	11874.86
546.138	11725.71
546.503	11765.26
546.867	11690.91
547.231	11757.35
547.595	11731.36
547.959	11634.64
548.324	11628.31
548.688	11580.4
549.052	11626.73
549.416	11585.6
549.779	11402.78
550.143	11459.05
550.507	11511.03
550.871	11382.21
551.235	11325.27
551.599	11417.92
551.962	11320.97
552.326	11304.93
552.689	11309.22
553.053	11296.57
553.417	11228.77
553.78	11406.39
554.143	11196.68
554.507	11281.88
554.87	11257.47
555.234	11279.17
555.597	11149.45
555.96	11180.86
556.323	11109.91
556.686	11092.05
557.05	11170.47
557.413	11096.8
557.776	11087.53
558.139	11132.73
558.502	11045.05
558.865	11105.84
559.228	11078.95
559.59	11058.16
559.953	11047.99
560.316	11069
560.679	11014.54
561.041	11116.91
561.404	11080.08
561.767	11087.99
562.129	11077.14
562.492	11114.43
562.854	11066.06
563.217	11067.87
563.579	11076.69
563.941	11131.15
564.304	11086.86
564.666	11143.58
565.028	11157.14
565.39	11168.44
565.753	11218.15
566.115	11174.54
566.477	11189.9
566.839	11234.2
567.201	11276.91
567.563	11274.65
567.925	11309.9
568.287	11214.99
568.648	11206.63
569.01	11295.66
569.372	11363.46
569.734	11237.36
570.095	11329.79
570.457	11374.53
570.819	11334.53
571.18	11304.25
571.542	11402.78
571.903	11371.37
572.265	11365.49
572.626	11347.41
572.987	11409.56
573.349	11444.81
573.71	11414.3
574.071	11413.63
574.432	11467.41
574.794	11451.14
575.155	11474.64
575.516	11368.88
575.877	11468.77
576.238	11393.97
576.599	11497.69
576.96	11479.61
577.32	11482.33
577.681	11535.88
578.042	11474.64
578.403	11447.07
578.763	11487.97
579.124	11558.71
579.485	11510.8
579.845	11459.73
580.206	11581.76
580.566	11573.62
580.927	11445.72
581.287	11556.45
581.648	11411.59
582.008	11514.64
582.368	11462.66
582.728	11522.1
583.089	11459.95
583.449	11455.89
583.809	11466.28
584.169	11442.55
584.529	11389.9
584.889	11497.01
585.249	11446.62
585.609	11353.52
585.969	11490.23
586.329	11429.67
586.688	11458.15
587.048	11421.08
587.408	11317.13
587.768	11364.36
588.127	11397.58
588.487	11286.85
588.846	11407.98
589.206	11317.58
589.565	11334.98
589.925	11392.84
590.284	11362.55
590.643	11325.04
591.003	11366.4
591.362	11336.57
591.721	11359.84
592.08	11303.8
592.44	11341.54
592.799	11320.75
593.158	11300.86
593.517	11343.12
593.876	11326.62
594.235	11324.59
594.593	11283.91
594.952	11349.22
595.311	11180.19
595.67	11279.84
596.029	11300.86
596.387	11328.43
596.746	11321.88
597.104	11255.21
597.463	11160.53
597.822	11263.57
598.18	11184.48
598.538	11238.94
598.897	11227.87
599.255	11117.14
599.613	11290.47
599.972	11234.2
600.33	11250.24
600.688	11179.06
601.046	11221.09
601.404	11320.07
601.762	11260.64
602.12	11356.68
602.478	11209.56
602.836	11281.88
603.194	11187.64
603.552	11228.09
603.91	11207.76
604.268	11266.51
604.625	11270.58
604.983	11252.05
605.341	11210.24
605.698	11195.1
606.056	11286.62
606.413	11181.32
606.771	11330.69
607.128	11253.86
607.485	11209.56
607.843	11184.25
608.2	11323.23
608.557	11303.35
608.914	11288.66
609.272	11327.3
609.629	11346.28
609.986	11379.05
610.343	11254.08
610.7	11333.4
611.057	11319.84
611.414	11367.75
611.771	11334.76
612.127	11421.76
612.484	11415.66
612.841	11436.9
613.198	11423.57
613.554	11392.61
613.911	11419.5
614.267	11458.6
614.624	11463.57
614.98	11386.96
615.337	11431.71
615.693	11475.32
616.05	11394.19
616.406	11517.58
616.762	11457.69
617.118	11497.92
617.475	11463.57
617.831	11478.94
618.187	11512.83
618.543	11542.89
618.899	11582.44
619.255	11577.69
619.611	11543.57
619.967	11655.43
620.323	11581.08
620.678	11520.06
621.034	11535.88
621.39	11490.23
621.746	11500.4
622.101	11656.78
622.457	11517.8
622.812	11573.4
623.168	11632.38
623.523	11623.11
623.879	11559.39
624.234	11474.87
624.589	11551.25
624.945	11574.53
625.3	11537.46
625.655	11543.11
626.01	11602.77
626.365	11565.94
626.72	11562.55
627.075	11584.02
627.43	11543.79
627.785	11569.55
628.14	11571.81
628.495	11583.34
628.85	11551.02
629.205	11522.78
629.559	11517.13
629.914	11512.15
630.269	11553.06
630.623	11536.11
630.978	11531.82
631.332	11571.59
631.687	11563
632.041	11370.69
632.396	11455.89
632.75	11491.82
633.104	11485.94
633.459	11408.43
633.813	11411.82
634.167	11365.04
634.521	11423.34
634.875	11380.63
635.229	11321.65
635.583	11295.66
635.937	11287.3
636.291	11223.8
636.645	11309.45
636.999	11283.46
637.352	11287.08
637.706	11222.22
638.06	11237.13
638.413	11247.08
638.767	11181.77
639.121	11224.93
639.474	11101.77
639.828	11101.77
640.181	11151.26
640.534	11187.64
640.888	11150.36
641.241	11042.34
641.594	11053.64
641.947	11152.39
642.301	11109.23
642.654	11097.02
643.007	11124.14
643.36	11104.93
643.713	11025.39
644.066	11055.67
644.419	11015.44
644.771	10987.42
645.124	10949.23
645.477	10862.45
645.83	10772.29
646.182	10701.33
646.535	10748.33
646.888	10748.11
647.24	10725.28
647.593	10769.8
647.945	10744.04
648.298	10657.26
648.65	10655.23
649.002	10661.78
649.355	10625.85
649.707	10626.3
650.059	10760.76
650.411	10839.4
650.763	10857.26
651.115	10939.51
651.467	10944.03
651.819	10934.99
652.171	10916.24
652.523	10880.53
652.875	10906.97
653.227	10882.11
653.578	10916.69
653.93	10919.18
654.282	10840.08
654.633	10881.21
654.985	10924.37
655.337	10936.35
655.688	10920.31
656.039	10881.66
656.391	10855.45
656.742	10949.23
657.094	10921.44
657.445	10939.29
657.796	10847.99
658.147	10833.3
658.498	10898.16
658.849	10862.68
659.2	10911.49
659.551	10885.05
659.902	10916.92
660.253	10922.34
660.604	10971.38
660.955	10845.96
661.306	10943.81
661.656	10953.75
662.007	10944.26
662.358	10898.84
662.708	10917.37
663.059	10870.14
663.409	10900.65
663.76	10965.73
664.11	10937.03
664.461	10966.41
664.811	10974.54
665.161	10939.51
665.511	10892.74
665.862	10934.32
666.212	10996.69
666.562	10974.32
666.912	10984.03
667.262	10937.93
667.612	10943.81
667.962	11026.07
668.312	10956.01
668.662	10996.24
669.011	10944.03
669.361	10909.91
669.711	10914.2
670.06	10917.37
670.41	10920.53
670.76	10861.1
671.109	10948.33
671.459	10939.29
671.808	10882.34
672.157	10877.14
672.507	10887.09
672.856	10887.54
673.205	10859.29
673.554	10943.81
673.904	10908.78
674.253	10926.41
674.602	10842.12
674.951	10714.66
675.3	10676.02
675.649	10888.22
675.998	10812.29
676.346	10832.62
676.695	10899.29
677.044	10805.96
677.393	10801.67
677.741	10790.59
678.09	10744.72
678.438	10736.58
678.787	10732.06
679.135	10756.92
679.484	10643.7
679.832	10676.47
680.181	10682.35
680.529	10663.82
680.877	10603.7
681.225	10578.39
681.573	10659.97
681.922	10590.6
682.27	10551.5
682.618	10551.73
682.966	10513.09
683.314	10489.58
683.661	10482.35
684.009	10389.92
684.357	10395.35
684.705	10460.66
685.053	10429.25
685.4	10381.79
685.748	10331.17
686.095	10368
686.443	10340.66
686.79	10297.5
687.138	10288.68
687.485	10280.32
687.832	10190.83
688.18	10176.6
688.527	10191.74
688.874	10117.62
689.221	10205.07
689.568	10115.36
689.915	10086.2
690.262	10064.51
690.609	9974.12
690.956	10010.95
691.303	10027
691.65	9939.31
691.997	9927.56
692.344	9913.33
692.69	9916.49
693.037	9893.44
693.383	9770.73
693.73	9831.3
694.077	9746.1
694.423	9755.36
694.769	9656.38
695.116	9658.19
695.462	9604.63
695.808	9547.23
696.155	9605.99
696.501	9525.09
696.847	9468.14
697.193	9418.88
697.539	9355.83
697.885	9327.58
698.231	9382.95
698.577	9349.5
698.923	9310.86
699.269	9247.58
699.614	9244.64
699.96	9142.5
700.306	9205.77
700.651	9056.63
700.997	9048.49
701.342	9095.5
701.688	9098.43
702.033	8987.25
702.379	8986.8
702.724	8976.18
703.069	8964.88
703.415	8857.31
703.76	8866.35
704.105	8839
704.45	8848.5
704.795	8790.64
705.14	8743.87
705.485	8698.9
705.83	8747.03
706.175	8707.03
706.52	8644.66
706.865	8655.73
707.209	8632.46
707.554	8597.88
707.899	8614.15
708.243	8555.17
708.588	8561.5
708.932	8464.78
709.277	8495.29
709.621	8545
709.966	8432.46
710.31	8386.36
710.654	8342.97
710.998	8350.66
711.342	8345.01
711.687	8367.38
712.031	8305.46
712.375	8217.33
712.719	8286.93
713.063	8230.66
713.407	8325.35
713.75	8205.12
714.094	8238.34
714.438	8199.93
714.782	8256.42
715.125	8141.85
715.469	8147.5
715.812	8107.72
716.156	8060.49
716.499	8070.44
716.843	8131
717.186	8027.05
717.53	8053.71
717.873	8100.04
718.216	8037.67
718.559	8081.06
718.902	7941.63
719.246	8010.55
719.589	7925.58
719.932	7918.58
720.275	7931.01
720.617	7942.08
720.96	7912.02
721.303	7879.93
721.646	7872.25
721.989	7797
722.331	7862.99
722.674	7844.45
723.016	7870.44
723.359	7899.82
723.701	7827.51
724.044	7788.86
724.386	7720.16
724.729	7881.29
725.071	7808.98
725.413	7797.45
725.755	7791.12
726.097	7820.5
726.439	7757.23
726.782	7765.13
727.124	7824.79
727.465	7765.13
727.807	7761.97
728.149	7723.33
728.491	7722.88
728.833	7739.37
729.175	7701.63
729.516	7735.53
729.858	7760.84
730.199	7749.99
730.541	7751.35
730.882	7671.35
731.224	7735.98
731.565	7733.72
731.906	7798.35
732.248	7699.15
732.589	7660.05
732.93	7667.06
733.271	7659.15
733.612	7715.64
733.953	7710.9
734.294	7704.35
734.635	7692.59
734.976	7725.59
735.317	7712.71
735.658	7627.51
735.999	7710.67
736.339	7699.6
736.68	7764.68
737.021	7693.72
737.361	7636.55
737.702	7710.9
738.042	7739.37
738.383	7754.29
738.723	7743.89
739.063	7743.89
739.404	7708.64
739.744	7811.01
740.084	7747.06
740.424	7822.31
740.764	7720.62
741.104	7818.92
741.444	7747.06
741.784	7789.09
742.124	7843.78
742.464	7761.75
742.804	7896.88
743.143	7847.39
743.483	7898.92
743.823	7920.61
744.162	7904.11
744.502	7981.4
744.841	7998.12
745.181	8013.26
745.52	8032.25
745.86	8105.24
746.199	8114.05
746.538	8155.63
746.877	8167.84
747.216	8249.87
747.556	8268.62
747.895	8281.51
748.234	8327.83
748.573	8359.92
748.911	8422.97
749.25	8552.23
749.589	8526.24
749.928	8629.97
750.267	8719.46
750.605	8724.21
750.944	8733.47
751.283	8832.45
751.621	8930.98
751.96	8989.74
752.298	9049.85
752.636	9172.33
752.975	9222.95
753.313	9276.51
753.651	9370.52
753.989	9510.17
754.327	9587.23
754.666	9732.31
755.004	9792.2
755.342	9938.41
755.679	10087.56
756.017	10156.03
756.355	10301.57
756.693	10367.78
757.031	10587.21
757.368	10607.55
757.706	10860.19
758.044	10927.99
758.381	11090.7
758.719	11222.67
759.056	11361.65
759.394	11578.82
759.731	11568.88
760.068	11754.18
760.405	11925.48
760.743	11993.05
761.08	12253.83
761.417	12339.7
761.754	12499.7
762.091	12698.56
762.428	12792.8
762.765	12962.29
763.102	13149.4
763.438	13246.57
763.775	13431.65
764.112	13564.76
764.449	13778.99
764.785	13884.3
765.122	14010.62
765.458	14096.72
765.795	14337.62
766.131	14497.16
766.467	14580.1
766.804	14719.08
767.14	14745.29
767.476	14935.34
767.812	15052.17
768.148	15201.55
768.485	15323.13
768.821	15331.26
769.157	15491.94
769.492	15622.1
769.828	15773.74
770.164	15861.87
770.5	15940.06
770.836	16044.24
771.171	16064.8
771.507	16178.92
771.842	16277.91
772.178	16378.02
772.513	16524.9
772.849	16489.43
773.184	16615.07
773.519	16732.36
773.855	16720.15
774.19	16876.31
774.525	16868.17
774.86	16976.64
775.195	16994.72
775.53	17018.45
775.865	17010.09
776.2	17011.67
776.535	16972.35
776.87	17149.07
777.205	17195.85
777.539	17194.72
777.874	17340.25
778.209	17246.24
778.543	17260.03
778.878	17328.95
779.212	17396.07
779.547	17380.25
779.881	17600.58
780.215	17380.25
780.55	17445.56
780.884	17387.48
781.218	17411.66
781.552	17531.66
781.886	17512.45
782.22	17427.48
782.554	17451.66
782.888	17374.6
783.222	17435.84
783.556	17376.41
783.889	17451.21
784.223	17299.12
784.557	17337.99
784.89	17418.67
785.224	17330.53
785.557	17255.73
785.891	17278.78
786.224	17272.68
786.558	17301.83
786.891	17209.41
787.224	17198.11
787.557	17217.99
787.891	17216.41
788.224	17305
788.557	17197.43
788.89	17165.34
789.223	17173.02
789.556	17130.76
789.888	17093.7
790.221	17122.63
790.554	16999.92
790.887	17001.28
791.219	16973.25
791.552	16921.28
791.884	16872.69
792.217	16869.53
792.549	16810.55
792.882	16742.98
793.214	16695.75
793.546	16686.03
793.879	16629.53
794.211	16618.91
794.543	16775.97
794.875	16630.21
795.207	16681.74
795.539	16616.65
795.871	16584.11
796.203	16464.12
796.535	16450.56
796.867	16401.97
797.198	16360.84
797.53	16359.03
797.862	16210.34
798.193	16254.18
798.525	16157.91
798.856	16197
799.188	16081.07
799.519	15941.42
799.85	15883.34
800.182	15983.68
800.513	15904.81
800.844	15832.04
801.175	16035.65
801.506	15945.71
801.837	15766.73
802.168	15813.96
802.499	15777.13
802.83	15797.24
803.161	15685.38
803.491	15667.98
803.822	15681.99
804.153	15638.37
804.483	15448.77
804.814	15395.44
805.145	15491.03
805.475	15467.98
805.805	15424.59
806.136	15426.63
806.466	15394.31
806.796	15373.07
807.126	15262.34
807.457	15216.46
807.787	15186.86
808.117	15153.64
808.447	15117.71
808.777	15201.1
809.107	15056.92
809.436	15013.98
809.766	15039.52
810.096	14912.29
810.426	14928.56
810.755	14981.89
811.085	14889.92
811.414	14918.85
811.744	14681.56
812.073	14787.78
812.403	14779.64
812.732	14668.23
813.061	14714.78
813.39	14592.3
813.719	14589.36
814.049	14698.74
814.378	14618.51
814.707	14525.41
815.036	14502.58
815.365	14490.16
815.693	14411.51
816.022	14452.19
816.351	14431.63
816.68	14268.69
817.008	14357.28
817.337	14184.4
817.665	14206.55
817.994	14298.52
818.322	14283.61
818.651	14146.66
818.979	14082.03
819.307	14235.02
819.636	14040.68
819.964	14027.79
820.292	14049.49
820.62	14074.35
820.948	14065.31
821.276	14148.47
821.604	14024.41
821.932	14070.73
822.259	14120.22
822.587	14021.24
822.915	13991.86
823.243	14131.3
823.57	13992.99
823.898	14052.88
824.225	13967.91
824.553	13971.98
824.88	13947.8
825.207	14044.74
825.535	13914.8
825.862	14014.24
826.189	13954.35
826.516	14116.38
826.843	14185.98
827.17	14121.13
827.497	14121.8
827.824	14147.11
828.151	14133.33
828.478	14069.6
828.805	14073.44
829.131	14042.03
829.458	14003.39
829.785	14005.87
830.111	14016.04
830.438	14168.81
830.764	14123.16
831.09	14136.94
831.417	13977.63
831.743	14085.65
832.069	14066.66
832.395	14049.72
832.722	13988.93
833.048	13958.42
833.374	14034.35
833.7	13934.46
834.026	13996.38
834.351	13854.01
834.677	13904.63
835.003	13965.65
835.329	13975.59
835.654	13872.77
835.98	13884.3
836.306	13941.7
836.631	13889.95
836.956	13927.91
837.282	13892.21
837.607	13799.78
837.932	13743.51
838.258	13652.66
838.583	13731.98
838.908	13607.24
839.233	13713.68
839.558	13624.19
839.883	13611.31
840.208	13632.33
840.533	13564.3
840.858	13576.73
841.182	13620.8
841.507	13536.73
841.832	13355.5
842.156	13431.43
842.481	13491.09
842.805	13390.98
843.13	13466.23
843.454	13373.12
843.778	13335.61
844.103	13310.98
844.427	13365.21
844.751	13254.03
845.075	13279.11
845.399	13234.37
845.723	13150.76
846.047	13106.69
846.371	13042.28
846.695	13111.66
847.019	12952.8
847.343	12899.46
847.666	12877.54
847.99	12721.61
848.313	12725.23
848.637	12713.71
848.96	12667.38
849.284	12615.63
849.607	12499.47
849.931	12503.32
850.254	12460.6
850.577	12390.1
850.9	12339.7
851.223	12329.76
851.546	12208.18
851.869	12210.89
852.192	12179.26
852.515	12059.49
852.838	12045.93
853.161	12006.15
853.483	11975.65
853.806	11937.91
854.129	11889.09
854.451	11861.75
854.774	11739.27
855.096	11769.78
855.419	11740.85
855.741	11662.66
856.063	11615.43
856.385	11544.24
856.708	11589.67
857.03	11573.85
857.352	11532.27
857.674	11476.22
857.996	11478.48
858.318	11372.95
858.64	11424.93
858.961	11354.64
859.283	11289.11
859.605	11341.54
859.926	11277.36
860.248	11284.59
860.57	11210.69
860.891	11171.15
861.212	11159.4
861.534	11115.1
861.855	11120.3
862.176	11060.42
862.498	11116.23
862.819	11062.45
863.14	10980.19
863.461	10954.2
863.782	10930.02
864.103	10937.03
864.424	10934.99
864.745	10931.61
865.065	10923.92
865.386	10807.99
865.707	10830.14
866.027	10819.07
866.348	10781.78
866.668	10798.05
866.989	10760.76
867.309	10698.39
867.63	10772.29
867.95	10737.71
868.27	10664.49
868.59	10665.17
868.91	10658.39
869.23	10575.46
869.55	10618.62
869.87	10601.22
870.19	10667.43
870.51	10547.66
870.83	10649.58
871.15	10571.61
871.469	10549.47
871.789	10590.15
872.109	10449.81
872.428	10483.26
872.748	10523.71
873.067	10466.98
873.386	10458.85
873.706	10476.48
874.025	10305.63
874.344	10365.52
874.663	10397.83
874.982	10294.79
875.301	10334.56
875.62	10299.31
875.939	10300.44
876.258	10299.31
876.577	10273.09
876.896	10211.85
877.214	10172.98
877.533	10287.55
877.852	10167.78
878.17	10218.4
878.489	10136.15
878.807	10188.35
879.125	10102.93
879.444	10107.9
879.762	10081.01
880.08	10084.62
880.398	10094.11
880.716	10011.18
881.034	10054.79
881.352	10001.69
881.67	9973.44
881.988	9965.75
882.306	9943.83
882.624	9922.37
882.941	9855.25
883.259	9850.5
883.577	9794.91
883.894	9800.34
884.212	9818.19
884.529	9762.82
884.846	9799.66
885.164	9812.31
885.481	9659.77
885.798	9678.08
886.115	9657.74
886.432	9627.91
886.75	9586.78
887.067	9570.96
887.383	9531.19
887.7	9566.9
888.017	9539.55
888.334	9500.46
888.651	9531.19
888.967	9496.16
889.284	9381.36
889.6	9442.38
889.917	9327.35
890.233	9386.56
890.55	9231.31
890.866	9328.71
891.182	9222.05
891.498	9314.47
891.815	9215.72
892.131	9187.92
892.447	9125.55
892.763	9095.72
893.079	9026.57
893.395	9106.79
893.71	9016.18
894.026	9104.31
894.342	8983.18
894.657	8898.21
894.973	8900.25
895.289	8942.05
895.604	8888.27
895.92	8787.48
896.235	8792.23
896.55	8749.29
896.865	8697.77
897.181	8720.36
897.496	8749.97
897.811	8692.57
898.126	8637.88
898.441	8638.78
898.756	8589.97
899.071	8540.03
899.386	8497.77
899.7	8484.44
900.015	8413.25
900.33	8392.69
900.644	8339.13
900.959	8367.15
901.273	8338.45
901.588	8312.01
901.902	8257.1
902.216	8240.15
902.531	8202.19
902.845	8147.27
903.159	8120.61
903.473	8094.84
903.787	8093.04
904.101	8004.68
904.415	8034.28
904.729	7995.86
905.042	7937.11
905.356	7940.5
905.67	7948.63
905.984	7921.29
906.297	7832.48
906.611	7867.96
906.924	7756.77
907.237	7795.64
907.551	7712.93
907.864	7667.96
908.177	7685.14
908.491	7614.18
908.804	7625.25
909.117	7499.61
909.43	7520.17
909.743	7532.82
910.056	7474.29
910.368	7408.76
910.681	7396.33
910.994	7348.65
911.307	7333.96
911.619	7239.5
911.932	7284.47
912.244	7261.42
912.557	7240.18
912.869	7183.91
913.181	7128.77
913.494	7131.25
913.806	7149.11
914.118	7022.78
914.43	7011.71
914.742	7012.39
915.054	6992.5
915.366	7004.7
915.678	6870.92
915.99	6885.38
916.302	6858.94
916.613	6822.56
916.925	6842.22
917.236	6842.45
917.548	6801.09
917.859	6735.56
918.171	6649.91
918.482	6625.28
918.794	6677.25
919.105	6687.87
919.416	6559.52
919.727	6568.1
920.038	6602.45
920.349	6508.22
920.66	6489.69
920.971	6507.09
921.282	6439.29
921.593	6427.99
921.903	6397.49
922.214	6380.99
922.525	6348.67
922.835	6298.96
923.146	6253.54
923.456	6252.86
923.767	6220.09
924.077	6168.11
924.387	6203.37
924.697	6141.67
925.008	6140.77
925.318	6079.76
925.628	6087.44
925.938	5991.62
926.248	5981.9
926.558	5978.29
926.867	5960.89
927.177	5940.78
927.487	5891.51
927.796	5841.12
928.106	5909.59
928.416	5897.39
928.725	5846.32
929.034	5832.08
929.344	5786.66
929.653	5815.81
929.962	5731.29
930.271	5726.32
930.581	5648.35
930.89	5626.89
931.199	5651.52
931.508	5606.32
931.817	5637.06
932.125	5628.92
932.434	5550.96
932.743	5551.86
933.051	5496.04
933.36	5468.92
933.669	5452.88
933.977	5403.61
934.286	5454.69
934.594	5410.85
934.902	5366.1
935.21	5344.41
935.519	5360
935.827	5348.25
936.135	5313.67
936.443	5247.91
936.751	5224.64
937.059	5261.47
937.367	5219.89
937.674	5195.71
937.982	5189.16
938.29	5137.86
938.597	5130.4
938.905	5071.42
939.213	5036.84
939.52	5070.74
939.827	5058.31
940.135	5036.84
940.442	5017.18
940.749	5018.77
941.056	4976.28
941.363	4930.41
941.67	4943.97
941.977	4886.57
942.284	4887.7
942.591	4810.41
942.898	4808.83
943.205	4796.17
943.511	4772.9
943.818	4776.51
944.125	4688.61
944.431	4746.91
944.738	4706.23
945.044	4721.82
945.35	4651.32
945.657	4640.02
945.963	4622.84
946.269	4596.86
946.575	4564.77
946.881	4576.97
947.187	4536.97
947.493	4510.76
947.799	4534.03
948.105	4469.4
948.41	4458.33
948.716	4483.64
949.022	4440.7
949.327	4400.93
949.633	4362.74
949.938	4359.8
950.244	4378.11
950.549	4301.05
950.854	4311.21
951.16	4271.22
951.465	4265.34
951.77	4238.22
952.075	4246.81
952.38	4203.42
952.685	4242.97
952.99	4180.37
953.294	4145.57
953.599	4131.56
953.904	4080.03
954.209	4121.16
954.513	4091.11
954.818	4089.98
955.122	4086.14
955.426	4024.44
955.731	4008.62
956.035	4005.23
956.339	3980.6
956.643	3969.53
956.948	3930.89
957.252	3965.69
957.556	3977.89
957.86	3916.42
958.163	3907.61
958.467	3878.46
958.771	3910.32
959.075	3866.48
959.378	3895.63
959.682	3830.32
959.985	3820.83
960.289	3771.34
960.592	3765.69
960.896	3760.72
961.199	3722.08
961.502	3732.7
961.805	3688.18
962.108	3705.81
962.411	3659.48
962.714	3638.69
963.017	3646.37
963.32	3628.97
963.623	3629.42
963.926	3592.14
964.228	3550.78
964.531	3552.82
964.833	3574.28
965.136	3527.96
965.438	3524.12
965.741	3488.19
966.043	3476.89
966.345	3495.87
966.648	3457
966.95	3478.69
967.252	3418.58
967.554	3419.03
967.856	3386.49
968.158	3357.57
968.46	3391.24
968.761	3344.91
969.063	3357.57
969.365	3318.92
969.666	3335.19
969.968	3305.82
970.269	3256.55
970.571	3239.15
970.872	3257.68
971.174	3239.83
971.475	3235.76
971.776	3226.27
972.077	3192.37
972.378	3181.98
972.679	3181.3
972.98	3146.73
973.281	3131.13
973.582	3145.14
973.883	3103.56
974.183	3148.76
974.484	3075.09
974.785	3042.1
975.085	3062.21
975.386	3041.64
975.686	3040.29
975.986	3032.15
976.287	3020.17
976.587	2959.61
976.887	2975.2
977.187	2937.01
977.487	2933.85
977.787	2899.27
978.087	2935.21
978.387	2922.55
978.687	2905.15
978.987	2901.99
979.286	2882.33
979.586	2867.64
979.885	2861.99
980.185	2849.11
980.484	2797.36
980.784	2785.38
981.083	2837.81
981.382	2800.75
981.682	2795.1
981.981	2776.79
982.28	2734.31
982.579	2747.64
982.878	2724.14
983.177	2741.76
983.475	2686.85
983.774	2678.71
984.073	2676
984.372	2678.26
984.67	2643.46
984.969	2650.69
985.267	2652.5
985.566	2621.99
985.864	2616.8
986.162	2609.11
986.461	2568.21
986.759	2569.11
987.057	2560.98
987.355	2551.03
987.653	2558.94
987.951	2509
988.249	2523.46
988.547	2500.19
988.844	2471.26
989.142	2498.38
989.44	2459.29
989.737	2430.36
990.035	2445.27
990.332	2443.01
990.63	2405.05
990.927	2426.07
991.224	2412.51
991.521	2368.67
991.819	2392.17
992.116	2374.32
992.413	2334.32
992.71	2339.74
993.006	2332.51
993.303	2325.96
993.6	2301.1
993.897	2330.25
994.193	2295.67
994.49	2271.49
994.787	2258.39
995.083	2268.78
995.379	2273.53
995.676	2207.99
995.972	2246.86
996.268	2201.21
996.565	2231.49
996.861	2227.65
997.157	2194.21
997.453	2173.64
997.749	2189.01
998.044	2158.28
998.34	2140.42
998.636	2107.2
998.932	2096.58
999.227	2106.07
999.523	2091.39
999.818	2091.84
1000.114	2074.21
1000.409	2069.47
1000.704	2036.02
1001	2056.13
1001.295	2041.44
1001.59	2008.22
1001.885	2009.13
1002.18	1998.73
1002.475	2001.44
1002.77	1989.02
1003.065	1986.76
1003.359	1925.97
1003.654	1952.63
1003.949	1963.71
1004.243	1953.99
1004.538	1890.26
1004.832	1915.57
1005.127	1890.49
1005.421	1877.61
1005.715	1852.07
1006.009	1881.45
1006.304	1859.08
1006.598	1831.51
1006.892	1822.47
1007.186	1808.91
1007.48	1828.12
1007.773	1791.05
1008.067	1802.13
1008.361	1772.98
1008.655	1796.25
1008.948	1759.87
1009.242	1763.71
1009.535	1745.18
1009.829	1757.16
1010.122	1762.35
1010.415	1735.01
1010.708	1697.95
1011.001	1685.75
1011.295	1645.75
1011.588	1665.63
1011.881	1639.19
1012.173	1656.59
1012.466	1638.74
1012.759	1636.03
1013.052	1614.56
1013.344	1627.22
1013.637	1603.49
1013.93	1629.02
1014.222	1593.32
1014.514	1598.07
1014.807	1552.87
1015.099	1531.4
1015.391	1566.65
1015.683	1537.73
1015.976	1556.03
1016.268	1518.07
1016.56	1505.41
1016.851	1492.53
1017.143	1508.58
1017.435	1515.58
1017.727	1474.9
1018.018	1467.22
1018.31	1456.15
1018.602	1443.95
1018.893	1417.51
1019.185	1412.31
1019.476	1427.22
1019.767	1415.7
1020.058	1389.26
1020.35	1388.35
1020.641	1344.06
1020.932	1362.14
1021.223	1378.64
1021.514	1360.33
1021.804	1371.86
1022.095	1371.86
1022.386	1349.71
1022.677	1303.16
1022.967	1301.35
1023.258	1326.66
1023.548	1288.47
1023.839	1282.37
1024.129	1283.95
1024.419	1285.98
1024.709	1260.22
1025	1248.92
1025.29	1250.5
1025.58	1271.29
1025.87	1226.55
1026.16	1245.08
1026.449	1218.87
1026.739	1194.01
1027.029	1215.48
1027.319	1217.51
1027.608	1185.65
1027.898	1207.12
1028.187	1144.97
1028.477	1170.51
1028.766	1164.4
1029.055	1150.62
1029.344	1144.74
1029.634	1134.35
1029.923	1103.84
1030.212	1115.82
1030.501	1117.85
1030.79	1111.52
1031.078	1139.32
1031.367	1092.09
1031.656	1103.84
1031.945	1074.46
1032.233	1061.81
1032.522	1075.59
1032.81	1033.56
1033.099	1041.7
1033.387	1043.28
1033.675	1029.94
1033.963	1050.06
1034.251	1025.2
1034.54	1028.36
1034.828	1027.91
1035.116	1006.22
1035.403	1010.28
1035.691	973.9
1035.979	979.1
1036.267	972.77
1036.554	984.3
1036.842	982.26
1037.129	973
1037.417	956.27
1037.704	946.78
1037.992	919.21
1038.279	938.42
1038.566	917.41
1038.853	917.41
1039.14	917.41
