Data from hue_38_FLMS001491_00077.txt Node
Date: Tue Feb 07 17:31:58 GMT 2017
User: dcchb
Spectrometer: FLMS00149
Trigger mode: 0
Integration Time (sec): 2.000000E-2
Scans to average: 10
Electric dark correction enabled: true
Nonlinearity correction enabled: false
Boxcar width: 0
XAxis mode: Wavelengths
Number of Pixels in Spectrum: 2048
>>>>>Begin Spectral Data<<<<<
341.393	-4.38
341.776	-4.38
342.16	-4.38
342.543	-63.59
342.927	-60.2
343.31	-64.04
343.693	-68.56
344.077	-58.16
344.46	-37.82
344.843	-62.46
345.226	-45.73
345.61	-34.21
345.993	-19.07
346.376	-10.03
346.759	23.87
347.142	18.45
347.525	25.23
347.908	48.28
348.291	68.84
348.674	98.9
349.057	116.52
349.44	134.83
349.823	133.02
350.206	156.52
350.588	201.27
350.971	195.16
351.354	229.06
351.737	238.1
352.119	247.14
352.502	243.3
352.884	281.04
353.267	292.11
353.65	274.48
354.032	316.29
354.414	314.94
354.797	305.44
355.179	330.53
355.562	328.49
355.944	331.66
356.326	336.63
356.709	332.79
357.091	349.28
357.473	352
357.855	344.76
358.238	361.71
358.62	331.88
359.002	355.16
359.384	365.78
359.766	361.71
360.148	341.38
360.53	361.04
360.912	318.32
361.294	352
361.676	333.24
362.057	329.85
362.439	356.52
362.821	337.76
363.203	316.52
363.584	332.34
363.966	325.78
364.348	350.64
364.729	315.16
365.111	332.79
365.493	323.07
365.874	325.78
366.256	323.3
366.637	330.98
367.019	310.64
367.4	321.71
367.781	312.68
368.163	308.16
368.544	337.31
368.925	315.61
369.306	352.45
369.688	315.61
370.069	308.38
370.45	322.39
370.831	326.69
371.212	297.31
371.593	320.13
371.974	323.75
372.355	303.86
372.736	310.64
373.117	321.71
373.498	298.89
373.879	339.79
374.26	337.76
374.641	335.27
375.021	316.07
375.402	319.68
375.783	322.39
376.163	337.31
376.544	336.86
376.925	330.53
377.305	317.87
377.686	331.21
378.066	326.23
378.447	356.52
378.827	336.4
379.208	332.79
379.588	332.79
379.968	332.11
380.349	344.99
380.729	336.86
381.109	337.53
381.489	343.18
381.87	342.96
382.25	331.43
382.63	356.29
383.01	346.35
383.39	349.51
383.77	350.64
384.15	335.5
384.53	342.05
384.91	367.36
385.29	351.09
385.67	362.84
386.049	352.67
386.429	346.8
386.809	355.84
387.189	363.97
387.568	339.57
387.948	358.55
388.328	375.27
388.707	364.2
389.087	340.7
389.466	356.06
389.846	357.42
390.225	357.65
390.605	371.2
390.984	381.83
391.363	380.24
391.743	380.92
392.122	377.08
392.501	362.39
392.881	372.56
393.26	387.25
393.639	396.06
394.018	372.79
394.397	387.93
394.776	369.85
395.155	361.71
395.534	371.43
395.913	364.65
396.292	388.61
396.671	370.53
397.05	376.18
397.429	401.03
397.808	409.17
398.186	384.99
398.565	371.2
398.944	402.84
399.323	395.39
399.701	383.18
400.08	413.24
400.458	402.39
400.837	394.71
401.215	423.63
401.594	409.17
401.972	415.5
402.351	397.87
402.729	397.87
403.107	424.31
403.486	408.27
403.864	415.05
404.242	436.74
404.62	419.57
404.999	445.55
405.377	407.81
405.755	422.73
406.133	424.08
406.511	429.96
406.889	432.45
407.267	445.1
407.645	442.84
408.023	437.19
408.401	448.27
408.779	448.04
409.156	464.76
409.534	442.84
409.912	464.08
410.29	450.07
410.667	458.66
411.045	452.33
411.422	448.49
411.8	458.21
412.178	459.11
412.555	473.35
412.933	502.5
413.31	495.04
413.687	515.61
414.065	485.33
414.442	490.07
414.819	497.98
415.197	519
415.574	499.56
415.951	491.88
416.328	495.95
416.705	521.03
417.082	507.25
417.46	532.78
417.837	524.2
418.214	521.26
418.591	508.6
418.967	515.61
419.344	514.7
419.721	540.69
420.098	534.59
420.475	524.2
420.852	510.18
421.228	552.22
421.605	539.79
421.982	548.83
422.358	532.78
422.735	569.84
423.111	570.3
423.488	558.77
423.864	564.42
424.241	559.22
424.617	595.61
424.994	565.1
425.37	585.66
425.746	574.59
426.123	581.14
426.499	594.7
426.875	588.15
427.251	594.7
427.627	590.41
428.003	603.29
428.379	611.42
428.756	614.59
429.132	640.12
429.507	614.14
429.883	617.07
430.259	623.4
430.635	648.94
431.011	633.8
431.387	631.99
431.763	636.51
432.138	624.98
432.514	648.71
432.89	669.5
433.265	669.95
433.641	674.93
434.016	702.04
434.392	682.16
434.767	694.13
435.143	686.45
435.518	699.56
435.894	695.26
436.269	714.25
436.644	703.63
437.02	713.34
437.395	737.3
437.77	730.29
438.145	730.52
438.52	733.46
438.895	733
439.271	748.82
439.646	757.41
440.021	751.31
440.395	776.17
440.77	768.26
441.145	793.57
441.52	787.01
441.895	791.31
442.27	779.1
442.645	795.37
443.019	801.02
443.394	812.78
443.769	810.97
444.143	811.87
444.518	828.14
444.892	807.58
445.267	819.78
445.641	839.22
446.016	810.29
446.39	808.48
446.764	846.22
447.139	855.49
447.513	862.49
447.887	848.25
448.262	862.94
448.636	853
449.01	869.04
449.384	881.02
449.758	869.95
450.132	907.01
450.506	890.74
450.88	922.15
451.254	894.58
451.628	940.68
452.002	915.82
452.376	940.91
452.75	935.48
453.123	963.73
453.497	956.95
453.871	965.99
454.244	972.55
454.618	978.42
454.992	1012.09
455.365	993.34
455.739	1028.81
456.112	1037.4
456.486	1034.24
456.859	1037.63
457.232	1040.79
457.606	1038.08
457.979	1044.18
458.352	1085.08
458.725	1099.77
459.099	1116.04
459.472	1124.18
459.845	1122.82
460.218	1135.25
460.591	1126.89
460.964	1126.89
461.337	1165.53
461.71	1196.95
462.083	1230.84
462.456	1205.99
462.829	1214.12
463.201	1227
463.574	1238.3
463.947	1264.74
464.32	1259.09
464.692	1299.09
465.065	1324.4
465.438	1308.58
465.81	1331.63
466.183	1349.26
466.555	1385.64
466.928	1418.86
467.3	1404.17
467.672	1435.58
468.045	1451.18
468.417	1475.36
468.789	1510.84
469.161	1531.63
469.534	1553.77
469.906	1546.09
470.278	1575.92
470.65	1611.4
471.022	1621.12
471.394	1675.58
471.766	1649.36
472.138	1728.23
472.51	1755.35
472.882	1782.24
473.253	1818.17
473.625	1830.15
473.997	1896.36
474.369	1905.4
474.74	1907.89
475.112	1992.18
475.484	1996.47
475.855	2068.34
476.227	2099.97
476.598	2179.97
476.97	2205.73
477.341	2237.14
477.713	2287.09
478.084	2362.79
478.455	2385.84
478.827	2435.33
479.198	2492.05
479.569	2547.42
479.94	2664.7
480.311	2683.23
480.682	2739.5
481.053	2858.15
481.424	2923.68
481.795	2970.46
482.166	3014.75
482.537	3099.49
482.908	3228.76
483.279	3237.8
483.65	3397.57
484.021	3443.89
484.391	3518.24
484.762	3550.56
485.133	3649.08
485.503	3734.28
485.874	3879.59
486.244	3965.69
486.615	4053.59
486.985	4151.67
487.356	4229.41
487.726	4343.53
488.097	4437.09
488.467	4524.99
488.837	4633.92
489.207	4713.92
489.578	4880.69
489.948	4927.24
490.318	5054.92
490.688	5170.4
491.058	5261.92
491.428	5358.64
491.798	5464.4
492.168	5593.44
492.538	5675.47
492.908	5738.75
493.278	5962.24
493.648	5948.69
494.017	6076.59
494.387	6222.8
494.757	6245.4
495.126	6413.76
495.496	6489.46
495.866	6560.42
496.235	6687.87
496.605	6806.52
496.974	6823.46
497.344	7008.77
497.713	7081.76
498.082	7126.06
498.452	7288.99
498.821	7310.91
499.19	7500.96
499.559	7546.38
499.928	7646.04
500.298	7734.18
500.667	7876.77
501.036	7914.28
501.405	8082.87
501.774	8109.76
502.143	8179.81
502.512	8251.68
502.88	8327.61
503.249	8296.19
503.618	8528.96
503.987	8526.7
504.356	8653.47
504.724	8707.71
505.093	8790.19
505.462	8894.6
505.83	8979.57
506.199	9021.82
506.567	9140.92
506.936	9229.05
507.304	9280.35
507.672	9444.41
508.041	9446.67
508.409	9551.3
508.777	9633.56
509.145	9762.14
509.514	9814.12
509.882	9791.52
510.25	9885.08
510.618	9981.8
510.986	10070.61
511.354	10134.56
511.722	10137.73
512.09	10272.41
512.458	10356.48
512.826	10384.95
513.193	10471.96
513.561	10484.39
513.929	10613.2
514.297	10765.06
514.664	10814.09
515.032	10848.44
515.4	10945.62
515.767	11025.84
516.135	11112.62
516.502	11005.95
516.869	11217.93
517.237	11204.14
517.604	11214.76
517.972	11337.7
518.339	11474.87
518.706	11488.88
519.073	11564.13
519.44	11649.33
519.808	11703.56
520.175	11785.59
520.542	11876.21
520.909	11963.44
521.276	11897.23
521.643	12076.43
522.009	12102.2
522.376	12174.28
522.743	12304.45
523.11	12406.59
523.477	12557.1
523.843	12601.39
524.21	12774.95
524.577	12787.6
524.943	12847.49
525.31	12903.76
525.676	13052.68
526.043	13068.5
526.409	13173.81
526.776	13292
527.142	13407.47
527.508	13445.44
527.874	13496.51
528.241	13559.33
528.607	13600.01
528.973	13707.13
529.339	13834.13
529.705	13880.68
530.071	14014.01
530.437	14098.53
530.803	14159.77
531.169	14200.9
531.535	14219.2
531.901	14261.69
532.267	14385.53
532.632	14444.28
532.998	14435.92
533.364	14576.26
533.73	14724.73
534.095	14879.07
534.461	14773.99
534.826	14812.86
535.192	14975.34
535.557	15025.51
535.923	15053.76
536.288	15165.17
536.653	15273.19
537.019	15147.09
537.384	15192.28
537.749	15342.34
538.114	15402.45
538.479	15443.58
538.845	15398.15
539.21	15499.85
539.575	15571.03
539.94	15681.54
540.305	15736.22
540.67	15680.86
541.034	15843.79
541.399	15895.09
541.764	15963.56
542.129	16079.27
542.494	16049.44
542.858	16160.39
543.223	16139.6
543.587	16291.69
543.952	16269.32
544.316	16372.82
544.681	16362.87
545.045	16450.33
545.41	16532.36
545.774	16539.14
546.138	16605.58
546.503	16728.06
546.867	16777.55
547.231	16839.47
547.595	16845.57
547.959	17020.94
548.324	16977.55
548.688	17026.36
549.052	17193.59
549.416	17131.89
549.779	17273.36
550.143	17224.32
550.507	17353.81
550.871	17339.8
551.235	17356.07
551.599	17476.07
551.962	17575.95
552.326	17644.2
552.689	17734.82
553.053	17651.2
553.417	17734.59
553.78	18042.38
554.143	17980.69
554.507	17987.69
554.87	18086.9
555.234	18302.94
555.597	18140.46
555.96	18177.74
556.323	18335.48
556.686	18328.92
557.05	18401.69
557.413	18475.14
557.776	18503.61
558.139	18562.14
558.502	18637.17
558.865	18768.69
559.228	18840.32
559.59	18885.07
559.953	18982.24
560.316	19110.15
560.679	19075.8
561.041	19288.22
561.404	19255.45
561.767	19405.73
562.129	19386.52
562.492	19574.09
562.854	19472.17
563.217	19553.3
563.579	19623.35
563.941	19676.23
564.304	19800.07
564.666	19933.4
565.028	19884.82
565.39	20035.09
565.753	20216.11
566.115	20281.42
566.477	20281.19
566.839	20331.81
567.201	20447.06
567.563	20470.56
567.925	20649.54
568.287	20718.92
568.648	20654.74
569.01	20838.69
569.372	20956.43
569.734	20918.24
570.095	21105.57
570.457	21108.96
570.819	21148.29
571.18	21176.76
571.542	21377.43
571.903	21442.29
572.265	21533.36
572.626	21604.77
572.987	21704.43
573.349	21779.68
573.71	21840.02
574.071	22070.52
574.432	22113.01
574.794	22331.98
575.155	22329.5
575.516	22329.72
575.877	22516.84
576.238	22538.76
576.599	22769.71
576.96	22850.61
577.32	22877.73
577.681	23045.64
578.042	23184.16
578.403	23333.76
578.763	23509.81
579.124	23566.53
579.485	23782.79
579.845	23964.71
580.206	24010.13
580.566	24165.61
580.927	24326.51
581.287	24585.94
581.648	24536.9
582.008	24807.85
582.368	24909.32
582.728	25124.45
583.089	25203.77
583.449	25359.47
583.809	25523.76
584.169	25781.38
584.529	25857.09
584.889	26231.77
585.249	26231.99
585.609	26428.82
585.969	26745.88
586.329	26861.58
586.688	27224.06
587.048	27234.45
587.408	27414.56
587.768	27728.23
588.127	27781.56
588.487	27927.77
588.846	28391.26
589.206	28345.84
589.565	28650.24
589.925	28898.14
590.284	29021.3
590.643	29292.7
591.003	29585.58
591.362	29941.73
591.721	29927.94
592.08	30113.93
592.44	30329.06
592.799	30559.34
593.158	30720.01
593.517	30918.42
593.876	31276.61
594.235	31319.32
594.593	31704.62
594.952	31877.95
595.311	31967.21
595.67	32213.98
596.029	32552.96
596.387	32695.78
596.746	32954.98
597.104	33077.24
597.463	33122.43
597.822	33524.68
598.18	33502.09
598.538	33738.92
598.897	34075.86
599.255	33813.94
599.613	34612.56
599.972	34548.16
600.33	34731.66
600.688	34890.75
601.046	35001.48
601.404	35451.64
601.762	35462.94
602.12	35762.59
602.478	35828.8
602.836	36095.92
603.194	36032.19
603.552	36215.46
603.91	36290.71
604.268	36544.49
604.625	36549.24
604.983	36757.37
605.341	36900.19
605.698	37036
606.056	37266.28
606.413	37360.74
606.771	37659.72
607.128	37706.95
607.485	37673.5
607.843	37888.64
608.2	38055.19
608.557	38402.75
608.914	38348.74
609.272	38486.59
609.629	38635.74
609.986	38828.72
610.343	38814.49
610.7	39234.82
611.057	39189.62
611.414	39170.64
611.771	39477.75
612.127	39603.62
612.484	39718.87
612.841	40028.47
613.198	39936.49
613.554	39922.03
613.911	40279.08
614.267	40194.56
614.624	40310.27
614.98	40465.29
615.337	40776.24
615.693	40671.61
616.05	40733.53
616.406	41081.09
616.762	40906.41
617.118	41116.8
617.475	41132.62
617.831	41214.65
618.187	41263.24
618.543	41453.06
618.899	41700.29
619.255	41690.57
619.611	41708.42
619.967	41850.11
620.323	41928.3
620.678	41948.87
621.034	41871.58
621.39	41979.15
621.746	42003.1
622.101	42519.48
622.457	42030.45
622.812	42315.19
623.168	42439.03
623.523	42417.11
623.879	42607.38
624.234	42385.47
624.589	42511.11
624.945	42608.96
625.3	42680.83
625.655	42684.44
626.01	42890.99
626.365	42909.97
626.72	42863.65
627.075	42842.86
627.43	42873.82
627.785	42759.24
628.14	42740.49
628.495	42965.57
628.85	42868.17
629.205	42759.69
629.559	43004.43
629.914	43052.12
630.269	42890.76
630.623	42972.57
630.978	42703.88
631.332	43151.55
631.687	43063.87
632.041	42868.17
632.396	43048.73
632.75	42911.1
633.104	42945.9
633.459	42779.58
633.813	42901.84
634.167	42739.58
634.521	42854.61
634.875	42873.14
635.229	42904.55
635.583	42654.61
635.937	42764.21
636.291	42771.67
636.645	42711.11
636.999	42673.37
637.352	42784.33
637.706	42681.73
638.06	42858.45
638.413	42705.91
638.767	42534.16
639.121	42630.66
639.474	42443.09
639.828	42512.47
640.181	42475.41
640.534	42630.21
640.888	42558.34
641.241	42328.97
641.594	42527.38
641.947	42513.37
642.301	42350.89
642.654	42475.41
643.007	42512.24
643.36	42376.88
643.713	42372.13
644.066	42571
644.419	42209.43
644.771	42003.33
645.124	41528.31
645.477	41541.87
645.83	41305.27
646.182	41251.94
646.535	41149.34
646.888	41189.34
647.24	41048.55
647.593	41169
647.945	41078.38
648.298	40878.84
648.65	40804.49
649.002	40843.59
649.355	40938.73
649.707	40867.32
650.059	41136.69
650.411	41573.51
650.763	41554.75
651.115	41960.62
651.467	41828.19
651.819	41818.48
652.171	41774.86
652.523	41718.59
652.875	41689.67
653.227	41500.74
653.578	41890.11
653.93	41617.13
654.282	41599.5
654.633	41341.43
654.985	41498.03
655.337	41520.86
655.688	41665.94
656.039	41691.25
656.391	41359.96
656.742	41472.05
657.094	41425.04
657.445	41633.62
657.796	41615.77
658.147	41374.42
658.498	41312.73
658.849	41707.75
659.2	41359.51
659.551	41280.41
659.902	41460.07
660.253	41334.65
660.604	41333.52
660.955	41211.71
661.306	41366.74
661.656	41154.31
662.007	41231.6
662.358	41208.32
662.708	41204.93
663.059	41144.6
663.409	41076.35
663.76	41274.54
664.11	41216.01
664.461	41363.8
664.811	41291.94
665.161	41155.67
665.511	41179.85
665.862	41115.67
666.212	41332.16
666.562	41193.18
666.912	41196.57
667.262	41219.4
667.612	41108.89
667.962	41245.38
668.312	41151.15
668.662	41389.79
669.011	41185.27
669.361	41268.21
669.711	41102.11
670.06	41097.82
670.41	40879.29
670.76	41041.77
671.109	41051.49
671.459	41001.78
671.808	40900.53
672.157	41054.65
672.507	40836.13
672.856	40919.29
673.205	40887.43
673.554	40929.91
673.904	40956.35
674.253	41141.21
674.602	40864.83
674.951	40434.78
675.3	40211.97
675.649	40797.49
675.998	40840.88
676.346	40814.89
676.695	40920.42
677.044	40581.9
677.393	40756.58
677.741	40839.29
678.09	40600.66
678.438	40490.38
678.787	40697.83
679.135	40598.17
679.484	40347.1
679.832	40483.82
680.181	40307.78
680.529	40504.84
680.877	40230.27
681.225	40102.14
681.573	40454.9
681.922	40225.98
682.27	40011.07
682.618	40139.88
682.966	40134.45
683.314	39967.68
683.661	39886.1
684.009	39729.49
684.357	39722.71
684.705	39742.15
685.053	39805.87
685.4	39685.88
685.748	39341.03
686.095	39494.47
686.443	39350.29
686.79	39268.26
687.138	39396.39
687.485	39345.55
687.832	39214.48
688.18	39181.71
688.527	38955.28
688.874	38956.18
689.221	38855.62
689.568	38793.7
689.915	38663.53
690.262	38828.27
690.609	38479.13
690.956	38540.37
691.303	38470.54
691.65	38321.62
691.997	38356.87
692.344	38162.3
692.69	38040.5
693.037	38177.22
693.383	37784.91
693.73	37974.96
694.077	37689.09
694.423	37742.65
694.769	37607.97
695.116	37485.26
695.462	37475.99
695.808	37356.22
696.155	37446.84
696.501	37136.34
696.847	37042.78
697.193	36875.1
697.539	36995.78
697.885	36816.8
698.231	36524.15
698.577	36705.62
698.923	36627.43
699.269	36433.53
699.614	36078.06
699.96	36169.81
700.306	36114.22
700.651	36044.84
700.997	35831.29
701.342	35965.52
701.688	35803.27
702.033	35713.55
702.379	35697.06
702.724	35717.85
703.069	35613.44
703.415	35280.34
703.76	35273.11
704.105	35231.31
704.45	35097.52
704.795	34950.41
705.14	35081.93
705.485	34794.48
705.83	34810.07
706.175	34825.67
706.52	34758.32
706.865	34496.41
707.209	34653.69
707.554	34345.9
707.899	34444.43
708.243	34233.82
708.588	34078.12
708.932	33942.07
709.277	33964.45
709.621	33994.28
709.966	33840.38
710.31	33818.24
710.654	33572.59
710.998	33639.26
711.342	33712.48
711.687	33450.56
712.031	33396.33
712.375	33281.3
712.719	33372.37
713.063	33280.62
713.407	33332.15
713.75	33198.14
714.094	33115.88
714.438	32973.51
714.782	33013.06
715.125	32781.65
715.469	32865.04
715.812	32797.24
716.156	32734.65
716.499	32626.18
716.843	32592.5
717.186	32467.08
717.53	32607.42
717.873	32470.7
718.216	32476.35
718.559	32378.72
718.902	32079.98
719.246	32158.17
719.589	32044.95
719.932	31838.17
720.275	31960.2
720.617	31958.85
720.96	31847.89
721.303	31924.73
721.646	31823.49
721.989	31702.81
722.331	31738.52
722.674	31744.39
723.016	31754.56
723.359	31511.63
723.701	31677.27
724.044	31336.72
724.386	31381.69
724.729	31383.5
725.071	31236.83
725.413	31244.97
725.755	31191.64
726.097	31230.73
726.439	30927.69
726.782	31086.1
727.124	31028.93
727.465	30742.61
727.807	30962.26
728.149	30783.06
728.491	30592.33
728.833	30762.27
729.175	30697.64
729.516	30683.85
729.858	30637.3
730.199	30544.2
730.541	30537.64
730.882	30462.39
731.224	30566.12
731.565	30249.29
731.906	30419.68
732.248	30445.22
732.589	30188.05
732.93	30197.77
733.271	30164.77
733.612	30121.38
733.953	30206.13
734.294	30011.56
734.635	29969.52
734.976	30063.08
735.317	29906.93
735.658	29859.92
735.999	29835.74
736.339	29921.61
736.68	29890.65
737.021	29752.58
737.361	29609.31
737.702	29870.54
738.042	29607.05
738.383	29504.22
738.723	29664.45
739.063	29558.91
739.404	29613.37
739.744	29552.36
740.084	29330.9
740.424	29554.84
740.764	29340.39
741.104	29434.4
741.444	29320.5
741.784	29189.2
742.124	29167.06
742.464	29089.09
742.804	29001.86
743.143	29082.31
743.483	29021.53
743.823	28900.62
744.162	28800.06
744.502	28835.32
744.841	28794.19
745.181	28925.03
745.52	28680.74
745.86	28782.21
746.199	28635.55
746.538	28596.9
746.877	28667.86
747.216	28591.25
747.556	28417.47
747.895	28559.39
748.234	28397.81
748.573	28303.8
748.911	28228.1
749.25	28311.26
749.589	28162.11
749.928	28267.65
750.267	28196.91
750.605	28055.9
750.944	28137.25
751.283	27933.64
751.621	28022.46
751.96	27763.25
752.298	27857.94
752.636	27864.27
752.975	27670.6
753.313	27512.64
753.651	27722.8
753.989	27559.19
754.327	27436.48
754.666	27377.73
755.004	27498.4
755.342	27517.38
755.679	27377.27
756.017	27137.96
756.355	27217.28
756.693	27208.92
757.031	27162.36
757.368	27075.59
757.706	26925.31
758.044	26951.52
758.381	26944.07
758.719	26852.32
759.056	26751.3
759.394	26673.34
759.731	26593.34
760.068	26588.59
760.405	26370.3
760.743	26283.52
761.08	26371.65
761.417	26149.06
761.754	26234.93
762.091	26245.33
762.428	25942.96
762.765	25848.73
763.102	25991.55
763.438	25823.19
763.775	25502.52
764.112	25740.48
764.449	25622.74
764.785	25495.97
765.122	25380.26
765.458	25284.9
765.795	25300.49
766.131	25104.11
766.467	25105.24
766.804	25068.18
767.14	24900.96
767.476	24975.98
767.812	24749.32
768.148	24813.05
768.485	24557.91
768.821	24529.67
769.157	24436.56
769.492	24335.32
769.828	24477.01
770.164	24148.66
770.5	24133.29
770.836	24087.42
771.171	23945.05
771.507	23819.18
771.842	23691.72
772.178	23669.58
772.513	23567.21
772.849	23491.5
773.184	23626.19
773.519	23495.79
773.855	23272.3
774.19	23205.18
774.525	23193.2
774.86	23106.2
775.195	22978.07
775.53	23034.11
775.865	22797.51
776.2	22816.94
776.535	22548.93
776.87	22602.94
777.205	22474.13
777.539	22416.5
777.874	22433.68
778.209	22203.17
778.543	22168.15
778.878	22112.33
779.212	22100.35
779.547	21990.52
779.881	21972.44
780.215	21770.64
780.55	21792.79
780.884	21638.22
781.218	21625.56
781.552	21609.97
781.886	21493.81
782.22	21387.6
782.554	21242.52
782.888	21063.77
783.222	20986.93
783.556	20991.23
783.889	20942.87
784.223	20685.25
784.557	20750.78
784.89	20818.35
785.224	20661.74
785.557	20584.91
785.891	20490.9
786.224	20392.15
786.558	20493.16
786.891	20292.72
787.224	20264.47
787.557	20137.92
787.891	20075.09
788.224	20067.41
788.557	19970.46
788.89	20038.03
789.223	19908.32
789.556	19816.12
789.888	19645.5
790.221	19656.57
790.554	19390.82
790.887	19473.75
791.219	19433.3
791.552	19357.37
791.884	19352.17
792.217	19248.9
792.549	19123.93
792.882	18924.16
793.214	18950.6
793.546	18923.49
793.879	18799.42
794.211	18721
794.543	18850.72
794.875	18758.74
795.207	18674.9
795.539	18583.83
795.871	18588.58
796.203	18378.19
796.535	18340.68
796.867	18257.29
797.198	18223.84
797.53	18238.08
797.862	18095.26
798.193	18162.6
798.525	17990.85
798.856	18003.96
799.188	17850.75
799.519	17848.03
799.85	17749.28
800.182	17732.78
800.513	17683.97
800.844	17571.2
801.175	17679
801.506	17644.65
801.837	17590.41
802.168	17413.24
802.499	17425.45
802.83	17351.1
803.161	17247.15
803.491	17339.8
803.822	17257.31
804.153	17151.55
804.483	17061.84
804.814	16900.26
805.145	16966.02
805.475	16883.31
805.805	16876.31
806.136	16775.52
806.466	16848.29
806.796	16764.22
807.126	16766.25
807.457	16653.49
807.787	16589.31
808.117	16509.31
808.447	16458.24
808.777	16488.07
809.107	16412.82
809.436	16400.84
809.766	16374.17
810.096	16226.61
810.426	16169.66
810.755	16185.03
811.085	16175.99
811.414	16069.32
811.744	15896.45
812.073	15981.42
812.403	15840.63
812.732	15934.41
813.061	15918.14
813.39	15794.08
813.719	15730.8
814.049	15887.86
814.378	15764.25
814.707	15691.25
815.036	15611.26
815.365	15541.88
815.693	15436.8
816.022	15404.26
816.351	15433.41
816.68	15319.29
817.008	15359.51
817.337	15277.71
817.665	15315.44
817.994	15225.96
818.322	15188.22
818.651	15121.33
818.979	15064.15
819.307	15152.74
819.636	15160.65
819.964	14999.75
820.292	15066.64
820.62	14992.52
820.948	14925.85
821.276	15072.06
821.604	14945.51
821.932	14969.69
822.259	14976.24
822.587	14931.95
822.915	14856.47
823.243	14921.1
823.57	14847.89
823.898	14845.63
824.225	14865.97
824.553	14793.88
824.88	14860.77
825.207	14864.84
825.535	14770.6
825.862	14941.22
826.189	14827.55
826.516	14981.89
826.843	14900.31
827.17	14865.29
827.497	14997.26
827.824	14957.26
828.151	14938.96
828.478	14850.15
828.805	14860.09
829.131	14935.12
829.458	15003.36
829.785	14790.49
830.111	14816.47
830.438	14942.8
830.764	14848.79
831.09	14841.56
831.417	14795.46
831.743	14923.59
832.069	14757.72
832.395	14726.99
832.722	14819.64
833.048	14703.71
833.374	14769.02
833.7	14598.63
834.026	14685.4
834.351	14706.2
834.677	14672.98
835.003	14740.77
835.329	14670.72
835.654	14517.73
835.98	14568.57
836.306	14570.15
836.631	14539.65
836.956	14572.19
837.282	14521.79
837.607	14523.38
837.932	14410.38
838.258	14424.17
838.583	14369.25
838.908	14306.21
839.233	14365.41
839.558	14357.73
839.883	14270.27
840.208	14214.91
840.533	14184.4
840.858	14235.93
841.182	14249.71
841.507	14243.61
841.832	14157.06
842.156	14066.21
842.481	14118.64
842.805	14011.98
843.13	13950.28
843.454	13936.5
843.778	13891.75
844.103	13910.51
844.427	13880.23
844.751	13821.47
845.075	13845.43
845.399	13825.99
845.723	13694.47
846.047	13745.77
846.371	13716.16
846.695	13587.13
847.019	13519.79
847.343	13463.97
847.666	13441.6
847.99	13335.61
848.313	13346.01
848.637	13198.21
848.96	13301.49
849.284	13277.31
849.607	13094.94
849.931	13061.27
850.254	13004.55
850.577	12847.49
850.9	12758.45
851.223	12762.07
851.546	12785.79
851.869	12730.65
852.192	12756.19
852.515	12588.06
852.838	12491.79
853.161	12572.92
853.483	12532.02
853.806	12477.1
854.129	12430.77
854.451	12385.13
854.774	12274.39
855.096	12288.63
855.419	12214.28
855.741	12180.61
856.063	12132.25
856.385	12085.02
856.708	12090.67
857.03	12053.16
857.352	12051.35
857.674	11965.48
857.996	11931.8
858.318	11830.79
858.64	11894.97
858.961	11824.01
859.283	11788.98
859.605	11732.26
859.926	11717.35
860.248	11687.97
860.57	11687.29
860.891	11667.18
861.212	11579.95
861.534	11607.29
861.855	11524.36
862.176	11536.11
862.498	11505.6
862.819	11507.18
863.14	11471.25
863.461	11456.79
863.782	11407.52
864.103	11453.63
864.424	11355.77
864.745	11368.66
865.065	11301.09
865.386	11340.18
865.707	11253.4
866.027	11264.48
866.348	11228.77
866.668	11236.68
866.989	11169.79
867.309	11135.22
867.63	11122.11
867.95	11098.83
868.27	11158.04
868.59	11129.11
868.91	11092.5
869.23	11077.59
869.55	10986.75
869.87	11042.79
870.19	11043.92
870.51	11078.49
870.83	11056.12
871.15	10893.64
871.469	10901.55
871.789	10961.89
872.109	10914.2
872.428	10857.26
872.748	10883.7
873.067	10825.85
873.386	10799.41
873.706	10743.14
874.025	10812.06
874.344	10766.64
874.663	10808.44
874.982	10753.08
875.301	10761.44
875.62	10701.78
875.939	10718.73
876.258	10633.76
876.577	10626.08
876.896	10620.65
877.214	10553.99
877.533	10605.74
877.852	10591.95
878.17	10598.28
878.489	10607.77
878.807	10555.8
879.125	10562.12
879.444	10477.38
879.762	10505.85
880.08	10460.88
880.398	10411.84
880.716	10460.21
881.034	10434.67
881.352	10417.95
881.67	10377.27
881.988	10319.87
882.306	10399.42
882.624	10240.55
882.941	10235.13
883.259	10177.95
883.577	10227.67
883.894	10147.9
884.212	10160.33
884.529	10128.91
884.846	10140.89
885.164	10154.68
885.481	10055.02
885.798	10011.4
886.115	9968.92
886.432	10003.95
886.75	10001.69
887.067	9989.26
887.383	9977.51
887.7	9960.33
888.017	9817.96
888.334	9930.28
888.651	9893.21
888.967	9848.24
889.284	9756.49
889.6	9748.13
889.917	9602.15
890.233	9689.6
890.55	9620.23
890.866	9685.54
891.182	9664.29
891.498	9630.62
891.815	9539.33
892.131	9514.47
892.447	9573.22
892.763	9487.35
893.079	9453.68
893.395	9428.37
893.71	9424.98
894.026	9380.01
894.342	9392.89
894.657	9277.64
894.973	9307.69
895.289	9217.07
895.604	9268.15
895.92	9187.02
896.235	9166
896.55	9151.31
896.865	9153.35
897.181	9059.56
897.496	9039.23
897.811	9070.19
898.126	9019.34
898.441	9030.19
898.756	8961.71
899.071	8848.27
899.386	8883.75
899.7	8810.98
900.015	8775.96
900.33	8691.89
900.644	8730.99
900.959	8726.47
901.273	8644.89
901.588	8659.57
901.902	8607.6
902.216	8550.2
902.531	8563.31
902.845	8502.74
903.159	8445.79
903.473	8406.7
903.787	8378.68
904.101	8394.95
904.415	8391.56
904.729	8325.57
905.042	8305.69
905.356	8295.74
905.67	8261.84
905.984	8195.18
906.297	8195.41
906.611	8136.88
906.924	8124.9
907.237	8087.61
907.551	8107.72
907.864	8049.65
908.177	8029.53
908.491	7969.88
908.804	7924.23
909.117	7868.41
909.43	7868.18
909.743	7789.99
910.056	7830.67
910.368	7755.87
910.681	7745.02
910.994	7741.86
911.307	7699.37
911.619	7592.71
911.932	7619.38
912.244	7550.45
912.557	7562.65
912.869	7546.61
913.181	7471.81
913.494	7385.26
913.806	7397.46
914.118	7398.82
914.43	7349.1
914.742	7368.08
915.054	7332.38
915.366	7277.46
915.678	7200.4
915.99	7191.36
916.302	7215.54
916.613	7153.63
916.925	7129.45
917.236	7096.9
917.548	7027.3
917.859	7078.37
918.171	6978.71
918.482	6966.06
918.794	6901.43
919.105	6889.45
919.416	6868.66
919.727	6868.89
920.038	6825.05
920.349	6759.29
920.66	6800.19
920.971	6733.98
921.282	6740.53
921.593	6675.45
921.903	6651.94
922.214	6601.1
922.525	6652.4
922.835	6576.47
923.146	6495.11
923.456	6503.93
923.767	6537.6
924.077	6438.39
924.387	6465.51
924.697	6393.42
925.008	6375.57
925.318	6366.08
925.628	6358.39
925.938	6310.48
926.248	6234.55
926.558	6199.53
926.867	6198.4
927.177	6239.3
927.487	6202.24
927.796	6168.11
928.106	6111.62
928.416	6123.14
928.725	6057.84
929.034	6051.06
929.344	6043.6
929.653	6003.37
929.962	5949.36
930.271	5919.08
930.581	5873.66
930.89	5899.65
931.199	5861
931.508	5828.91
931.817	5815.81
932.125	5814
932.434	5737.84
932.743	5709.14
933.051	5697.84
933.36	5702.14
933.669	5653.55
933.977	5691.29
934.286	5609.71
934.594	5565.42
934.902	5520
935.21	5569.49
935.519	5528.81
935.827	5527.45
936.135	5436.61
936.443	5403.39
936.751	5433.9
937.059	5388.02
937.367	5365.65
937.674	5375.14
937.982	5300.79
938.29	5327.68
938.597	5313.9
938.905	5238.2
939.213	5244.75
939.52	5215.6
939.827	5254.01
940.135	5198.87
940.442	5176.28
940.749	5182.38
941.056	5126.79
941.363	5053.34
941.67	5070.52
941.977	5008.15
942.284	5035.26
942.591	5030.07
942.898	4990.07
943.205	4958.2
943.511	4929.96
943.818	4917.53
944.125	4894.93
944.431	4849.05
944.738	4826
945.044	4852.22
945.35	4828.49
945.657	4775.61
945.963	4764.76
946.269	4703.29
946.575	4751.43
946.881	4701.49
947.187	4683.18
947.493	4630.98
947.799	4658.55
948.105	4598.21
948.41	4626.01
948.716	4581.72
949.022	4588.72
949.327	4552.34
949.633	4529.97
949.938	4465.56
950.244	4512.56
950.549	4450.65
950.854	4401.61
951.16	4379.46
951.465	4365.68
951.77	4376.52
952.075	4373.36
952.38	4377.88
952.685	4317.77
952.99	4260.14
953.294	4310.08
953.599	4267.83
953.904	4239.13
954.209	4185.79
954.513	4226.7
954.818	4209.97
955.122	4176.53
955.426	4222.63
955.731	4140.37
956.035	4095.63
956.339	4071.9
956.643	4095.4
956.948	4083.88
957.252	4060.6
957.556	4042.52
957.86	4032.58
958.163	4025.12
958.467	3989.19
958.771	3972.92
959.075	3944.22
959.378	3920.26
959.682	3962.52
959.985	3952.81
960.289	3888.85
960.592	3851.34
960.896	3856.09
961.199	3802.75
961.502	3812.02
961.805	3796.2
962.108	3777.9
962.411	3804.11
962.714	3758.01
963.017	3730.21
963.32	3667.84
963.623	3692.47
963.926	3687.05
964.228	3643.21
964.531	3672.81
964.833	3650.67
965.136	3597.56
965.438	3645.92
965.741	3598.92
966.043	3576.54
966.345	3570.89
966.648	3574.06
966.95	3517.79
967.252	3503.1
967.554	3531.12
967.856	3462.65
968.158	3434.85
968.46	3479.82
968.761	3455.64
969.063	3475.76
969.365	3430.56
969.666	3435.53
969.968	3369.54
970.269	3376.1
970.571	3365.48
970.872	3371.35
971.174	3334.29
971.475	3336.55
971.776	3293.39
972.077	3284.12
972.378	3266.5
972.679	3264.69
972.98	3235.54
973.281	3231.92
973.582	3228.3
973.883	3202.09
974.183	3160.96
974.484	3188.08
974.785	3164.58
975.085	3153.5
975.386	3156.67
975.686	3142.21
975.986	3113.05
976.287	3116.9
976.587	3058.82
976.887	3028.76
977.187	3071.02
977.487	3017.69
977.787	2999.38
978.087	3006.84
978.387	2982.66
978.687	2989.22
978.987	2923.68
979.286	2938.37
979.586	2949.22
979.885	2899.5
980.185	2919.39
980.484	2948.54
980.784	2894.3
981.083	2879.84
981.382	2858.6
981.682	2874.64
981.981	2838.48
982.28	2837.58
982.579	2814.08
982.878	2818.37
983.177	2809.11
983.475	2804.59
983.774	2757.58
984.073	2739.28
984.372	2715.32
984.67	2711.71
984.969	2709.67
985.267	2694.31
985.566	2675.1
985.864	2657.02
986.162	2669.9
986.461	2630.58
986.759	2625.83
987.057	2598.04
987.355	2629.22
987.653	2631.94
987.951	2612.73
988.249	2564.14
988.547	2601.2
988.844	2536.12
989.142	2549.45
989.44	2532.05
989.737	2550.36
990.035	2520.07
990.332	2523.92
990.63	2499.06
990.927	2476.46
991.224	2449.79
991.521	2453.41
991.819	2458.83
992.116	2450.92
992.413	2409.12
992.71	2428.78
993.006	2403.24
993.303	2381.32
993.6	2382.68
993.897	2361.44
994.193	2316.46
994.49	2323.7
994.787	2314.43
995.083	2307.65
995.379	2264.04
995.676	2320.98
995.972	2287.76
996.268	2282.57
996.565	2263.81
996.861	2301.32
997.157	2226.07
997.453	2251.38
997.749	2217.26
998.044	2210.48
998.34	2196.47
998.636	2191.72
998.932	2182
999.227	2172.74
999.523	2177.26
999.818	2146.53
1000.114	2116.92
1000.409	2140.65
1000.704	2107.2
1001	2132.06
1001.295	2079.41
1001.59	2087.32
1001.885	2057.26
1002.18	2063.82
1002.475	2102.01
1002.77	2021.56
1003.065	2020.88
1003.359	2022.01
1003.654	2000.31
1003.949	1998.73
1004.243	1984.04
1004.538	1948.11
1004.832	1953.08
1005.127	1972.07
1005.421	1948.79
1005.715	1952.18
1006.009	1923.48
1006.304	1907.44
1006.598	1901.11
1006.892	1904.05
1007.186	1862.47
1007.48	1867.21
1007.773	1851.39
1008.067	1860.21
1008.361	1829.7
1008.655	1830.6
1008.948	1824.27
1009.242	1805.07
1009.535	1756.71
1009.829	1772.98
1010.122	1757.16
1010.415	1749.02
1010.708	1784.73
1011.001	1736.59
1011.295	1725.07
1011.588	1695.01
1011.881	1707.21
1012.173	1700.21
1012.466	1694.56
1012.759	1666.54
1013.052	1673.54
1013.344	1648.69
1013.637	1652.98
1013.93	1635.13
1014.222	1614.11
1014.514	1650.49
1014.807	1612.98
1015.099	1625.64
1015.391	1579.31
1015.683	1609.14
1015.976	1578.86
1016.268	1566.65
1016.56	1566.43
1016.851	1535.24
1017.143	1546.54
1017.435	1549.48
1017.727	1513.55
1018.018	1496.6
1018.31	1502.25
1018.602	1518.07
1018.893	1451.63
1019.185	1471.51
1019.476	1464.74
1019.767	1426.09
1020.058	1444.4
1020.35	1429.03
1020.641	1429.26
1020.932	1427.9
1021.223	1422.7
1021.514	1398.97
1021.804	1397.17
1022.095	1362.82
1022.386	1347.45
1022.677	1370.27
1022.967	1368.24
1023.258	1351.97
1023.548	1329.82
1023.839	1338.41
1024.129	1316.49
1024.419	1301.8
1024.709	1293.21
1025	1297.96
1025.29	1275.59
1025.58	1283.95
1025.87	1290.28
1026.16	1261.58
1026.449	1243.27
1026.739	1249.15
1027.029	1234.69
1027.319	1223.16
1027.608	1230.62
1027.898	1237.85
1028.187	1218.41
1028.477	1194.69
1028.766	1220.67
1029.055	1215.48
1029.344	1151.52
1029.634	1191.3
1029.923	1181.58
1030.212	1167.79
1030.501	1126.44
1030.79	1146.1
1031.078	1129.38
1031.367	1120.79
1031.656	1121.24
1031.945	1105.2
1032.233	1118.08
1032.522	1107.68
1032.81	1086.44
1033.099	1062.03
1033.387	1074.46
1033.675	1067.68
1033.963	1062.94
1034.251	1085.99
1034.54	1041.02
1034.828	1026.1
1035.116	1017.29
1035.403	1023.39
1035.691	1017.97
1035.979	994.69
1036.267	1008.25
1036.554	977.97
1036.842	961.47
1037.129	1005.31
1037.417	990.62
1037.704	1005.31
1037.992	972.55
1038.279	965.99
1038.566	965.77
1038.853	965.77
1039.14	965.77
