Data from hue_290_FLMS001491_00058.txt Node
Date: Tue Feb 07 15:52:56 GMT 2017
User: dcchb
Spectrometer: FLMS00149
Trigger mode: 0
Integration Time (sec): 2.000000E-2
Scans to average: 10
Electric dark correction enabled: true
Nonlinearity correction enabled: false
Boxcar width: 0
XAxis mode: Wavelengths
Number of Pixels in Spectrum: 2048
>>>>>Begin Spectral Data<<<<<
341.393	-20.69
341.776	-20.69
342.16	-20.69
342.543	-41.71
342.927	-72.44
343.31	-58.43
343.693	-66.79
344.077	-69.5
344.46	-51.88
344.843	-52.56
345.226	-54.36
345.61	-21.82
345.993	-11.2
346.376	-6
346.759	17.73
347.142	46.65
347.525	32.64
347.908	43.04
348.291	66.09
348.674	86.42
349.057	99.98
349.44	142.47
349.823	142.02
350.206	159.19
350.588	171.85
350.971	197.61
351.354	194.9
351.737	235.8
352.119	249.13
352.502	238.74
352.884	261.33
353.267	264.05
353.65	300.2
354.032	297.94
354.414	292.07
354.797	301.33
355.179	305.63
355.562	316.7
355.944	306.08
356.326	312.18
356.709	311.73
357.091	319.86
357.473	331.16
357.855	330.71
358.238	319.41
358.62	320.32
359.002	343.82
359.384	346.08
359.766	332.07
360.148	340.43
360.53	346.98
360.912	323.93
361.294	310.15
361.676	326.19
362.057	329.81
362.439	316.25
362.821	339.75
363.203	321.9
363.584	312.18
363.966	313.76
364.348	314.21
364.729	320.99
365.111	316.25
365.493	302.92
365.874	302.69
366.256	293.2
366.637	305.4
367.019	307.21
367.4	307.21
367.781	304.05
368.163	299.53
368.544	285.29
368.925	320.32
369.306	312.63
369.688	320.77
370.069	307.21
370.45	296.81
370.831	322.35
371.212	320.77
371.593	303.82
371.974	323.93
372.355	328.68
372.736	323.03
373.117	299.3
373.498	310.15
373.879	312.18
374.26	324.61
374.641	305.85
375.021	317.38
375.402	321.22
375.783	326.19
376.163	310.37
376.544	334.33
376.925	323.25
377.305	295.91
377.686	327.1
378.066	315.12
378.447	337.94
378.827	323.48
379.208	313.31
379.588	319.41
379.968	341.33
380.349	325.97
380.729	326.42
381.109	334.55
381.489	320.09
381.87	335.23
382.25	335.68
382.63	331.62
383.01	350.82
383.39	330.49
383.77	338.62
384.15	335.23
384.53	331.84
384.91	349.69
385.29	369.81
385.67	359.64
386.049	342.46
386.429	336.59
386.809	346.98
387.189	357.83
387.568	350.15
387.948	353.31
388.328	349.02
388.707	334.78
389.087	365.29
389.466	368.22
389.846	354.21
390.225	356.7
390.605	375.68
390.984	361.22
391.363	361.22
391.743	372.07
392.122	356.25
392.501	373.87
392.881	354.67
393.26	365.29
393.639	357.15
394.018	372.52
394.397	393.53
394.776	385.63
395.155	384.04
395.534	412.52
395.913	384.5
396.292	399.41
396.671	376.13
397.05	401.67
397.429	394.21
397.808	398.73
398.186	402.12
398.565	410.26
398.944	402.8
399.323	389.24
399.701	414.78
400.08	397.15
400.458	420.2
400.837	421.1
401.215	413.2
401.594	416.13
401.972	430.14
402.351	411.39
402.729	439.86
403.107	426.53
403.486	442.57
403.864	432.86
404.242	428.11
404.62	455.91
404.999	451.16
405.377	451.84
405.755	449.8
406.133	447.77
406.511	449.58
406.889	457.04
407.267	471.72
407.645	483.25
408.023	488
408.401	457.49
408.779	474.66
409.156	474.89
409.534	482.8
409.912	503.36
410.29	501.55
410.667	508.33
411.045	525.28
411.422	525.06
411.8	544.94
412.178	551.04
412.555	538.39
412.933	557.82
413.31	572.74
413.687	570.03
414.065	568.22
414.442	589.01
414.819	575.68
415.197	585.62
415.574	585.17
415.951	598.5
416.328	612.96
416.705	613.87
417.082	647.09
417.46	653.42
417.837	661.55
418.214	673.98
418.591	670.14
418.967	673.08
419.344	676.24
419.721	699.97
420.098	686.41
420.475	713.53
420.852	708.78
421.228	728.22
421.605	728.89
421.982	744.26
422.358	758.72
422.735	754.66
423.111	749.01
423.488	768.44
423.864	765.28
424.241	800.98
424.617	810.02
424.994	790.59
425.37	798.72
425.746	792.39
426.123	822.68
426.499	823.58
426.875	829.68
427.251	849.34
427.627	855.9
428.003	859.51
428.379	877.36
428.756	900.41
429.132	931.15
429.507	922.56
429.883	934.54
430.259	939.28
430.635	941.09
431.011	949.45
431.387	974.08
431.763	969.56
432.138	982.67
432.514	984.71
432.89	1000.52
433.265	1017.25
433.641	1046.63
434.016	1057.92
434.392	1096.79
434.767	1072.84
435.143	1071.71
435.518	1110.35
435.894	1104.7
436.269	1140.18
436.644	1137.92
437.02	1153.06
437.395	1176.11
437.77	1201.2
438.145	1225.83
438.52	1210.24
438.895	1208.88
439.271	1224.25
439.646	1266.73
440.021	1255.43
440.395	1267.86
440.77	1255.21
441.145	1270.12
441.52	1294.08
441.895	1289.33
442.27	1283
442.645	1301.53
443.019	1310.12
443.394	1310.8
443.769	1336.33
444.143	1315.32
444.518	1340.63
444.892	1354.87
445.267	1340.85
445.641	1351.93
446.016	1349.44
446.39	1366.62
446.764	1374.07
447.139	1382.89
447.513	1399.84
447.887	1386.05
448.262	1392.38
448.636	1403.9
449.01	1447.74
449.384	1442.32
449.758	1454.3
450.132	1462.66
450.506	1478.93
450.88	1487.97
451.254	1463.34
451.628	1487.52
452.002	1505.37
452.376	1489.33
452.75	1492.26
453.123	1514.41
453.497	1538.14
453.871	1558.25
454.244	1562.77
454.618	1552.83
454.992	1572.26
455.365	1598.02
455.739	1605.48
456.112	1601.41
456.486	1612.49
456.859	1631.47
457.232	1656.1
457.606	1657.46
457.979	1653.39
458.352	1701.07
458.725	1719.15
459.099	1716.66
459.472	1727.96
459.845	1742.65
460.218	1765.93
460.591	1767.28
460.964	1777.68
461.337	1815.87
461.71	1817.23
462.083	1813.16
462.456	1835.3
462.829	1845.93
463.201	1839.82
463.574	1842.99
463.947	1883.89
464.32	1911.01
464.692	1942.42
465.065	1934.96
465.438	1967.73
465.81	1990.56
466.183	2016.32
466.555	2036.66
466.928	2043.43
467.3	2031.91
467.672	2069.2
468.045	2145.81
468.417	2098.8
468.789	2110.55
469.161	2118.46
469.534	2148.74
469.906	2197.1
470.278	2183.09
470.65	2214.96
471.022	2240.04
471.394	2277.78
471.766	2272.81
472.138	2312.13
472.51	2320.94
472.882	2353.71
473.253	2361.84
473.625	2382.86
473.997	2475.51
474.369	2454.95
474.74	2438.9
475.112	2496.08
475.484	2535.63
475.855	2553.03
476.227	2593.48
476.598	2615.4
476.97	2623.31
477.341	2688.39
477.713	2701.04
478.084	2734.04
478.455	2797.54
478.827	2792.79
479.198	2856.75
479.569	2829.4
479.94	2905.11
480.311	2933.36
480.682	2942.39
481.053	3037.53
481.424	3068.72
481.795	3103.52
482.166	3108.27
482.537	3139.68
482.908	3186.68
483.279	3202.73
483.65	3247.47
484.021	3289.05
484.391	3324.76
484.762	3306.68
485.133	3380.8
485.503	3370.63
485.874	3401.14
486.244	3482.72
486.615	3511.42
486.985	3523.85
487.356	3611.3
487.726	3581.47
488.097	3656.05
488.467	3609.95
488.837	3743.5
489.207	3748.02
489.578	3770.4
489.948	3821.02
490.318	3818.76
490.688	3861.92
491.058	3875.48
491.428	3964.51
491.798	3986.89
492.168	4078.64
492.538	4057.62
492.908	4035.47
493.278	4089.71
493.648	4113.44
494.017	4127.67
494.387	4169.48
494.757	4206.54
495.126	4215.13
495.496	4244.96
495.866	4280.89
496.235	4276.14
496.605	4320.21
496.974	4352.98
497.344	4365.18
497.713	4381.68
498.082	4382.36
498.452	4447.44
498.821	4395.01
499.19	4498.51
499.559	4521.11
499.928	4508
500.298	4533.76
500.667	4523.6
501.036	4518.4
501.405	4608.79
501.774	4602.92
502.143	4649.24
502.512	4644.04
502.88	4672.74
503.249	4693.76
503.618	4705.29
503.987	4721.78
504.356	4775.79
504.724	4714.55
505.093	4729.01
505.462	4757.26
505.83	4791.61
506.199	4773.98
506.567	4839.52
506.936	4822.57
507.304	4901.44
507.672	4905.96
508.041	4847.2
508.409	4939.4
508.777	4971.72
509.145	4973.75
509.514	4930.82
509.882	4981.21
510.25	5010.14
510.618	5024.37
510.986	5020.98
511.354	5084.71
511.722	5087.42
512.09	5091.94
512.458	5110.47
512.826	5127.65
513.193	5118.83
513.561	5198.83
513.929	5151.15
514.297	5190.02
514.664	5258.94
515.032	5230.24
515.4	5265.27
515.767	5269.34
516.135	5267.31
516.502	5289.23
516.869	5293.52
517.237	5318.6
517.604	5310.92
517.972	5325.83
518.339	5307.53
518.706	5378.26
519.073	5345.27
519.44	5402.67
519.808	5431.82
520.175	5399.96
520.542	5450.13
520.909	5524.7
521.276	5442.67
521.643	5528.99
522.009	5562.66
522.376	5541.65
522.743	5566.73
523.11	5615.09
523.477	5599.5
523.843	5624.13
524.21	5699.61
524.577	5701.42
524.943	5734.19
525.31	5807.4
525.676	5868.65
526.043	5839.04
526.409	5878.36
526.776	5876.33
527.142	5874.97
527.508	5890.57
527.874	5968.76
528.241	5956.78
528.607	5965.82
528.973	5965.59
529.339	5998.59
529.705	6028.41
530.071	6087.4
530.437	6058.47
530.803	6093.05
531.169	6147.06
531.535	6119.03
531.901	6154.29
532.267	6205.81
532.632	6218.69
532.998	6269.76
533.364	6242.65
533.73	6263.66
534.095	6258.69
534.461	6357.67
534.826	6331.01
535.192	6369.2
535.557	6380.72
535.923	6416.65
536.288	6422.3
536.653	6408.07
537.019	6442.64
537.384	6458.69
537.749	6516.54
538.114	6513.83
538.479	6481.74
538.845	6583.65
539.21	6557.44
539.575	6567.38
539.94	6595.18
540.305	6613.94
540.67	6639.92
541.034	6682.86
541.399	6677.89
541.764	6669.3
542.129	6715.85
542.494	6723.99
542.858	6695.29
543.223	6716.76
543.587	6822.29
543.952	6817.09
544.316	6849.64
544.681	6820.26
545.045	6786.36
545.41	6860.03
545.774	6854.38
546.138	6874.95
546.503	6905
546.867	6895.74
547.231	6951.33
547.595	6939.58
547.959	7020.03
548.324	7023.42
548.688	6995.62
549.052	7044.66
549.416	7046.69
549.779	7041.95
550.143	7061.83
550.507	7086.24
550.871	7114.04
551.235	7091.21
551.599	7161.49
551.962	7107.26
552.326	7190.19
552.689	7225.22
553.053	7237.2
553.417	7235.39
553.78	7219.8
554.143	7247.14
554.507	7221.15
554.87	7333.69
555.234	7314.93
555.597	7337.76
555.96	7337.53
556.323	7396.51
556.686	7387.7
557.05	7432.22
557.413	7468.38
557.776	7376.18
558.139	7403.07
558.502	7466.57
558.865	7474.7
559.228	7542.27
559.59	7548.83
559.953	7538.21
560.316	7647.13
560.679	7642.16
561.041	7623.85
561.404	7698.2
561.767	7751.08
562.129	7672.89
562.492	7775.71
562.854	7733.91
563.217	7705.88
563.579	7800.8
563.941	7896.84
564.304	7883.28
564.666	7854.81
565.028	7853
565.39	7815.26
565.753	7948.82
566.115	7951.53
566.477	7959.89
566.839	8043.5
567.201	7986.1
567.563	8085.54
567.925	8164.86
568.287	8104.07
568.648	8151.75
569.01	8151.75
569.372	8194.46
569.734	8195.82
570.095	8231.75
570.457	8297.73
570.819	8311.52
571.18	8338.64
571.542	8384.51
571.903	8339.77
572.265	8419.76
572.626	8518.29
572.987	8482.36
573.349	8511.06
573.71	8542.47
574.071	8650.49
574.432	8703.82
574.794	8687.78
575.155	8716.71
575.516	8747.67
575.877	8758.74
576.238	8833.54
576.599	8893.88
576.96	8946.08
577.32	8977.72
577.681	9025.85
578.042	9124.15
578.403	9158.73
578.763	9231.27
579.124	9277.14
579.485	9331.6
579.845	9461.09
580.206	9490.47
580.566	9510.13
580.927	9615.67
581.287	9763.68
581.648	9797.81
582.008	9788.99
582.368	9949.22
582.728	10035.09
583.089	10068.53
583.449	10148.31
583.809	10279.38
584.169	10454.06
584.529	10498.35
584.889	10629.88
585.249	10628.29
585.609	10739.48
585.969	10894.5
586.329	10943.54
586.688	11111.22
587.048	11173.14
587.408	11314.6
587.768	11473.24
588.127	11546.69
588.487	11628.49
588.846	11897.87
589.206	11930.18
589.565	12024.19
589.925	12280
590.284	12336.05
590.643	12423.95
591.003	12631.18
591.362	12825.07
591.721	12947.1
592.08	13021
592.44	13178.96
592.799	13403.59
593.158	13492.63
593.517	13622.34
593.876	13780.53
594.235	13823.92
594.593	13992.5
594.952	14100.07
595.311	14281.08
595.67	14441.53
596.029	14575.53
596.387	14715.64
596.746	14802.42
597.104	14948.86
597.463	15047.84
597.822	15240.38
598.18	15367.6
598.538	15380.94
598.897	15613.02
599.255	15672.23
599.613	16038.1
599.972	15939.11
600.33	16134.59
600.688	16215.04
601.046	16385.2
601.404	16541.81
601.762	16573.45
602.12	16838.3
602.478	16895.25
602.836	16999.65
603.194	16987.67
603.552	17174.34
603.91	17206.2
604.268	17298.63
604.625	17379.98
604.983	17551.5
605.341	17558.73
605.698	17750.82
606.056	17812.06
606.413	17844.83
606.771	18055.22
607.128	18070.36
607.485	18142.67
607.843	18155.1
608.2	18289.11
608.557	18344.93
608.914	18537.24
609.272	18516
609.629	18699.49
609.986	18856.1
610.343	18812.94
610.7	18960.73
611.057	19022.42
611.414	19055.42
611.771	19174.06
612.127	19288.86
612.484	19299.25
612.841	19490.43
613.198	19326.6
613.554	19538.12
613.911	19638.45
614.267	19636.87
614.624	19719.81
614.98	19825.11
615.337	19919.35
615.693	19947.82
616.05	19951.44
616.406	20152.79
616.762	20070.53
617.118	20079.34
617.475	20229.17
617.831	20324.99
618.187	20275.95
618.543	20352.78
618.899	20339.23
619.255	20461.93
619.611	20478.43
619.967	20594.36
620.323	20640.46
620.678	20721.14
621.034	20548.26
621.39	20674.81
621.746	20647.69
622.101	20937.85
622.457	20737.41
622.812	20838.2
623.168	20891.53
623.523	20894.92
623.879	21036.83
624.234	20796.39
624.589	21004.74
624.945	20932.2
625.3	21126.1
625.655	21057.4
626.01	21157.73
626.365	21205.87
626.72	21164.29
627.075	21150.73
627.43	21140.56
627.785	21072.54
628.14	21261.69
628.495	21291.52
628.85	21291.06
629.205	21167.23
629.559	21298.52
629.914	21194.8
630.269	21258.3
630.623	21162.93
630.978	21141.24
631.332	21284.96
631.687	21270.05
632.041	21152.54
632.396	21108.02
632.75	21160.22
633.104	21158.41
633.459	21037.74
633.813	21121.58
634.167	21079.32
634.521	21153.89
634.875	21177.85
635.229	21177.85
635.583	21137.4
635.937	20929.27
636.291	20977.4
636.645	21001.58
636.999	21015.82
637.352	21061.24
637.706	20963.39
638.06	21004.74
638.413	20863.96
638.767	20969.94
639.121	21038.87
639.474	20774.47
639.828	20886.56
640.181	20939.21
640.534	20866.67
640.888	20817.86
641.241	20766.56
641.594	20794.58
641.947	20849.95
642.301	20871.64
642.654	20948.25
643.007	20879.32
643.36	20823.51
643.713	20848.14
644.066	20762.94
644.419	20821.7
644.771	20636.39
645.124	20499.9
645.477	20493.57
645.83	20304.65
646.182	20179.91
646.535	20266.23
646.888	20305.55
647.24	20151.21
647.593	20368.83
647.945	20390.07
648.298	20231.66
648.65	20157.08
649.002	20242.05
649.355	20301.94
649.707	20261.49
650.059	20338.55
650.411	20541.71
650.763	20510.07
651.115	20763.85
651.467	20729.5
651.819	20649.95
652.171	20650.18
652.523	20607.01
652.875	20626.68
653.227	20604.08
653.578	20647.01
653.93	20697.63
654.282	20567.02
654.633	20597.75
654.985	20622.83
655.337	20732.44
655.688	20536.73
656.039	20766.33
656.391	20585.32
656.742	20659.89
657.094	20619.67
657.445	20655.6
657.796	20710.06
658.147	20710.06
658.498	20616.73
658.849	20687.69
659.2	20696.96
659.551	20672.1
659.902	20790.51
660.253	20764.07
660.604	20745.32
660.955	20731.53
661.306	20787.8
661.656	20650.18
662.007	20711.64
662.358	20696.28
662.708	20806.78
663.059	20728.37
663.409	20691.76
663.76	20665.32
664.11	20691.08
664.461	20817.18
664.811	20785.99
665.161	20772.43
665.511	20818.31
665.862	20747.35
666.212	20780.34
666.562	20784.19
666.912	20742.83
667.262	20812.21
667.612	20743.51
667.962	20855.6
668.312	20789.83
668.662	20897.18
669.011	20824.41
669.361	20716.39
669.711	20762.26
670.06	20703.74
670.41	20605.66
670.76	20698.99
671.109	20813.34
671.459	20755.03
671.808	20608.82
672.157	20717.75
672.507	20567.92
672.856	20538.09
673.205	20661.7
673.554	20534.25
673.904	20577.18
674.253	20677.07
674.602	20619.9
674.951	20349.85
675.3	20216.74
675.649	20633.23
675.998	20536.96
676.346	20470.75
676.695	20494.25
677.044	20418.09
677.393	20544.19
677.741	20533.12
678.09	20515.49
678.438	20268.27
678.787	20435.72
679.135	20415.38
679.484	20279.34
679.832	20343.52
680.181	20195.5
680.529	20177.65
680.877	20164.77
681.225	20156.86
681.573	20284.31
681.922	20136.74
682.27	20016.3
682.618	20098.78
682.966	20022.62
683.314	19969.74
683.661	19975.39
684.009	19851.55
684.357	19816.98
684.705	19837.09
685.053	19796.19
685.4	19770.2
685.748	19682.75
686.095	19735.63
686.443	19673.71
686.79	19661.95
687.138	19583.76
687.485	19563.2
687.832	19436.88
688.18	19551.9
688.527	19437.33
688.874	19347.39
689.221	19300.61
689.568	19161.85
689.915	19215.19
690.262	19177.45
690.609	19054.51
690.956	19087.73
691.303	19049.32
691.65	19000.73
691.997	18995.98
692.344	18859.94
692.69	18791.02
693.037	18845.25
693.383	18655.88
693.73	18720.74
694.077	18537.46
694.423	18552.15
694.769	18477.13
695.116	18458.82
695.462	18468.99
695.808	18292.05
696.155	18428.99
696.501	18266.96
696.847	18205.95
697.193	18165.04
697.539	18106.29
697.885	18053.86
698.231	17926.86
698.577	17859.29
698.923	17883.02
699.269	17866.52
699.614	17717.37
699.96	17652.29
700.306	17684.38
700.651	17524.61
700.997	17500.2
701.342	17474.44
701.688	17330.49
702.033	17328.46
702.379	17330.04
702.724	17253.66
703.069	17190.38
703.415	17069.93
703.76	17033.1
704.105	17048.92
704.45	16975.02
704.795	16850.96
705.14	16816.83
705.485	16760.34
705.83	16767.34
706.175	16784.29
706.52	16732.54
706.865	16644.18
707.209	16544.52
707.554	16522.15
707.899	16550.85
708.243	16507.24
708.588	16479.21
708.932	16236.06
709.277	16360.8
709.621	16366
709.966	16141.6
710.31	16310.4
710.654	16055.72
710.998	16108.6
711.342	16123.29
711.687	16104.31
712.031	16038.32
712.375	15945.22
712.719	15914.26
713.063	15879.68
713.407	16019.79
713.75	15886.01
714.094	15848.27
714.438	15740.7
714.782	15723.53
715.125	15718.1
715.469	15709.06
715.812	15677.43
716.156	15559.24
716.499	15522.4
716.843	15535.28
717.186	15471.33
717.53	15501.84
717.873	15557.2
718.216	15594.27
718.559	15436.3
718.902	15234.73
719.246	15408.06
719.589	15358.79
719.932	15281.73
720.275	15265.23
720.617	15252.81
720.96	15283.54
721.303	15232.69
721.646	15220.94
721.989	15205.57
722.331	15224.11
722.674	15092.36
723.016	15191.79
723.359	15133.94
723.701	15099.36
724.044	15060.27
724.386	15013.49
724.729	15043.32
725.071	14987.73
725.413	15081.28
725.755	14959.03
726.097	14957.22
726.439	14797.9
726.782	14856.88
727.124	14968.74
727.465	14852.36
727.807	14859.6
728.149	14878.35
728.491	14775.98
728.833	14880.39
729.175	14764.91
729.516	14819.6
729.858	14784.12
730.199	14776.21
730.541	14762.2
730.882	14761.74
731.224	14782.08
731.565	14726.27
731.906	14720.16
732.248	14727.17
732.589	14655.98
732.93	14590.22
733.271	14729.2
733.612	14725.59
733.953	14701.41
734.294	14641.3
734.635	14608.08
734.976	14713.38
735.317	14656.21
735.658	14662.09
735.999	14662.99
736.339	14691.01
736.68	14701.41
737.021	14619.38
737.361	14570.79
737.702	14700.96
738.042	14723.1
738.383	14656.89
738.723	14650.34
739.063	14678.58
739.404	14679.26
739.744	14606.27
740.084	14595.42
740.424	14636.55
740.764	14656.89
741.104	14726.72
741.444	14627.28
741.784	14638.36
742.124	14728.98
742.464	14765.81
742.804	14691.92
743.143	14766.72
743.483	14797.45
743.823	14768.3
744.162	14758.35
744.502	14865.24
744.841	14832.48
745.181	14833.83
745.52	14807.85
745.86	14928.07
746.199	14955.41
746.538	14968.29
746.877	15081.28
747.216	15098.91
747.556	15128.51
747.895	15159.02
748.234	15154.28
748.573	15158.12
748.911	15266.14
749.25	15400.15
749.589	15380.71
749.928	15453.7
750.267	15505.68
750.605	15545.45
750.944	15675.84
751.283	15660.93
751.621	15713.58
751.96	15776.63
752.298	15939.79
752.636	16015.72
752.975	15984.09
753.313	16039.45
753.651	16281.03
753.989	16252.55
754.327	16304.53
754.666	16434.47
755.004	16547.46
755.342	16678.76
755.679	16812.31
756.017	16798.3
756.355	16929.6
756.693	16959.88
757.031	17156.26
757.368	17193.55
757.706	17262.92
758.044	17381.34
758.381	17480.32
758.719	17593.31
759.056	17757.15
759.394	17840.31
759.731	17844.83
760.068	18006.86
760.405	18010.7
760.743	18142.9
761.08	18284.14
761.417	18212.73
761.754	18447.98
762.091	18556.45
762.428	18579.95
762.765	18640.74
763.102	18786.27
763.438	18807.51
763.775	18813.39
764.112	18979.94
764.449	19087.73
764.785	19094.51
765.122	19117.79
765.458	19163.66
765.795	19152.14
766.131	19285.69
766.467	19414.73
766.804	19300.38
767.14	19321.62
767.476	19413.83
767.812	19505.8
768.148	19656.98
768.485	19601.39
768.821	19477.33
769.157	19636.42
769.492	19642.07
769.828	19770.88
770.164	19620.83
770.5	19783.99
770.836	19713.03
771.171	19703.76
771.507	19791.22
771.842	19664.89
772.178	19785.57
772.513	19787.38
772.849	19686.59
773.184	19616.76
773.519	19765.91
773.855	19788.05
774.19	19692.46
774.525	19684.1
774.86	19766.13
775.195	19699.47
775.53	19659.47
775.865	19700.15
776.2	19537.44
776.535	19429.19
776.87	19478.68
777.205	19457.21
777.539	19449.53
777.874	19561.39
778.209	19382.41
778.543	19363.21
778.878	19275.75
779.212	19295.41
779.547	19214.73
779.881	19243.43
780.215	19264.9
780.55	19238.46
780.884	19120.5
781.218	19107.85
781.552	19120.95
781.886	19066.94
782.22	18946.49
782.554	18981.29
782.888	18819.94
783.222	18853.16
783.556	18724.13
783.889	18766.61
784.223	18538.14
784.557	18592.6
784.89	18641.19
785.224	18633.96
785.557	18444.81
785.891	18392.61
786.224	18366.4
786.558	18367.98
786.891	18257.25
787.224	18061.54
787.557	18145.61
787.891	18152.39
788.224	18145.38
788.557	18070.13
788.89	18142.22
789.223	18097.25
789.556	17887.76
789.888	17946.52
790.221	17789.91
790.554	17782.23
790.887	17678.05
791.219	17640.54
791.552	17577.26
791.884	17532.52
792.217	17479.41
792.549	17452.07
792.882	17292.53
793.214	17273.09
793.546	17279.42
793.879	17185.41
794.211	17038.29
794.543	17154
794.875	17114
795.207	17091.4
795.539	16978.18
795.871	16991.97
796.203	16875.14
796.535	16849.37
796.867	16751.75
797.198	16760.56
797.53	16775.03
797.862	16583.17
798.193	16615.03
798.525	16524.86
798.856	16654.12
799.188	16370.06
799.519	16337.3
799.85	16304.98
800.182	16300.01
800.513	16326.45
800.844	16182.05
801.175	16218.2
801.506	16217.98
801.837	16026.8
802.168	16083.07
802.499	16070.64
802.83	16010.75
803.161	15896.4
803.491	15913.8
803.822	15831.77
804.153	15774.15
804.483	15717.65
804.814	15658.9
805.145	15687.14
805.475	15699.35
805.805	15566.7
806.136	15552.46
806.466	15538
806.796	15606.24
807.126	15342.52
807.457	15326.02
807.787	15326.48
808.117	15247.38
808.447	15248.74
808.777	15268.62
809.107	15129.64
809.436	15078.35
809.766	15109.98
810.096	15035.64
810.426	15045.35
810.755	14957.22
811.085	14893.49
811.414	14988.18
811.744	14807.17
812.073	14766.72
812.403	14844.45
812.732	14820.95
813.061	14762.87
813.39	14633.61
813.719	14632.26
814.049	14704.35
814.378	14638.81
814.707	14554.07
815.036	14574.4
815.365	14464.35
815.693	14383.22
816.022	14383.22
816.351	14306.16
816.68	14228.2
817.008	14300.51
817.337	14114.3
817.665	14193.4
817.994	14162.66
818.322	14223.91
818.651	14067.53
818.979	14006.28
819.307	14127.64
819.636	14106.62
819.964	13912.05
820.292	14099.16
820.62	13964.03
820.948	13973.06
821.276	13991.6
821.604	13939.17
821.932	13952.5
822.259	13979.84
822.587	14003.12
822.915	13920.86
823.243	14053.74
823.57	13888.77
823.898	13894.65
824.225	13858.04
824.553	13891.26
824.88	13840.41
825.207	14042.44
825.535	13915.21
825.862	13904.82
826.189	13868.43
826.516	13888.77
826.843	14012.84
827.17	13935.1
827.497	13969.68
827.824	13947.75
828.151	13880.19
828.478	13867.98
828.805	13929.45
829.131	13880.86
829.458	13884.71
829.785	13857.81
830.111	13834.99
830.438	13893.52
830.764	13878.83
831.09	13930.35
831.417	13805.61
831.743	13883.12
832.069	13829.57
832.395	13746.4
832.722	13804.71
833.048	13748.89
833.374	13782.11
833.7	13693.3
834.026	13695.78
834.351	13800.87
834.677	13697.14
835.003	13722.45
835.329	13731.26
835.654	13676.35
835.98	13675.67
836.306	13625.5
836.631	13606.29
836.956	13658.5
837.282	13647.65
837.607	13554.54
837.932	13540.08
838.258	13604.94
838.583	13526.52
838.908	13458.73
839.233	13462.57
839.558	13500.53
839.883	13395.45
840.208	13343.02
840.533	13409.69
840.858	13401.78
841.182	13381.44
841.507	13374.21
841.832	13275.23
842.156	13258.28
842.481	13173.31
842.805	13134.44
843.13	13178.96
843.454	13130.38
843.778	13055.8
844.103	13084.27
844.427	12992.53
844.751	12993.66
845.075	12869.14
845.399	12904.17
845.723	12804.51
846.047	12926.54
846.371	12753.89
846.695	12767.67
847.019	12599.32
847.343	12588.24
847.666	12570.39
847.99	12522.03
848.313	12583.5
848.637	12418.76
848.96	12377.4
849.284	12396.61
849.607	12300.34
849.931	12272.32
850.254	12177.41
850.577	12119.78
850.9	12073.68
851.223	12011.08
851.546	11985.09
851.869	11927.02
852.192	11900.58
852.515	11925.21
852.838	11849.73
853.161	11778.55
853.483	11732.67
853.806	11691.54
854.129	11674.59
854.451	11605.67
854.774	11601.15
855.096	11569.74
855.419	11519.34
855.741	11408.61
856.063	11458.1
856.385	11425.79
856.708	11358.67
857.03	11287.03
857.352	11287.26
857.674	11238.22
857.996	11187.6
858.318	11125.46
858.64	11171.56
858.961	11060.15
859.283	11088.17
859.605	11061.95
859.926	11062.63
860.248	10972.69
860.57	10986.25
860.891	11014.27
861.212	10927.95
861.534	10802.75
861.855	10817.67
862.176	10838.01
862.498	10870.1
862.819	10908.96
863.14	10809.08
863.461	10775.63
863.782	10790.32
864.103	10773.6
864.424	10723.43
864.745	10686.82
865.065	10641.85
865.386	10658.12
865.707	10625.81
866.027	10606.6
866.348	10543.55
866.668	10634.4
866.989	10631.23
867.309	10526.38
867.63	10564.79
867.95	10508.52
868.27	10422.2
868.59	10502.2
868.91	10414.97
869.23	10399.15
869.55	10371.58
869.87	10405.93
870.19	10362.54
870.51	10421.75
870.83	10314.4
871.15	10322.99
871.469	10339.26
871.789	10246.38
872.109	10263.33
872.428	10270.11
872.748	10280.28
873.067	10319.6
873.386	10249.32
873.706	10264.46
874.025	10172.49
874.344	10131.58
874.663	10122.09
874.982	10073.96
875.301	10120.06
875.62	10144.01
875.939	10102.66
876.258	10076.9
876.577	10047.97
876.896	10053.39
877.214	9977.46
877.533	10022.66
877.852	10021.98
878.17	9988.99
878.489	9994.86
878.807	10000.74
879.125	9956.67
879.444	9905.15
879.762	9847.75
880.08	9951.02
880.398	9839.16
880.716	9790.35
881.034	9850.69
881.352	9821.76
881.67	9733.85
881.988	9685.95
882.306	9708.77
882.624	9682.1
882.941	9669
883.259	9543.8
883.577	9592.62
883.894	9608.21
884.212	9626.74
884.529	9573.41
884.846	9466.52
885.164	9479.62
885.481	9491.83
885.798	9529.11
886.115	9383.81
886.432	9449.34
886.75	9423.13
887.067	9373.86
887.383	9337.93
887.7	9426.07
888.017	9368.67
888.334	9306.52
888.651	9259.29
888.967	9345.39
889.284	9172.51
889.6	9198.5
889.917	9115.79
890.233	9134.55
890.55	9135.9
890.866	9098.62
891.182	9048.9
891.498	9045.74
891.815	9043.93
892.131	8973.42
892.447	8934.55
892.763	8947.21
893.079	8949.69
893.395	8907.21
893.71	8935.01
894.026	8839.87
894.342	8787.21
894.657	8750.6
894.973	8752.41
895.289	8771.85
895.604	8706.54
895.92	8680.55
896.235	8658.85
896.55	8605.97
896.865	8603.04
897.181	8486.88
897.496	8582.02
897.811	8498.63
898.126	8450.05
898.441	8373.66
898.756	8424.96
899.071	8340.44
899.386	8282.59
899.7	8262.71
900.015	8205.98
900.33	8200.11
900.644	8119.43
900.959	8228.36
901.273	8108.36
901.588	8150.62
901.902	8050.96
902.216	8055.25
902.531	8040.11
902.845	7981.13
903.159	7973
903.473	7939.78
903.787	7963.73
904.101	7904.98
904.415	7911.98
904.729	7838.31
905.042	7791.98
905.356	7778.65
905.67	7782.72
905.984	7774.36
906.297	7745.43
906.611	7658.43
906.924	7640.58
907.237	7605.32
907.551	7554.48
907.864	7589.5
908.177	7520.13
908.491	7456.4
908.804	7432.22
909.117	7409.17
909.43	7365.33
909.743	7353.13
910.056	7347.93
910.368	7373.69
910.681	7275.39
910.994	7268.61
911.307	7211.66
911.619	7194.49
911.932	7159.01
912.244	7105.22
912.557	7107.03
912.869	7085.79
913.181	7060.25
913.494	6994.94
913.806	6967.83
914.118	6977.32
914.43	6918.11
914.742	6944.78
915.054	6844.21
915.366	6883.31
915.678	6840.37
915.99	6728.06
916.302	6769.64
916.613	6693.03
916.925	6691
917.236	6685.57
917.548	6652.35
917.859	6682.41
918.171	6575.75
918.482	6569.64
918.794	6591.56
919.105	6515.18
919.416	6455.52
919.727	6449.42
920.038	6476.31
920.349	6389.31
920.66	6312.02
920.971	6359.71
921.282	6437.22
921.593	6318.35
921.903	6255.3
922.214	6267.73
922.525	6164.23
922.835	6172.82
923.146	6223.21
923.456	6083.33
923.767	6096.89
924.077	6086.49
924.387	6040.84
924.697	6053.95
925.008	5993.84
925.318	5941.86
925.628	5970.34
925.938	5941.86
926.248	5903.22
926.558	5894.18
926.867	5820.28
927.177	5844.92
927.487	5766.5
927.796	5753.39
928.106	5717.24
928.416	5756.11
928.725	5741.64
929.034	5725.37
929.344	5740.29
929.653	5673.62
929.962	5564.7
930.271	5577.58
930.581	5522.44
930.89	5517.24
931.199	5499.84
931.508	5460.52
931.817	5447.87
932.125	5464.14
932.434	5422.56
932.743	5420.3
933.051	5365.83
933.36	5349.56
933.669	5352.05
933.977	5303.24
934.286	5296.68
934.594	5240.41
934.902	5218.94
935.21	5171.71
935.519	5173.97
935.827	5194.76
936.135	5133.75
936.443	5078.38
936.751	5126.74
937.059	5042.9
937.367	5096.01
937.674	5107.54
937.982	5052.85
938.29	5026.18
938.597	4997.48
938.905	4920.87
939.213	4936.69
939.52	4931.72
939.827	4908.44
940.135	4928.33
940.442	4855.79
940.749	4834.32
941.056	4845.85
941.363	4790.71
941.67	4789.13
941.977	4764.27
942.284	4716.59
942.591	4733.99
942.898	4718.39
943.205	4679.75
943.511	4625.06
943.818	4648.79
944.125	4585.97
944.431	4576.25
944.738	4613.99
945.044	4578.51
945.35	4493.54
945.657	4530.38
945.963	4488.79
946.269	4456.93
946.575	4479.53
946.881	4413.09
947.187	4431.85
947.493	4442.69
947.799	4376.48
948.105	4332.87
948.41	4311.62
948.716	4332.19
949.022	4323.38
949.327	4277.27
949.633	4292.87
949.938	4294.68
950.244	4237.95
950.549	4251.96
950.854	4205.19
951.16	4218.07
951.465	4152.53
951.77	4161.8
952.075	4151.63
952.38	4133.1
952.685	4103.04
952.99	4054.91
953.294	4023.95
953.599	4021.24
953.904	4012.65
954.209	3982.37
954.513	3997.51
954.818	3978.98
955.122	3949.6
955.426	3913.89
955.731	3910.28
956.035	3891.3
956.339	3872.77
956.643	3884.74
956.948	3816.27
957.252	3820.11
957.556	3802.26
957.86	3772.43
958.163	3815.82
958.467	3778.3
958.771	3721.36
959.075	3762.03
959.378	3726.33
959.682	3725.88
959.985	3679.1
960.289	3643.62
960.592	3647.46
960.896	3655.37
961.199	3602.26
961.502	3585.99
961.805	3581.93
962.108	3548.71
962.411	3595.26
962.714	3555.03
963.017	3524.3
963.32	3554.36
963.623	3510.74
963.926	3479.33
964.228	3481.59
964.531	3429.39
964.833	3435.49
965.136	3433
965.438	3388.26
965.741	3408.14
966.043	3378.77
966.345	3355.72
966.648	3363.17
966.95	3346.23
967.252	3331.54
967.554	3307.58
967.856	3325.21
968.158	3245.44
968.46	3266.91
968.761	3271.88
969.063	3266.45
969.365	3247.47
969.666	3236.85
969.968	3175.16
970.269	3168.15
970.571	3134.93
970.872	3144.65
971.174	3139.23
971.475	3128.38
971.776	3086.57
972.077	3097.19
972.378	3091.99
972.679	3058.78
972.98	3017.65
973.281	3036.4
973.582	3011.32
973.883	3025.56
974.183	3013.13
974.484	3027.36
974.785	2961.38
975.085	2969.74
975.386	2982.39
975.686	2941.04
975.986	2944.43
976.287	2952.34
976.587	2882.51
976.887	2883.64
977.187	2899.01
977.487	2888.16
977.787	2854.94
978.087	2834.83
978.387	2823.98
978.687	2821.49
978.987	2790.08
979.286	2810.87
979.586	2788.05
979.885	2797.09
980.185	2742.85
980.484	2714.15
980.784	2734.49
981.083	2641.84
981.382	2708.95
981.682	2688.16
981.981	2658.56
982.28	2637.09
982.579	2635.74
982.878	2635.06
983.177	2594.38
983.475	2587.15
983.774	2609.97
984.073	2551.9
984.372	2566.81
984.67	2564.78
984.969	2557.55
985.267	2541.73
985.566	2548.05
985.864	2520.48
986.162	2480.26
986.461	2526.59
986.759	2491.78
987.057	2455.63
987.355	2462.41
987.653	2444.33
987.951	2446.14
988.249	2430.32
988.547	2458.11
988.844	2393.48
989.142	2412.46
989.44	2383.54
989.737	2356.2
990.035	2358
990.332	2370.21
990.63	2332.01
990.927	2348.29
991.224	2334.27
991.521	2317.33
991.819	2306.03
992.116	2300.83
992.413	2293.15
992.71	2286.82
993.006	2278.91
993.303	2266.25
993.6	2225.13
993.897	2229.87
994.193	2204.11
994.49	2196.88
994.787	2203.2
995.083	2189.42
995.379	2214.73
995.676	2171.79
995.972	2127.73
996.268	2132.02
996.565	2109.87
996.861	2151.91
997.157	2090.89
997.453	2107.16
997.749	2088.18
998.044	2056.99
998.34	2048.86
998.636	2063.55
998.932	2044.34
999.227	2019.93
999.523	1999.14
999.818	1984.68
1000.114	1976.54
1000.409	1979.71
1000.704	1992.36
1001	1972.02
1001.295	1973.15
1001.59	1959.82
1001.885	1926.38
1002.18	1966.6
1002.475	1905.13
1002.77	1930.22
1003.065	1908.98
1003.359	1898.81
1003.654	1889.99
1003.949	1879.15
1004.243	1885.92
1004.538	1880.5
1004.832	1847.51
1005.127	1820.62
1005.421	1843.89
1005.715	1824.46
1006.009	1777.23
1006.304	1781.07
1006.598	1794.63
1006.892	1762.09
1007.186	1754.4
1007.48	1751.69
1007.773	1727.51
1008.067	1733.16
1008.361	1725.48
1008.655	1713.95
1008.948	1705.59
1009.242	1714.86
1009.535	1671.47
1009.829	1668.98
1010.122	1676.21
1010.415	1632.37
1010.708	1662.88
1011.001	1620.17
1011.295	1617.46
1011.588	1644.35
1011.881	1608.87
1012.173	1608.42
1012.466	1587.63
1012.759	1583.56
1013.052	1558.7
1013.344	1544.47
1013.637	1550.11
1013.93	1570.45
1014.222	1539.49
1014.514	1543.34
1014.807	1545.14
1015.099	1515.77
1015.391	1513.96
1015.683	1495.2
1015.976	1527.52
1016.268	1473.28
1016.56	1478.03
1016.851	1455.43
1017.143	1469.89
1017.435	1451.13
1017.727	1435.32
1018.018	1434.41
1018.31	1408.2
1018.602	1405.03
1018.893	1385.37
1019.185	1370.23
1019.476	1373.85
1019.767	1367.29
1020.058	1343.57
1020.35	1358.03
1020.641	1336.79
1020.932	1366.62
1021.223	1317.8
1021.514	1347.41
1021.804	1318.71
1022.095	1302.21
1022.386	1290.69
1022.677	1287.52
1022.967	1265.83
1023.258	1261.99
1023.548	1260.18
1023.839	1264.7
1024.129	1271.93
1024.419	1257.92
1024.709	1226.06
1025	1217.92
1025.29	1212.72
1025.58	1194.87
1025.87	1206.62
1026.16	1179.05
1026.449	1181.76
1026.739	1158.26
1027.029	1176.57
1027.319	1201.2
1027.608	1152.38
1027.898	1134.08
1028.187	1128.88
1028.477	1113.74
1028.766	1126.4
1029.055	1130.24
1029.344	1103.8
1029.634	1085.72
1029.923	1103.35
1030.212	1081.65
1030.501	1067.42
1030.79	1061.09
1031.078	1073.07
1031.367	1051.82
1031.656	1071.48
1031.945	1069.68
1032.233	1044.37
1032.522	1012.05
1032.81	1037.13
1033.099	1031.26
1033.387	1021.54
1033.675	1022.67
1033.963	1019.51
1034.251	1010.92
1034.54	979.28
1034.828	979.06
1035.116	969.34
1035.403	965.72
1035.691	957.59
1035.979	962.56
1036.267	970.02
1036.554	939.96
1036.842	927.08
1037.129	916.23
1037.417	910.58
1037.704	895.44
1037.992	915.56
1038.279	947.87
1038.566	888.21
1038.853	888.21
1039.14	888.21
