Data from hue_200_FLMS001491_00094.txt Node
Date: Tue Feb 07 16:44:12 GMT 2017
User: dcchb
Spectrometer: FLMS00149
Trigger mode: 0
Integration Time (sec): 2.000000E-2
Scans to average: 10
Electric dark correction enabled: true
Nonlinearity correction enabled: false
Boxcar width: 0
XAxis mode: Wavelengths
Number of Pixels in Spectrum: 2048
>>>>>Begin Spectral Data<<<<<
341.393	-32.75
341.776	-32.75
342.16	-32.75
342.543	-64.39
342.927	-66.65
343.31	-69.36
343.693	-63.94
344.077	-80.21
344.46	-49.48
344.843	-81.79
345.226	-34.79
345.61	-22.13
345.993	-34.11
346.376	-7.67
346.759	18.32
347.142	11.09
347.525	57.87
347.908	66
348.291	82.95
348.674	96.06
349.057	111.2
349.44	120.91
349.823	156.39
350.206	144.42
350.588	184.64
350.971	198.2
351.354	223.06
351.737	228.93
352.119	251.53
352.502	270.97
352.884	268.26
353.267	271.65
353.65	290.63
354.032	303.73
354.414	326.79
354.797	292.21
355.179	307.35
355.562	321.59
355.944	324.75
356.326	331.3
356.709	323.85
357.091	323.17
357.473	350.51
357.855	334.24
358.238	320.01
358.62	334.47
359.002	344.64
359.384	330.85
359.766	334.69
360.148	361.81
360.53	342.38
360.912	338.31
361.294	334.24
361.676	320.01
362.057	315.49
362.439	322.72
362.821	303.96
363.203	310.97
363.584	311.64
363.966	321.36
364.348	312.1
364.729	321.14
365.111	319.78
365.493	318.2
365.874	311.42
366.256	324.75
366.637	305.77
367.019	320.91
367.4	291.31
367.781	318.42
368.163	312.77
368.544	302.61
368.925	300.57
369.306	320.68
369.688	293.11
370.069	296.5
370.45	301.93
370.831	324.98
371.212	316.39
371.593	304.86
371.974	320.46
372.355	310.06
372.736	321.36
373.117	308.48
373.498	312.77
373.879	334.92
374.26	300.57
374.641	312.1
375.021	307.35
375.402	313
375.783	318.42
376.163	313
376.544	327.46
376.925	311.19
377.305	313.68
377.686	324.07
378.066	313.9
378.447	323.4
378.827	320.46
379.208	319.55
379.588	332.89
379.968	331.76
380.349	319.33
380.729	325.2
381.109	327.69
381.489	341.25
381.87	325.2
382.25	328.82
382.63	335.37
383.01	345.32
383.39	331.53
383.77	315.94
384.15	334.69
384.53	343.51
384.91	342.83
385.29	334.69
385.67	338.99
386.049	349.38
386.429	348.71
386.809	354.81
387.189	355.49
387.568	350.74
387.948	374.92
388.328	371.76
388.707	342.15
389.087	367.24
389.466	335.6
389.846	368.37
390.225	358.65
390.605	368.82
390.984	352.32
391.363	341.7
391.743	360.91
392.122	370.4
392.501	358.42
392.881	364.75
393.26	359.78
393.639	366.78
394.018	376.28
394.397	376.95
394.776	360.46
395.155	384.41
395.534	365.65
395.913	387.35
396.292	373.79
396.671	388.93
397.05	388.48
397.429	398.87
397.808	374.92
398.186	373.11
398.565	401.13
398.944	390.06
399.323	409.49
399.701	419.44
400.08	403.62
400.458	437.74
400.837	408.36
401.215	415.82
401.594	395.03
401.972	418.99
402.351	409.49
402.729	420.57
403.107	421.92
403.486	420.57
403.864	430.96
404.242	421.25
404.62	436.61
404.999	459.66
405.377	463.28
405.755	446.1
406.133	446.33
406.511	466.22
406.889	471.64
407.267	483.17
407.645	480.45
408.023	477.29
408.401	491.98
408.779	492.2
409.156	506.67
409.534	508.25
409.912	512.09
410.29	523.84
410.667	514.58
411.045	552.32
411.422	513.9
411.8	533.79
412.178	575.59
412.555	563.16
412.933	594.35
413.31	603.39
413.687	591.86
414.065	605.42
414.442	587.12
414.819	606.55
415.197	622.82
415.574	637.29
415.951	651.3
416.328	661.69
416.705	659.88
417.082	668.25
417.46	687.68
417.837	721.58
418.214	689.49
418.591	703.05
418.967	717.51
419.344	711.63
419.721	741.92
420.098	750.73
420.475	760.22
420.852	769.49
421.228	753.67
421.605	781.91
421.982	799.09
422.358	842.48
422.735	838.64
423.111	833.89
423.488	858.75
423.864	887
424.241	888.35
424.617	924.06
424.994	941.68
425.37	949.59
425.746	964.06
426.123	984.4
426.499	980.55
426.875	995.02
427.251	1031.63
427.627	1061
428.003	1057.39
428.379	1047.67
428.756	1058.97
429.132	1108.91
429.507	1097.39
429.883	1152.3
430.259	1141.68
430.635	1111.85
431.011	1158.4
431.387	1168.12
431.763	1188.91
432.138	1235.46
432.514	1220.77
432.89	1246.08
433.265	1276.14
433.641	1280.43
434.016	1301.67
434.392	1345.52
434.767	1372.63
435.143	1353.65
435.518	1437.72
435.894	1439.75
436.269	1468.22
436.644	1502.35
437.02	1523.14
437.395	1500.31
437.77	1559.52
438.145	1593.64
438.52	1627.09
438.895	1620.99
439.271	1670.48
439.646	1703.47
440.021	1718.39
440.395	1726.52
440.77	1772.17
441.145	1782.57
441.52	1816.24
441.895	1828.89
442.27	1872.73
442.645	1864.82
443.019	1897.14
443.394	1889
443.769	1870.93
444.143	1942.11
444.518	1975.56
444.892	1970.36
445.267	2021.2
445.641	2008.32
446.016	2006.74
446.39	2078.38
446.764	2067.76
447.139	2073.41
447.513	2121.77
447.887	2144.82
448.262	2128.77
448.636	2114.53
449.01	2163.35
449.384	2236.11
449.758	2195.66
450.132	2239.5
450.506	2241.31
450.88	2274.76
451.254	2298.48
451.628	2303.91
452.002	2347.52
452.376	2319.5
452.75	2366.51
453.123	2405.6
453.497	2380.74
453.871	2470.46
454.244	2496.67
454.618	2485.82
454.992	2538.25
455.365	2558.59
455.739	2620.74
456.112	2645.37
456.486	2684.24
456.859	2663.22
457.232	2758.13
457.606	2723.11
457.979	2769.21
458.352	2830.22
458.725	2853.27
459.099	2851.24
459.472	2926.49
459.845	2938.69
460.218	2958.35
460.591	3025.92
460.964	3038.13
461.337	3082.42
461.71	3099.59
462.083	3135.52
462.456	3187.27
462.829	3201.29
463.201	3237.22
463.574	3293.26
463.947	3342.75
464.32	3353.37
464.692	3425.69
465.065	3407.61
465.438	3479.7
465.81	3489.87
466.183	3534.38
466.555	3638.79
466.928	3662.97
467.3	3627.04
467.672	3737.54
468.045	3783.19
468.417	3809.41
468.789	3796.75
469.161	3863.19
469.534	3942.06
469.906	4014.15
470.278	4030.64
470.65	4074.26
471.022	4145.67
471.394	4217.53
471.766	4266.57
472.138	4306.12
472.51	4391.09
472.882	4408.26
473.253	4455.94
473.625	4537.75
473.997	4636.05
474.369	4671.98
474.74	4744.97
475.112	4756.27
475.484	4831.75
475.855	4922.82
476.227	4951.07
476.598	5130.73
476.97	5119.2
477.341	5251.63
477.713	5316.94
478.084	5367.78
478.455	5397.39
478.827	5492.75
479.198	5643.48
479.569	5645.06
479.94	5863.81
480.311	5832.4
480.682	5940.87
481.053	6083.47
481.424	6149.46
481.795	6195.56
482.166	6278.95
482.537	6322.33
482.908	6517.36
483.279	6529.79
483.65	6623.12
484.021	6734.75
484.391	6850.23
484.762	6868.08
485.133	6937.23
485.503	6997.12
485.874	7114.18
486.244	7185.59
486.615	7303.32
486.985	7361.85
487.356	7450.44
487.726	7490.66
488.097	7745.12
488.467	7687.72
488.837	7922.97
489.207	7929.98
489.578	8017.88
489.948	8113.25
490.318	8186.92
490.688	8252.45
491.058	8340.36
491.428	8369.29
491.798	8457.19
492.168	8629.17
492.538	8637.3
492.908	8712.33
493.278	8782.38
493.648	8809.95
494.017	8877.07
494.387	8935.37
494.757	8951.19
495.126	9184.63
495.496	9055.37
495.866	9094.01
496.235	9176.5
496.605	9262.37
496.974	9345.76
497.344	9463.95
497.713	9377.39
498.082	9454.45
498.452	9484.06
498.821	9577.84
499.19	9582.59
499.559	9613.77
499.928	9709.82
500.298	9730.61
500.667	9762.24
501.036	9740.32
501.405	9926.31
501.774	9844.5
502.143	9854.22
502.512	9922.01
502.88	9957.27
503.249	9989.81
503.618	10041.78
503.987	10011.28
504.356	10087.21
504.724	10092.63
505.093	10064.61
505.462	10159.97
505.83	10181.89
506.199	10177.83
506.567	10304.83
506.936	10231.61
507.304	10409.68
507.672	10417.59
508.041	10322.23
508.409	10403.36
508.777	10472.96
509.145	10525.84
509.514	10479.96
509.882	10554.09
510.25	10477.7
510.618	10531.26
510.986	10505.05
511.354	10589.34
511.722	10659.39
512.09	10670.02
512.458	10672.73
512.826	10691.26
513.193	10686.96
513.561	10704.14
513.929	10792.95
514.297	10736
514.664	10773.52
515.032	10840.63
515.4	10840.18
515.767	10896.9
516.135	10871.59
516.502	10761.09
516.869	10867.98
517.237	10921.31
517.604	10827.3
517.972	10918.15
518.339	10961.53
518.706	10867.98
519.073	10917.69
519.44	10917.47
519.808	11006.28
520.175	10950.01
520.542	11016.67
520.909	11008.54
521.276	10977.35
521.643	11021.19
522.009	11048.54
522.376	11112.04
522.743	11060.97
523.11	11110.23
523.477	11168.99
523.843	11163.34
524.21	11281.07
524.577	11213.05
524.943	11168.31
525.31	11101.87
525.676	11161.75
526.043	11237.01
526.409	11245.14
526.776	11281.3
527.142	11204.92
527.508	11208.76
527.874	11242.43
528.241	11202.43
528.607	11151.81
528.973	11303.45
529.339	11121.08
529.705	11238.81
530.071	11180.29
530.437	11192.26
530.803	11169.21
531.169	11156.33
531.535	11129.89
531.901	11050.12
532.267	11047.63
532.632	11042.89
532.998	10989.33
533.364	11087.18
533.73	10968.77
534.095	11035.88
534.461	10907.52
534.826	10943
535.192	10936.9
535.557	10906.85
535.923	10883.12
536.288	10862.1
536.653	10812.16
537.019	10761.99
537.384	10758.38
537.749	10668.66
538.114	10619.85
538.479	10633.86
538.845	10592.5
539.21	10509.34
539.575	10435.67
539.94	10481.09
540.305	10424.15
540.67	10297.14
541.034	10355.9
541.399	10340.53
541.764	10288.33
542.129	10281.1
542.494	10168.33
542.858	10201.1
543.223	10153.65
543.587	10070.26
543.952	9955.91
544.316	10044.04
544.681	9966.76
545.045	9948.91
545.41	9908.91
545.774	9817.16
546.138	9814.9
546.503	9730.38
546.867	9715.46
547.231	9727.67
547.595	9670.27
547.959	9624.17
548.324	9549.14
548.688	9535.58
549.052	9546.2
549.416	9431.4
549.779	9399.09
550.143	9370.62
550.507	9371.75
550.871	9330.16
551.235	9244.74
551.599	9251.07
551.962	9179.89
552.326	9173.56
552.689	9205.42
553.053	9056.05
553.417	9069.83
553.78	9167.46
554.143	9028.93
554.507	9022.83
554.87	9014.69
555.234	9105.54
555.597	8917.07
555.96	8891.76
556.323	8896.73
556.686	8840.23
557.05	8848.14
557.413	8787.58
557.776	8744.87
558.139	8790.74
558.502	8715.94
558.865	8701.71
559.228	8719.78
559.59	8687.02
559.953	8635.72
560.316	8679.56
560.679	8651.76
561.041	8678.88
561.404	8680.92
561.767	8672.55
562.129	8649.96
562.492	8596.17
562.854	8584.87
563.217	8551.2
563.579	8580.35
563.941	8618.32
564.304	8619.67
564.666	8602.95
565.028	8570.64
565.39	8571.99
565.753	8582.16
566.115	8565.44
566.477	8561.14
566.839	8567.02
567.201	8626
567.563	8512.56
567.925	8628.71
568.287	8582.61
568.648	8597.08
569.01	8598.66
569.372	8635.49
569.734	8551.43
570.095	8563.18
570.457	8569.28
570.819	8658.54
571.18	8568.83
571.542	8602.05
571.903	8575.38
572.265	8603.63
572.626	8595.72
572.987	8542.61
573.349	8566.57
573.71	8659.9
574.071	8635.72
574.432	8621.93
574.794	8698.54
575.155	8589.39
575.516	8603.63
575.877	8650.63
576.238	8652.22
576.599	8644.08
576.96	8610.86
577.32	8618.77
577.681	8559.11
578.042	8614.93
578.403	8624.42
578.763	8626.45
579.124	8641.14
579.485	8637.53
579.845	8655.83
580.206	8621.93
580.566	8608.83
580.927	8594.59
581.287	8627.81
581.648	8602.5
582.008	8572.22
582.368	8589.17
582.728	8615.38
583.089	8613.12
583.449	8580.13
583.809	8628.71
584.169	8598.88
584.529	8590.97
584.889	8644.98
585.249	8630.97
585.609	8569.05
585.969	8569.05
586.329	8583.74
586.688	8530.64
587.048	8594.82
587.408	8569.96
587.768	8495.38
588.127	8509.17
588.487	8514.14
588.846	8636.17
589.206	8489.06
589.565	8531.99
589.925	8490.64
590.284	8491.99
590.643	8529.06
591.003	8484.31
591.362	8551.88
591.721	8517.76
592.08	8521.82
592.44	8527.47
592.799	8495.38
593.158	8415.39
593.517	8439.11
593.876	8428.49
594.235	8408.38
594.593	8466.91
594.952	8436.63
595.311	8335.16
595.67	8461.49
596.029	8482.95
596.387	8452.22
596.746	8491.99
597.104	8428.27
597.463	8379
597.822	8454.26
598.18	8385.78
598.538	8455.39
598.897	8456.06
599.255	8360.02
599.613	8475.5
599.972	8374.71
600.33	8446.12
600.688	8425.56
601.046	8315.28
601.404	8386.23
601.762	8412.67
602.12	8379.45
602.478	8380.36
602.836	8422.62
603.194	8336.29
603.552	8336.74
603.91	8308.5
604.268	8381.49
604.625	8341.04
604.983	8382.39
605.341	8339.46
605.698	8323.86
606.056	8357.53
606.413	8372.9
606.771	8386.91
607.128	8344.43
607.485	8341.04
607.843	8330.87
608.2	8416.52
608.557	8364.99
608.914	8399.79
609.272	8389.85
609.629	8419.23
609.986	8447.93
610.343	8354.37
610.7	8443.86
611.057	8426.91
611.414	8463.07
611.771	8454.03
612.127	8461.94
612.484	8441.83
612.841	8477.53
613.198	8419.45
613.554	8429.4
613.911	8494.48
614.267	8486.34
614.624	8448.15
614.98	8484.99
615.337	8435.95
615.693	8490.86
616.05	8482.95
616.406	8540.58
616.762	8514.14
617.118	8457.87
617.475	8443.86
617.831	8551.2
618.187	8472.56
618.543	8515.04
618.899	8547.13
619.255	8545.33
619.611	8559.34
619.967	8492.45
620.323	8540.13
620.678	8522.95
621.034	8514.82
621.39	8519.11
621.746	8531.32
622.101	8610.18
622.457	8503.29
622.812	8567.25
623.168	8537.19
623.523	8517.76
623.879	8674.59
624.234	8489.73
624.589	8576.96
624.945	8592.33
625.3	8541.03
625.655	8489.96
626.01	8537.64
626.365	8495.16
626.72	8535.61
627.075	8495.84
627.43	8536.96
627.785	8517.53
628.14	8548.49
628.495	8479.34
628.85	8519.56
629.205	8442.28
629.559	8545.78
629.914	8463.75
630.269	8428.49
630.623	8453.13
630.978	8424.2
631.332	8492.22
631.687	8483.41
632.041	8416.29
632.396	8432.11
632.75	8471.88
633.104	8428.72
633.459	8466.68
633.813	8344.88
634.167	8334.26
634.521	8366.57
634.875	8369.06
635.229	8349.17
635.583	8318.67
635.937	8312.11
636.291	8285.9
636.645	8325.67
636.999	8285.67
637.352	8329.51
637.706	8257.88
638.06	8253.36
638.413	8177.65
638.767	8265.56
639.121	8259.46
639.474	8147.37
639.828	8154.38
640.181	8212.91
640.534	8197.31
640.888	8162.06
641.241	8166.58
641.594	8123.42
641.947	8186.69
642.301	8120.03
642.654	8146.24
643.007	8193.02
643.36	8134.72
643.713	8129.74
644.066	8113.47
644.419	8095.17
644.771	8068.95
645.124	7983.98
645.477	7985.11
645.83	7896.76
646.182	7906.02
646.535	7850.43
646.888	7902.18
647.24	7803.88
647.593	7901.95
647.945	7854.95
648.298	7833.48
648.65	7851.33
649.002	7821.28
649.355	7832.12
649.707	7832.12
650.059	7904.67
650.411	7968.62
650.763	7925
651.115	8032.8
651.467	8073.47
651.819	8065.11
652.171	7968.17
652.523	8031.89
652.875	7992.12
653.227	8003.42
653.578	8078.22
653.93	8038.22
654.282	8035.28
654.633	7965.23
654.985	7988.28
655.337	8069.18
655.688	8057.2
656.039	8068.05
656.391	8006.36
656.742	8041.38
657.094	8040.25
657.445	8022.4
657.796	8034.61
658.147	8031.22
658.498	8055.4
658.849	8043.64
659.2	8037.09
659.551	8059.24
659.902	8054.27
660.253	8066.47
660.604	8047.26
660.955	8028.5
661.306	8081.61
661.656	8090.42
662.007	8070.31
662.358	8132.46
662.708	8097.88
663.059	8087.71
663.409	8064.43
663.76	8094.26
664.11	8075.06
664.461	8117.09
664.811	8099.24
665.161	8126.35
665.511	8108.05
665.862	8150.53
666.212	8102.17
666.562	8187.6
666.912	8157.31
667.262	8133.59
667.612	8143.98
667.962	8138.78
668.312	8116.41
668.662	8151.44
669.011	8153.92
669.361	8120.03
669.711	8096.98
670.06	8146.69
670.41	8139.46
670.76	8118.22
671.109	8095.17
671.459	8054.27
671.808	8094.94
672.157	8077.99
672.507	8013.59
672.856	8017.88
673.205	8059.69
673.554	8063.08
673.904	8020.59
674.253	8121.16
674.602	8065.11
674.951	7985.34
675.3	7921.16
675.649	8040.71
675.998	8045.23
676.346	8004.32
676.695	8004.32
677.044	7912.35
677.393	7978.56
677.741	7964.32
678.09	7985.57
678.438	7950.31
678.787	7943.08
679.135	7955.96
679.484	7887.72
679.832	7894.27
680.181	7830.54
680.529	7888.62
680.877	7817.66
681.225	7850.66
681.573	7832.8
681.922	7812.92
682.27	7836.64
682.618	7807.04
682.966	7776.53
683.314	7826.48
683.661	7742.18
684.009	7746.48
684.357	7648.63
684.705	7675.97
685.053	7689.53
685.4	7611.57
685.748	7649.3
686.095	7639.59
686.443	7542.19
686.79	7569.98
687.138	7602.53
687.485	7627.16
687.832	7527.5
688.18	7559.82
688.527	7489.99
688.874	7461.06
689.221	7435.75
689.568	7416.77
689.915	7413.83
690.262	7442.3
690.609	7390.55
690.956	7343.55
691.303	7341.29
691.65	7318.24
691.997	7317.34
692.344	7198.92
692.69	7267.85
693.037	7299.94
693.383	7177.9
693.73	7213.84
694.077	7189.43
694.423	7099.04
694.769	7083.9
695.116	7097.45
695.462	7063.56
695.808	7003.22
696.155	7033.05
696.501	6962.77
696.847	6930.91
697.193	6871.02
697.539	6896.56
697.885	6889.78
698.231	6838.48
698.577	6812.49
698.923	6771.81
699.269	6767.07
699.614	6741.76
699.96	6650.01
700.306	6737.46
700.651	6696.34
700.997	6651.14
701.342	6610.46
701.688	6576.56
702.033	6562.1
702.379	6557.58
702.724	6569.33
703.069	6562.1
703.415	6436
703.76	6477.58
704.105	6488.66
704.45	6421.31
704.795	6376.8
705.14	6365.04
705.485	6383.8
705.83	6320.07
706.175	6284.37
706.52	6271.71
706.865	6309.68
707.209	6295.44
707.554	6209.12
707.899	6293.63
708.243	6173.86
708.588	6163.92
708.932	6171.83
709.277	6117.14
709.621	6139.74
709.966	6144.71
710.31	6112.17
710.654	6002.34
710.998	6100.42
711.342	6038.95
711.687	6041.44
712.031	6020.19
712.375	5968.44
712.719	5990.37
713.063	5991.04
713.407	5937.49
713.75	5954.66
714.094	5946.3
714.438	5927.32
714.782	5936.58
715.125	5897.71
715.469	5902.23
715.812	5898.84
716.156	5853.65
716.499	5854.32
716.843	5839.41
717.186	5860.2
717.53	5881.22
717.873	5839.18
718.216	5809.35
718.559	5819.3
718.902	5783.59
719.246	5798.73
719.589	5802.35
719.932	5723.03
720.275	5742.01
720.617	5766.64
720.96	5794.21
721.303	5761.44
721.646	5759.18
721.989	5713.76
722.331	5771.84
722.674	5749.92
723.016	5733.2
723.359	5732.29
723.701	5788.34
724.044	5668.79
724.386	5691.62
724.729	5702.01
725.071	5673.09
725.413	5651.84
725.755	5714.21
726.097	5725.29
726.439	5644.39
726.782	5656.81
727.124	5651.39
727.465	5658.4
727.807	5623.37
728.149	5647.1
728.491	5635.12
728.833	5664.27
729.175	5646.87
729.516	5670.15
729.858	5636.7
730.199	5609.36
730.541	5656.59
730.882	5657.27
731.224	5630.37
731.565	5631.96
731.906	5650.71
732.248	5659.3
732.589	5631.5
732.93	5611.39
733.271	5587.89
733.612	5642.8
733.953	5655.01
734.294	5613.2
734.635	5678.06
734.976	5657.94
735.317	5669.7
735.658	5652.29
735.999	5662.24
736.339	5675.35
736.68	5681.67
737.021	5669.02
737.361	5648
737.702	5696.36
738.042	5660.66
738.383	5693.42
738.723	5724.16
739.063	5693.42
739.404	5725.97
739.744	5768.68
740.084	5792.63
740.424	5753.31
740.764	5816.58
741.104	5819.3
741.444	5784.72
741.784	5757.38
742.124	5830.6
742.464	5824.04
742.804	5897.49
743.143	5898.39
743.483	5878.73
743.823	5913.98
744.162	5884.38
744.502	6000.08
744.841	6002.57
745.181	6035.56
745.52	6029.23
745.86	6076.69
746.199	6125.05
746.538	6164.82
746.877	6179.96
747.216	6234.43
747.556	6261.09
747.895	6296.35
748.234	6339.06
748.573	6358.94
748.911	6417.02
749.25	6457.92
749.589	6524.36
749.928	6632.83
750.267	6692.95
750.605	6764.36
750.944	6857.01
751.283	6875.77
751.621	7008.42
751.96	7080.51
752.298	7071.69
752.636	7216.55
752.975	7246.83
753.313	7418.35
753.651	7509.65
753.989	7566.14
754.327	7704.67
754.666	7788.51
755.004	7958
755.342	8077.09
755.679	8218.56
756.017	8284.09
756.355	8475.05
756.693	8554.59
757.031	8724.98
757.368	8798.88
757.706	8993.9
758.044	9134.46
758.381	9275.93
758.719	9418.07
759.056	9593.21
759.394	9748.01
759.731	9916.14
760.068	10055.79
760.405	10219.63
760.743	10329.46
761.08	10522.22
761.417	10615.78
761.754	10913.63
762.091	11071.59
762.428	11223.9
762.765	11358.13
763.102	11437.45
763.438	11669.76
763.775	11895.75
764.112	12080.15
764.449	12258.67
764.785	12381.16
765.122	12550.87
765.458	12660.25
765.795	12864.31
766.131	12965.55
766.467	13160.57
766.804	13283.73
767.14	13449.83
767.476	13625.87
767.812	13768.69
768.148	13928.69
768.485	14015.24
768.821	14064.73
769.157	14247.78
769.492	14367.09
769.828	14583.59
770.164	14650.48
770.5	14810.02
770.836	14862.9
771.171	14965.5
771.507	15126.62
771.842	15155.55
772.178	15282.1
772.513	15435.99
772.849	15515.99
773.184	15567.29
773.519	15730.22
773.855	15775.19
774.19	15787.4
774.525	15970.22
774.86	16013.6
775.195	16047.73
775.53	16109.42
775.865	16146.93
776.2	16055.86
776.535	16153.04
776.87	16221.06
777.205	16277.33
777.539	16293.6
777.874	16536.3
778.209	16396.19
778.543	16389.41
778.878	16479.13
779.212	16543.76
779.547	16527.49
779.881	16694.72
780.215	16628.28
780.55	16694.94
780.884	16694.94
781.218	16749.86
781.552	16748.73
781.886	16797.99
782.22	16754.38
782.554	16740.59
782.888	16662.4
783.222	16582.85
783.556	16675.51
783.889	16620.59
784.223	16588.28
784.557	16693.59
784.89	16683.19
785.224	16652.68
785.557	16683.64
785.891	16620.82
786.224	16604.32
786.558	16729.97
786.891	16480.03
787.224	16538.56
787.557	16567.94
787.891	16588.05
788.224	16525.68
788.557	16658.33
788.89	16646.13
789.223	16600.03
789.556	16542.63
789.888	16504.66
790.221	16435.97
790.554	16348.51
790.887	16411.11
791.219	16359.36
791.552	16449.53
791.884	16337.44
792.217	16325.01
792.549	16349.41
792.882	16168.4
793.214	16307.61
793.546	16233.49
793.879	16141.96
794.211	16086.37
794.543	16194.39
794.875	16099.48
795.207	16220.38
795.539	16075.07
795.871	16059.03
796.203	16011.8
796.535	15869.43
796.867	15802.76
797.198	15858.81
797.53	15827.62
797.862	15781.75
798.193	15819.03
798.525	15750.11
798.856	15675.99
799.188	15654.07
799.519	15610.68
799.85	15577.01
800.182	15544.69
800.513	15574.75
800.844	15425.6
801.175	15532.26
801.506	15501.08
801.837	15419.72
802.168	15461.53
802.499	15368.65
802.83	15241.42
803.161	15214.98
803.491	15228.09
803.822	15325.03
804.153	15169.11
804.483	15073.06
804.814	15106.51
805.145	15020.18
805.475	15071.48
805.805	15050.01
806.136	15022.22
806.466	15013.18
806.796	15026.06
807.126	14833.75
807.457	14936.8
807.787	14945.16
808.117	14809.79
808.447	14752.62
808.777	14810.25
809.107	14793.98
809.436	14779.74
809.766	14704.94
810.096	14626.07
810.426	14595.79
810.755	14618.16
811.085	14656.13
811.414	14581.33
811.744	14485.73
812.073	14411.84
812.403	14423.59
812.732	14343.14
813.061	14342.91
813.39	14341.78
813.719	14230.83
814.049	14379.98
814.378	14368.22
814.707	14193.77
815.036	14160.32
815.365	14177.04
815.693	14113.99
816.022	14071.96
816.351	14012.98
816.68	13998.06
817.008	14002.58
817.337	13941.34
817.665	13915.81
817.994	13924.85
818.322	13917.39
818.651	13878.75
818.979	13864.28
819.307	13906.09
819.636	13899.99
819.964	13800.33
820.292	13820.22
820.62	13753.55
820.948	13817.05
821.276	13803.27
821.604	13792.19
821.932	13756.26
822.259	13777.05
822.587	13862.47
822.915	13716.26
823.243	13790.39
823.57	13722.37
823.898	13808.46
824.225	13720.33
824.553	13763.72
824.88	13693.89
825.207	13752.19
825.535	13727.79
825.862	13772.08
826.189	13751.74
826.516	13736.38
826.843	13782.02
827.17	13802.14
827.497	13806.88
827.824	13789.26
828.151	13776.15
828.478	13767.79
828.805	13855.02
829.131	13775.92
829.458	13824.96
829.785	13660.22
830.111	13774.12
830.438	13813.89
830.764	13776.15
831.09	13822.7
831.417	13742.25
831.743	13770.95
832.069	13816.15
832.395	13733.89
832.722	13787.67
833.048	13694.8
833.374	13801.46
833.7	13735.92
834.026	13740.9
834.351	13742.93
834.677	13703.83
835.003	13678.52
835.329	13682.37
835.654	13641.24
835.98	13555.36
836.306	13663.38
836.631	13548.13
836.956	13646.89
837.282	13635.59
837.607	13511.98
837.932	13492.99
838.258	13500.68
838.583	13488.92
838.908	13389.94
839.233	13394.01
839.558	13445.54
839.883	13350.4
840.208	13440.56
840.533	13300.46
840.858	13384.52
841.182	13296.61
841.507	13349.72
841.832	13187.69
842.156	13231.53
842.481	13188.59
842.805	13204.19
843.13	13137.75
843.454	13104.98
843.778	13087.35
844.103	13064.08
844.427	13049.61
844.751	13073.34
845.075	12980.01
845.399	12946.57
845.723	12912.44
846.047	12921.03
846.371	12821.15
846.695	12885.78
847.019	12710.64
847.343	12695.5
847.666	12528.27
847.99	12584.09
848.313	12488.27
848.637	12403.98
848.96	12524.88
849.284	12417.09
849.607	12276.75
849.931	12236.53
850.254	12217.55
850.577	12184.78
850.9	12084.22
851.223	12086.7
851.546	12048.06
851.869	11918.57
852.192	12003.09
852.515	11873.83
852.838	11844.9
853.161	11837.89
853.483	11693.27
853.806	11773.04
854.129	11665.24
854.451	11648.75
854.774	11651.46
855.096	11562.87
855.419	11469.09
855.741	11549.31
856.063	11467.06
856.385	11444.23
856.708	11394.52
857.03	11322.43
857.352	11371.47
857.674	11314.97
857.996	11278.14
858.318	11197.01
858.64	11262.99
858.961	11183.9
859.283	11119.95
859.605	11100.29
859.926	11137.12
860.248	11022.55
860.57	11012.15
860.891	11053.96
861.212	10953.62
861.534	10891.03
861.855	10936.9
862.176	10987.75
862.498	10896.9
862.819	10921.53
863.14	10800.41
863.461	10806.28
863.782	10722.9
864.103	10827.98
864.424	10712.73
864.745	10782.33
865.065	10692.39
865.386	10681.09
865.707	10684.7
866.027	10670.92
866.348	10593.18
866.668	10646.74
866.989	10507.76
867.309	10567.87
867.63	10661.2
867.95	10539.17
868.27	10440.42
868.59	10506.18
868.91	10483.58
869.23	10486.07
869.55	10446.97
869.87	10494.88
870.19	10389.8
870.51	10469.34
870.83	10370.81
871.15	10376.01
871.469	10379.63
871.789	10381.21
872.109	10357.93
872.428	10324.94
872.748	10280.2
873.067	10308.9
873.386	10298.05
873.706	10243.59
874.025	10202.91
874.344	10173.53
874.663	10193.42
874.982	10131.73
875.301	10136.47
875.62	10170.37
875.939	10165.4
876.258	10089.47
876.577	10117.04
876.896	10070.94
877.214	10079.07
877.533	10061.67
877.852	10034.1
878.17	9992.07
878.489	9998.4
878.807	9964.72
879.125	9934.44
879.444	9995.46
879.762	9933.31
880.08	9896.25
880.398	9931.96
880.716	9884.27
881.034	9801.79
881.352	9849.25
881.67	9871.17
881.988	9782.36
882.306	9753.2
882.624	9757.27
882.941	9687.89
883.259	9672.75
883.577	9612.19
883.894	9689.02
884.212	9681.79
884.529	9666.2
884.846	9565.86
885.164	9603.38
885.481	9593.66
885.798	9581.68
886.115	9451.52
886.432	9524.74
886.75	9437.96
887.067	9472.76
887.383	9382.37
887.7	9462.36
888.017	9423.72
888.334	9435.02
888.651	9418.75
888.967	9374.46
889.284	9255.36
889.6	9247.45
889.917	9233.9
890.233	9234.35
890.55	9167.91
890.866	9227.34
891.182	9133.56
891.498	9081.36
891.815	9108.93
892.131	9038.42
892.447	9028.48
892.763	9003.39
893.079	9003.39
893.395	8953.9
893.71	8869.16
894.026	8905.77
894.342	8852.44
894.657	8809.5
894.973	8741.03
895.289	8737.41
895.604	8717.98
895.92	8712.78
896.235	8673.68
896.55	8626.45
896.865	8663.52
897.181	8588.26
897.496	8647.24
897.811	8622.16
898.126	8499.9
898.441	8483.41
898.756	8446.57
899.071	8409.28
899.386	8394.6
899.7	8341.49
900.015	8284.54
900.33	8290.64
900.644	8294.71
900.959	8260.81
901.273	8228.95
901.588	8135.62
901.902	8130.87
902.216	8116.41
902.531	8084.32
902.845	8035.96
903.159	7961.16
903.473	7995.74
903.787	7969.3
904.101	7868.06
904.415	7938.56
904.729	7894.04
905.042	7841.62
905.356	7837.1
905.67	7778.34
905.984	7802.75
906.297	7749.87
906.611	7728.17
906.924	7694.5
907.237	7671.9
907.551	7617.89
907.864	7644.56
908.177	7598.01
908.491	7559.82
908.804	7511.23
909.117	7443.66
909.43	7399.59
909.743	7343.78
910.056	7343.1
910.368	7330.67
910.681	7301.52
910.994	7293.16
911.307	7216.55
911.619	7197.56
911.932	7196.66
912.244	7193.05
912.557	7187.4
912.869	7096.55
913.181	7014.74
913.494	7052.71
913.806	7022.2
914.118	6962.09
914.43	6908.53
914.742	6992.37
915.054	6883.9
915.366	6848.65
915.678	6795.09
915.99	6738.37
916.302	6720.74
916.613	6695.88
916.925	6718.48
917.236	6676.9
917.548	6600.07
917.859	6660.18
918.171	6566.17
918.482	6593.06
918.794	6542.21
919.105	6524.81
919.416	6479.39
919.727	6470.8
920.038	6489.79
920.349	6426.29
920.66	6390.81
920.971	6454.53
921.282	6370.69
921.593	6389.68
921.903	6357.14
922.214	6236.23
922.525	6312.62
922.835	6250.02
923.146	6199.85
923.456	6142.23
923.767	6110.36
924.077	6126.63
924.387	6090.02
924.697	6070.59
925.008	6065.62
925.318	6057.71
925.628	6010.93
925.938	6051.38
926.248	5974.09
926.558	5897.94
926.867	5884.15
927.177	5842.57
927.487	5870.82
927.796	5836.02
928.106	5817.49
928.416	5763.03
928.725	5733.65
929.034	5725.97
929.344	5718.73
929.653	5677.83
929.962	5673.09
930.271	5643.48
930.581	5602.35
930.89	5628.11
931.199	5565.97
931.508	5541.79
931.817	5585.18
932.125	5518.51
932.434	5507.89
932.743	5430.83
933.051	5417.95
933.36	5473.09
933.669	5411.17
933.977	5342.47
934.286	5371.4
934.594	5321
934.902	5305.19
935.21	5305.19
935.519	5255.47
935.827	5293.89
936.135	5250.72
936.443	5113.1
936.751	5156.71
937.059	5172.76
937.367	5127.34
937.674	5141.57
937.982	5100.9
938.29	5067.68
938.597	5082.14
938.905	5006.21
939.213	5027
939.52	4967.12
939.827	5009.6
940.135	4966.89
940.442	4917.85
940.749	4932.99
941.056	4887.8
941.363	4879.43
941.67	4838.3
941.977	4816.61
942.284	4791.98
942.591	4782.94
942.898	4776.84
943.205	4764.41
943.511	4742.04
943.818	4678.31
944.125	4688.7
944.431	4690.96
944.738	4643.28
945.044	4606.67
945.35	4577.97
945.657	4589.27
945.963	4559.22
946.269	4504.75
946.575	4498.43
946.881	4503.62
947.187	4513.57
947.493	4474.47
947.799	4409.62
948.105	4437.64
948.41	4449.16
948.716	4385.89
949.022	4335.72
949.327	4378.2
949.633	4315.15
949.938	4333.23
950.244	4310.41
950.549	4251.43
950.854	4260.24
951.16	4243.74
951.465	4220.47
951.77	4236.74
952.075	4229.73
952.38	4137.76
952.685	4170.98
952.99	4147.02
953.294	4116.74
953.599	4089.17
953.904	4078.55
954.209	4052.56
954.513	4062.96
954.818	3998.78
955.122	4036.74
955.426	4013.47
955.731	3933.47
956.035	4012.34
956.339	3924.88
956.643	3940.7
956.948	3925.56
957.252	3893.92
957.556	3895.96
957.86	3883.3
958.163	3862.96
958.467	3854.15
958.771	3827.94
959.075	3837.88
959.378	3756.75
959.682	3787.26
959.985	3745
960.289	3750.2
960.592	3772.12
960.896	3711.33
961.199	3706.36
961.502	3696.19
961.805	3640.37
962.108	3616.64
962.411	3651.44
962.714	3614.61
963.017	3595.63
963.32	3584.78
963.623	3562.63
963.926	3532.12
964.228	3551.33
964.531	3551.56
964.833	3554.27
965.136	3449.87
965.438	3433.6
965.741	3435.86
966.043	3443.54
966.345	3395.41
966.648	3387.95
966.95	3403.77
967.252	3370.77
967.554	3349.53
967.856	3394.05
968.158	3356.99
968.46	3342.07
968.761	3345.91
969.063	3249.87
969.365	3305.01
969.666	3313.37
969.968	3271.79
970.269	3186.6
970.571	3237.9
970.872	3206.03
971.174	3204.45
971.475	3195.18
971.776	3205.35
972.077	3131.91
972.378	3112.47
972.679	3126.49
972.98	3105.92
973.281	3091.68
973.582	3107.96
973.883	3105.47
974.183	3045.58
974.484	3067.5
974.785	3041.29
975.085	3014.62
975.386	3044
975.686	3002.65
975.986	2995.87
976.287	3039.26
976.587	2943.67
976.887	2952.48
977.187	2947.06
977.487	2943.67
977.787	2902.54
978.087	2905.25
978.387	2879.49
978.687	2873.61
978.987	2870.22
979.286	2790.9
979.586	2836.55
979.885	2833.61
980.185	2802.88
980.484	2801.52
980.784	2792.94
981.083	2780.51
981.382	2764.01
981.682	2733.5
981.981	2708.87
982.28	2714.97
982.579	2697.34
982.878	2686.95
983.177	2648.53
983.475	2673.62
983.774	2669.55
984.073	2657.35
984.372	2655.76
984.67	2621.87
984.969	2616.67
985.267	2617.57
985.566	2583
985.864	2584.13
986.162	2586.39
986.461	2543.9
986.759	2539.16
987.057	2520.63
987.355	2530.8
987.653	2516.56
987.951	2505.48
988.249	2481.3
988.547	2476.33
988.844	2495.32
989.142	2457.12
989.44	2434.3
989.737	2424.58
990.035	2423.91
990.332	2389.1
990.63	2392.27
990.927	2386.39
991.224	2378.26
991.521	2380.74
991.819	2361.08
992.116	2305.72
992.413	2346.85
992.71	2291.71
993.006	2312.72
993.303	2309.56
993.6	2272.5
993.897	2264.14
994.193	2245.15
994.49	2264.81
994.787	2240.41
995.083	2213.52
995.379	2219.16
995.676	2188.43
995.972	2220.75
996.268	2185.27
996.565	2188.88
996.861	2162.44
997.157	2158.15
997.453	2158.38
997.749	2137.13
998.044	2123.35
998.34	2108.21
998.636	2093.52
998.932	2112.73
999.227	2099.39
999.523	2108.89
999.818	2079.96
1000.114	2024.82
1000.409	2028.89
1000.704	2045.16
1001	2049.9
1001.295	2004.93
1001.59	2033.18
1001.885	2023.24
1002.18	1959.96
1002.475	1959.06
1002.77	1967.19
1003.065	1963.58
1003.359	1931.49
1003.654	1931.49
1003.949	1929.45
1004.243	1922.45
1004.538	1849.23
1004.832	1890.36
1005.127	1858.5
1005.421	1849.01
1005.715	1855.78
1006.009	1861.89
1006.304	1808.78
1006.598	1860.53
1006.892	1796.8
1007.186	1807.2
1007.48	1806.97
1007.773	1775.11
1008.067	1778.5
1008.361	1770.59
1008.655	1745.5
1008.948	1757.48
1009.242	1754.77
1009.535	1738.05
1009.829	1696.92
1010.122	1699.18
1010.415	1675.45
1010.708	1697.37
1011.001	1676.58
1011.295	1631.61
1011.588	1665.96
1011.881	1655.11
1012.173	1621.67
1012.466	1625.73
1012.759	1644.94
1013.052	1624.38
1013.344	1593.87
1013.637	1579.18
1013.93	1558.84
1014.222	1550.48
1014.514	1560.65
1014.807	1532.18
1015.099	1553.87
1015.391	1535.79
1015.683	1511.16
1015.976	1514.55
1016.268	1516.13
1016.56	1511.61
1016.851	1488.34
1017.143	1455.12
1017.435	1469.13
1017.727	1464.16
1018.018	1443.59
1018.31	1473.42
1018.602	1456.47
1018.893	1435.68
1019.185	1386.19
1019.476	1404.95
1019.767	1405.17
1020.058	1385.29
1020.35	1385.97
1020.641	1362.92
1020.932	1392.29
1021.223	1362.01
1021.514	1337.83
1021.804	1338.51
1022.095	1337.83
1022.386	1339.41
1022.677	1317.95
1022.967	1301.9
1023.258	1291.96
1023.548	1272.07
1023.839	1274.78
1024.129	1267.33
1024.419	1275.91
1024.709	1237.04
1025	1242.24
1025.29	1218.06
1025.58	1205.18
1025.87	1206.54
1026.16	1200.89
1026.449	1244.05
1026.739	1160.89
1027.029	1186.42
1027.319	1162.02
1027.608	1173.99
1027.898	1171.51
1028.187	1157.72
1028.477	1170.6
1028.766	1137.61
1029.055	1123.15
1029.344	1118.63
1029.634	1135.13
1029.923	1118.18
1030.212	1114.79
1030.501	1103.26
1030.79	1106.88
1031.078	1091.06
1031.367	1068.91
1031.656	1082.25
1031.945	1079.31
1032.233	1066.88
1032.522	1028.01
1032.81	1038.4
1033.099	1037.95
1033.387	1023.94
1033.675	1037.73
1033.963	1028.91
1034.251	1041.12
1034.54	1019.2
1034.828	1014.22
1035.116	1011.74
1035.403	1002.02
1035.691	988.69
1035.979	998.41
1036.267	958.86
1036.554	967.67
1036.842	957.73
1037.129	950.27
1037.417	943.72
1037.704	961.57
1037.992	903.95
1038.279	929.93
1038.566	932.42
1038.853	932.42
1039.14	932.42
