Data from hue_340_FLMS001491_33.txt Node
Date: Mon Feb 06 15:43:01 GMT 2017
User: dcchb
Spectrometer: FLMS00149
Trigger mode: 0
Integration Time (sec): 2.000000E-2
Scans to average: 10
Electric dark correction enabled: true
Nonlinearity correction enabled: false
Boxcar width: 0
XAxis mode: Wavelengths
Number of Pixels in Spectrum: 2048
>>>>>Begin Spectral Data<<<<<
341.393	-11.5
341.776	-11.5
342.16	-11.5
342.543	-60.76
342.927	-71.16
343.31	-58.5
343.693	-72.51
344.077	-59.41
344.46	-62.57
344.843	-64.15
345.226	-41.33
345.61	-37.03
345.993	-28.45
346.376	1.61
346.759	15.17
347.142	31.44
347.525	29.18
347.908	59.46
348.291	81.61
348.674	79.57
349.057	125.9
349.44	135.17
349.823	170.87
350.206	158.44
350.588	187.59
350.971	214.03
351.354	207.48
351.737	242.06
352.119	243.86
352.502	279.12
352.884	272.79
353.267	272.56
353.65	299.91
354.032	287.03
354.414	312.56
354.797	289.06
355.179	308.27
355.562	312.34
355.944	327.48
356.326	329.29
356.709	338.78
357.091	321.83
357.473	341.04
357.855	354.82
358.238	341.94
358.62	327.93
359.002	337.42
359.384	345.78
359.766	335.39
360.148	360.7
360.53	338.78
360.912	347.14
361.294	330.19
361.676	339.91
362.057	332
362.439	333.13
362.821	341.71
363.203	311.21
363.584	322.96
363.966	317.76
364.348	326.57
364.729	325.44
365.111	330.42
365.493	336.29
365.874	321.15
366.256	316.86
366.637	329.51
367.019	327.48
367.4	310.98
367.781	308.27
368.163	306.01
368.544	294.26
368.925	304.65
369.306	315.27
369.688	320.02
370.069	313.24
370.45	306.91
370.831	336.74
371.212	309.4
371.593	318.44
371.974	324.09
372.355	330.64
372.736	341.94
373.117	310.98
373.498	308.49
373.879	308.72
374.26	309.62
374.641	321.15
375.021	332.45
375.402	302.62
375.783	302.17
376.163	329.29
376.544	337.19
376.925	339.23
377.305	327.48
377.686	318.21
378.066	324.31
378.447	341.04
378.827	326.35
379.208	326.57
379.588	320.47
379.968	309.62
380.349	320.7
380.729	301.72
381.109	332.45
381.489	326.12
381.87	328.38
382.25	324.99
382.63	316.63
383.01	334.71
383.39	337.19
383.77	346.69
384.15	340.58
384.53	339.23
384.91	343.52
385.29	330.19
385.67	335.16
386.049	346.46
386.429	336.52
386.809	348.27
387.189	332
387.568	352.79
387.948	353.47
388.328	360.02
388.707	350.08
389.087	356.63
389.466	376.52
389.846	358.21
390.225	341.49
390.605	378.32
390.984	360.92
391.363	367.25
391.743	359.57
392.122	346.23
392.501	371.77
392.881	354.82
393.26	347.82
393.639	370.41
394.018	354.14
394.397	358.89
394.776	374.48
395.155	361.37
395.534	379.91
395.913	367.7
396.292	381.94
396.671	361.83
397.05	367.25
397.429	355.95
397.808	379.23
398.186	372.67
398.565	371.54
398.944	396.63
399.323	373.13
399.701	375.84
400.08	375.61
400.458	396.85
400.837	388.49
401.215	399.11
401.594	395.05
401.972	387.59
402.351	400.92
402.729	393.69
403.107	393.92
403.486	367.7
403.864	396.4
404.242	389.4
404.62	408.61
404.999	426.91
405.377	398.89
405.755	404.54
406.133	410.41
406.511	416.06
406.889	411.77
407.267	413.58
407.645	394.37
408.023	424.88
408.401	419.9
408.779	414.48
409.156	424.2
409.534	438.21
409.912	442.28
410.29	434.59
410.667	455.38
411.045	461.71
411.422	448.6
411.8	441.6
412.178	459.9
412.555	471.65
412.933	462.39
413.31	500.35
413.687	470.3
414.065	487.93
414.442	475.95
414.819	500.13
415.197	478.43
415.574	492.9
415.951	516.4
416.328	495.61
416.705	515.49
417.082	515.27
417.46	508.49
417.837	536.51
418.214	523.86
418.591	537.19
418.967	523.63
419.344	543.97
419.721	529.96
420.098	510.3
420.475	537.19
420.852	536.29
421.228	542.61
421.605	564.53
421.982	553.46
422.358	570.86
422.735	543.52
423.111	547.13
423.488	565.21
423.864	578.09
424.241	590.97
424.617	593.23
424.994	593.68
425.37	625.55
425.746	598.88
426.123	623.29
426.499	627.13
426.875	617.87
427.251	623.74
427.627	625.55
428.003	633.91
428.379	630.97
428.756	643.4
429.132	648.37
429.507	658.99
429.883	658.99
430.259	659.22
430.635	674.36
431.011	662.16
431.387	688.6
431.763	686.56
432.138	699.67
432.514	693.57
432.89	721.14
433.265	710.07
433.641	723.17
434.016	717.3
434.392	740.35
434.767	743.51
435.143	728.37
435.518	734.7
435.894	763.85
436.269	759.33
436.644	769.95
437.02	773.79
437.395	760.01
437.77	795.71
438.145	803.17
438.52	795.26
438.895	805.66
439.271	813.34
439.646	829.61
440.021	826
440.395	805.2
440.77	839.55
441.145	820.35
441.52	857.18
441.895	852.44
442.27	850.63
442.645	844.98
443.019	859.89
443.394	871.42
443.769	863.28
444.143	861.7
444.518	870.06
444.892	853.57
445.267	892.89
445.641	897.18
446.016	887.46
446.39	899.21
446.764	905.99
447.139	888.82
447.513	907.58
447.887	908.25
448.262	909.61
448.636	916.39
449.01	907.35
449.384	942.83
449.758	916.84
450.132	937.4
450.506	907.8
450.88	927.69
451.254	929.72
451.628	950.29
452.002	961.81
452.376	956.61
452.75	971.08
453.123	974.92
453.497	944.86
453.871	983.73
454.244	1000
454.618	997.74
454.992	1000.68
455.365	1017.18
455.739	1021.92
456.112	1032.09
456.486	1029.38
456.859	1038.65
457.232	1064.18
457.606	1060.34
457.979	1085.88
458.352	1091.07
458.725	1126.78
459.099	1078.19
459.472	1116.61
459.845	1123.39
460.218	1099.66
460.591	1150.73
460.964	1150.96
461.337	1164.97
461.71	1170.39
462.083	1157.29
462.456	1171.52
462.829	1174.01
463.201	1185.53
463.574	1186.21
463.947	1200
464.32	1249.71
464.692	1239.54
465.065	1239.54
465.438	1257.62
465.81	1279.99
466.183	1280.45
466.555	1308.47
466.928	1287.45
467.3	1290.62
467.672	1331.52
468.045	1356.83
468.417	1332.87
468.789	1352.31
469.161	1376.49
469.534	1398.41
469.906	1449.93
470.278	1463.72
470.65	1425.08
471.022	1451.97
471.394	1475.24
471.766	1493.32
472.138	1498.75
472.51	1549.59
472.882	1542.81
473.253	1576.03
473.625	1579.2
473.997	1629.82
474.369	1623.94
474.74	1636.6
475.112	1655.58
475.484	1659.65
475.855	1719.08
476.227	1722.47
476.598	1779.42
476.97	1762.47
477.341	1808.34
477.713	1816.7
478.084	1822.13
478.455	1879.53
478.827	1893.54
479.198	1933.08
479.569	1952.52
479.94	1966.3
480.311	1998.62
480.682	2006.76
481.053	2057.38
481.424	2079.75
481.795	2117.03
482.166	2131.05
482.537	2112.74
482.908	2186.41
483.279	2223.47
483.65	2289.91
484.021	2286.07
484.391	2338.27
484.762	2364.94
485.133	2365.39
485.503	2409.68
485.874	2436.12
486.244	2457.59
486.615	2505.73
486.985	2506.85
487.356	2551.83
487.726	2564.93
488.097	2641.99
488.467	2654.2
488.837	2696.23
489.207	2749.33
489.578	2775.55
489.948	2784.36
490.318	2816
490.688	2808.77
491.058	2861.87
491.428	2898.94
491.798	2884.7
492.168	2959.05
492.538	2975.54
492.908	2995.43
493.278	3066.61
493.648	3041.08
494.017	3093.28
494.387	3117.46
494.757	3136.22
495.126	3180.51
495.496	3175.54
495.866	3192.94
496.235	3223.67
496.605	3239.72
496.974	3268.64
497.344	3317.46
497.713	3312.48
498.082	3302.31
498.452	3353.16
498.821	3376.21
499.19	3353.16
499.559	3413.72
499.928	3438.36
500.298	3468.19
500.667	3460.73
501.036	3451.46
501.405	3480.84
501.774	3504.79
502.143	3502.76
502.512	3557.9
502.88	3589.54
503.249	3602.42
503.618	3608.97
503.987	3602.65
504.356	3632.93
504.724	3655.3
505.093	3641.97
505.462	3682.19
505.83	3655.75
506.199	3702.08
506.567	3715.86
506.936	3717.22
507.304	3775.3
507.672	3775.07
508.041	3786.14
508.409	3834.96
508.777	3826.59
509.145	3841.51
509.514	3866.82
509.882	3902.3
510.25	3858.01
510.618	3909.08
510.986	3876.54
511.354	3933.48
511.722	3961.28
512.09	3980.71
512.458	3975.06
512.826	3965.12
513.193	4035.85
513.561	4000.6
513.929	4054.84
514.297	4055.29
514.664	4072.69
515.032	4091.45
515.4	4103.65
515.767	4192.69
516.135	4152.69
516.502	4131.67
516.869	4215.28
517.237	4165.79
517.604	4142.29
517.972	4183.42
518.339	4180.71
518.706	4224.1
519.073	4232.01
519.44	4230.2
519.808	4237.2
520.175	4253.02
520.542	4267.26
520.909	4286.47
521.276	4344.09
521.643	4357.43
522.009	4352.46
522.376	4359.46
522.743	4409.4
523.11	4437.65
523.477	4443.98
523.843	4434.71
524.21	4479.01
524.577	4507.71
524.943	4523.53
525.31	4544.32
525.676	4579.34
526.043	4587.03
526.409	4619.34
526.776	4634.26
527.142	4626.8
527.508	4643.07
527.874	4706.57
528.241	4676.52
528.607	4715.16
528.973	4761.26
529.339	4776.85
529.705	4801.26
530.071	4865.66
530.437	4876.51
530.803	4890.52
531.169	4923.74
531.535	4969.62
531.901	4854.36
532.267	4961.71
532.632	4981.37
532.998	5005.09
533.364	5034.02
533.73	5010.97
534.095	5076.05
534.461	5082.15
534.826	5129.84
535.192	5111.98
535.557	5143.4
535.923	5133.68
536.288	5137.75
536.653	5232.89
537.019	5173.45
537.384	5260.68
537.749	5286.22
538.114	5260.23
538.479	5310.17
538.845	5287.57
539.21	5330.96
539.575	5284.64
539.94	5326.22
540.305	5385.42
540.67	5389.49
541.034	5400.56
541.399	5420.68
541.764	5418.64
542.129	5476.27
542.494	5525.76
542.858	5530.05
543.223	5529.37
543.587	5571.41
543.952	5603.04
544.316	5584.29
544.681	5604.63
545.045	5685.08
545.41	5671.07
545.774	5719.43
546.138	5739.31
546.503	5758.52
546.867	5746.54
547.231	5805.07
547.595	5761.68
547.959	5837.61
548.324	5811.4
548.688	5902.02
549.052	5878.74
549.416	5874.45
549.779	5932.08
550.143	5940.66
550.507	5978.63
550.871	5979.53
551.235	5982.24
551.599	6002.81
551.962	6031.06
552.326	6020.66
552.689	6116.03
553.053	6079.42
553.417	6119.87
553.78	6168.68
554.143	6141.11
554.507	6135.91
554.87	6145.18
555.234	6202.35
555.597	6118.96
555.96	6225.85
556.323	6277.15
556.686	6274.67
557.05	6241.45
557.413	6243.03
557.776	6340.2
558.139	6401.89
558.502	6376.81
558.865	6386.53
559.228	6419.97
559.59	6469.46
559.953	6470.59
560.316	6479.63
560.679	6473.98
561.041	6497.26
561.404	6538.61
561.767	6595.11
562.129	6605.96
562.492	6610.48
562.854	6619.29
563.217	6600.08
563.579	6657.48
563.941	6648.44
564.304	6677.82
564.666	6719.4
565.028	6742.9
565.39	6751.49
565.753	6765.27
566.115	6828.1
566.477	6847.98
566.839	6890.24
567.201	6915.33
567.563	6899.51
567.925	6940.64
568.287	6942.44
568.648	6956.91
569.01	7034.65
569.372	7107.19
569.734	7024.7
570.095	7104.02
570.457	7167.52
570.819	7139.73
571.18	7183.79
571.542	7200.52
571.903	7183.57
572.265	7337.01
572.626	7306.28
572.987	7360.06
573.349	7410.68
573.71	7437.12
574.071	7456.56
574.432	7531.58
574.794	7645.48
575.155	7620.39
575.516	7605.03
575.877	7734.51
576.238	7813.83
576.599	7840.5
576.96	7829.65
577.32	7951.91
577.681	8030.78
578.042	8096.99
578.403	8205.46
578.763	8237.1
579.124	8305.35
579.485	8390.99
579.845	8538.79
580.206	8635.06
580.566	8713.7
580.927	8780.36
581.287	8937.42
581.648	8973.8
582.008	9190.3
582.368	9269.39
582.728	9400.23
583.089	9507.57
583.449	9671.64
583.809	9770.39
584.169	10010.39
584.529	10064.17
584.889	10323.82
585.249	10501.9
585.609	10575.8
585.969	10742.8
586.329	11010.13
586.688	11174.88
587.048	11284.93
587.408	11507.52
587.768	11692.38
588.127	11981.63
588.487	12068.64
588.846	12457.55
589.206	12581.62
589.565	12878.79
589.925	13042.62
590.284	13253.47
590.643	13448.26
591.003	13714.7
591.362	14045.08
591.721	14236.26
592.08	14591.73
592.44	14867.89
592.799	14993.08
593.158	15206.41
593.517	15507.19
593.876	15802.78
594.235	15975.65
594.593	16376.55
594.952	16622.87
595.311	16939.7
595.67	17146.92
596.029	17458.55
596.387	17806.57
596.746	18097.41
597.104	18283.84
597.463	18507.11
597.822	18875.01
598.18	19053.54
598.538	19340.76
598.897	19782.33
599.255	19809.22
599.613	20286.05
599.972	20495.76
600.33	20781.85
600.688	20964
601.046	21232.69
601.404	21683.53
601.762	21802.39
602.12	22175.49
602.478	22420.23
602.836	22658.42
603.194	22741.8
603.552	23001.91
603.91	23283.26
604.268	23650.71
604.625	23736.13
604.983	24030.81
605.341	24203.46
605.698	24570.23
606.056	24807.29
606.413	24901.52
606.771	25369.3
607.128	25600.49
607.485	25577.21
607.843	25821.27
608.2	26183.97
608.557	26480.01
608.914	26601.81
609.272	26825.76
609.629	27071.63
609.986	27414.67
610.343	27336.03
610.7	27775.8
611.057	27896.92
611.414	27997.26
611.771	28176.91
612.127	28593.4
612.484	28482.9
612.841	28910.23
613.198	28884.92
613.554	29092.6
613.911	29472.93
614.267	29541.4
614.624	29573.26
614.98	29804.22
615.337	30090.31
615.693	30138.67
616.05	30319.01
616.406	30647.36
616.762	30551.77
617.118	30694.59
617.475	30853.68
617.831	31131.41
618.187	31148.81
618.543	31402.82
618.899	31471.52
619.255	31573.66
619.611	31718.52
619.967	31944.27
620.323	32062.01
620.678	32130.71
621.034	32079.86
621.39	32054.1
621.746	32266.52
622.101	32539.74
622.457	32512.17
622.812	32711.71
623.168	32824.48
623.523	32863.57
623.879	33100.4
624.234	32874.64
624.589	33079.16
624.945	33173.62
625.3	33246.61
625.655	33506.04
626.01	33540.62
626.365	33535.64
626.72	33647.96
627.075	33613.83
627.43	33651.12
627.785	33533.84
628.14	33816.54
628.495	33701.06
628.85	33855.18
629.205	33754.62
629.559	33966.59
629.914	33872.13
630.269	33914.16
630.623	33902.19
630.978	33955.97
631.332	34184.44
631.687	34291.33
632.041	34120.04
632.396	34297.21
632.75	34105.12
633.104	34192.8
633.459	34123.42
633.813	34174.72
634.167	34150.99
634.521	34208.17
634.875	34242.52
635.229	34343.53
635.583	34042.52
635.937	34241.84
636.291	34294.27
636.645	34300.82
636.999	34123.2
637.352	34269.86
637.706	34265.79
638.06	34373.14
638.413	34155.06
638.767	34130.2
639.121	34203.65
639.474	34078.45
639.828	34294.04
640.181	34219.24
640.534	34262.86
640.888	34123.65
641.241	34050.66
641.594	33979.47
641.947	34190.32
642.301	34087.27
642.654	34256.98
643.007	34140.37
643.36	34039.81
643.713	34128.4
644.066	34240.26
644.419	34091.34
644.771	33816.54
645.124	33576.77
645.477	33508.75
645.83	33356.21
646.182	33199.83
646.535	33033.51
646.888	33235.99
647.24	32918.03
647.593	33089.78
647.945	33048.65
648.298	32910.58
648.65	32982.89
649.002	32859.96
649.355	33015.88
649.707	32936.56
650.059	33069.67
650.411	33556.43
650.763	33501.52
651.115	33880.49
651.467	33671.01
651.819	33757.11
652.171	33692.02
652.523	33664
652.875	33693.83
653.227	33401.86
653.578	33795.75
653.93	33717.79
654.282	33632.59
654.633	33503.55
654.985	33504.23
655.337	33486.61
655.688	33548.52
656.039	33671.01
656.391	33350.11
656.742	33405.7
657.094	33445.25
657.445	33583.78
657.796	33415.42
658.147	33412.71
658.498	33477.34
658.849	33362.54
659.2	33355.54
659.551	33309.89
659.902	33493.16
660.253	33463.1
660.604	33462.88
660.955	33306.95
661.306	33378.13
661.656	33415.87
662.007	33277.8
662.358	33418.36
662.708	33412.94
663.059	33297.01
663.409	33166.16
663.76	33471.46
664.11	33335.42
664.461	33419.04
664.811	33287.29
665.161	33334.07
665.511	33381.3
665.862	33340.85
666.212	33397.12
666.562	33386.95
666.912	33372.71
667.262	33283.67
667.612	33182.21
667.962	33297.01
668.312	33201.87
668.662	33303.79
669.011	33191.7
669.361	33142.89
669.711	33192.38
670.06	33170.46
670.41	33030.57
670.76	33069.89
671.109	33272.15
671.459	33171.59
671.808	33076.9
672.157	33117.8
672.507	32984.02
672.856	33018.6
673.205	32997.58
673.554	33186.95
673.904	32983.57
674.253	33238.93
674.602	33063.11
674.951	32669.23
675.3	32582.45
675.649	32998.03
675.998	33048.88
676.346	33033.96
676.695	33042.1
677.044	32828.54
677.393	32860.18
677.741	32848.2
678.09	32837.13
678.438	32727.53
678.787	32801.2
679.135	32777.7
679.484	32569.57
679.832	32697.47
680.181	32488.89
680.529	32660.19
680.877	32619.51
681.225	32457.71
681.573	32701.09
681.922	32340.19
682.27	32378.61
682.618	32326.86
682.966	32320.53
683.314	32393.53
683.661	32177.04
684.009	32137.71
684.357	32119.86
684.705	32074.21
685.053	31990.6
685.4	32064.5
685.748	31753.54
686.095	31849.13
686.443	31837.61
686.79	31778.18
687.138	31790.38
687.485	31784.96
687.832	31695.69
688.18	31615.02
688.527	31477.17
688.874	31495.02
689.221	31425.19
689.568	31256.83
689.915	31339.09
690.262	31243.73
690.609	31211.86
690.956	31086.44
691.303	31054.13
691.65	30852.55
691.997	30949.72
692.344	30601.26
692.69	30861.59
693.037	30856.17
693.383	30561.03
693.73	30634.48
694.077	30335.28
694.423	30373.01
694.769	30322.17
695.116	30223.41
695.462	30107.71
695.808	30050.99
696.155	30144.09
696.501	29824.55
696.847	29953.82
697.193	29608.74
697.539	29866.14
697.885	29480.84
698.231	29516.09
698.577	29527.16
698.923	29431.57
699.269	29294.85
699.614	29088.08
699.96	29127.62
700.306	29133.5
700.651	29021.86
700.997	28924.24
701.342	29027.97
701.688	28914.52
702.033	28748.88
702.379	28760.63
702.724	28665.94
703.069	28701.87
703.415	28502.56
703.76	28423.69
704.105	28418.26
704.45	28354.76
704.795	28270.47
705.14	28127.42
705.485	28140.31
705.83	27866.64
706.175	28010.37
706.52	28051.04
706.865	27828
707.209	27770.15
707.554	27696.02
707.899	27835.45
708.243	27621
708.588	27610.38
708.932	27328.12
709.277	27348.91
709.621	27379.42
709.966	27115.7
710.31	27284.51
710.654	26933.33
710.998	27124.96
711.342	27023.72
711.687	26884.75
712.031	26938.3
712.375	26805.43
712.719	27020.79
713.063	26748.7
713.407	26833.67
713.75	26717.29
714.094	26781.7
714.438	26481.14
714.782	26614.02
715.125	26393.01
715.469	26426.9
715.812	26313.23
716.156	26123.64
716.499	26179.23
716.843	26291.09
717.186	26173.58
717.53	26239.56
717.873	26157.53
718.216	26141.49
718.559	25882.74
718.902	25743.31
719.246	25894.94
719.589	25848.16
719.932	25753.7
720.275	25741.5
720.617	25758
720.96	25667.6
721.303	25607.49
721.646	25666.92
721.989	25458.57
722.331	25603.42
722.674	25517.32
723.016	25414.28
723.359	25418.12
723.701	25429.64
724.044	25132.7
724.386	25092.93
724.729	25265.35
725.071	25237.33
725.413	25053.38
725.755	25153.04
726.097	25072.82
726.439	24952.59
726.782	25000.05
727.124	25127.96
727.465	24782.88
727.807	24824.69
728.149	24828.75
728.491	24734.29
728.833	24732.03
729.175	24688.19
729.516	24587.4
729.858	24546.5
730.199	24697.91
730.541	24494.98
730.882	24548.31
731.224	24620.17
731.565	24326.39
731.906	24366.85
732.248	24359.61
732.589	24261.09
732.93	24205.95
733.271	24246.17
733.612	24317.35
733.953	24285.27
734.294	24276.45
734.635	24178.15
734.976	24215.44
735.317	24109.9
735.658	23972.51
735.999	24155.78
736.339	23925.5
736.68	24099.06
737.021	23929.12
737.361	23869.68
737.702	24015.67
738.042	23902.22
738.383	23825.62
738.723	23843.24
739.063	23754.66
739.404	23607.09
739.744	23769.8
740.084	23598.96
740.424	23643.02
740.764	23615
741.104	23557.83
741.444	23505.85
741.784	23405.29
742.124	23526.87
742.464	23406.42
742.804	23373.42
743.143	23317.16
743.483	23323.93
743.823	23317.61
744.162	23181.57
744.502	23282.58
744.841	23127.1
745.181	23194.45
745.52	23151.96
745.86	23135.69
746.199	23071.06
746.538	22968.92
746.877	23089.14
747.216	23043.04
747.556	22947.67
747.895	22995.13
748.234	22858.64
748.573	22890.05
748.911	22819.77
749.25	22735.48
749.589	22801.24
749.928	22640.11
750.267	22829.26
750.605	22737.74
750.944	22599.21
751.283	22564.41
751.621	22580
751.96	22464.52
752.298	22472.66
752.636	22424.3
752.975	22441.25
753.313	22301.59
753.651	22409.61
753.989	22292.55
754.327	22229.73
754.666	22016.85
755.004	22163.74
755.342	22207.58
755.679	22082.84
756.017	21968.26
756.355	22051.2
756.693	21798.78
757.031	21942.5
757.368	21806.46
757.706	21794.26
758.044	21723.75
758.381	21730.53
758.719	21592.91
759.056	21600.59
759.394	21518.33
759.731	21403.08
760.068	21398.34
760.405	21208.06
760.743	21160.6
761.08	21274.95
761.417	21093.94
761.754	21101.17
762.091	21053.26
762.428	20925.81
762.765	20849.88
763.102	20884.68
763.438	20785.02
763.775	20618.02
764.112	20680.61
764.449	20690.78
764.785	20590.22
765.122	20392.03
765.458	20359.04
765.795	20368.08
766.131	20276.56
766.467	20227.74
766.804	20170.8
767.14	20051.25
767.476	20116.11
767.812	20063.68
768.148	19962.44
768.485	19918.83
768.821	19821.88
769.157	19759.96
769.492	19722.9
769.828	19627.76
770.164	19544.15
770.5	19422.12
770.836	19402.91
771.171	19332.18
771.507	19307.54
771.842	19210.82
772.178	19231.16
772.513	19063.48
772.849	19103.03
773.184	19017.38
773.519	19005.18
773.855	18868.23
774.19	18810.83
774.525	18801.79
774.86	18698.97
775.195	18586.43
775.53	18654.45
775.865	18447.45
776.2	18438.64
776.535	18237.51
776.87	18273.9
777.205	18211.98
777.539	18097.18
777.874	18140.12
778.209	17979.67
778.543	17864.19
778.878	17833.68
779.212	17866.9
779.547	17702.61
779.881	17740.35
780.215	17559.79
780.55	17587.59
780.884	17417.2
781.218	17393.92
781.552	17488.16
781.886	17381.49
782.22	17256.98
782.554	17233.02
782.888	17051.56
783.222	17021.05
783.556	16907.83
783.889	16879.58
784.223	16753.71
784.557	16720.49
784.89	16832.13
785.224	16708.06
785.557	16699.02
785.891	16498.13
786.224	16559.82
786.558	16383.33
786.891	16330.45
787.224	16196.66
787.557	16224.23
787.891	16237.34
788.224	16072.15
788.557	16155.76
788.89	16153.95
789.223	16008.42
789.556	15854.75
789.888	15939.5
790.221	15810.01
790.554	15724.59
790.887	15653.85
791.219	15610.47
791.552	15674.64
791.884	15577.92
792.217	15405.05
792.549	15476.46
792.882	15362.34
793.214	15379.74
793.546	15302.9
793.879	15211.83
794.211	15144.71
794.543	15191.04
794.875	15045.28
795.207	15101.78
795.539	14978.17
795.871	15010.26
796.203	14918.05
796.535	14903.37
796.867	14770.04
797.198	14748.12
797.53	14783.59
797.862	14641.68
798.193	14685.52
798.525	14546.09
798.856	14579.98
799.188	14398.97
799.519	14309.71
799.85	14307.45
800.182	14269.71
800.513	14422.93
800.844	14166.66
801.175	14263.83
801.506	14237.62
801.837	14174.12
802.168	14062.03
802.499	14071.3
802.83	13985.42
803.161	13895.26
803.491	13912.43
803.822	13864.97
804.153	13840.57
804.483	13756.73
804.814	13617.07
805.145	13650.52
805.475	13704.98
805.805	13531.42
806.136	13642.16
806.466	13581.37
806.796	13514.93
807.126	13462.5
807.457	13454.36
807.787	13364.2
808.117	13312.67
808.447	13301.15
808.777	13289.4
809.107	13272.45
809.436	13239
809.766	13197.2
810.096	13177.53
810.426	13105.45
810.755	13144.09
811.085	13092.57
811.414	13009.63
811.744	12855.74
812.073	12902.74
812.403	12914.49
812.732	12871.55
813.061	12825
813.39	12741.39
813.719	12660.03
814.049	12796.98
814.378	12680.82
814.707	12692.8
815.036	12613.93
815.365	12619.81
815.693	12515.63
816.022	12471.56
816.351	12474.5
816.68	12405.58
817.008	12477.67
817.337	12276.99
817.665	12282.64
817.994	12276.32
818.322	12331.23
818.651	12274.28
818.979	12195.64
819.307	12262.53
819.636	12166.49
819.964	12116.09
820.292	12226.83
820.62	12187.5
820.948	12131.91
821.276	12146.83
821.604	12080.39
821.932	12087.39
822.259	12175.75
822.587	12084
822.915	12027.51
823.243	12049.65
823.57	12032.71
823.898	12067.51
824.225	12048.07
824.553	11995.87
824.88	11997.68
825.207	12025.93
825.535	12044.23
825.862	12061.18
826.189	11959.94
826.516	12042.42
826.843	12041.75
827.17	12032.03
827.497	12038.36
827.824	12075.19
828.151	12008.53
828.478	12106.6
828.805	12059.15
829.131	11995.19
829.458	11950.22
829.785	11985.48
830.111	11915.65
830.438	11994.52
830.764	11967.17
831.09	11997.9
831.417	11890.79
831.743	12015.08
832.069	11938.25
832.395	11886.5
832.722	11970.11
833.048	11974.85
833.374	11877.91
833.7	11858.47
834.026	11851.69
834.351	11929.21
834.677	11794.29
835.003	11866.61
835.329	11881.98
835.654	11812.37
835.98	11787.74
836.306	11816.67
836.631	11783.45
836.956	11730.12
837.282	11781.19
837.607	11734.63
837.932	11673.39
838.258	11704.81
838.583	11680.17
838.908	11661.87
839.233	11659.61
839.558	11568.09
839.883	11604.69
840.208	11499.61
840.533	11560.63
840.858	11627.52
841.182	11492.61
841.507	11560.85
841.832	11473.85
842.156	11414.64
842.481	11414.42
842.805	11320.18
843.13	11292.39
843.454	11291.03
843.778	11276.79
844.103	11271.14
844.427	11158.15
844.751	11165.61
845.075	11183.01
845.399	11197.7
845.723	11145.05
846.047	11122.9
846.371	10999.74
846.695	11002.45
847.019	10961.1
847.343	10851.95
847.666	10784.83
847.99	10698.96
848.313	10815.11
848.637	10730.59
848.96	10642.23
849.284	10667.32
849.607	10548.68
849.931	10644.95
850.254	10467.55
850.577	10371.96
850.9	10367.89
851.223	10357.5
851.546	10310.04
851.869	10305.52
852.192	10307.33
852.515	10191.4
852.838	10180.55
853.161	10136.03
853.483	10114.79
853.806	10064.4
854.129	10048.35
854.451	10000.44
854.774	9948.24
855.096	9881.12
855.419	9865.08
855.741	9872.54
856.063	9802.71
856.385	9811.97
856.708	9790.51
857.03	9740.56
857.352	9714.8
857.674	9665.54
857.996	9687.68
858.318	9565.43
858.64	9641.13
858.961	9576.05
859.283	9511.42
859.605	9521.13
859.926	9539.66
860.248	9467.12
860.57	9384.64
860.891	9439.55
861.212	9374.92
861.534	9404.3
861.855	9353.68
862.176	9328.37
862.498	9406.33
862.819	9369.73
863.14	9330.86
863.461	9332.66
863.782	9240.46
864.103	9220.58
864.424	9183.29
864.745	9261.71
865.065	9143.06
865.386	9195.72
865.707	9136.74
866.027	9199.11
866.348	9160.47
866.668	9119.79
866.989	9121.6
867.309	9028.27
867.63	9088.38
867.95	9069.17
868.27	8944.2
868.59	9000.92
868.91	8968.61
869.23	8937.42
869.55	8921.38
869.87	8957.98
870.19	8947.59
870.51	8917.53
870.83	8940.58
871.15	8867.82
871.469	8857.2
871.789	8918.89
872.109	8877.08
872.428	8791.66
872.748	8843.64
873.067	8791.44
873.386	8818.1
873.706	8764.09
874.025	8763.19
874.344	8736.97
874.663	8750.98
874.982	8725
875.301	8727.71
875.62	8708.5
875.939	8639.8
876.258	8667.6
876.577	8666.24
876.896	8648.84
877.214	8526.36
877.533	8618.11
877.852	8627.15
878.17	8601.38
878.489	8582.85
878.807	8585.34
879.125	8526.81
879.444	8574.94
879.762	8506.47
880.08	8516.87
880.398	8443.65
880.716	8476.87
881.034	8465.79
881.352	8411.56
881.67	8386.93
881.988	8387.15
882.306	8373.59
882.624	8390.54
882.941	8328.85
883.259	8327.27
883.577	8271
883.894	8250.88
884.212	8277.32
884.529	8198.68
884.846	8208.85
885.164	8190.32
885.481	8152.36
885.798	8138.12
886.115	8076.88
886.432	8154.84
886.75	8122.75
887.067	8128.4
887.383	8053.15
887.7	8050.89
888.017	8064.67
888.334	8054.28
888.651	8009.08
888.967	8076.88
889.284	7916.43
889.6	7944.9
889.917	7816.09
890.233	7888.18
890.55	7851.12
890.866	7870.56
891.182	7819.03
891.498	7751.46
891.815	7768.64
892.131	7749.43
892.447	7735.42
892.763	7673.05
893.079	7700.39
893.395	7590.34
893.71	7610.9
894.026	7600.51
894.342	7610.9
894.657	7560.28
894.973	7539.94
895.289	7537.01
895.604	7488.19
895.92	7484.8
896.235	7401.64
896.55	7383.11
896.865	7399.38
897.181	7436.67
897.496	7380.17
897.811	7313.28
898.126	7280.51
898.441	7244.13
898.756	7164.13
899.071	7265.6
899.386	7197.58
899.7	7140.18
900.015	7176.34
900.33	7121.42
900.644	7145.6
900.959	7111.93
901.273	7079.16
901.588	6993.97
901.902	6999.84
902.216	6934.54
902.531	6933.63
902.845	6898.6
903.159	6915.1
903.473	6930.92
903.787	6873.75
904.101	6847.31
904.415	6810.7
904.729	6733.86
905.042	6737.48
905.356	6694.32
905.67	6749.46
905.984	6687.54
906.297	6657.71
906.611	6580.42
906.924	6606.41
907.237	6573.87
907.551	6584.94
907.864	6505.62
908.177	6566.64
908.491	6465.85
908.804	6399.63
909.117	6405.96
909.43	6386.3
909.743	6339.52
910.056	6380.65
910.368	6319.18
910.681	6303.82
910.994	6281.22
911.307	6244.61
911.619	6210.94
911.932	6257.26
912.244	6160.32
912.557	6153.99
912.869	6108.34
913.181	6080.55
913.494	6116.25
913.806	6029.25
914.118	6043.26
914.43	5991.51
914.742	5977.05
915.054	5968.01
915.366	5946.54
915.678	5909.03
915.99	5890.49
916.302	5887.56
916.613	5803.04
916.925	5849.14
917.236	5782.02
917.548	5775.47
917.859	5741.57
918.171	5677.85
918.482	5720.1
918.794	5661.57
919.105	5724.17
919.416	5563.5
919.727	5570.5
920.038	5601.69
920.349	5548.36
920.66	5466.33
920.971	5479.66
921.282	5516.95
921.593	5478.3
921.903	5435.82
922.214	5440.79
922.525	5415.48
922.835	5366.21
923.146	5352.2
923.456	5345.88
923.767	5308.82
924.077	5274.92
924.387	5283.28
924.697	5241.7
925.008	5285.76
925.318	5205.32
925.628	5162.15
925.938	5187.69
926.248	5069.73
926.558	5083.74
926.867	5100.23
927.177	5049.39
927.487	5062.04
927.796	4964.19
928.106	5009.16
928.416	4983.85
928.725	4951.08
929.034	4936.4
929.344	4966
929.653	4923.97
929.962	4828.6
930.271	4834.48
930.581	4826.34
930.89	4776.63
931.199	4773.24
931.508	4837.42
931.817	4778.89
932.125	4744.31
932.434	4749.96
932.743	4677.19
933.051	4650.08
933.36	4652.56
933.669	4640.81
933.977	4602.62
934.286	4607.59
934.594	4582.73
934.902	4548.84
935.21	4542.51
935.519	4499.57
935.827	4514.49
936.135	4454.15
936.443	4459.35
936.751	4461.38
937.059	4429.52
937.367	4384.32
937.674	4377.99
937.982	4396.3
938.29	4380.48
938.597	4360.37
938.905	4325.11
939.213	4235.4
939.52	4317.88
939.827	4303.19
940.135	4260.26
940.442	4221.84
940.749	4207.15
941.056	4247.15
941.363	4159.01
941.67	4203.08
941.977	4164.21
942.284	4133.48
942.591	4127.6
942.898	4110.2
943.205	4095.51
943.511	4035.63
943.818	4079.92
944.125	3982.97
944.431	4014.39
944.738	3963.77
945.044	4005.8
945.35	3937.78
945.657	3945.69
945.963	3892.13
946.269	3897.1
946.575	3922.19
946.881	3855.52
947.187	3817.33
947.493	3848.97
947.799	3792.24
948.105	3807.16
948.41	3751.12
948.716	3799.7
949.022	3757.22
949.327	3775.97
949.633	3695.75
949.938	3710.89
950.244	3716.09
950.549	3694.62
950.854	3643.55
951.16	3682.42
951.465	3606.04
951.77	3629.76
952.075	3565.13
952.38	3592.48
952.685	3589.09
952.99	3539.14
953.294	3528.3
953.599	3506.6
953.904	3524
954.209	3461.41
954.513	3492.14
954.818	3448.98
955.122	3435.42
955.426	3445.81
955.731	3429.54
956.035	3374.63
956.339	3427.51
956.643	3354.97
956.948	3328.75
957.252	3368.98
957.556	3350.22
957.86	3354.97
958.163	3315.87
958.467	3298.92
958.771	3284.91
959.075	3282.43
959.378	3284.24
959.682	3242.43
959.985	3222.32
960.289	3199.49
960.592	3176.89
960.896	3196.1
961.199	3158.59
961.502	3191.13
961.805	3105.03
962.108	3120.4
962.411	3109.33
962.714	3087.4
963.017	3088.76
963.32	3107.07
963.623	3052.6
963.926	3059.83
964.228	3019.16
964.531	3056.9
964.833	2989.78
965.136	2986.16
965.438	3004.47
965.741	2990.46
966.043	2937.8
966.345	2933.51
966.648	2951.59
966.95	2897.13
967.252	2906.39
967.554	2937.13
967.856	2842.89
968.158	2851.03
968.46	2859.61
968.761	2845.15
969.063	2862.1
969.365	2834.08
969.666	2841.76
969.968	2797.02
970.269	2772.16
970.571	2773.06
970.872	2740.75
971.174	2740.3
971.475	2790.24
971.776	2750.01
972.077	2700.3
972.378	2659.85
972.679	2706.17
972.98	2693.97
973.281	2684.48
973.582	2658.72
973.883	2674.08
974.183	2624.37
974.484	2652.84
974.785	2626.85
975.085	2618.72
975.386	2613.52
975.686	2596.12
975.986	2582.11
976.287	2570.81
976.587	2557.48
976.887	2538.94
977.187	2561.09
977.487	2518.83
977.787	2542.79
978.087	2518.61
978.387	2507.98
978.687	2481.77
978.987	2482.22
979.286	2440.42
979.586	2440.87
979.885	2384.15
980.185	2438.61
980.484	2387.54
980.784	2408.33
981.083	2414.2
981.382	2363.81
981.682	2388.21
981.981	2338.72
982.28	2374.88
982.579	2320.19
982.878	2359.29
983.177	2315
983.475	2298.27
983.774	2311.83
984.073	2267.54
984.372	2281.55
984.67	2265.05
984.969	2265.05
985.267	2293.53
985.566	2272.96
985.864	2220.99
986.162	2253.98
986.461	2190.93
986.759	2223.02
987.057	2170.14
987.355	2179.41
987.653	2170.14
987.951	2201.55
988.249	2184.38
988.547	2123.14
988.844	2162.68
989.142	2112.97
989.44	2112.06
989.737	2138.28
990.035	2121.1
990.332	2095.11
990.63	2108.22
990.927	2077.04
991.224	2015.79
991.521	2044.72
991.819	2042.01
992.116	2046.98
992.413	2037.04
992.71	2018.96
993.006	2021.67
993.303	1993.65
993.6	1995.46
993.897	1992.29
994.193	1991.16
994.49	1960.2
994.787	1945.51
995.083	1961.78
995.379	1944.16
995.676	1939.19
995.972	1909.58
996.268	1880.88
996.565	1887.66
996.861	1918.17
997.157	1886.53
997.453	1875.23
997.749	1851.73
998.044	1819.64
998.34	1877.04
998.636	1823.94
998.932	1833.88
999.227	1830.26
999.523	1810.83
999.818	1801.79
1000.114	1781
1000.409	1756.14
1000.704	1773.99
1001	1750.26
1001.295	1756.82
1001.59	1738.51
1001.885	1762.24
1002.18	1720.89
1002.475	1776.25
1002.77	1717.27
1003.065	1687.44
1003.359	1701.45
1003.654	1692.19
1003.949	1655.13
1004.243	1679.31
1004.538	1660.32
1004.832	1658.52
1005.127	1648.8
1005.421	1633.43
1005.715	1623.49
1006.009	1596.14
1006.304	1614.22
1006.598	1610.61
1006.892	1588.01
1007.186	1576.94
1007.48	1564.05
1007.773	1565.18
1008.067	1585.98
1008.361	1546.65
1008.655	1561.12
1008.948	1531.74
1009.242	1513.21
1009.535	1524.73
1009.829	1512.3
1010.122	1482.93
1010.415	1481.57
1010.708	1489.03
1011.001	1509.14
1011.295	1474.79
1011.588	1456.71
1011.881	1444.06
1012.173	1439.54
1012.466	1427.79
1012.759	1422.36
1013.052	1436.83
1013.344	1379.65
1013.637	1399.77
1013.93	1404.06
1014.222	1419.65
1014.514	1380.1
1014.807	1372.2
1015.099	1395.47
1015.391	1362.93
1015.683	1365.19
1015.976	1374.46
1016.268	1345.76
1016.56	1338.98
1016.851	1318.41
1017.143	1332.87
1017.435	1330.84
1017.727	1313.21
1018.018	1298.07
1018.31	1296.49
1018.602	1294.23
1018.893	1266.21
1019.185	1266.21
1019.476	1254.01
1019.767	1266.89
1020.058	1248.13
1020.35	1218.98
1020.641	1219.43
1020.932	1207.68
1021.223	1233.89
1021.514	1231.63
1021.804	1218.3
1022.095	1174.23
1022.386	1194.57
1022.677	1155.93
1022.967	1161.35
1023.258	1151.41
1023.548	1148.02
1023.839	1154.57
1024.129	1150.28
1024.419	1138.3
1024.709	1089.04
1025	1117.96
1025.29	1116.38
1025.58	1102.6
1025.87	1113.9
1026.16	1074.8
1026.449	1076.38
1026.739	1082.94
1027.029	1080
1027.319	1062.6
1027.608	1065.08
1027.898	1023.05
1028.187	1083.84
1028.477	1013.11
1028.766	1055.14
1029.055	1012.21
1029.344	1023.28
1029.634	1005.2
1029.923	1010.17
1030.212	999.55
1030.501	989.38
1030.79	982.15
1031.078	968.36
1031.367	974.01
1031.656	955.48
1031.945	957.97
1032.233	952.09
1032.522	945.31
1032.81	921.81
1033.099	911.64
1033.387	930.17
1033.675	936.95
1033.963	925.65
1034.251	920.46
1034.54	908.25
1034.828	906.45
1035.116	886.11
1035.403	896.73
1035.691	891.3
1035.979	899.89
1036.267	871.87
1036.554	871.87
1036.842	864.41
1037.129	866.67
1037.417	868.03
1037.704	850.85
1037.992	835.49
1038.279	837.29
1038.566	839.33
1038.853	839.33
1039.14	839.33
