Data from hue_40_FLMS001491_3.txt Node
Date: Mon Feb 06 15:07:21 GMT 2017
User: dcchb
Spectrometer: FLMS00149
Trigger mode: 0
Integration Time (sec): 2.000000E-2
Scans to average: 10
Electric dark correction enabled: true
Nonlinearity correction enabled: false
Boxcar width: 0
XAxis mode: Wavelengths
Number of Pixels in Spectrum: 2048
>>>>>Begin Spectral Data<<<<<
341.393	-11.64
341.776	-11.64
342.16	-11.64
342.543	-56.16
342.927	-64.52
343.31	-66.55
343.693	-68.13
344.077	-74.91
344.46	-47.57
344.843	-50.51
345.226	-41.02
345.61	-16.61
345.993	-10.51
346.376	0.34
346.759	8.7
347.142	9.38
347.525	40.34
347.908	59.77
348.291	73.56
348.674	88.25
349.057	95.48
349.44	145.65
349.823	149.04
350.206	148.13
350.588	193.55
350.971	227.23
351.354	215.02
351.737	228.58
352.119	253.44
352.502	260.45
352.884	283.04
353.267	274
353.65	291.18
354.032	306.77
354.414	316.26
354.797	296.83
355.179	315.58
355.562	324.17
355.944	331.18
356.326	319.2
356.709	339.54
357.091	354.45
357.473	342.25
357.855	329.37
358.238	349.71
358.62	337.51
359.002	334.57
359.384	335.92
359.766	339.09
360.148	327.11
360.53	340.89
360.912	335.25
361.294	343.83
361.676	341.12
362.057	325.53
362.439	334.34
362.821	348.35
363.203	323.95
363.584	342.02
363.966	301.35
364.348	313.33
364.729	322.82
365.111	339.09
365.493	317.62
365.874	310.16
366.256	314.91
366.637	322.59
367.019	316.26
367.4	314.91
367.781	328.92
368.163	309.48
368.544	307.68
368.925	304.29
369.306	309.94
369.688	324.62
370.069	321.69
370.45	308.13
370.831	317.39
371.212	317.39
371.593	329.37
371.974	306.55
372.355	316.04
372.736	322.14
373.117	328.92
373.498	314.91
373.879	322.14
374.26	307.9
374.641	313.1
375.021	309.71
375.402	312.65
375.783	335.47
376.163	340.89
376.544	350.39
376.925	333.66
377.305	328.47
377.686	332.76
378.066	328.01
378.447	328.01
378.827	335.92
379.208	322.36
379.588	323.95
379.968	332.31
380.349	335.92
380.729	335.47
381.109	339.99
381.489	357.84
381.87	367.79
382.25	337.73
382.63	371.85
383.01	351.29
383.39	342.48
383.77	355.58
384.15	340.67
384.53	348.58
384.91	353.32
385.29	357.62
385.67	348.8
386.049	355.81
386.429	360.1
386.809	380.22
387.189	362.59
387.568	351.97
387.948	369.82
388.328	382.02
388.707	358.52
389.087	358.3
389.466	353.55
389.846	353.32
390.225	363.27
390.605	360.33
390.984	382.93
391.363	396.71
391.743	367.79
392.122	363.95
392.501	382.7
392.881	356.94
393.26	354.45
393.639	368.69
394.018	378.63
394.397	384.06
394.776	376.37
395.155	400.33
395.534	349.93
395.913	391.97
396.292	395.13
396.671	379.31
397.05	387.22
397.429	384.06
397.808	391.06
398.186	394.9
398.565	398.29
398.944	387.9
399.323	380.44
399.701	412.31
400.08	394.9
400.458	389.26
400.837	424.06
401.215	392.42
401.594	391.97
401.972	411.85
402.351	390.61
402.729	417.05
403.107	418.18
403.486	427.22
403.864	413.89
404.242	409.82
404.62	437.39
404.999	427.67
405.377	423.38
405.755	420.21
406.133	424.06
406.511	431.29
406.889	444.17
407.267	438.97
407.645	455.24
408.023	450.72
408.401	444.17
408.779	463.15
409.156	446.65
409.534	455.92
409.912	440.78
410.29	444.85
410.667	448.46
411.045	472.64
411.422	445.75
411.8	459.31
412.178	475.13
412.555	459.99
412.933	466.77
413.31	474.9
413.687	473.32
414.065	484.17
414.442	478.74
414.819	495.69
415.197	477.39
415.574	512.19
415.951	500.44
416.328	497.5
416.705	494.79
417.082	518.74
417.46	526.65
417.837	495.47
418.214	508.35
418.591	522.59
418.967	527.33
419.344	540.44
419.721	528.46
420.098	534.34
420.475	525.07
420.852	521.91
421.228	504.73
421.605	539.53
421.982	549.48
422.358	540.89
422.735	565.3
423.111	554.45
423.488	574.56
423.864	550.16
424.241	554.45
424.617	557.16
424.994	579.76
425.37	578.4
425.746	563.94
426.123	581.57
426.499	575.47
426.875	605.75
427.251	573.43
427.627	580.44
428.003	581.79
428.379	599.19
428.756	605.75
429.132	638.97
429.507	605.52
429.883	638.74
430.259	629.7
430.635	637.84
431.011	625.18
431.387	664.05
431.763	644.39
432.138	656.14
432.514	656.37
432.89	664.28
433.265	684.61
433.641	687.1
434.016	650.04
434.392	663.15
434.767	686.42
435.143	690.04
435.518	692.98
435.894	678.97
436.269	702.47
436.644	705.18
437.02	732.3
437.395	695.46
437.77	743.6
438.145	724.16
438.52	739.3
438.895	749.7
439.271	743.6
439.646	767.55
440.021	774.1
440.395	746.53
440.77	774.33
441.145	750.83
441.52	770.26
441.895	798.74
442.27	798.96
442.645	784.5
443.019	783.14
443.394	801.67
443.769	804.16
444.143	791.73
444.518	779.98
444.892	819.07
445.267	814.1
445.641	801.22
446.016	810.49
446.39	843.93
446.764	830.83
447.139	859.07
447.513	866.98
447.887	861.33
448.262	848.9
448.636	855.91
449.01	869.69
449.384	866.76
449.758	882.58
450.132	885.97
450.506	885.29
450.88	892.52
451.254	868.11
451.628	905.85
452.002	916.02
452.376	920.77
452.75	936.13
453.123	912.18
453.497	927.77
453.871	951.05
454.244	970.93
454.618	963.7
454.992	978.39
455.365	999.18
455.739	993.99
456.112	1008.22
456.486	1006.41
456.859	1050.71
457.232	1042.12
457.606	1029.01
457.979	1048.67
458.352	1056.81
458.725	1073.98
459.099	1099.29
459.472	1080.54
459.845	1106.3
460.218	1103.81
460.591	1130.7
460.964	1159.86
461.337	1179.07
461.71	1171.83
462.083	1214.09
462.456	1213.19
462.829	1219.74
463.201	1223.36
463.574	1225.62
463.947	1278.72
464.32	1269.68
464.692	1264.71
465.065	1278.5
465.438	1297.25
465.81	1333.86
466.183	1364.82
466.555	1360.3
466.928	1356.69
467.3	1390.81
467.672	1405.05
468.045	1447.08
468.417	1450.47
468.789	1469
469.161	1465.16
469.534	1512.16
469.906	1524.14
470.278	1576.57
470.65	1612.95
471.022	1619.51
471.394	1656.34
471.766	1684.36
472.138	1701.99
472.51	1704.7
472.882	1771.59
473.253	1796.45
473.625	1797.58
473.997	1863.57
474.369	1883.45
474.74	1946.95
475.112	1938.82
475.484	2007.97
475.855	2046.61
476.227	2061.53
476.598	2123.9
476.97	2141.3
477.341	2222.43
477.713	2274.18
478.084	2251.81
478.455	2376.77
478.827	2391.01
479.198	2492.7
479.569	2550.78
479.94	2593.49
480.311	2625.35
480.682	2731.79
481.053	2841.17
481.424	2918.91
481.795	2938.57
482.166	2996.42
482.537	3075.06
482.908	3146.92
483.279	3212.91
483.65	3334.04
484.021	3380.14
484.391	3496.29
484.762	3506.24
485.133	3616.97
485.503	3696.74
485.874	3830.29
486.244	3865.1
486.615	3982.16
486.985	4064.86
487.356	4169.49
487.726	4234.58
488.097	4388.25
488.467	4411.97
488.837	4567
489.207	4638.64
489.578	4765.41
489.948	4877.5
490.318	4965.63
490.688	5012.18
491.058	5162.01
491.428	5254.66
491.798	5353.19
492.168	5496.01
492.538	5569.23
492.908	5665.05
493.278	5744.59
493.648	5837.02
494.017	5958.83
494.387	6074.98
494.757	6174.64
495.126	6279.27
495.496	6371.7
495.866	6467.97
496.235	6542.09
496.605	6620.73
496.974	6740.5
497.344	6833.38
497.713	6968.52
498.082	7031.34
498.452	7116.54
498.821	7172.35
499.19	7339.81
499.559	7391.33
499.928	7459.58
500.298	7559.24
500.667	7659.12
501.036	7663.19
501.405	7877.87
501.774	7885.33
502.143	7964.2
502.512	8058.66
502.88	8155.83
503.249	8234.02
503.618	8323.74
503.987	8378.65
504.356	8460.68
504.724	8499.78
505.093	8578.87
505.462	8702.03
505.83	8764.4
506.199	8891.4
506.567	9041.46
506.936	8997.84
507.304	9150.38
507.672	9252.3
508.041	9231.73
508.409	9390.83
508.777	9419.75
509.145	9567.55
509.514	9572.29
509.882	9628.56
510.25	9694.77
510.618	9809.57
510.986	9803.47
511.354	9993.97
511.722	10040.3
512.09	10158.04
512.458	10119.85
512.826	10238.26
513.193	10366.39
513.561	10376.79
513.929	10452.04
514.297	10549.67
514.664	10668.31
515.032	10654.52
515.4	10797.12
515.767	10881.86
516.135	10933.84
516.502	10831.47
516.869	11098.35
517.237	11135.19
517.604	11062.2
517.972	11230.1
518.339	11294.51
518.706	11376.99
519.073	11411.34
519.44	11462.41
519.808	11659.24
520.175	11618.11
520.542	11777.2
520.909	11842.97
521.276	11951.44
521.643	11958.89
522.009	12048.16
522.376	12064.65
522.743	12206.8
523.11	12294.03
523.477	12341.71
523.843	12473.68
524.21	12590.52
524.577	12752.32
524.943	12675.94
525.31	12823.96
525.676	12905.76
526.043	13017.85
526.409	12988.47
526.776	13193.66
527.142	13203.83
527.508	13330.61
527.874	13480.21
528.241	13374
528.607	13548.91
528.973	13665.52
529.339	13605.4
529.705	13749.36
530.071	13829.81
530.437	13943.02
530.803	14079.97
531.169	14096.47
531.535	14000.65
531.901	14139.63
532.267	14212.62
532.632	14329.91
532.998	14319.51
533.364	14516.57
533.73	14573.06
534.095	14636.34
534.461	14641.99
534.826	14703.46
535.192	14747.52
535.557	14871.13
535.923	14923.56
536.288	15004.24
536.653	15021.64
537.019	15072.26
537.384	15173.5
537.749	15193.61
538.114	15283.55
538.479	15278.81
538.845	15386.15
539.21	15390.44
539.575	15465.7
539.94	15525.13
540.305	15603.32
540.67	15619.82
541.034	15662.53
541.399	15751.79
541.764	15889.41
542.129	16015.06
542.494	15993.14
542.858	15978.68
543.223	16021.84
543.587	16166.47
543.952	16085.57
544.316	16184.55
544.681	16256.86
545.045	16367.14
545.41	16415.73
545.774	16492.56
546.138	16494.37
546.503	16558.77
546.867	16639.68
547.231	16767.36
547.595	16868.14
547.959	16690.52
548.324	16830.4
548.688	16898.2
549.052	16950.63
549.416	17020
549.779	17027.69
550.143	17060.46
550.507	17238.08
550.871	17267.68
551.235	17273.33
551.599	17382.93
551.962	17438.98
552.326	17546.77
552.689	17629.48
553.053	17626.77
553.417	17629.25
553.78	17889.13
554.143	17778.85
554.507	17915.8
554.87	17924.39
555.234	18054.78
555.597	17938.4
555.96	18088
556.323	18089.35
556.686	18046.87
557.05	18309.01
557.413	18423.81
557.776	18444.15
558.139	18475.56
558.502	18502.45
558.865	18583.58
559.228	18673.97
559.59	18783.12
559.953	18769.79
560.316	19015.21
560.679	18942.21
561.041	19047.07
561.404	19137.46
561.767	19292.49
562.129	19273.96
562.492	19407.06
562.854	19520.96
563.217	19399.15
563.579	19561.63
563.941	19644.79
564.304	19712.82
564.666	19765.47
565.028	19831.91
565.39	19891.57
565.753	19990.55
566.115	20032.81
566.477	20279.35
566.839	20223.08
567.201	20316.41
567.563	20348.5
567.925	20410.88
568.287	20522.96
568.648	20483.19
569.01	20749.17
569.372	20828.27
569.734	20800.92
570.095	20886.8
570.457	21030.29
570.819	21050.18
571.18	21124.98
571.542	21228.48
571.903	21299.44
572.265	21407.46
572.626	21464.86
572.987	21593.67
573.349	21667.11
573.71	21772.65
574.071	21844.74
574.432	21857.17
574.794	22191.39
575.155	22111.85
575.516	22115.24
575.877	22253.31
576.238	22346.64
576.599	22501.67
576.96	22537.15
577.32	22669.12
577.681	22841.55
578.042	22875.22
578.403	23077.92
578.763	23098.04
579.124	23183.68
579.485	23392.72
579.845	23609.21
580.206	23658.7
580.566	23699.38
580.927	23886.49
581.287	24095.52
581.648	24249.42
582.008	24413.26
582.368	24490.54
582.728	24725.56
583.089	24796.75
583.449	24889.4
583.809	25125.78
584.169	25156.74
584.529	25304.31
584.889	25701.13
585.249	25733.9
585.609	25813.22
585.969	26158.52
586.329	26199.42
586.688	26505.86
587.048	26590.83
587.408	26827.2
587.768	26954.88
588.127	27132.05
588.487	27244.37
588.846	27581.53
589.206	27648.88
589.565	27790.57
589.925	28104.01
590.284	28120.96
590.643	28532.02
591.003	28692.01
591.362	28943.31
591.721	29060.37
592.08	29216.75
592.44	29482.73
592.799	29669.84
593.158	29734.92
593.517	29955.94
593.876	29985.77
594.235	30298.98
594.593	30441.57
594.952	30630.04
595.311	30862.13
595.67	31033.65
596.029	31384.82
596.387	31444.71
596.746	31749.11
597.104	31780.29
597.463	31984.13
597.822	32148.87
598.18	32205.59
598.538	32362.43
598.897	32748.18
599.255	32581.18
599.613	33229.07
599.972	33183.87
600.33	33348.16
600.688	33366.24
601.046	33725.1
601.404	33745.67
601.762	33922.84
602.12	34344.97
602.478	34289.15
602.836	34450.51
603.194	34356.72
603.552	34683.04
603.91	34591.29
604.268	34923.49
604.625	35051.39
604.983	35255.23
605.341	35204.84
605.698	35504.04
606.056	35716.24
606.413	35715.78
606.771	35936.8
607.128	36005.49
607.485	35971.82
607.843	36010.47
608.2	36552.82
608.557	36618.59
608.914	36515.99
609.272	36825.59
609.629	36937.22
609.986	37287.04
610.343	37120.27
610.7	37597.09
611.057	37422.86
611.414	37643.64
611.771	37702.85
612.127	37783.98
612.484	37809.29
612.841	38073.69
613.198	38078.43
613.554	38149.84
613.911	38270.29
614.267	38506.45
614.624	38381.25
614.98	38431.64
615.337	38800.67
615.693	38750.73
616.05	38792.77
616.406	39077.05
616.762	39000.44
617.118	39002.25
617.475	39058.97
617.831	39246.54
618.187	39355.01
618.543	39654.66
618.899	39766.07
619.255	39683.59
619.611	39728.79
619.967	39929.01
620.323	39963.58
620.678	39947.76
621.034	39862.34
621.39	40053.52
621.746	39907.31
622.101	40340.75
622.457	40226.4
622.812	40220.07
623.168	40459.61
623.523	40399.28
623.879	40421.2
624.234	40330.13
624.589	40395.66
624.945	40569.22
625.3	40700.51
625.655	40752.71
626.01	40720.17
626.365	40682.89
626.72	40762.66
627.075	40787.29
627.43	40722.21
627.785	40787.52
628.14	40788.87
628.495	40936.21
628.85	40844.01
629.205	40598.82
629.559	40973.72
629.914	40855.31
630.269	40964.69
630.623	40871.81
630.978	40833.84
631.332	40967.85
631.687	40993.84
632.041	40822.32
632.396	40964.46
632.75	40750
633.104	40943.9
633.459	40703.68
633.813	40851.92
634.167	40724.47
634.521	40835.65
634.875	40952.03
635.229	40855.08
635.583	40724.92
635.937	40718.36
636.291	40721.98
636.645	40820.73
636.999	40782.09
637.352	40738.48
637.706	40631.36
638.06	40744.13
638.413	40675.43
638.767	40555.66
639.121	40637.69
639.474	40365.61
639.828	40462.55
640.181	40542.1
640.534	40472.95
640.888	40437.92
641.241	40266.17
641.594	40358.6
641.947	40483.34
642.301	40319.05
642.654	40315.21
643.007	40339.84
643.36	40371.03
643.713	40272.95
644.066	40480.18
644.419	40067.31
644.771	39957.93
645.124	39529.24
645.477	39485.63
645.83	39372.19
646.182	39207.9
646.535	38976.49
646.888	39253.54
647.24	39070.95
647.593	39237.5
647.945	39075.02
648.298	38882.03
648.65	38863.5
649.002	38751.41
649.355	39013.32
649.707	38666.44
650.059	39018.3
650.411	39576.02
650.763	39555.01
651.115	39958.84
651.467	39761.1
651.819	39741.21
652.171	39656.02
652.523	39505.97
652.875	39660.99
653.227	39548.9
653.578	39745.06
653.93	39565.17
654.282	39462.35
654.633	39280.21
654.985	39453.54
655.337	39481.79
655.688	39392.52
656.039	39566.98
656.391	39120.21
656.742	39295.8
657.094	39334.9
657.445	39384.84
657.796	39363.82
658.147	39259.65
658.498	39220.78
658.849	39316.14
659.2	39324.05
659.551	39309.81
659.902	39401.56
660.253	39325.86
660.604	39282.02
660.955	39072.98
661.306	39223.49
661.656	39200.89
662.007	39141.91
662.358	39183.94
662.708	39201.34
663.059	39170.16
663.409	38863.5
663.76	39219.42
664.11	39138.07
664.461	39133.1
664.811	39169.93
665.161	39153.21
665.511	39136.49
665.862	39189.82
666.212	39266.88
666.562	39158.18
666.912	39029.82
667.262	39027.34
667.612	39160.67
667.962	39161.57
668.312	39091.74
668.662	39213.09
669.011	39096.71
669.361	38884.74
669.711	38907.79
670.06	38919.09
670.41	38848.36
670.76	38988.69
671.109	38946.89
671.459	38993.89
671.808	38925.19
672.157	38912.31
672.507	38806.1
672.856	38712.09
673.205	38752.31
673.554	38856.49
673.904	38744.18
674.253	38868.7
674.602	38799.09
674.951	38314.13
675.3	37996.63
675.649	38604.52
675.998	38605.43
676.346	38598.87
676.695	38957.96
677.044	38413.57
677.393	38531.76
677.741	38621.47
678.09	38463.51
678.438	38434.81
678.787	38538.08
679.135	38525.65
679.484	38170.18
679.832	38359.56
680.181	38106
680.529	38241.59
680.877	38217.41
681.225	38229.84
681.573	38233.68
681.922	38002.5
682.27	37827.82
682.618	38000.7
682.966	37889.51
683.314	37949.17
683.661	37829.85
684.009	37798.67
684.357	37708.5
684.705	37579.01
685.053	37610.65
685.4	37675.73
685.748	37443.87
686.095	37283.88
686.443	37296.53
686.79	37144.22
687.138	37337.66
687.485	37312.58
687.832	37165.01
688.18	37203.2
688.527	36846.38
688.874	36990.33
689.221	36874.85
689.568	36835.53
689.915	36645.7
690.262	36682.31
690.609	36704.68
690.956	36372.26
691.303	36407.29
691.65	36307.41
691.997	36245.71
692.344	36089.56
692.69	35912.39
693.037	36099.73
693.383	35706.29
693.73	35973.86
694.077	35752.39
694.423	35633.98
694.769	35451.84
695.116	35536.58
695.462	35365.51
695.808	35201.22
696.155	35391.5
696.501	35162.8
696.847	35131.17
697.193	34938.86
697.539	35004.16
697.885	34724.17
698.231	34609.6
698.577	34620.22
698.923	34518.3
699.269	34467
699.614	34345.88
699.96	34297.97
700.306	34221.13
700.651	34250.06
700.997	33971.65
701.342	33948.15
701.688	33903.63
702.033	33746.57
702.379	33730.3
702.724	33683.07
703.069	33720.36
703.415	33258.67
703.76	33378.22
704.105	33361.27
704.45	33234.95
704.795	33076.53
705.14	33019.36
705.485	32862.75
705.83	32709.08
706.175	32798.12
706.52	32726.71
706.865	32562.65
707.209	32628.41
707.554	32469.99
707.899	32504.12
708.243	32372.14
708.588	32368.98
708.932	32156.56
709.277	32105.26
709.621	32094.18
709.966	31917.01
710.31	31993.85
710.654	31742.1
710.998	31891.03
711.342	31764.93
711.687	31787.98
712.031	31520.87
712.375	31623.91
712.719	31624.82
713.063	31510.47
713.407	31563.12
713.75	31465.27
714.094	31366.52
714.438	31304.6
714.782	31315.67
715.125	31041.1
715.469	31129.46
715.812	30923.59
716.156	30854.67
716.499	30825.97
716.843	30861.45
717.186	30539.87
717.53	30868
717.873	30825.29
718.216	30543.49
718.559	30588.91
718.902	30297.85
719.246	30348.47
719.589	30265.08
719.932	30171.98
720.275	30103.73
720.617	30111.41
720.96	29989.61
721.303	30053.11
721.646	30087.23
721.989	29828.48
722.331	30038.65
722.674	29783.74
723.016	29898.76
723.359	29739.22
723.701	29813.34
724.044	29639.79
724.386	29433.69
724.729	29735.15
725.071	29443.86
725.413	29531.99
725.755	29523.86
726.097	29251.1
726.439	29229.17
726.782	29216.29
727.124	29502.39
727.465	29169.29
727.807	29171.1
728.149	29095.39
728.491	29062.17
728.833	29167.71
729.175	28938.34
729.516	28968.16
729.858	28861.28
730.199	28906.25
730.541	28772.92
730.882	28730.88
731.224	28891.78
731.565	28671.9
731.906	28634.84
732.248	28658.79
732.589	28480.95
732.93	28489.99
733.271	28391.46
733.612	28458.8
733.953	28450.89
734.294	28381.51
734.635	28251.57
734.976	28294.28
735.317	28153.05
735.658	28227.39
735.999	28142.65
736.339	28137.9
736.68	28047.51
737.021	28021.07
737.361	27952.37
737.702	28122.31
738.042	27891.81
738.383	27893.39
738.723	27905.37
739.063	27814.75
739.404	27835.09
739.744	27734.3
740.084	27482.55
740.424	27608.65
740.764	27690.46
741.104	27740.85
741.444	27575.21
741.784	27414.99
742.124	27479.39
742.464	27354.2
742.804	27381.77
743.143	27319.85
743.483	27292.73
743.823	27218.61
744.162	27019.97
744.502	27153.3
744.841	27140.42
745.181	27262.9
745.52	27013.19
745.86	27074.43
746.199	26930.93
746.538	26902.68
746.877	26954.43
747.216	27000.31
747.556	26922.34
747.895	26823.36
748.234	26789.47
748.573	26805.96
748.911	26584.27
749.25	26658.17
749.589	26478.29
749.928	26531.39
750.267	26583.59
750.605	26516.03
750.944	26471.28
751.283	26301.79
751.621	26409.59
751.96	26156.49
752.298	26224.96
752.636	26202.59
752.975	25959.66
753.313	25891.86
753.651	26082.37
753.989	25958.07
754.327	25902.03
754.666	25619.1
755.004	25821.13
755.342	25784.75
755.679	25649.38
756.017	25525.09
756.355	25605.32
756.693	25468.14
757.031	25557.41
757.368	25282.16
757.706	25348.15
758.044	25222.27
758.381	25292.1
758.719	25005.33
759.056	25161.26
759.394	25095.72
759.731	24885.33
760.068	24881.27
760.405	24782.06
760.743	24722.17
761.08	24746.58
761.417	24544.33
761.754	24573.25
762.091	24584.78
762.428	24380.94
762.765	24355.86
763.102	24377.78
763.438	24264.79
763.775	24127.84
764.112	24121.51
764.449	24131.23
764.785	23988.18
765.122	23876.32
765.458	23653.95
765.795	23848.07
766.131	23686.04
766.467	23605.37
766.804	23399.05
767.14	23349.33
767.476	23428.42
767.812	23203.57
768.148	23269.11
768.485	23209.45
768.821	22890.81
769.157	23018.49
769.492	22913.41
769.828	22850.81
770.164	22697.37
770.5	22610.14
770.836	22705.5
771.171	22512.74
771.507	22513.42
771.842	22232.52
772.178	22256.7
772.513	22264.61
772.849	22244.95
773.184	21987.33
773.519	22086.31
773.855	21856.49
774.19	21847.45
774.525	21808.35
774.86	21732.65
775.195	21724.97
775.53	21437.97
775.865	21459.21
776.2	21247.92
776.535	21139.67
776.87	21184.64
777.205	21084.08
777.539	21081.37
777.874	21010.18
778.209	20804.76
778.543	20807.93
778.878	20754.37
779.212	20708.5
779.547	20558.89
779.881	20611.77
780.215	20432.8
780.55	20499.91
780.884	20402.51
781.218	20238.45
781.552	20276.42
781.886	20073.71
782.22	20056.08
782.554	19905.58
782.888	19833.94
783.222	19764.11
783.556	19630.11
783.889	19682.31
784.223	19503.1
784.557	19425.82
784.89	19492.48
785.224	19296.33
785.557	19225.37
785.891	19227.18
786.224	19210.46
786.558	19125.03
786.891	19026.05
787.224	18967.98
787.557	18836.23
787.891	18827.41
788.224	18791.03
788.557	18785.16
788.89	18668.32
789.223	18436.46
789.556	18540.87
789.888	18454.09
790.221	18423.81
790.554	18318.73
790.887	18250.71
791.219	18252.51
791.552	18199.63
791.884	18009.13
792.217	17960.32
792.549	17928
792.882	17836.71
793.214	17789.48
793.546	17778.18
793.879	17684.17
794.211	17661.12
794.543	17655.47
794.875	17450.05
795.207	17610.72
795.539	17464.29
795.871	17483.95
796.203	17339.32
796.535	17241.02
796.867	17227
797.198	17119.66
797.53	17116.5
797.862	16973
798.193	17045.99
798.525	16894.13
798.856	16937.29
799.188	16673.8
799.519	16670.18
799.85	16640.58
800.182	16655.72
800.513	16662.27
800.844	16460.92
801.175	16528.72
801.506	16457.08
801.837	16392.68
802.168	16306.12
802.499	16282.4
802.83	16164.21
803.161	16179.57
803.491	16231.78
803.822	16108.62
804.153	15965.57
804.483	15947.26
804.814	15871.56
805.145	15822.07
805.475	15831.11
805.805	15759.7
806.136	15660.72
806.466	15709.3
806.796	15706.14
807.126	15622.53
807.457	15548.63
807.787	15564.22
808.117	15395.64
808.447	15371.46
808.777	15390.44
809.107	15398.58
809.436	15293.5
809.766	15255.53
810.096	15141.64
810.426	15255.31
810.755	15152.71
811.085	15158.58
811.414	15021.41
811.744	15044.92
812.073	14948.65
812.403	14969.44
812.732	14811.02
813.061	14846.05
813.39	14774.87
813.719	14742.1
814.049	14851.47
814.378	14687.41
814.707	14560.86
815.036	14700.74
815.365	14527.64
815.693	14434.08
816.022	14505.27
816.351	14422.11
816.68	14393.18
817.008	14404.48
817.337	14267.08
817.665	14206.07
817.994	14250.81
818.322	14249.91
818.651	14166.29
818.979	14133.75
819.307	14237.25
819.636	14175.11
819.964	14042.91
820.292	14089.69
820.62	14041.55
820.948	13970.59
821.276	13981.67
821.604	14096.24
821.932	13992.97
822.259	14045.62
822.587	13983.7
822.915	14020.76
823.243	14049.24
823.57	13905.96
823.898	13975.11
824.225	13883.14
824.553	13835.23
824.88	13930.59
825.207	14025.96
825.535	13911.16
825.862	13992.51
826.189	13893.53
826.516	13979.86
826.843	14009.01
827.17	13961.78
827.497	13878.84
827.824	13945.28
828.151	13931.5
828.478	13883.59
828.805	13995.68
829.131	13836.36
829.458	13877.94
829.785	13900.31
830.111	13921.33
830.438	13939.63
830.764	13847.43
831.09	13918.84
831.417	13826.42
831.743	13980.54
832.069	13882.91
832.395	13767.43
832.722	13898.96
833.048	13823.48
833.374	13841.56
833.7	13711.84
834.026	13719.3
834.351	13778.73
834.677	13736.47
835.003	13759.3
835.329	13758.85
835.654	13711.16
835.98	13654.67
836.306	13704.39
836.631	13563.37
836.956	13635.01
837.282	13672.52
837.607	13578.29
837.932	13516.14
838.258	13624.84
838.583	13560.66
838.908	13428.23
839.233	13461.68
839.558	13354.56
839.883	13395.24
840.208	13304.85
840.533	13321.34
840.858	13398.63
841.182	13364.51
841.507	13315.02
841.832	13194.12
842.156	13242.48
842.481	13168.13
842.805	13228.69
843.13	13138.52
843.454	13137.62
843.778	13039.32
844.103	12983.05
844.427	12972.65
844.751	12994.12
845.075	12975.14
845.399	13008.36
845.723	12844.52
846.047	12883.62
846.371	12731.53
846.695	12779.44
847.019	12600.91
847.343	12664.64
847.666	12525.21
847.99	12472.33
848.313	12495.15
848.637	12363.63
848.96	12351.2
849.284	12360.01
849.607	12255.16
849.931	12216.51
850.254	12145.78
850.577	12071.89
850.9	11976.3
851.223	11988.05
851.546	11949.18
851.869	11849.29
852.192	11887.48
852.515	11779.24
852.838	11770.65
853.161	11747.83
853.483	11700.82
853.806	11637.77
854.129	11657.89
854.451	11549.19
854.774	11520.49
855.096	11468.96
855.419	11452.47
855.741	11463.99
856.063	11388.29
856.385	11327.27
856.708	11338.12
857.03	11249.99
857.352	11258.12
857.674	11207.28
857.996	11207.73
858.318	11134.74
858.64	11105.58
858.961	11159.14
859.283	11044.12
859.605	10970.22
859.926	10948.07
860.248	11003.21
860.57	10984.46
860.891	11007.28
861.212	10867.62
861.534	10904.01
861.855	10769.77
862.176	10801.18
862.498	10825.59
862.819	10843.67
863.14	10715.54
863.461	10716.67
863.782	10672.15
864.103	10705.37
864.424	10609.1
864.745	10628.31
865.065	10583.56
865.386	10595.99
865.707	10523.23
866.027	10560.06
866.348	10514.86
866.668	10532.49
866.989	10515.09
867.309	10429.9
867.63	10447.97
867.95	10471.25
868.27	10367.3
868.59	10417.47
868.91	10367.07
869.23	10286.85
869.55	10359.39
869.87	10442.1
870.19	10308.77
870.51	10318.03
870.83	10281.2
871.15	10273.52
871.469	10236.68
871.789	10276.45
872.109	10190.81
872.428	10231.26
872.748	10217.02
873.067	10207.3
873.386	10149.22
873.706	10170.92
874.025	10083.24
874.344	10071.71
874.663	10062.67
874.982	10057.25
875.301	10121.65
875.62	9989.23
875.939	9914.2
876.258	10066.74
876.577	9953.52
876.896	9989
877.214	9977.03
877.533	9913.3
877.852	9889.12
878.17	9856.58
878.489	9980.42
878.807	9888.89
879.125	9875.11
879.444	9840.31
879.762	9688.67
880.08	9816.13
880.398	9711.27
880.716	9784.71
881.034	9741.1
881.352	9714.43
881.67	9703.13
881.988	9688.22
882.306	9640.76
882.624	9627.2
882.941	9600.54
883.259	9596.02
883.577	9556.92
883.894	9553.08
884.212	9496.13
884.529	9513.08
884.846	9463.82
885.164	9483.03
885.481	9436.93
885.798	9477.6
886.115	9360.77
886.432	9370.71
886.75	9381.11
887.067	9382.69
887.383	9240.77
887.7	9326.2
888.017	9283.94
888.334	9267.21
888.651	9138.63
888.967	9133.43
889.284	9131.17
889.6	9146.54
889.917	9083.26
890.233	9051.63
890.55	9037.39
890.866	9079.65
891.182	8992.87
891.498	8979.76
891.815	8942.02
892.131	8941.35
892.447	8873.33
892.763	8940.22
893.079	8891.4
893.395	8828.13
893.71	8810.05
894.026	8853.44
894.342	8690.28
894.657	8711.07
894.973	8668.59
895.289	8725.53
895.604	8710.84
895.92	8578.42
896.235	8555.37
896.55	8529.83
896.865	8493
897.181	8511.53
897.496	8522.6
897.811	8481.25
898.126	8412.1
898.441	8341.36
898.756	8383.85
899.071	8351.08
899.386	8349.5
899.7	8309.05
900.015	8283.06
900.33	8155.83
900.644	8183.4
900.959	8239.44
901.273	8088.04
901.588	8136.85
901.902	7978.21
902.216	7963.75
902.531	7995.16
902.845	7974.37
903.159	7940.02
903.473	7877.65
903.787	7896.85
904.101	7852.56
904.415	7871.09
904.729	7804.2
905.042	7772.11
905.356	7782.51
905.67	7710.87
905.984	7712
906.297	7620.25
906.611	7612.79
906.924	7648.5
907.237	7538.22
907.551	7591.33
907.864	7492.12
908.177	7493.7
908.491	7408.28
908.804	7462.97
909.117	7354.5
909.43	7310.43
909.743	7363.76
910.056	7276.08
910.368	7281.73
910.681	7239.02
910.994	7158.57
911.307	7188.4
911.619	7110.43
911.932	7122.19
912.244	7096.42
912.557	7055.97
912.869	7054.84
913.181	7013.71
913.494	6993.38
913.806	6963.77
914.118	6916.77
914.43	6914.06
914.742	6955.86
915.054	6862.08
915.366	6807.62
915.678	6833.61
915.99	6774.62
916.302	6678.13
916.613	6694.4
916.925	6717
917.236	6703.89
917.548	6629.54
917.859	6612.82
918.171	6529.43
918.482	6501.86
918.794	6540.28
919.105	6500.06
919.416	6434.52
919.727	6432.03
920.038	6431.58
920.349	6355.43
920.66	6361.75
920.971	6340.06
921.282	6309.33
921.593	6263.68
921.903	6231.36
922.214	6256.9
922.525	6228.88
922.835	6176
923.146	6110.91
923.456	6113.4
923.767	6112.27
924.077	6045.15
924.387	6016
924.697	6004.25
925.008	5992.72
925.318	5958.15
925.628	5876.34
925.938	5943.91
926.248	5871.15
926.558	5827.08
926.867	5881.77
927.177	5826.85
927.487	5781.43
927.796	5727.65
928.106	5738.27
928.416	5736.46
928.725	5670.25
929.034	5675.44
929.344	5689.91
929.653	5595.67
929.962	5585.95
930.271	5585.73
930.581	5517.71
930.89	5529.69
931.199	5464.15
931.508	5445.39
931.817	5464.38
932.125	5453.98
932.434	5369.01
932.743	5363.14
933.051	5367.88
933.36	5344.61
933.669	5299.18
933.977	5289.92
934.286	5293.08
934.594	5236.59
934.902	5216.25
935.21	5208.34
935.519	5209.02
935.827	5139.41
936.135	5159.75
936.443	5121.33
936.751	5092.86
937.059	5110.71
937.367	5049.25
937.674	5014.9
937.982	5084.27
938.29	5013.31
938.597	5000.89
938.905	4959.76
939.213	4947.78
939.52	4888.12
939.827	4910.94
940.135	4880.89
940.442	4824.62
940.749	4770.38
941.056	4832.53
941.363	4742.36
941.67	4772.87
941.977	4701.23
942.284	4700.1
942.591	4757.05
942.898	4624.85
943.205	4671.63
943.511	4618.3
943.818	4610.84
944.125	4578.3
944.431	4600.9
944.738	4557.96
945.044	4531.29
945.35	4489.94
945.657	4504.63
945.963	4473.67
946.269	4445.87
946.575	4462.82
946.881	4408.58
947.187	4392.99
947.493	4395.93
947.799	4371.98
948.105	4338.98
948.41	4294.46
948.716	4295.37
949.022	4320.68
949.327	4299.21
949.633	4233.22
949.938	4222.83
950.244	4226.89
950.549	4190.29
950.854	4169.72
951.16	4176.05
951.465	4147.8
951.77	4108.93
952.075	4092.89
952.38	4117.07
952.685	4131.76
952.99	4031.42
953.294	4026.9
953.599	4041.14
953.904	3993.23
954.209	3970.63
954.513	3994.13
954.818	3920.69
955.122	3940.57
955.426	3933.79
955.731	3865.55
956.035	3854.7
956.339	3864.19
956.643	3845.21
956.948	3837.75
957.252	3825.1
957.556	3804.53
957.86	3770.18
958.163	3798.88
958.467	3743.52
958.771	3731.09
959.075	3747.81
959.378	3732.67
959.682	3695.84
959.985	3673.01
960.289	3654.48
960.592	3608.38
960.896	3628.27
961.199	3590.08
961.502	3588.95
961.805	3564.99
962.108	3549.17
962.411	3548.04
962.714	3515.95
963.017	3521.38
963.32	3530.87
963.623	3482.28
963.926	3481.83
964.228	3472.56
964.531	3474.6
964.833	3451.32
965.136	3398.89
965.438	3406.35
965.741	3360.93
966.043	3386.69
966.345	3383.53
966.648	3340.82
966.95	3332.45
967.252	3296.98
967.554	3322.06
967.856	3282.06
968.158	3241.16
968.46	3242.51
968.761	3226.92
969.063	3174.49
969.365	3211.1
969.666	3222.85
969.968	3129.07
970.269	3155.51
970.571	3190.31
970.872	3185.57
971.174	3161.16
971.475	3120.26
971.776	3081.16
972.077	3086.13
972.378	3074.38
972.679	3063.99
972.98	3045.68
973.281	3050.65
973.582	3052.24
973.883	2996.87
974.183	3011.79
974.484	3001.84
974.785	2981.5
975.085	2932.01
975.386	2948.28
975.686	2915.97
975.986	2930.43
976.287	2901.28
976.587	2897.89
976.887	2880.04
977.187	2902.64
977.487	2876.42
977.787	2823.77
978.087	2817.67
978.387	2816.31
978.687	2761.17
978.987	2798.01
979.286	2773.37
979.586	2747.84
979.885	2772.24
980.185	2739.02
980.484	2723.66
980.784	2723.66
981.083	2694.96
981.382	2665.81
981.682	2714.84
981.981	2680.95
982.28	2659.03
982.579	2642.08
982.878	2648.18
983.177	2611.12
983.475	2606.82
983.774	2591.23
984.073	2576.54
984.372	2583.77
984.67	2565.47
984.969	2581.74
985.267	2571.12
985.566	2541.74
985.864	2524.79
986.162	2539.03
986.461	2516.21
986.759	2482.31
987.057	2484.79
987.355	2482.53
987.653	2473.04
987.951	2387.85
988.249	2441.86
988.547	2432.14
988.844	2441.18
989.142	2407.28
989.44	2396.66
989.737	2389.65
990.035	2375.19
990.332	2363.44
990.63	2366.83
990.927	2352.59
991.224	2336.32
991.521	2297.68
991.819	2326.83
992.116	2297.68
992.413	2305.59
992.71	2300.62
993.006	2257
993.303	2246.38
993.6	2231.92
993.897	2271.01
994.193	2246.16
994.49	2241.64
994.787	2209.77
995.083	2194.63
995.379	2170.9
995.676	2156.67
995.972	2158.47
996.268	2185.37
996.565	2141.07
996.861	2106.5
997.157	2161.64
997.453	2104.46
997.749	2073.73
998.044	2094.97
998.34	2074.63
998.636	2079.83
998.932	2035.09
999.227	2038.48
999.523	2028.08
999.818	2073.73
1000.114	1989.21
1000.409	2041.64
1000.704	2026.95
1001	2001.64
1001.295	1980.85
1001.59	1950.8
1001.885	1997.57
1002.18	1923.45
1002.475	1956.67
1002.77	1930.91
1003.065	1911.7
1003.359	1911.48
1003.654	1908.99
1003.949	1895.2
1004.243	1881.87
1004.538	1878.71
1004.832	1882.55
1005.127	1844.36
1005.421	1831.25
1005.715	1821.99
1006.009	1857.01
1006.304	1821.76
1006.598	1777.69
1006.892	1789.9
1007.186	1746.73
1007.48	1757.13
1007.773	1764.36
1008.067	1723.68
1008.361	1741.99
1008.655	1702.22
1008.948	1704.93
1009.242	1728.2
1009.535	1706.73
1009.829	1680.07
1010.122	1703.35
1010.415	1670.35
1010.708	1641.43
1011.001	1671.48
1011.295	1618.6
1011.588	1627.19
1011.881	1625.38
1012.173	1594.2
1012.466	1606.85
1012.759	1579.73
1013.052	1578.38
1013.344	1565.5
1013.637	1553.52
1013.93	1562.78
1014.222	1565.04
1014.514	1562.56
1014.807	1538.38
1015.099	1521.2
1015.391	1502.67
1015.683	1496.8
1015.976	1504.25
1016.268	1497.47
1016.56	1457.7
1016.851	1472.84
1017.143	1462
1017.435	1492.28
1017.727	1446.18
1018.018	1429.45
1018.31	1421.09
1018.602	1403.92
1018.893	1393.07
1019.185	1401.21
1019.476	1381.77
1019.767	1383.35
1020.058	1361.89
1020.35	1371.6
1020.641	1354.2
1020.932	1327.08
1021.223	1327.99
1021.514	1320.76
1021.804	1307.42
1022.095	1314.43
1022.386	1300.19
1022.677	1299.74
1022.967	1313.3
1023.258	1264.49
1023.548	1269.01
1023.839	1274.88
1024.129	1269.68
1024.419	1256.58
1024.709	1239.63
1025	1253.64
1025.29	1220.65
1025.58	1204.6
1025.87	1182.45
1026.16	1192.62
1026.449	1193.75
1026.739	1200.76
1027.029	1205.73
1027.319	1144.94
1027.608	1178.61
1027.898	1159.4
1028.187	1132.06
1028.477	1123.25
1028.766	1142.46
1029.055	1148.56
1029.344	1115.34
1029.634	1099.75
1029.923	1096.13
1030.212	1112.4
1030.501	1089.58
1030.79	1092.29
1031.078	1118.28
1031.367	1076.47
1031.656	1075.56
1031.945	1071.05
1032.233	1036.24
1032.522	1040.09
1032.81	1021.1
1033.099	1070.59
1033.387	1012.52
1033.675	997.6
1033.963	1012.97
1034.251	1022.68
1034.54	980.65
1034.828	991.05
1035.116	966.64
1035.403	971.61
1035.691	973.87
1035.979	968
1036.267	949.69
1036.554	966.19
1036.842	959.86
1037.129	936.36
1037.417	922.12
1037.704	929.35
1037.992	926.64
1038.279	903.82
1038.566	929.35
1038.853	929.35
1039.14	929.35
