Data from hue_26_FLMS001491_00060.txt Node
Date: Tue Feb 07 17:14:13 GMT 2017
User: dcchb
Spectrometer: FLMS00149
Trigger mode: 0
Integration Time (sec): 2.000000E-2
Scans to average: 10
Electric dark correction enabled: true
Nonlinearity correction enabled: false
Boxcar width: 0
XAxis mode: Wavelengths
Number of Pixels in Spectrum: 2048
>>>>>Begin Spectral Data<<<<<
341.393	-14.52
341.776	-14.52
342.16	-14.52
342.543	-57.46
342.927	-76.89
343.31	-67.17
343.693	-75.76
344.077	-77.79
344.46	-60.85
344.843	-50.9
345.226	-40.96
345.61	-23.56
345.993	-13.16
346.376	-15.2
346.759	23.22
347.142	32.49
347.525	33.61
347.908	64.8
348.291	80.39
348.674	78.81
349.057	112.03
349.44	138.7
349.823	146.61
350.206	169.88
350.588	207.62
350.971	210.11
351.354	201.07
351.737	239.71
352.119	232.48
352.502	236.32
352.884	265.25
353.267	284.23
353.65	300.73
354.032	291.69
354.414	289.43
354.797	302.31
355.179	320.16
355.562	306.38
355.944	331.69
356.326	334.85
356.709	333.95
357.091	327.62
357.473	330.1
357.855	309.54
358.238	333.04
358.62	341.18
359.002	329.65
359.384	334.62
359.766	342.53
360.148	343.89
360.53	338.24
360.912	321.74
361.294	328.75
361.676	333.27
362.057	336.88
362.439	347.73
362.821	330.1
363.203	310.67
363.584	353.83
363.966	309.77
364.348	322.19
364.729	323.78
365.111	312.7
365.493	342.53
365.874	326.94
366.256	314.51
366.637	301.86
367.019	309.77
367.4	296.66
367.781	320.61
368.163	309.99
368.544	324.23
368.925	322.65
369.306	316.32
369.688	333.27
370.069	320.39
370.45	340.05
370.831	306.38
371.212	304.12
371.593	306.38
371.974	299.37
372.355	297.79
372.736	328.3
373.117	305.25
373.498	311.12
373.879	316.32
374.26	313.61
374.641	328.52
375.021	323.1
375.402	331.23
375.783	318.81
376.163	315.64
376.544	320.61
376.925	331.23
377.305	305.25
377.686	321.29
378.066	322.65
378.447	326.71
378.827	338.24
379.208	338.24
379.588	326.26
379.968	326.04
380.349	337.34
380.729	318.13
381.109	333.72
381.489	349.31
381.87	336.43
382.25	340.95
382.63	340.05
383.01	338.69
383.39	343.44
383.77	347.5
384.15	336.43
384.53	365.81
384.91	357.22
385.29	340.05
385.67	343.89
386.049	366.26
386.429	366.94
386.809	367.62
387.189	368.97
387.568	330.56
387.948	367.84
388.328	351.57
388.707	369.2
389.087	364.68
389.466	359.26
389.846	356.32
390.225	367.17
390.605	366.04
390.984	360.84
391.363	370.56
391.743	378.01
392.122	374.4
392.501	352.02
392.881	380.27
393.26	397.9
393.639	367.39
394.018	380.72
394.397	382.76
394.776	394.74
395.155	399.71
395.534	372.36
395.913	346.38
396.292	404.68
396.671	385.24
397.05	411.46
397.429	391.35
397.808	391.8
398.186	381.18
398.565	392.02
398.944	372.82
399.323	399.48
399.701	392.93
400.08	387.05
400.458	406.26
400.837	401.74
401.215	416.66
401.594	405.81
401.972	389.09
402.351	393.15
402.729	409.65
403.107	418.69
403.486	403.1
403.864	393.15
404.242	403.55
404.62	408.97
404.999	406.94
405.377	413.94
405.755	421.85
406.133	432.7
406.511	409.42
406.889	427.28
407.267	438.35
407.645	435.86
408.023	428.86
408.401	419.59
408.779	433.38
409.156	432.7
409.534	425.47
409.912	447.39
410.29	446.03
410.667	449.65
411.045	454.39
411.422	462.08
411.8	476.32
412.178	454.39
412.555	473.38
412.933	469.99
413.31	489.65
413.687	486.26
414.065	488.74
414.442	482.64
414.819	493.04
415.197	469.08
415.574	480.16
415.951	491.91
416.328	503.21
416.705	506.37
417.082	524.9
417.46	507.73
417.837	503.43
418.214	499.37
418.591	517.22
418.967	530.33
419.344	526.26
419.721	520.38
420.098	528.74
420.475	539.14
420.852	536.88
421.228	521.96
421.605	535.97
421.982	531.68
422.358	549.31
422.735	549.76
423.111	533.26
423.488	543.88
423.864	559.25
424.241	558.35
424.617	568.74
424.994	554.96
425.37	573.04
425.746	567.16
426.123	596.31
426.499	573.71
426.875	582.08
427.251	599.48
427.627	613.49
428.003	624.11
428.379	598.57
428.756	614.39
429.132	605.8
429.507	634.5
429.883	630.89
430.259	624.79
430.635	641.96
431.011	639.7
431.387	646.93
431.763	656.2
432.138	642.19
432.514	662.75
432.89	663.43
433.265	697.55
433.641	668.17
434.016	686.25
434.392	674.95
434.767	674.5
435.143	703.65
435.518	719.02
435.894	692.35
436.269	715.4
436.644	719.92
437.02	700.04
437.395	695.74
437.77	717.44
438.145	756.31
438.52	728.96
438.895	735.52
439.271	740.49
439.646	757.44
440.021	763.54
440.395	775.29
440.77	778.23
441.145	747.04
441.52	790.66
441.895	780.49
442.27	803.31
442.645	777.32
443.019	782.3
443.394	789.3
443.769	784.33
444.143	796.08
444.518	816.65
444.892	802.18
445.267	827.04
445.641	825.46
446.016	815.97
446.39	813.26
446.764	835.4
447.139	830.66
447.513	837.44
447.887	869.53
448.262	858.23
448.636	855.06
449.01	862.75
449.384	846.7
449.758	860.94
450.132	892.12
450.506	881.5
450.88	886.02
451.254	891.22
451.628	889.86
452.002	894.16
452.376	914.5
452.75	930.77
453.123	925.34
453.497	941.61
453.871	957.43
454.244	951.56
454.618	972.35
454.992	956.75
455.365	974.61
455.739	994.49
456.112	1010.76
456.486	1019.58
456.859	1010.54
457.232	1027.71
457.606	1032.46
457.979	1039.92
458.352	1048.5
458.725	1072.01
459.099	1052.8
459.472	1093.25
459.845	1110.65
460.218	1105
460.591	1118.78
460.964	1112.46
461.337	1124.89
461.71	1173.25
462.083	1185.9
462.456	1172.34
462.829	1183.19
463.201	1204.66
463.574	1201.27
463.947	1229.29
464.32	1230.42
464.692	1253.02
465.065	1262.51
465.438	1264.32
465.81	1276.52
466.183	1336.41
466.555	1323.75
466.928	1329.85
467.3	1347.03
467.672	1356.29
468.045	1388.61
468.417	1406.23
468.789	1411.21
469.161	1417.76
469.534	1456.63
469.906	1461.83
470.278	1494.37
470.65	1494.59
471.022	1533.91
471.394	1535.95
471.766	1568.26
472.138	1605.33
472.51	1626.57
472.882	1624.99
473.253	1690.52
473.625	1703.85
473.997	1753.12
474.369	1729.39
474.74	1746.56
475.112	1786.11
475.484	1809.84
475.855	1872.89
476.227	1871.08
476.598	1908.59
476.97	1915.6
477.341	1981.13
477.713	1996.05
478.084	2013.45
478.455	2101.36
478.827	2107.91
479.198	2156.95
479.569	2199.66
479.94	2248.92
480.311	2260.68
480.682	2339.54
481.053	2368.02
481.424	2427.68
481.795	2449.14
482.166	2490.05
482.537	2563.49
482.908	2602.13
483.279	2623.6
483.65	2677.39
484.021	2762.58
484.391	2757.39
484.762	2786.08
485.133	2886.42
485.503	2865.18
485.874	2955.57
486.244	3028.79
486.615	3048.9
486.985	3123.7
487.356	3164.38
487.726	3211.84
488.097	3300.65
488.467	3276.47
488.837	3385.39
489.207	3417.03
489.578	3479.85
489.948	3560.75
490.318	3585.84
490.688	3631.71
491.058	3686.85
491.428	3723.01
491.798	3797.36
492.168	3833.06
492.538	3860.63
492.908	3934.98
493.278	3982.21
493.648	4018.14
494.017	4060.4
494.387	4073.96
494.757	4126.16
495.126	4194.64
495.496	4239.38
495.866	4268.53
496.235	4352.6
496.605	4319.83
496.974	4405.7
497.344	4424.91
497.713	4467.62
498.082	4533.61
498.452	4546.49
498.821	4639.82
499.19	4591.46
499.559	4670.78
499.928	4683.89
500.298	4732.7
500.667	4793.72
501.036	4744.9
501.405	4830.55
501.774	4806.37
502.143	4926.59
502.512	4943.99
502.88	4937.67
503.249	5003.2
503.618	4995.07
503.987	4989.64
504.356	5034.61
504.724	5100.83
505.093	5148.51
505.462	5108.06
505.83	5176.3
506.199	5212.01
506.567	5252.69
506.936	5275.29
507.304	5352.12
507.672	5329.07
508.041	5389.41
508.409	5405.23
508.777	5488.61
509.145	5504.88
509.514	5516.86
509.882	5543.75
510.25	5528.39
510.618	5557.76
510.986	5545.79
511.354	5594.6
511.722	5663.98
512.09	5742.62
512.458	5684.99
512.826	5714.6
513.193	5743.3
513.561	5786.68
513.929	5840.69
514.297	5836.85
514.664	5901.71
515.032	5899.9
515.4	5977.19
515.767	5932.89
516.135	6008.15
516.502	5974.7
516.869	6031.42
517.237	6075.94
517.604	6047.24
517.972	6079.78
518.339	6132.66
518.706	6203.4
519.073	6206.11
519.44	6240.01
519.808	6242.94
520.175	6224.64
520.542	6378.08
520.909	6306.22
521.276	6378.31
521.643	6329.27
522.009	6402.04
522.376	6427.35
522.743	6549.6
523.11	6534.46
523.477	6552.31
523.843	6622.59
524.21	6714.57
524.577	6671.63
524.943	6725.19
525.31	6779.43
525.676	6760.22
526.043	6869.37
526.409	6895.36
526.776	6921.12
527.142	6937.84
527.508	6971.74
527.874	7057.16
528.241	7058.29
528.607	7073.43
528.973	7105.29
529.339	7137.38
529.705	7211.05
530.071	7257.61
530.437	7248.34
530.803	7259.64
531.169	7354.78
531.535	7351.39
531.901	7356.81
532.267	7374.89
532.632	7475
532.998	7519.29
533.364	7546.19
533.73	7543.25
534.095	7632.29
534.461	7591.38
534.826	7683.36
535.192	7701.21
535.557	7796.35
535.923	7709.57
536.288	7750.47
536.653	7875.89
537.019	7857.59
537.384	7906.63
537.749	7937.14
538.114	7901.2
538.479	7981.88
538.845	8031.14
539.21	8049.9
539.575	8038.6
539.94	8083.8
540.305	8149.56
540.67	8177.13
541.034	8187.98
541.399	8255.09
541.764	8194.98
542.129	8336
542.494	8341.42
542.858	8291.25
543.223	8374.19
543.587	8451.92
543.952	8395.2
544.316	8504.13
544.681	8536.67
545.045	8562.66
545.41	8576.22
545.774	8595.2
546.138	8638.13
546.503	8638.59
546.867	8698.47
547.231	8699.38
547.595	8741.18
547.959	8745.7
548.324	8822.99
548.688	8797.68
549.052	8852.82
549.416	8896.66
549.779	8913.83
550.143	8946.83
550.507	9046.94
550.871	9057.78
551.235	9060.72
551.599	9108.63
551.962	9102.08
552.326	9097.33
552.689	9171
553.053	9141.62
553.417	9229.76
553.78	9345.46
554.143	9240.83
554.507	9341.62
554.87	9380.71
555.234	9420.94
555.597	9354.27
555.96	9473.37
556.323	9521.73
556.686	9456.42
557.05	9550.88
557.413	9540.48
557.776	9603.76
558.139	9660.25
558.502	9698.45
558.865	9669.97
559.228	9756.98
559.59	9744.09
559.953	9807.14
560.316	9809.86
560.679	9893.92
561.041	9911.32
561.404	9969.4
561.767	10056.18
562.129	9989.51
562.492	10041.04
562.854	10086.46
563.217	10136.85
563.579	10181.37
563.941	10220.69
564.304	10262.72
564.666	10262.72
565.028	10225.44
565.39	10289.16
565.753	10380.69
566.115	10430.86
566.477	10448.71
566.839	10512.44
567.201	10547.46
567.563	10589.95
567.925	10611.87
568.287	10663.17
568.648	10645.31
569.01	10742.94
569.372	10786.1
569.734	10771.19
570.095	10819.55
570.457	10981.12
570.819	10934.8
571.18	10977.28
571.542	11131.18
571.903	11105.64
572.265	11075.13
572.626	11153.1
572.987	11297.5
573.349	11321.45
573.71	11338.85
574.071	11338.63
574.432	11418.85
574.794	11470.6
575.155	11616.36
575.516	11626.08
575.877	11736.13
576.238	11782.68
576.599	11858.84
576.96	11862.68
577.32	11911.04
577.681	12090.25
578.042	12206.4
578.403	12266.97
578.763	12296.12
579.124	12451.14
579.485	12551.03
579.845	12672.15
580.206	12765.03
580.566	12916.44
580.927	12994.63
581.287	13178.35
581.648	13277.33
582.008	13441.85
582.368	13580.83
582.728	13800.03
583.089	13812.69
583.449	14053.59
583.809	14295.39
584.169	14381.94
584.529	14545.55
584.889	14838.88
585.249	14783.28
585.609	15067.12
585.969	15360.67
586.329	15480.44
586.688	15753.43
587.048	15874.55
587.408	16068
587.768	16305.96
588.127	16542.56
588.487	16820.97
588.846	17061.87
589.206	17282.88
589.565	17582.08
589.925	17898.91
590.284	18117.66
590.643	18430.87
591.003	18608.95
591.362	19020.91
591.721	19267.23
592.08	19493.44
592.44	19811.17
592.799	20104.95
593.158	20349.69
593.517	20689.12
593.876	20927.08
594.235	21126.85
594.593	21513.28
594.952	21856.09
595.311	22113.26
595.67	22591.21
596.029	22898.32
596.387	23080.47
596.746	23414.7
597.104	23626.89
597.463	23990.27
597.822	24329.7
598.18	24517.26
598.538	24820.53
598.897	25241.31
599.255	25391.14
599.613	25935.76
599.972	26150.22
600.33	26443.77
600.688	26683.76
601.046	26982.96
601.404	27376.17
601.762	27615.49
602.12	28119.66
602.478	28199.2
602.836	28554.45
603.194	28586.99
603.552	28977.26
603.91	29093.87
604.268	29446.85
604.625	29733.4
604.983	30202.54
605.341	30217.45
605.698	30654.73
606.056	30797.33
606.413	31004.33
606.771	31436.41
607.128	31631.88
607.485	31590.75
607.843	31945.77
608.2	32326.33
608.557	32692.42
608.914	32782.13
609.272	33056.25
609.629	33330.37
609.986	33784.82
610.343	33748.66
610.7	34074.3
611.057	34150.91
611.414	34381.19
611.771	34514.97
612.127	34923.09
612.484	35043.54
612.841	35284.89
613.198	35434.94
613.554	35597.43
613.911	35880.13
614.267	36052.33
614.624	36121.25
614.98	36437.18
615.337	36656.38
615.693	36783.16
616.05	36909.48
616.406	37217.72
616.762	37304.5
617.118	37288.45
617.475	37583.36
617.831	37773.64
618.187	37860.19
618.543	37995.33
618.899	38444.13
619.255	38361.19
619.611	38502.89
619.967	38647.29
620.323	38927.51
620.678	38724.58
621.034	38995.3
621.39	38935.64
621.746	39094.51
622.101	39553.71
622.457	39605.23
622.812	39524.1
623.168	39750.08
623.523	39765
623.879	39866.01
624.234	39803.64
624.589	39964.32
624.945	40181.26
625.3	40199.11
625.655	40274.59
626.01	40458.09
626.365	40451.99
626.72	40490.4
627.075	40443.85
627.43	40532.21
627.785	40521.14
628.14	40745.99
628.495	40885.87
628.85	40782.15
629.205	40638.87
629.559	41076.15
629.914	40819.44
630.269	41099.65
630.623	40974.91
630.978	40962.71
631.332	41076.15
631.687	41312.53
632.041	41097.39
632.396	41175.36
632.75	41070.28
633.104	41308.24
633.459	41117.28
633.813	41095.59
634.167	41204.96
634.521	41072.54
634.875	41334.68
635.229	41284.06
635.583	41201.57
635.937	41141.23
636.291	41127.68
636.645	41136.26
636.999	41148.24
637.352	41202.93
637.706	41074.34
638.06	41286.32
638.413	41183.49
638.767	40875.7
639.121	40996.83
639.474	40874.35
639.828	41050.16
640.181	41064.4
640.534	41058.75
640.888	40958.64
641.241	41046.32
641.594	40937.62
641.947	41136.71
642.301	41062.82
642.654	41143.27
643.007	41092.2
643.36	40949.6
643.713	40877.96
644.066	41011.75
644.419	40871.41
644.771	40734.01
645.124	40268.49
645.477	40209.06
645.83	40078.66
646.182	39965.45
646.535	39846.35
646.888	39890.19
647.24	39682.52
647.593	40016.52
647.945	39854.49
648.298	39682.52
648.65	39627.6
649.002	39528.4
649.355	39802.29
649.707	39714.15
650.059	39919.57
650.411	40405.21
650.763	40461.48
651.115	40776.05
651.467	40593.68
651.819	40655.6
652.171	40443.17
652.523	40512.1
652.875	40498.99
653.227	40381.48
653.578	40577.41
653.93	40430.74
654.282	40337.64
654.633	40263.29
654.985	40360.01
655.337	40388.71
655.688	40375.38
656.039	40587.8
656.391	40233.69
656.742	40294.25
657.094	40365.89
657.445	40498.54
657.796	40315.49
658.147	40278.21
658.498	40221.94
658.849	40360.92
659.2	40301.71
659.551	40235.5
659.902	40277.98
660.253	40206.12
660.604	40375.61
660.955	40103.52
661.306	40345.32
661.656	40250.18
662.007	40364.53
662.358	40339.22
662.708	40305.55
663.059	40294.03
663.409	39979.46
663.76	40331.09
664.11	40136.29
664.461	40296.51
664.811	40374.02
665.161	40223.07
665.511	40081.6
665.862	40205.89
666.212	40251.99
666.562	40226
666.912	40102.84
667.262	40045.9
667.612	40156.85
667.962	40032.11
668.312	39987.59
668.662	40209.51
669.011	40152.11
669.361	40065.56
669.711	40000.93
670.06	39904.66
670.41	39889.29
670.76	39995.28
671.109	40004.32
671.459	39945.33
671.808	39897.2
672.157	40081.38
672.507	39755.73
672.856	39799.12
673.205	39866.24
673.554	39845.22
673.904	39865.11
674.253	40044.77
674.602	39882.28
674.951	39393.71
675.3	39171.34
675.649	39838.22
675.998	39732.68
676.346	39727.49
676.695	39830.08
677.044	39585.57
677.393	39628.05
677.741	39867.6
678.09	39508.96
678.438	39615.4
678.787	39625.79
679.135	39594.38
679.484	39331.79
679.832	39523.65
680.181	39321.62
680.529	39367.95
680.877	39193.04
681.225	39099.48
681.573	39478.68
681.922	39146.03
682.27	38938.13
682.618	39097.67
682.966	38922.54
683.314	39043.66
683.661	38773.61
684.009	38755.31
684.357	38643.45
684.705	38670.79
685.053	38754.63
685.4	38548.53
685.748	38530.23
686.095	38443.68
686.443	38395.32
686.79	38276
687.138	38314.64
687.485	38378.6
687.832	38149.22
688.18	38186.06
688.527	37981.09
688.874	38052.5
689.221	37979.96
689.568	37873.75
689.915	37766.18
690.262	37807.31
690.609	37754.66
690.956	37502.46
691.303	37460.65
691.65	37442.57
691.997	37355.12
692.344	37076.71
692.69	37050.49
693.037	37057.95
693.383	36855.47
693.73	37022.25
694.077	36674.23
694.423	36652.31
694.769	36597.17
695.116	36536.38
695.462	36538.42
695.808	36448.02
696.155	36474.24
696.501	36214.13
696.847	36171.65
697.193	35972.56
697.539	36052.55
697.885	35769.85
698.231	35740.7
698.577	35565.79
698.923	35650.08
699.269	35516.98
699.614	35228.85
699.96	35298.22
700.306	35292.8
700.651	35000.38
700.997	35025.24
701.342	35096.65
701.688	34957.67
702.033	34874.73
702.379	34758.58
702.724	34722.65
703.069	34772.81
703.415	34408.53
703.76	34341.41
704.105	34457.12
704.45	34360.85
704.795	34031.59
705.14	34019.61
705.485	34024.36
705.83	33965.15
706.175	33863.46
706.52	33801.54
706.865	33727.87
707.209	33674.31
707.554	33459.63
707.899	33511.83
708.243	33483.58
708.588	33413.3
708.932	33110.94
709.277	33186.19
709.621	33157.94
709.966	32931.96
710.31	32923.37
710.654	32708.91
710.998	32877.05
711.342	32882.02
711.687	32755.47
712.031	32654.68
712.375	32446.32
712.719	32509.37
713.063	32406.55
713.407	32488.58
713.75	32279.09
714.094	32218.31
714.438	32165.88
714.782	32222.6
715.125	32048.14
715.469	32084.98
715.812	31900.12
716.156	31772.89
716.499	31901.48
716.843	31933.12
717.186	31700.35
717.53	31888.82
717.873	31779.22
718.216	31686.57
718.559	31636.4
718.902	31244.55
719.246	31354.6
719.589	31242.96
719.932	31281.38
720.275	31111.67
720.617	31210.87
720.96	31072.35
721.303	31041.16
721.646	31070.54
721.989	30868.74
722.331	30989.86
722.674	30889.75
723.016	30864.67
723.359	30798.91
723.701	30899.02
724.044	30579.03
724.386	30513.94
724.729	30758.23
725.071	30532.47
725.413	30485.24
725.755	30350.11
726.097	30289.09
726.439	30303.33
726.782	30241.18
727.124	30378.13
727.465	30064.46
727.807	30238.47
728.149	30057.46
728.491	30015.2
728.833	29976.1
729.175	29979.04
729.516	29955.09
729.858	29877.35
730.199	29887.07
730.541	29811.14
730.882	29803.23
731.224	29831.7
731.565	29715.32
731.906	29654.08
732.248	29696.56
732.589	29494.31
732.93	29439.85
733.271	29390.81
733.612	29427.64
733.953	29471.48
734.294	29399.4
734.635	29323.92
734.976	29419.51
735.317	29168.44
735.658	29156.01
735.999	29098.39
736.339	29134.32
736.68	29250.47
737.021	28903.14
737.361	28979.29
737.702	29144.26
738.042	28910.6
738.383	28874.66
738.723	28894.78
739.063	28833.99
739.404	28953.31
739.744	28843.93
740.084	28653.2
740.424	28705.63
740.764	28641.68
741.104	28691.84
741.444	28548.8
741.784	28346.77
742.124	28580.21
742.464	28489.59
742.804	28457.5
743.143	28438.29
743.483	28299.09
743.823	28252.99
744.162	28235.59
744.502	28228.35
744.841	28058.41
745.181	28261.8
745.52	28102.48
745.86	28218.18
746.199	28105.42
746.538	28102.03
746.877	28067
747.216	27991.75
747.556	27971.19
747.895	27893.9
748.234	27832.21
748.573	27893.22
748.911	27796.27
749.25	27795.14
749.589	27645.32
749.928	27738.88
750.267	27602.83
750.605	27676.96
750.944	27483.29
751.283	27357.19
751.621	27511.31
751.96	27273.12
752.298	27394.25
752.636	27369.17
752.975	27256.85
753.313	27208.04
753.651	27323.52
753.989	27174.37
754.327	27204.43
754.666	26857.32
755.004	26993.36
755.342	27036.52
755.679	26884.66
756.017	26775.96
756.355	26857.99
756.693	26727.83
757.031	26765.12
757.368	26763.08
757.706	26650.77
758.044	26540.26
758.381	26480.83
758.719	26350.21
759.056	26474.95
759.394	26362.19
759.731	26171.46
760.068	26198.35
760.405	26126.71
760.743	26007.85
761.08	26105.47
761.417	25963.78
761.754	25892.14
762.091	25748.19
762.428	25566.5
762.765	25516.33
763.102	25630.23
763.438	25540.51
763.775	25306.85
764.112	25427.07
764.449	25348.43
764.785	25264.36
765.122	25110.02
765.458	25168.77
765.795	24983.02
766.131	24965.61
766.467	24974.88
766.804	24808.1
767.14	24649.46
767.476	24684.49
767.812	24623.48
768.148	24599.97
768.485	24403.14
768.821	24344.39
769.157	24242.02
769.492	24234.11
769.828	24222.13
770.164	23960.67
770.5	23955.47
770.836	23972.87
771.171	23860.79
771.507	23749.6
771.842	23573.11
772.178	23622.37
772.513	23582.83
772.849	23350.06
773.184	23295.83
773.519	23291.31
773.855	23166.34
774.19	22987.36
774.525	22962.73
774.86	23066.68
775.195	22882.73
775.53	22827.59
775.865	22670.31
776.2	22535.17
776.535	22442.74
776.87	22388.96
777.205	22396.87
777.539	22235.07
777.874	22267.15
778.209	22068.29
778.543	22067.16
778.878	21894.74
779.212	21874.85
779.547	21771.35
779.881	21888.63
780.215	21696.77
780.55	21703.1
780.884	21554.63
781.218	21587.4
781.552	21466.72
781.886	21281.64
782.22	21137.24
782.554	21158.94
782.888	20970.69
783.222	20922.78
783.556	20848.21
783.889	20845.27
784.223	20678.5
784.557	20577.93
784.89	20692.51
785.224	20440.31
785.557	20467.65
785.891	20391.05
786.224	20324.83
786.558	20406.64
786.891	20083.71
787.224	20030.38
787.557	19950.61
787.891	19932.98
788.224	19897.27
788.557	19803.26
788.89	19752.19
789.223	19872.42
789.556	19595.36
789.888	19609.37
790.221	19477.4
790.554	19342.94
790.887	19318.98
791.219	19337.06
791.552	19254.35
791.884	19126.22
792.217	18991.53
792.549	19006.9
792.882	18896.62
793.214	18797.64
793.546	18931.65
793.879	18661.15
794.211	18662.05
794.543	18654.59
794.875	18622.28
795.207	18669.06
795.539	18550.64
795.871	18377.31
796.203	18341.16
796.535	18298.22
796.867	18230.42
797.198	18140.94
797.53	18145
797.862	17994.27
798.193	18091.45
798.525	17979.36
798.856	17991.33
799.188	17830.21
799.519	17707.27
799.85	17742.08
800.182	17719.25
800.513	17652.81
800.844	17489.88
801.175	17551.57
801.506	17588.63
801.837	17473.38
802.168	17419.15
802.499	17313.16
802.83	17240.17
803.161	17175.99
803.491	17089.44
803.822	17148.19
804.153	17083.34
804.483	16902.1
804.814	16811.25
805.145	16782.1
805.475	16767.19
805.805	16724.25
806.136	16820.07
806.466	16722.22
806.796	16630.47
807.126	16578.26
807.457	16498.72
807.787	16503.69
808.117	16464.14
808.447	16432.05
808.777	16419.85
809.107	16346.41
809.436	16324.03
809.766	16269.57
810.096	16138.28
810.426	16033.87
810.755	16122.46
811.085	16080.2
811.414	16057.83
811.744	15882.24
812.073	15920.2
812.403	15875.01
812.732	15785.52
813.061	15760.21
813.39	15657.84
813.719	15664.39
814.049	15757.95
814.378	15671.85
814.707	15532.87
815.036	15515.24
815.365	15534.68
815.693	15351.18
816.022	15402.25
816.351	15324.06
816.68	15308.47
817.008	15362.93
817.337	15150.96
817.665	15166.1
817.994	15178.98
818.322	15164.97
818.651	14964.97
818.979	15012.66
819.307	15062.6
819.636	15034.35
819.964	14878.2
820.292	14957.74
820.62	14913.22
820.948	14796.39
821.276	14937.4
821.604	14845.65
821.932	14908.03
822.259	14970.4
822.587	14845.88
822.915	14830.74
823.243	14847.46
823.57	14791.87
823.898	14920
824.225	14803.62
824.553	14799.55
824.88	14802.27
825.207	14834.36
825.535	14767.92
825.862	14797.75
826.189	14717.75
826.516	14837.29
826.843	14861.25
827.17	14815.6
827.497	14837.97
827.824	14792.77
828.151	14844.3
828.478	14868.25
828.805	14905.99
829.131	14753.45
829.458	14720.01
829.785	14749.61
830.111	14779.67
830.438	14857.86
830.764	14764.53
831.09	14892.89
831.417	14709.16
831.743	14759.33
832.069	14718.88
832.395	14687.92
832.722	14743.06
833.048	14691.53
833.374	14606.57
833.7	14612.67
834.026	14619.45
834.351	14615.83
834.677	14600.01
835.003	14557.07
835.329	14571.54
835.654	14616.06
835.98	14468.04
836.306	14491.31
836.631	14463.74
836.956	14532.89
837.282	14454.25
837.607	14404.08
837.932	14407.25
838.258	14444.08
838.583	14408.15
838.908	14332.45
839.233	14332.22
839.558	14268.04
839.883	14235.05
840.208	14221.72
840.533	14141.49
840.858	14237.08
841.182	14261.04
841.507	14218.1
841.832	14137.42
842.156	14131.55
842.481	14041.16
842.805	14007.48
843.13	13970.2
843.454	13942.4
843.778	13899.24
844.103	13821.73
844.427	13834.16
844.751	13820.6
845.075	13718
845.399	13740.37
845.723	13639.81
846.047	13642.75
846.371	13569.08
846.695	13531.34
847.019	13449.76
847.343	13425.81
847.666	13354.62
847.99	13290.22
848.313	13251.57
848.637	13177.68
848.96	13168.64
849.284	13176.77
849.607	13053.39
849.931	13087.73
850.254	12896.33
850.577	12888.42
850.9	12823.34
851.223	12800.74
851.546	12680.06
851.869	12637.8
852.192	12683.68
852.515	12472.16
852.838	12514.87
853.161	12548.09
853.483	12429
853.806	12308.77
854.129	12291.15
854.451	12366.62
854.774	12292.05
855.096	12190.36
855.419	12144.03
855.741	12200.53
856.063	12058.84
856.385	12088.44
856.708	12066.07
857.03	11974.32
857.352	12023.81
857.674	11981.1
857.996	11864.49
858.318	11852.97
858.64	11805.28
858.961	11792.85
859.283	11769.13
859.605	11795.34
859.926	11734.32
860.248	11675.12
860.57	11696.13
860.891	11642.58
861.212	11506.31
861.534	11609.13
861.855	11537.72
862.176	11526.87
862.498	11454.33
862.819	11499.98
863.14	11455.91
863.461	11451.85
863.782	11346.31
864.103	11423.82
864.424	11358.74
864.745	11321.23
865.065	11282.36
865.386	11261.57
865.707	11286.43
866.027	11252.3
866.348	11147
866.668	11260.21
866.989	11236.03
867.309	11145.41
867.63	11085.08
867.95	11040.11
868.27	11048.47
868.59	11088.69
868.91	10975.93
869.23	10960.79
869.55	10943.16
869.87	11015.93
870.19	10941.58
870.51	10981.58
870.83	10923.95
871.15	10859.32
871.469	10927.11
871.789	10971.63
872.109	10866.1
872.428	10801.47
872.748	10886.44
873.067	10807.12
873.386	10788.59
873.706	10786.55
874.025	10824.07
874.344	10730.73
874.663	10777.74
874.982	10757.85
875.301	10776.84
875.62	10685.76
875.939	10638.31
876.258	10649.61
876.577	10577.29
876.896	10591.08
877.214	10547.24
877.533	10539.33
877.852	10572.55
878.17	10561.02
878.489	10533.23
878.807	10511.53
879.125	10500.01
879.444	10446.67
879.762	10501.14
880.08	10440.57
880.398	10404.87
880.716	10442.61
881.034	10372.33
881.352	10341.82
881.67	10291.88
881.988	10382.27
882.306	10276.74
882.624	10203.29
882.941	10192.44
883.259	10196.51
883.577	10186.34
883.894	10128.72
884.212	10121.03
884.529	10148.38
884.846	10094.59
885.164	10059.11
885.481	9995.39
885.798	10024.99
886.115	9994.26
886.432	9963.3
886.75	9974.37
887.067	9933.92
887.383	9893.24
887.7	9922.62
888.017	9873.13
888.334	9838.55
888.651	9788.84
888.967	9818.89
889.284	9770.53
889.6	9800.36
889.917	9669.29
890.233	9754.94
890.55	9724.66
890.866	9672.46
891.182	9597.88
891.498	9517.43
891.815	9500.03
892.131	9490.32
892.447	9512.69
892.763	9504.78
893.079	9399.24
893.395	9316.31
893.71	9448.28
894.026	9388.85
894.342	9344.78
894.657	9270.89
894.973	9242.86
895.289	9225.92
895.604	9229.98
895.92	9121.06
896.235	9146.14
896.55	9045.81
896.865	9131.91
897.181	9062.53
897.496	9098.69
897.811	9018.92
898.126	8971.23
898.441	8855.53
898.756	8952.25
899.071	8905.92
899.386	8893.49
899.7	8756.1
900.015	8742.99
900.33	8689.66
900.644	8712.93
900.959	8707.96
901.273	8715.19
901.588	8629.1
901.902	8585.93
902.216	8510.91
902.531	8475.88
902.845	8466.84
903.159	8514.3
903.473	8421.19
903.787	8385.71
904.101	8328.31
904.415	8375.77
904.729	8312.04
905.042	8248.77
905.356	8221.2
905.67	8159.05
905.984	8231.37
906.297	8150.24
906.611	8113.63
906.924	8107.07
907.237	8103.23
907.551	8066.85
907.864	8021.65
908.177	8008.09
908.491	7956.12
908.804	7861.88
909.117	7881.32
909.43	7828.44
909.743	7720.19
910.056	7767.65
910.368	7764.71
910.681	7733.75
910.994	7646.52
911.307	7679.06
911.619	7667.99
911.932	7612.4
912.244	7541.89
912.557	7566.52
912.869	7555.68
913.181	7456.47
913.494	7474.78
913.806	7337.6
914.118	7315.91
914.43	7299.41
914.742	7328.56
915.054	7283.59
915.366	7282.46
915.678	7196.36
915.99	7232.52
916.302	7143.03
916.613	7195.01
916.925	7077.05
917.236	7139.64
917.548	7016.71
917.859	6995.92
918.171	6997.05
918.482	6997.95
918.794	6911.17
919.105	6930.16
919.416	6883.15
919.727	6831.63
920.038	6774.91
920.349	6783.04
920.66	6752.53
920.971	6740.56
921.282	6693.55
921.593	6628.02
921.903	6626.89
922.214	6626.44
922.525	6586.66
922.835	6520.9
923.146	6521.58
923.456	6471.64
923.767	6448.59
924.077	6396.84
924.387	6415.37
924.697	6393.22
925.008	6371.08
925.318	6303.28
925.628	6418.08
925.938	6294.92
926.248	6225.77
926.558	6213.57
926.867	6209.72
927.177	6222.38
927.487	6148.48
927.796	6097.86
928.106	6107.35
928.416	6068.26
928.725	6067.35
929.034	6009.95
929.344	6037.07
929.653	5993.68
929.962	5936.51
930.271	5886.12
930.581	5877.76
930.89	5855.61
931.199	5819.23
931.508	5833.24
931.817	5876.4
932.125	5808.15
932.434	5720.02
932.743	5699
933.051	5655.61
933.36	5661.04
933.669	5664.65
933.977	5598.67
934.286	5574.49
934.594	5573.81
934.902	5502.4
935.21	5457.2
935.519	5506.01
935.827	5429.18
936.135	5426.24
936.443	5423.08
936.751	5402.51
937.059	5369.75
937.367	5347.83
937.674	5329.97
937.982	5294.27
938.29	5269.64
938.597	5310.54
938.905	5193.71
939.213	5212.69
939.52	5144.89
939.827	5171.11
940.135	5165.68
940.442	5128.4
940.749	5108.51
941.056	5098.34
941.363	5014.05
941.67	5066.02
941.977	5054.5
942.284	5000.04
942.591	5031.22
942.898	4993.03
943.205	4986.71
943.511	4935.86
943.818	4928.63
944.125	4881.85
944.431	4908.52
944.738	4859.48
945.044	4847.27
945.35	4762.3
945.657	4776.09
945.963	4771.34
946.269	4720.95
946.575	4751.46
946.881	4704.45
947.187	4667.62
947.493	4609.31
947.799	4647.05
948.105	4628.07
948.41	4592.82
948.716	4595.98
949.022	4566.6
949.327	4590.56
949.633	4549.88
949.938	4511.69
950.244	4538.58
950.549	4460.62
950.854	4409.77
951.16	4405.03
951.465	4418.81
951.77	4358.92
952.075	4336.78
952.38	4342.65
952.685	4358.25
952.99	4302.88
953.294	4250.45
953.599	4225.37
953.904	4272.37
954.209	4250.45
954.513	4270.57
954.818	4229.66
955.122	4165.94
955.426	4166.61
955.731	4107.41
956.035	4143.11
956.339	4068.09
956.643	4090.46
956.948	4040.52
957.252	4067.86
957.556	4041.19
957.86	4033.51
958.163	3998.26
958.467	3998.26
958.771	3994.41
959.075	3971.59
959.378	3916
959.682	3953.29
959.985	3862.89
960.289	3853.85
960.592	3871.71
960.896	3873.74
961.199	3827.19
961.502	3783.12
961.805	3803.69
962.108	3783.35
962.411	3791.71
962.714	3736.12
963.017	3696.57
963.32	3740.64
963.623	3697.47
963.926	3718.04
964.228	3646.4
964.531	3660.19
964.833	3679.85
965.136	3649.11
965.438	3578.83
965.741	3596.69
966.043	3572.28
966.345	3569.57
966.648	3537.7
966.95	3514.65
967.252	3494.31
967.554	3478.72
967.856	3514.43
968.158	3475.11
968.46	3464.26
968.761	3430.36
969.063	3416.8
969.365	3422.45
969.666	3398.27
969.968	3388.33
970.269	3390.81
970.571	3317.14
970.872	3309.01
971.174	3315.34
971.475	3288.22
971.776	3273.53
972.077	3273.98
972.378	3250.93
972.679	3223.36
972.98	3226.3
973.281	3242.57
973.582	3210.48
973.883	3207.32
974.183	3205.96
974.484	3148.11
974.785	3130.48
975.085	3112.63
975.386	3131.16
975.686	3092.74
975.986	3063.59
976.287	3062.91
976.587	3024.5
976.887	3071.05
977.187	3036.47
977.487	3063.59
977.787	3008.23
978.087	2979.3
978.387	2966.87
978.687	3002.12
978.987	2969.58
979.286	2945.85
979.586	2943.82
979.885	2912.18
980.185	2931.62
980.484	2883.94
980.784	2842.81
981.083	2866.76
981.382	2837.38
981.682	2893.2
981.981	2815.01
982.28	2832.19
982.579	2792.41
982.878	2832.41
983.177	2749.7
983.475	2768.01
983.774	2777.95
984.073	2725.52
984.372	2727.1
984.67	2722.81
984.969	2707.67
985.267	2685.75
985.566	2680.33
985.864	2683.04
986.162	2650.27
986.461	2640.33
986.759	2646.88
987.057	2632.87
987.355	2615.24
987.653	2590.84
987.951	2600.1
988.249	2589.93
988.547	2574.11
988.844	2533.44
989.142	2525.53
989.44	2527.56
989.737	2515.81
990.035	2493.44
990.332	2524.85
990.63	2464.74
990.927	2457.51
991.224	2476.71
991.521	2457.05
991.819	2442.14
992.116	2436.49
992.413	2401.91
992.71	2404.17
993.006	2403.27
993.303	2389.94
993.6	2363.5
993.897	2360.33
994.193	2341.12
994.49	2330.05
994.787	2356.04
995.083	2342.03
995.379	2289.83
995.676	2297.96
995.972	2298.19
996.268	2269.26
996.565	2240.79
996.861	2250.28
997.157	2236.27
997.453	2256.83
997.749	2189.49
998.044	2164.86
998.34	2191.98
998.636	2195.59
998.932	2186.55
999.227	2136.38
999.523	2156.5
999.818	2125.76
1000.114	2144.07
1000.409	2136.38
1000.704	2117.85
1001	2081.24
1001.295	2085.99
1001.59	2106.55
1001.885	2074.01
1002.18	2033.11
1002.475	2053.67
1002.77	2029.49
1003.065	2024.07
1003.359	2019.33
1003.654	2010.74
1003.949	1985.65
1004.243	1957.18
1004.538	1967.35
1004.832	1931.87
1005.127	1961.25
1005.421	1941.14
1005.715	1933
1006.009	1907.01
1006.304	1934.13
1006.598	1910.85
1006.892	1901.59
1007.186	1881.7
1007.48	1848.03
1007.773	1876.73
1008.067	1816.39
1008.361	1859.33
1008.655	1816.84
1008.948	1805.09
1009.242	1820.23
1009.535	1751.76
1009.829	1796.51
1010.122	1768.71
1010.415	1771.2
1010.708	1751.54
1011.001	1719.67
1011.295	1738.65
1011.588	1746.34
1011.881	1687.58
1012.173	1677.41
1012.466	1673.12
1012.759	1668.37
1013.052	1664.98
1013.344	1669.96
1013.637	1642.39
1013.93	1649.62
1014.222	1649.62
1014.514	1606.91
1014.807	1607.58
1015.099	1609.62
1015.391	1593.57
1015.683	1570.3
1015.976	1586.34
1016.268	1584.08
1016.56	1532.56
1016.851	1527.59
1017.143	1517.87
1017.435	1536.85
1017.727	1535.72
1018.018	1483.97
1018.31	1502.28
1018.602	1486.23
1018.893	1450.75
1019.185	1485.78
1019.476	1471.77
1019.767	1455.72
1020.058	1463.18
1020.35	1447.59
1020.641	1415.5
1020.932	1420.25
1021.223	1402.84
1021.514	1412.11
1021.804	1390.42
1022.095	1387.25
1022.386	1363.3
1022.677	1365.33
1022.967	1354.71
1023.258	1321.49
1023.548	1324.88
1023.839	1304.54
1024.129	1326.46
1024.419	1311.55
1024.709	1283.75
1025	1293.24
1025.29	1262.06
1025.58	1267.48
1025.87	1255.5
1026.16	1238.33
1026.449	1251.44
1026.739	1239.46
1027.029	1226.58
1027.319	1243.3
1027.608	1220.7
1027.898	1232.23
1028.187	1184.55
1028.477	1211.44
1028.766	1156.52
1029.055	1170.76
1029.344	1184.55
1029.634	1176.64
1029.923	1155.39
1030.212	1152.91
1030.501	1134.38
1030.79	1134.6
1031.078	1104.55
1031.367	1108.39
1031.656	1092.57
1031.945	1108.61
1032.233	1112.91
1032.522	1088.95
1032.81	1071.78
1033.099	1060.48
1033.387	1052.12
1033.675	1053.48
1033.963	1070.88
1034.251	1055.06
1034.54	1039.01
1034.828	1047.37
1035.116	1037.88
1035.403	1022.06
1035.691	1018.45
1035.979	1013.48
1036.267	997.43
1036.554	994.27
1036.842	998.11
1037.129	991.1
1037.417	982.97
1037.704	986.81
1037.992	959.92
1038.279	921.5
1038.566	931.9
1038.853	931.9
1039.14	931.9
