Data from hue_210_FLMS001491_00079.txt Node
Date: Tue Feb 07 16:41:41 GMT 2017
User: dcchb
Spectrometer: FLMS00149
Trigger mode: 0
Integration Time (sec): 2.000000E-2
Scans to average: 10
Electric dark correction enabled: true
Nonlinearity correction enabled: false
Boxcar width: 0
XAxis mode: Wavelengths
Number of Pixels in Spectrum: 2048
>>>>>Begin Spectral Data<<<<<
341.393	-38.61
341.776	-38.61
342.16	-38.61
342.543	-47.65
342.927	-67.99
343.31	-64.6
343.693	-81.33
344.077	-91.72
344.46	-66.41
344.843	-49.01
345.226	-38.39
345.61	-29.8
345.993	-17.6
346.376	-14.43
346.759	19.46
347.142	41.61
347.525	56.98
347.908	62.63
348.291	77.54
348.674	90.2
349.057	104.88
349.44	119.35
349.823	140.82
350.206	168.84
350.588	204.99
350.971	216.29
351.354	212
351.737	247.71
352.119	272.11
352.502	259.91
352.884	290.42
353.267	285.67
353.65	286.35
354.032	295.84
354.414	309.62
354.797	321.6
355.179	337.42
355.562	328.83
355.944	308.95
356.326	323.18
356.709	338.1
357.091	333.13
357.473	338.55
357.855	349.4
358.238	332.9
358.62	343.07
359.002	346.69
359.384	327.48
359.766	349.85
360.148	351.66
360.53	328.61
360.912	334.26
361.294	341.26
361.676	329.29
362.057	310.53
362.439	329.29
362.821	318.44
363.203	319.79
363.584	327.03
363.966	332.67
364.348	315.27
364.729	320.02
365.111	320.47
365.493	311.43
365.874	292.68
366.256	322.51
366.637	338.55
367.019	329.29
367.4	345.56
367.781	325.22
368.163	336.06
368.544	291.77
368.925	316.4
369.306	319.57
369.688	327.48
370.069	303.75
370.45	284.31
370.831	300.59
371.212	320.7
371.593	323.64
371.974	319.79
372.355	330.87
372.736	328.38
373.117	310.98
373.498	311.21
373.879	323.18
374.26	327.7
374.641	334.93
375.021	322.96
375.402	313.01
375.783	322.51
376.163	324.54
376.544	315.73
376.925	343.3
377.305	325.44
377.686	315.5
378.066	337.42
378.447	326.57
378.827	350.53
379.208	317.31
379.588	337.19
379.968	347.82
380.349	333.58
380.729	322.28
381.109	339.91
381.489	336.74
381.87	328.61
382.25	334.03
382.63	343.3
383.01	343.52
383.39	335.39
383.77	333.13
384.15	357.98
384.53	336.29
384.91	332.45
385.29	356.4
385.67	349.62
386.049	353.01
386.429	360.92
386.809	350.75
387.189	349.4
387.568	364.31
387.948	355.73
388.328	354.14
388.707	375.84
389.087	377.65
389.466	365.67
389.846	364.09
390.225	380.36
390.605	370.87
390.984	359.34
391.363	378.1
391.743	379.91
392.122	375.16
392.501	391.2
392.881	389.4
393.26	381.94
393.639	377.42
394.018	389.62
394.397	403.63
394.776	392.11
395.155	378.32
395.534	397.53
395.913	384.2
396.292	401.15
396.671	386.46
397.05	389.17
397.429	408.15
397.808	414.48
398.186	402.5
398.565	409.73
398.944	410.41
399.323	419
399.701	393.01
400.08	427.81
400.458	409.28
400.837	416.97
401.215	421.94
401.594	422.84
401.972	451.54
402.351	414.03
402.729	427.81
403.107	424.42
403.486	447.7
403.864	433.46
404.242	440.69
404.62	462.39
404.999	450.64
405.377	477.98
405.755	458.32
406.133	475.27
406.511	470.07
406.889	481.82
407.267	484.31
407.645	484.99
408.023	493.35
408.401	481.82
408.779	508.49
409.156	507.36
409.534	511.43
409.912	530.41
410.29	536.51
410.667	532.9
411.045	541.71
411.422	531.31
411.8	553.69
412.178	575.83
412.555	609.96
412.933	602.5
413.31	609.96
413.687	631.42
414.065	619.45
414.442	599.79
414.819	619.22
415.197	624.42
415.574	659.22
415.951	651.54
416.328	665.77
416.705	704.19
417.082	682.72
417.46	687.24
417.837	720.46
418.214	721.37
418.591	709.61
418.967	746.22
419.344	722.5
419.721	762.04
420.098	767.69
420.475	766.56
420.852	758.2
421.228	789.84
421.605	828.03
421.982	811.31
422.358	849.27
422.735	843.4
423.111	860.8
423.488	885.2
423.864	881.81
424.241	924.75
424.617	915.26
424.994	924.75
425.37	924.52
425.746	970.4
426.123	973.34
426.499	963.62
426.875	973.11
427.251	978.76
427.627	1014.24
428.003	1040.23
428.379	1065.31
428.756	1061.7
429.132	1079.77
429.507	1097.17
429.883	1103.05
430.259	1133.11
430.635	1121.81
431.011	1128.81
431.387	1154.8
431.763	1160.68
432.138	1183.05
432.514	1213.56
432.89	1218.08
433.265	1244.52
433.641	1261.92
434.016	1278.86
434.392	1323.38
434.767	1346.89
435.143	1342.14
435.518	1367.45
435.894	1380.56
436.269	1425.08
436.644	1452.19
437.02	1472.31
437.395	1501.01
437.77	1492.87
438.145	1552.98
438.52	1601.57
438.895	1589.14
439.271	1616.03
439.646	1647.22
440.021	1690.15
440.395	1682.92
440.77	1697.38
441.145	1729.93
441.52	1756.59
441.895	1756.59
442.27	1796.14
442.645	1773.99
443.019	1836.14
443.394	1828
443.769	1886.53
444.143	1837.72
444.518	1920.88
444.892	1895.12
445.267	1900.32
445.641	1941.45
446.016	1960.88
446.39	1934.89
446.764	1972.86
447.139	2036.81
447.513	1990.03
447.887	2014.21
448.262	2037.49
448.636	2038.17
449.01	2076.13
449.384	2085.62
449.758	2097.37
450.132	2133.98
450.506	2134.21
450.88	2198.39
451.254	2169.24
451.628	2197.94
452.002	2203.59
452.376	2232.29
452.75	2251.27
453.123	2287.65
453.497	2317.26
453.871	2322.23
454.244	2386.41
454.618	2385.5
454.992	2412.17
455.365	2415.56
455.739	2475.22
456.112	2490.36
456.486	2498.49
456.859	2520.19
457.232	2571.49
457.606	2559.51
457.979	2619.39
458.352	2641.99
458.725	2672.95
459.099	2685.61
459.472	2743.23
459.845	2745.94
460.218	2783.68
460.591	2775.1
460.964	2830.91
461.337	2874.3
461.71	2938.03
462.083	2942.55
462.456	2965.37
462.829	2995.88
463.201	3010.34
463.574	3018.71
463.947	3115.88
464.32	3175.31
464.692	3161.08
465.065	3205.82
465.438	3260.96
465.81	3242.65
466.183	3319.26
466.555	3399.49
466.928	3373.27
467.3	3370.79
467.672	3460.95
468.045	3550.67
468.417	3519.71
468.789	3625.24
469.161	3629.09
469.534	3642.42
469.906	3735.98
470.278	3771
470.65	3743.66
471.022	3838.35
471.394	3885.8
471.766	3895.29
472.138	3985.01
472.51	4015.06
472.882	4107.26
473.253	4124.44
473.625	4221.84
473.997	4295.96
474.369	4331.44
474.74	4309.97
475.112	4441.27
475.484	4468.84
475.855	4519.91
476.227	4562.62
476.598	4695.95
476.97	4721.71
477.341	4816.62
477.713	4901.14
478.084	4911.31
478.455	5011.2
478.827	5062.72
479.198	5172.77
479.569	5196.5
479.94	5330.51
480.311	5332.32
480.682	5450.96
481.053	5578.41
481.424	5635.13
481.795	5673.55
482.166	5734.11
482.537	5768.24
482.908	5931.85
483.279	5938.86
483.65	6020.43
484.021	6149.92
484.391	6238.96
484.762	6273.76
485.133	6272.41
485.503	6384.27
485.874	6530.7
486.244	6576.58
486.615	6624.94
486.985	6728.44
487.356	6859.06
487.726	6915.78
488.097	7048.88
488.467	7006.62
488.837	7086.62
489.207	7179.05
489.578	7253.4
489.948	7364.81
490.318	7428.53
490.688	7484.58
491.058	7537.01
491.428	7631.24
491.798	7713.5
492.168	7805.92
492.538	7838.69
492.908	7870.1
493.278	8027.16
493.648	8023.77
494.017	8125.01
494.387	8091.34
494.757	8285.91
495.126	8247.95
495.496	8268.96
495.866	8299.47
496.235	8406.36
496.605	8399.81
496.974	8465.12
497.344	8553.25
497.713	8518.45
498.082	8633.47
498.452	8637.32
498.821	8676.86
499.19	8748.5
499.559	8795.28
499.928	8852.22
500.298	8840.25
500.667	8967.7
501.036	8870.76
501.405	8994.59
501.774	8962.96
502.143	9018.77
502.512	9068.04
502.88	9061.26
503.249	9102.84
503.618	9110.98
503.987	9147.13
504.356	9171.31
504.724	9152.33
505.093	9180.35
505.462	9206.79
505.83	9287.92
506.199	9390.52
506.567	9318.88
506.936	9426.67
507.304	9460.12
507.672	9470.06
508.041	9497.41
508.409	9584.18
508.777	9545.54
509.145	9590.51
509.514	9572.21
509.882	9574.92
510.25	9657.18
510.618	9683.84
510.986	9602.04
511.354	9705.76
511.722	9712.54
512.09	9812.88
512.458	9712.32
512.826	9834.35
513.193	9844.29
513.561	9824.85
513.929	9823.27
514.297	9941.24
514.664	9880.67
515.032	9888.36
515.4	9931.74
515.767	9915.7
516.135	9966.32
516.502	9858.3
516.869	10029.37
517.237	10055.13
517.604	9948.24
517.972	10040.22
518.339	10035.92
518.706	10009.03
519.073	10003.61
519.44	10103.27
519.808	10116.82
520.175	10029.6
520.542	10099.65
520.909	10207.67
521.276	10090.61
521.643	10124.73
522.009	10129.48
522.376	10170.61
522.743	10146.2
523.11	10222.81
523.477	10330.38
523.843	10285.86
524.21	10339.19
524.577	10348.23
524.943	10365.86
525.31	10309.36
525.676	10375.12
526.043	10489.92
526.409	10397.95
526.776	10479.3
527.142	10411.73
527.508	10412.18
527.874	10439.98
528.241	10417.83
528.607	10384.61
528.973	10410.83
529.339	10421.68
529.705	10435.01
530.071	10456.48
530.437	10418.06
530.803	10403.37
531.169	10401.56
531.535	10375.35
531.901	10319.53
532.267	10337.38
532.632	10353.65
532.998	10362.02
533.364	10383.71
533.73	10335.12
534.095	10344.62
534.461	10352.98
534.826	10331.51
535.192	10324.5
535.557	10312.53
535.923	10286.09
536.288	10237.05
536.653	10246.76
537.019	10146.65
537.384	10195.92
537.749	10137.16
538.114	10144.62
538.479	10089.03
538.845	10038.41
539.21	10036.83
539.575	9978.07
539.94	10053.1
540.305	9975.13
540.67	9948.92
541.034	9951.18
541.399	9935.13
541.764	9921.8
542.129	9944.17
542.494	9810.62
542.858	9851.75
543.223	9764.74
543.587	9772.88
543.952	9779.66
544.316	9753.9
544.681	9701.92
545.045	9657.63
545.41	9703.5
545.774	9668.02
546.138	9658.98
546.503	9645.42
546.867	9535.6
547.231	9566.78
547.595	9515.26
547.959	9527.46
548.324	9457.41
548.688	9371.53
549.052	9393.23
549.416	9412.21
549.779	9402.94
550.143	9260.35
550.507	9388.26
550.871	9298.09
551.235	9257.41
551.599	9210.63
551.962	9183.52
552.326	9152.1
552.689	9227.13
553.053	9126.79
553.417	9037.53
553.78	9185.55
554.143	9073.91
554.507	9044.31
554.87	9046.8
555.234	9063.97
555.597	8996.18
555.96	8955.5
556.323	8963.63
556.686	8925.22
557.05	8933.35
557.413	8988.04
557.776	8961.15
558.139	8969.96
558.502	8884.09
558.865	8834.37
559.228	8956.18
559.59	8859.68
559.953	8892.45
560.316	8979.45
560.679	8878.44
561.041	8946.69
561.404	8896.07
561.767	8950.98
562.129	8896.29
562.492	8942.84
562.854	8894.03
563.217	8885.44
563.579	8855.39
563.941	8944.65
564.304	8892.68
564.666	9047.25
565.028	8991.2
565.39	9007.48
565.753	8995.95
566.115	8969.06
566.477	9008.38
566.839	8992.79
567.201	8995.95
567.563	8970.87
567.925	9038.43
568.287	9084.54
568.648	8971.09
569.01	9041.82
569.372	9106.23
569.734	9029.4
570.095	9097.64
570.457	9111.65
570.819	9033.69
571.18	9128.15
571.542	9085.44
571.903	9163.4
572.265	9118.66
572.626	9155.95
572.987	9183.29
573.349	9144.87
573.71	9199.79
574.071	9254.25
574.432	9308.48
574.794	9298.99
575.155	9283.85
575.516	9217.19
575.877	9218.99
576.238	9276.85
576.599	9281.59
576.96	9285.21
577.32	9306.68
577.681	9351.87
578.042	9348.93
578.403	9353.23
578.763	9295.15
579.124	9293.8
579.485	9391.19
579.845	9368.6
580.206	9361.82
580.566	9445.43
580.927	9382.61
581.287	9527.69
581.648	9438.65
582.008	9463.51
582.368	9426.9
582.728	9499.44
583.089	9447.46
583.449	9463.96
583.809	9570.17
584.169	9500.8
584.529	9479.55
584.889	9555.48
585.249	9475.26
585.609	9445.66
585.969	9535.82
586.329	9435.49
586.688	9536.5
587.048	9488.37
587.408	9468.03
587.768	9513.45
588.127	9482.26
588.487	9484.75
588.846	9590.51
589.206	9542.15
589.565	9527.24
589.925	9618.08
590.284	9538.53
590.643	9579.89
591.003	9599.32
591.362	9628.48
591.721	9569.49
592.08	9641.58
592.44	9625.99
592.799	9583.51
593.158	9584.86
593.517	9631.19
593.876	9606.1
594.235	9595.03
594.593	9591.87
594.952	9598.65
595.311	9560.23
595.67	9617.18
596.029	9611.07
596.387	9663.28
596.746	9663.95
597.104	9648.59
597.463	9599.55
597.822	9618.08
598.18	9586.44
598.538	9663.05
598.897	9703.28
599.255	9613.11
599.613	9764.52
599.972	9647.68
600.33	9735.37
600.688	9670.06
601.046	9639.55
601.404	9727.23
601.762	9702.6
602.12	9656.72
602.478	9700.79
602.836	9773.78
603.194	9675.03
603.552	9659.21
603.91	9610.62
604.268	9659.21
604.625	9636.84
604.983	9652.43
605.341	9588.25
605.698	9766.1
606.056	9746.66
606.413	9657.63
606.771	9721.81
607.128	9731.52
607.485	9706.44
607.843	9663.73
608.2	9701.02
608.557	9832.31
608.914	9712.09
609.272	9804.29
609.629	9765.42
609.986	9815.14
610.343	9765.2
610.7	9811.75
611.057	9796.83
611.414	9713.45
611.771	9786.21
612.127	9780.34
612.484	9859.66
612.841	9856.49
613.198	9821.46
613.554	9797.96
613.911	9889.94
614.267	9907.56
614.624	9899.2
614.98	9923.38
615.337	9905.53
615.693	9919.32
616.05	9898.98
616.406	9849.71
616.762	9938.98
617.118	9856.94
617.475	9863.5
617.831	9932.65
618.187	9927.45
618.543	9952.76
618.899	10028.24
619.255	9994.34
619.611	9959.09
619.967	10029.14
620.323	10032.31
620.678	9949.6
621.034	9972.42
621.39	9969.03
621.746	9939.88
622.101	10075.7
622.457	9929.03
622.812	10021.23
623.168	9987.56
623.523	9968.58
623.879	10043.83
624.234	9960.44
624.589	10018.3
624.945	10006.77
625.3	9996.15
625.655	9963.38
626.01	9994.12
626.365	10037.28
626.72	9971.74
627.075	9956.6
627.43	9986.88
627.785	9912.76
628.14	9983.72
628.495	10022.14
628.85	9982.14
629.205	9917.73
629.559	9928.81
629.914	9893.55
630.269	9920.67
630.623	9872.99
630.978	9882.48
631.332	9905.76
631.687	9905.98
632.041	9860.79
632.396	9903.27
632.75	9838.19
633.104	9866.21
633.459	9823.5
633.813	9799.32
634.167	9854.46
634.521	9793.22
634.875	9821.92
635.229	9764.74
635.583	9791.86
635.937	9784.4
636.291	9732.88
636.645	9726.78
636.999	9684.07
637.352	9684.75
637.706	9647.91
638.06	9668.93
638.413	9658.98
638.767	9634.13
639.121	9670.06
639.474	9615.37
639.828	9656.05
640.181	9630.51
640.534	9614.01
640.888	9607.69
641.241	9533.79
641.594	9640.23
641.947	9584.63
642.301	9547.57
642.654	9512.77
643.007	9573.56
643.36	9595.93
643.713	9522.72
644.066	9560.91
644.419	9537.63
644.771	9465.32
645.124	9308.26
645.477	9371.99
645.83	9306
646.182	9228.49
646.535	9199.33
646.888	9270.74
647.24	9192.55
647.593	9249.5
647.945	9212.44
648.298	9173.35
648.65	9111.88
649.002	9164.76
649.355	9257.86
649.707	9161.6
650.059	9242.27
650.411	9411.98
650.763	9369.27
651.115	9462.6
651.467	9436.84
651.819	9447.69
652.171	9411.53
652.523	9384.41
652.875	9420.57
653.227	9336.73
653.578	9418.99
653.93	9411.31
654.282	9382.61
654.633	9344.64
654.985	9318.65
655.337	9343.74
655.688	9351.42
656.039	9413.57
656.391	9396.84
656.742	9391.87
657.094	9312.55
657.445	9399.78
657.796	9337.18
658.147	9331.08
658.498	9370.18
658.849	9372.89
659.2	9374.47
659.551	9342.61
659.902	9396.62
660.253	9414.24
660.604	9416.96
660.955	9429.84
661.306	9395.49
661.656	9395.04
662.007	9434.36
662.358	9449.72
662.708	9413.34
663.059	9435.49
663.409	9333.34
663.76	9501.93
664.11	9476.84
664.461	9430.74
664.811	9481.36
665.161	9527.46
665.511	9429.61
665.862	9477.52
666.212	9529.72
666.562	9449.5
666.912	9449.05
667.262	9424.19
667.612	9439.78
667.962	9539.44
668.312	9428.48
668.662	9469.61
669.011	9423.51
669.361	9483.17
669.711	9457.18
670.06	9438.2
670.41	9318.65
670.76	9398.2
671.109	9423.06
671.459	9408.82
671.808	9465.54
672.157	9441.14
672.507	9384.19
672.856	9343.29
673.205	9394.13
673.554	9407.69
673.904	9428.25
674.253	9458.99
674.602	9384.87
674.951	9236.85
675.3	9175.38
675.649	9233.01
675.998	9306.9
676.346	9287.24
676.695	9302.38
677.044	9225.32
677.393	9281.59
677.741	9331.76
678.09	9318.88
678.438	9219.22
678.787	9312.33
679.135	9275.26
679.484	9192.33
679.832	9211.76
680.181	9130.18
680.529	9124.76
680.877	9135.38
681.225	9138.09
681.573	9124.08
681.922	9114.36
682.27	9086.34
682.618	9051.99
682.966	9043.41
683.314	8968.61
683.661	9015.61
684.009	9008.15
684.357	8910.53
684.705	8910.98
685.053	8981.94
685.4	8962.73
685.748	8873.69
686.095	8841.15
686.443	8878.66
686.79	8859.91
687.138	8814.71
687.485	8836.86
687.832	8786.46
688.18	8807.03
688.527	8788.27
688.874	8764.54
689.221	8736.07
689.568	8713.92
689.915	8694.04
690.262	8621.27
690.609	8634.6
690.956	8565.68
691.303	8599.58
691.65	8515.74
691.997	8555.28
692.344	8458.11
692.69	8407.26
693.037	8431.44
693.383	8373.14
693.73	8388.06
694.077	8309.64
694.423	8343.76
694.769	8310.77
695.116	8267.38
695.462	8256.99
695.808	8205.69
696.155	8242.07
696.501	8099.25
696.847	8158.23
697.193	8036.43
697.539	8122.53
697.885	8035.3
698.231	7982.64
698.577	7963.43
698.923	8013.15
699.269	7969.76
699.614	7884.79
699.96	7818.35
700.306	7879.37
700.651	7772.71
700.997	7764.57
701.342	7784.68
701.688	7736.32
702.033	7694.97
702.379	7728.41
702.724	7673.05
703.069	7655.65
703.415	7564.12
703.76	7588.76
704.105	7596.44
704.45	7553.95
704.795	7503.33
705.14	7479.61
705.485	7469.89
705.83	7401.64
706.175	7420.17
706.52	7321.64
706.865	7355.32
707.209	7355.99
707.554	7314.41
707.899	7280.06
708.243	7290.91
708.588	7260.18
708.932	7199.39
709.277	7233.28
709.621	7222.21
709.966	7158.71
710.31	7233.06
710.654	7126.39
710.998	7118.49
711.342	7104.93
711.687	7017.02
712.031	7024.93
712.375	6994.42
712.719	7045.72
713.063	7033.74
713.407	7042.78
713.75	6984.7
714.094	6949.22
714.438	6968.88
714.782	7003.91
715.125	6943.8
715.469	6939.96
715.812	6871.49
716.156	6866.51
716.499	6860.41
716.843	6913.74
717.186	6840.3
717.53	6886.85
717.873	6828.78
718.216	6878.27
718.559	6825.39
718.902	6739.74
719.246	6835.33
719.589	6735.9
719.932	6794.88
720.275	6756.01
720.617	6761.43
720.96	6712.85
721.303	6730.92
721.646	6737.25
721.989	6676.46
722.331	6709.91
722.674	6724.15
723.016	6695.67
723.359	6698.38
723.701	6683.47
724.044	6655.9
724.386	6642.57
724.729	6660.87
725.071	6675.11
725.413	6633.3
725.755	6662.68
726.097	6652.73
726.439	6588.1
726.782	6609.35
727.124	6622
727.465	6644.6
727.807	6608.22
728.149	6569.35
728.491	6654.32
728.833	6607.31
729.175	6556.69
729.516	6574.77
729.858	6593.75
730.199	6648.67
730.541	6594.21
730.882	6558.05
731.224	6609.35
731.565	6575.9
731.906	6584.71
732.248	6627.88
732.589	6542.23
732.93	6549.91
733.271	6526.64
733.612	6610.48
733.953	6567.77
734.294	6539.74
734.635	6600.31
734.976	6610.7
735.317	6549.46
735.658	6582.91
735.999	6647.09
736.339	6563.7
736.68	6590.36
737.021	6604.83
737.361	6615.22
737.702	6667.88
738.042	6603.92
738.383	6600.76
738.723	6596.69
739.063	6604.15
739.404	6647.76
739.744	6661.32
740.084	6666.07
740.424	6663.58
740.764	6610.25
741.104	6635.11
741.444	6709.46
741.784	6716.46
742.124	6718.95
742.464	6800.08
742.804	6712.17
743.143	6725.28
743.483	6777.7
743.823	6778.61
744.162	6779.96
744.502	6869.45
744.841	6808.66
745.181	6924.14
745.52	6863.35
745.86	6927.98
746.199	7008.21
746.538	7010.47
746.877	6999.84
747.216	7087.98
747.556	7144.93
747.895	7192.38
748.234	7252.94
748.573	7202.55
748.911	7285.71
749.25	7409.32
749.589	7424.92
749.928	7477.8
750.267	7544.69
750.605	7593.73
750.944	7683.89
751.283	7722.09
751.621	7847.28
751.96	7912.36
752.298	7993.94
752.636	8126.14
752.975	8213.15
753.313	8295.18
753.651	8377.89
753.989	8409.3
754.327	8555.96
754.666	8613.59
755.004	8783.53
755.342	8945.56
755.679	8958.21
756.017	9099.9
756.355	9273
756.693	9407.92
757.031	9534.01
757.368	9714.8
757.706	9798.64
758.044	9964.51
758.381	10160.44
758.719	10316.14
759.056	10451.96
759.394	10656.92
759.731	10648.79
760.068	10876.8
760.405	11088.1
760.743	11290.58
761.08	11386.17
761.417	11524.92
761.754	11745.48
762.091	11946.38
762.428	12133.72
762.765	12232.7
763.102	12490.55
763.438	12513.37
763.775	12698
764.112	12934.6
764.449	13196.97
764.785	13289.62
765.122	13404.42
765.458	13530.97
765.795	13836.27
766.131	13884.18
766.467	14084.63
766.804	14226.09
767.14	14359.2
767.476	14534.56
767.812	14591.51
768.148	14864.04
768.485	14957.15
768.821	15042.8
769.157	15239.85
769.492	15306.29
769.828	15532.5
770.164	15570.92
770.5	15678.49
770.836	15869.67
771.171	15881.19
771.507	15973.85
771.842	15913.73
772.178	16232.6
772.513	16366.6
772.849	16310.33
773.184	16480.5
773.519	16637.33
773.855	16655.64
774.19	16770.66
774.525	16895.18
774.86	16894.05
775.195	17005.68
775.53	17044.78
775.865	17125.68
776.2	17158
776.535	17113.7
776.87	17299.01
777.205	17313.92
777.539	17310.31
777.874	17421.49
778.209	17328.61
778.543	17411.55
778.878	17463.52
779.212	17562.05
779.547	17553.01
779.881	17637.76
780.215	17628.04
780.55	17697.19
780.884	17670.75
781.218	17696.96
781.552	17806.79
781.886	17660.13
782.22	17677.3
782.554	17771.09
782.888	17612.45
783.222	17703.07
783.556	17738.09
783.889	17699.9
784.223	17577.42
784.557	17692.9
784.89	17663.97
785.224	17616.51
785.557	17621.26
785.891	17653.58
786.224	17629.62
786.558	17627.14
786.891	17469.17
787.224	17573.8
787.557	17514.82
787.891	17533.8
788.224	17642.28
788.557	17527.7
788.89	17543.97
789.223	17588.27
789.556	17468.95
789.888	17471.89
790.221	17362.74
790.554	17323.19
790.887	17310.53
791.219	17325.67
791.552	17334.04
791.884	17348.5
792.217	17319.8
792.549	17210.42
792.882	17140.37
793.214	17175.85
793.546	17146.02
793.879	17122.97
794.211	17028.51
794.543	16988.96
794.875	17048.17
795.207	17073.7
795.539	17004.78
795.871	16941.05
796.203	16827.16
796.535	16800.04
796.867	16831
797.198	16793.71
797.53	16742.41
797.862	16711
798.193	16821.05
798.525	16641.62
798.856	16645.69
799.188	16467.62
799.519	16510.1
799.85	16387.39
800.182	16494.06
800.513	16401.86
800.844	16395.53
801.175	16371.58
801.506	16440.05
801.837	16315.53
802.168	16204.8
802.499	16172.03
802.83	16138.59
803.161	16224.01
803.491	16079.15
803.822	16214.07
804.153	16118.47
804.483	15975.43
804.814	15943.11
805.145	15990.57
805.475	15942.21
805.805	15852.49
806.136	15942.66
806.466	15847.97
806.796	15901.31
807.126	15737.92
807.457	15679.16
807.787	15675.55
808.117	15575.89
808.447	15604.82
808.777	15652.95
809.107	15556.91
809.436	15499.51
809.766	15567.3
810.096	15464.03
810.426	15382.67
810.755	15448.21
811.085	15432.16
811.414	15422
811.744	15220.42
812.073	15186.52
812.403	15229.23
812.732	15224.49
813.061	15176.13
813.39	15136.13
813.719	15072.63
814.049	15224.26
814.378	15132.06
814.707	15001.22
815.036	14964.15
815.365	14943.82
815.693	14810.03
816.022	14795.8
816.351	14905.17
816.68	14778.17
817.008	14836.7
817.337	14797.83
817.665	14701.56
817.994	14741.79
818.322	14740.88
818.651	14662.47
818.979	14545.41
819.307	14639.19
819.636	14598.06
819.964	14544.05
820.292	14568.91
820.62	14671.96
820.948	14518.74
821.276	14636.48
821.604	14508.8
821.932	14621.34
822.259	14587.22
822.587	14515.8
822.915	14494.34
823.243	14518.06
823.57	14491.4
823.898	14528.46
824.225	14458.41
824.553	14488.69
824.88	14527.56
825.207	14471.74
825.535	14573.88
825.862	14570.49
826.189	14454.79
826.516	14588.8
826.843	14598.06
827.17	14568.46
827.497	14554.67
827.824	14563.26
828.151	14604.62
828.478	14530.72
828.805	14669.7
829.131	14598.29
829.458	14552.19
829.785	14561
830.111	14529.14
830.438	14647.55
830.764	14596.03
831.09	14692.07
831.417	14516.48
831.743	14608.68
832.069	14590.61
832.395	14500.44
832.722	14540.66
833.048	14540.44
833.374	14560.1
833.7	14356.49
834.026	14404.85
834.351	14495.01
834.677	14421.34
835.003	14433.32
835.329	14467.22
835.654	14404.85
835.98	14350.39
836.306	14424.28
836.631	14356.26
836.956	14385.19
837.282	14428.35
837.607	14312.19
837.932	14286.66
838.258	14269.03
838.583	14195.59
838.908	14171.63
839.233	14225.19
839.558	14178.64
839.883	14106.78
840.208	14061.35
840.533	14134.12
840.858	14106.78
841.182	14078.98
841.507	14015.25
841.832	14016.83
842.156	14012.54
842.481	14006.44
842.805	13849.61
843.13	13785.88
843.454	13909.49
843.778	13823.85
844.103	13756.73
844.427	13748.59
844.751	13793.56
845.075	13705.66
845.399	13620.91
845.723	13668.14
846.047	13624.98
846.371	13448.04
846.695	13526.9
847.019	13402.16
847.343	13313.12
847.666	13248.49
847.99	13247.82
848.313	13219.79
848.637	13170.98
848.96	13119.91
849.284	13126.69
849.607	12934.83
849.931	12941.38
850.254	12923.53
850.577	12919.46
850.9	12701.84
851.223	12726.47
851.546	12689.64
851.869	12650.32
852.192	12670.2
852.515	12506.37
852.838	12500.04
853.161	12505.46
853.483	12472.47
853.806	12362.19
854.129	12394.5
854.451	12318.8
854.774	12179.82
855.096	12179.14
855.419	12196.32
855.741	12160.61
856.063	12057.34
856.385	12050.11
856.708	12010.56
857.03	11906.38
857.352	12048.07
857.674	11918.13
857.996	11886.5
858.318	11739.61
858.64	11761.53
858.961	11764.01
859.283	11673.39
859.605	11581.19
859.926	11676.56
860.248	11639.95
860.57	11630.23
860.891	11663.68
861.212	11559.95
861.534	11527.18
861.855	11568.09
862.176	11521.99
862.498	11496
862.819	11456.9
863.14	11417.58
863.461	11345.27
863.782	11336
864.103	11410.58
864.424	11322.67
864.745	11326.28
865.065	11290.8
865.386	11173.52
865.707	11178.04
866.027	11251.94
866.348	11169.9
866.668	11246.96
866.989	11152.28
867.309	11185.95
867.63	11172.16
867.95	11175.78
868.27	11076.57
868.59	11069.79
868.91	11111.15
869.23	11039.06
869.55	10974.88
869.87	11046.29
870.19	10970.81
870.51	11049.23
870.83	11013.52
871.15	10909.57
871.469	10969.46
871.789	10963.36
872.109	10912.96
872.428	10831.61
872.748	10919.29
873.067	10889.01
873.386	10865.51
873.706	10793.87
874.025	10692.18
874.344	10707.09
874.663	10812.4
874.982	10705.51
875.301	10747.09
875.62	10695.79
875.939	10710.93
876.258	10725.85
876.577	10622.35
876.896	10672.29
877.214	10569.02
877.533	10604.5
877.852	10542.12
878.17	10632.07
878.489	10593.65
878.807	10636.36
879.125	10448.12
879.444	10515.23
879.762	10448.57
880.08	10477.72
880.398	10418.06
880.716	10438.62
881.034	10375.35
881.352	10327.44
881.67	10280.21
881.988	10388.91
882.306	10393.43
882.624	10274.79
882.941	10212.87
883.259	10200.21
883.577	10155.24
883.894	10207.67
884.212	10192.08
884.529	10101.01
884.846	10141.46
885.164	10083.83
885.481	9945.76
885.798	10039.99
886.115	9928.13
886.432	9966.77
886.75	9914.34
887.067	9958.18
887.383	9931.74
887.7	9941.24
888.017	9875.02
888.334	9884.06
888.651	9836.15
888.967	9801.58
889.284	9819.66
889.6	9715.7
889.917	9635.48
890.233	9663.95
890.55	9630.06
890.866	9660.79
891.182	9664.18
891.498	9556.16
891.815	9584.86
892.131	9495.37
892.447	9526.11
892.763	9447.01
893.079	9459.67
893.395	9478.65
893.71	9403.4
894.026	9370.18
894.342	9371.08
894.657	9291.99
894.973	9282.72
895.289	9291.54
895.604	9228.71
895.92	9122.5
896.235	9115.72
896.55	9115.72
896.865	9084.54
897.181	9074.14
897.496	9117.53
897.811	8999.34
898.126	8939.45
898.441	8944.43
898.756	8917.08
899.071	8852.68
899.386	8885.67
899.7	8793.24
900.015	8737.65
900.33	8724.54
900.644	8691.33
900.959	8666.24
901.273	8640.03
901.588	8598.67
901.902	8592.8
902.216	8513.93
902.531	8544.21
902.845	8464.44
903.159	8467.83
903.473	8401.84
903.787	8447.94
904.101	8303.76
904.415	8305.12
904.729	8285.46
905.042	8290.66
905.356	8200.72
905.67	8232.35
905.984	8207.95
906.297	8139.7
906.611	8075.52
906.924	8026.94
907.237	8089.76
907.551	8019.25
907.864	8022.64
908.177	7962.53
908.491	7943.55
908.804	7915.75
909.117	7766.83
909.43	7847.51
909.743	7751.46
910.056	7765.02
910.368	7693.16
910.681	7624.23
910.994	7696.32
911.307	7646.61
911.619	7600.28
911.932	7602.77
912.244	7581.07
912.557	7504.46
912.869	7457.69
913.181	7407.52
913.494	7457.23
913.806	7315.54
914.118	7292.04
914.43	7273.51
914.742	7266.28
915.054	7306.05
915.366	7179.5
915.678	7203
915.99	7184.7
916.302	7058.83
916.613	7000.07
916.925	7106.96
917.236	7057.92
917.548	6982.44
917.859	7002.56
918.171	6982.22
918.482	6955.1
918.794	6919.85
919.105	6925.72
919.416	6799.62
919.727	6838.04
920.038	6804.6
920.349	6774.99
920.66	6735.22
920.971	6741.09
921.282	6699.97
921.593	6636.01
921.903	6634.66
922.214	6639.18
922.525	6570.48
922.835	6539.52
923.146	6500.42
923.456	6533.42
923.767	6456.58
924.077	6467.88
924.387	6422.68
924.697	6425.85
925.008	6358.28
925.318	6351.95
925.628	6306.53
925.938	6310.6
926.248	6258.17
926.558	6219.75
926.867	6257.26
927.177	6221.79
927.487	6176.59
927.796	6084.84
928.106	6109.47
928.416	6116.93
928.725	6048.68
929.034	6003.49
929.344	6081
929.653	5990.83
929.962	5949.02
930.271	5905.18
930.581	5906.77
930.89	5903.38
931.199	5866.77
931.508	5849.14
931.817	5834.9
932.125	5847.56
932.434	5811.17
932.743	5757.17
933.051	5692.99
933.36	5751.52
933.669	5700.44
933.977	5678.97
934.286	5632.87
934.594	5669.94
934.902	5558.3
935.21	5555.81
935.519	5483.05
935.827	5511.3
936.135	5537.06
936.443	5447.34
936.751	5413.22
937.059	5458.64
937.367	5368.25
937.674	5397.17
937.982	5378.64
938.29	5348.59
938.597	5322.83
938.905	5235.6
939.213	5267.46
939.52	5212.77
939.827	5255.26
940.135	5190.17
940.442	5236.05
940.749	5147.24
941.056	5189.95
941.363	5096.39
941.67	5121.48
941.977	5095.04
942.284	5038.54
942.591	5023.85
942.898	4997.86
943.205	4974.13
943.511	4968.26
943.818	4924.19
944.125	4910.86
944.431	4909.28
944.738	4896.85
945.044	4866.34
945.35	4815.27
945.657	4793.12
945.963	4762.39
946.269	4780.02
946.575	4788.6
946.881	4730.98
947.187	4688.72
947.493	4671.32
947.799	4688.72
948.105	4652.34
948.41	4616.63
948.716	4590.87
949.022	4576.41
949.327	4560.13
949.633	4515.84
949.938	4559
950.244	4509.51
950.549	4483.3
950.854	4481.04
951.16	4436.97
951.465	4450.08
951.77	4435.17
952.075	4385.22
952.38	4387.71
952.685	4388.84
952.99	4321.95
953.294	4302.06
953.599	4280.14
953.904	4337.77
954.209	4212.8
954.513	4282.85
954.818	4271.55
955.122	4222.06
955.426	4214.15
955.731	4189.52
956.035	4171.9
956.339	4136.19
956.643	4135.96
956.948	4105.46
957.252	4079.69
957.556	4071.79
957.86	4038.79
958.163	4075.85
958.467	3992.69
958.771	4015.74
959.075	4023.65
959.378	3949.3
959.682	3952.69
959.985	3932.58
960.289	3878.8
960.592	3905.24
960.896	3929.42
961.199	3858.68
961.502	3849.42
961.805	3836.31
962.108	3770.1
962.411	3806.48
962.714	3794.05
963.017	3774.84
963.32	3758.12
963.623	3720.38
963.926	3757.9
964.228	3744.34
964.531	3653.72
964.833	3690.33
965.136	3632.7
965.438	3584.34
965.741	3607.62
966.043	3606.49
966.345	3557.45
966.648	3571.91
966.95	3570.78
967.252	3550.9
967.554	3484.46
967.856	3549.31
968.158	3515.42
968.46	3500.28
968.761	3465.47
969.063	3464.12
969.365	3470.67
969.666	3453.04
969.968	3375.98
970.269	3388.19
970.571	3370.34
970.872	3356.32
971.174	3362.65
971.475	3315.65
971.776	3333.05
972.077	3281.3
972.378	3282.43
972.679	3253.05
972.98	3279.49
973.281	3253.95
973.582	3216.44
973.883	3260.06
974.183	3229.32
974.484	3218.02
974.785	3184.58
975.085	3183
975.386	3169.66
975.686	3145.26
975.986	3142.09
976.287	3153.39
976.587	3111.58
976.887	3083.34
977.187	3079.95
977.487	3066.16
977.787	3049.44
978.087	3010.34
978.387	2992.49
978.687	2994.07
978.987	2981.19
979.286	2969.67
979.586	2962.89
979.885	2957.92
980.185	2973.28
980.484	2924.02
980.784	2899.39
981.083	2904.81
981.382	2901.87
981.682	2899.39
981.981	2852.61
982.28	2848.54
982.579	2850.57
982.878	2821.87
983.177	2794.08
983.475	2839.95
983.774	2788.2
984.073	2753.4
984.372	2783.01
984.67	2733.74
984.969	2710.24
985.267	2733.52
985.566	2701.43
985.864	2714.99
986.162	2704.36
986.461	2649.9
986.759	2707.08
987.057	2651.03
987.355	2638.6
987.653	2651.26
987.951	2631.6
988.249	2618.94
988.547	2628.66
988.844	2576.01
989.142	2609.9
989.44	2569.23
989.737	2522.45
990.035	2531.04
990.332	2509.34
990.63	2505.05
990.927	2501.43
991.224	2506.63
991.521	2456.46
991.819	2452.39
992.116	2440.64
992.413	2428.44
992.71	2404.03
993.006	2411.49
993.303	2400.42
993.6	2434.09
993.897	2359.97
994.193	2366.97
994.49	2372.62
994.787	2348.89
995.083	2335.56
995.379	2350.02
995.676	2326.07
995.972	2294.66
996.268	2289.69
996.565	2266.18
996.861	2284.71
997.157	2250.82
997.453	2252.17
997.749	2242
998.044	2220.53
998.34	2182.57
998.636	2190.03
998.932	2187.77
999.227	2180.99
999.523	2201.1
999.818	2114.1
1000.114	2153.64
1000.409	2143.47
1000.704	2124.04
1001	2115
1001.295	2108
1001.59	2085.85
1001.885	2087.88
1002.18	2064.15
1002.475	2065.51
1002.77	2051.05
1003.065	2026.64
1003.359	2047.21
1003.654	2016.47
1003.949	1998.39
1004.243	2014.89
1004.538	1978.06
1004.832	1975.34
1005.127	1964.04
1005.421	1925.4
1005.715	1927.21
1006.009	1930.37
1006.304	1910.26
1006.598	1934.44
1006.892	1924.5
1007.186	1900.32
1007.48	1862.13
1007.773	1849.92
1008.067	1852.63
1008.361	1823.03
1008.655	1832.07
1008.948	1846.53
1009.242	1807.44
1009.535	1790.04
1009.829	1758.63
1010.122	1772.64
1010.415	1769.02
1010.708	1754.11
1011.001	1736.71
1011.295	1743.49
1011.588	1718.4
1011.881	1716.14
1012.173	1713.43
1012.466	1737.38
1012.759	1678.63
1013.052	1696.48
1013.344	1675.24
1013.637	1696.48
1013.93	1640.44
1014.222	1625.97
1014.514	1631.17
1014.807	1603.6
1015.099	1595.92
1015.391	1599.53
1015.683	1567.9
1015.976	1589.36
1016.268	1574.22
1016.56	1572.19
1016.851	1526.77
1017.143	1530.61
1017.435	1521.34
1017.727	1538.97
1018.018	1482.7
1018.31	1475.24
1018.602	1506.88
1018.893	1474.11
1019.185	1488.58
1019.476	1487.9
1019.767	1465.3
1020.058	1446.77
1020.35	1433.89
1020.641	1424.4
1020.932	1416.49
1021.223	1404.29
1021.514	1430.5
1021.804	1394.57
1022.095	1405.42
1022.386	1397.51
1022.677	1363.83
1022.967	1375.81
1023.258	1315.7
1023.548	1335.13
1023.839	1330.61
1024.129	1304.63
1024.419	1314.12
1024.709	1292.88
1025	1299.66
1025.29	1273.89
1025.58	1284.51
1025.87	1282.93
1026.16	1287.23
1026.449	1264.63
1026.739	1235.7
1027.029	1243.39
1027.319	1213.33
1027.608	1229.37
1027.898	1206.78
1028.187	1212.2
1028.477	1216.72
1028.766	1208.36
1029.055	1188.47
1029.344	1192.31
1029.634	1200.22
1029.923	1177.4
1030.212	1159.09
1030.501	1140.34
1030.79	1138.53
1031.078	1114.12
1031.367	1113.9
1031.656	1110.28
1031.945	1100.56
1032.233	1109.83
1032.522	1104.63
1032.81	1114.35
1033.099	1100.56
1033.387	1096.72
1033.675	1042.71
1033.963	1061.02
1034.251	1044.29
1034.54	1064.41
1034.828	1064.63
1035.116	1042.26
1035.403	1040.9
1035.691	1023.5
1035.979	1019.44
1036.267	1011.53
1036.554	1016.95
1036.842	994.8
1037.129	999.55
1037.417	1011.53
1037.704	969.04
1037.992	971.75
1038.279	977.4
1038.566	950.29
1038.853	950.29
1039.14	950.29
