Data from hue_190_FLMS001491_00036.txt Node
Date: Tue Feb 07 16:45:12 GMT 2017
User: dcchb
Spectrometer: FLMS00149
Trigger mode: 0
Integration Time (sec): 2.000000E-2
Scans to average: 10
Electric dark correction enabled: true
Nonlinearity correction enabled: false
Boxcar width: 0
XAxis mode: Wavelengths
Number of Pixels in Spectrum: 2048
>>>>>Begin Spectral Data<<<<<
341.393	-13.66
341.776	-13.66
342.16	-13.66
342.543	-70.38
342.927	-65.63
343.31	-59.98
343.693	-70.38
344.077	-77.16
344.46	-69.93
344.843	-64.96
345.226	-48.91
345.61	-39.65
345.993	-27.44
346.376	5.1
346.759	8.71
347.142	32.22
347.525	44.19
347.908	60.46
348.291	90.29
348.674	84.87
349.057	132.55
349.44	129.16
349.823	144.3
350.206	164.87
350.588	184.3
350.971	194.47
351.354	215.04
351.737	240.8
352.119	238.99
352.502	242.83
352.884	271.53
353.267	263.4
353.65	285.77
354.032	302.72
354.414	298.2
354.797	319.67
355.179	303.62
355.562	321.25
355.944	331.42
356.326	336.39
356.709	329.16
357.091	317.63
357.473	329.16
357.855	337.52
358.238	310.18
358.62	330.97
359.002	313.57
359.384	328.03
359.766	347.46
360.148	349.72
360.53	328.25
360.912	328.71
361.294	313.57
361.676	312.21
362.057	335.26
362.439	336.62
362.821	328.93
363.203	316.28
363.584	311.76
363.966	318.54
364.348	295.94
364.729	331.87
365.111	316.05
365.493	305.66
365.874	315.83
366.256	308.37
366.637	320.57
367.019	306.33
367.4	315.37
367.781	307.01
368.163	317.86
368.544	312.66
368.925	303.85
369.306	311.53
369.688	290.97
370.069	295.26
370.45	298.88
370.831	301.81
371.212	308.59
371.593	304.07
371.974	318.08
372.355	292.77
372.736	328.03
373.117	319.21
373.498	310.63
373.879	303.85
374.26	306.11
374.641	312.21
375.021	306.79
375.402	311.76
375.783	327.35
376.163	308.59
376.544	330.51
376.925	322.6
377.305	318.99
377.686	323.96
378.066	327.58
378.447	323.51
378.827	321.25
379.208	304.53
379.588	332.77
379.968	323.73
380.349	338.88
380.729	323.96
381.109	303.17
381.489	344.52
381.87	316.05
382.25	313.34
382.63	316.28
383.01	330.51
383.39	335.03
383.77	321.02
384.15	328.25
384.53	328.48
384.91	334.58
385.29	330.06
385.67	329.84
386.049	355.37
386.429	326.22
386.809	337.07
387.189	354.69
387.568	353.34
387.948	345.88
388.328	329.16
388.707	330.29
389.087	341.36
389.466	345.88
389.846	354.47
390.225	343.62
390.605	343.17
390.984	366.22
391.363	353.79
391.743	355.6
392.122	354.02
392.501	361.47
392.881	368.03
393.26	381.81
393.639	370.96
394.018	371.42
394.397	376.84
394.776	351.3
395.155	351.53
395.534	382.49
395.913	373.22
396.292	374.35
396.671	380.68
397.05	397.63
397.429	388.14
397.808	394.47
398.186	398.76
398.565	391.3
398.944	384.07
399.323	404.41
399.701	385.65
400.08	384.75
400.458	392.21
400.837	392.66
401.215	408.25
401.594	387.91
401.972	403.51
402.351	417.29
402.729	424.75
403.107	428.14
403.486	414.81
403.864	411.42
404.242	415.48
404.62	431.75
404.999	440.57
405.377	431.98
405.755	421.36
406.133	443.05
406.511	434.01
406.889	455.03
407.267	461.81
407.645	457.97
408.023	457.52
408.401	467.91
408.779	492.54
409.156	471.53
409.534	460.91
409.912	481.02
410.29	492.09
410.667	511.98
411.045	485.09
411.422	518.08
411.8	541.13
412.178	524.86
412.555	532.32
412.933	509.04
413.31	547.46
413.687	564.63
414.065	558.98
414.442	552.88
414.819	577.74
415.197	600.79
415.574	586.78
415.951	618.64
416.328	598.98
416.705	602.6
417.082	612.99
417.46	623.16
417.837	650.05
418.214	634.23
418.591	664.52
418.967	644.4
419.344	650.73
419.721	671.3
420.098	668.13
420.475	695.93
420.852	724.18
421.228	711.29
421.605	725.76
421.982	737.73
422.358	760.33
422.735	764.17
423.111	785.42
423.488	778.86
423.864	814.79
424.241	839.88
424.617	820.67
424.994	823.38
425.37	835.36
425.746	859.31
426.123	883.95
426.499	874
426.875	900.89
427.251	921.23
427.627	921.23
428.003	907.9
428.379	955.58
428.756	946.32
429.132	962.59
429.507	967.79
429.883	982.93
430.259	982.93
430.635	1014.34
431.011	1002.81
431.387	1042.36
431.763	1037.16
432.138	1048.01
432.514	1069.03
432.89	1095.24
433.265	1091.85
433.641	1104.5
434.016	1157.16
434.392	1155.12
434.767	1205.52
435.143	1222.02
435.518	1232.64
435.894	1252.07
436.269	1276.03
436.644	1293.88
437.02	1294.1
437.395	1307.44
437.77	1339.53
438.145	1397.38
438.52	1392.86
438.895	1408.68
439.271	1428.11
439.646	1459.52
440.021	1507.43
440.395	1510.37
440.77	1468.34
441.145	1529.13
441.52	1566.87
441.895	1587.88
442.27	1579.07
442.645	1600.31
443.019	1643.02
443.394	1609.12
443.769	1635.79
444.143	1619.29
444.518	1684.6
444.892	1668.33
445.267	1695.68
445.641	1717.6
446.016	1765.28
446.39	1759.18
446.764	1765.73
447.139	1716.01
447.513	1773.41
447.887	1769.57
448.262	1787.65
448.636	1826.29
449.01	1845.05
449.384	1862.9
449.758	1876.91
450.132	1926.86
450.506	1947.19
450.88	1941.54
451.254	1925.27
451.628	1945.84
452.002	1985.61
452.376	2004.14
452.75	2038.72
453.123	2047.76
453.497	2069.9
453.871	2092.5
454.244	2121.2
454.618	2132.05
454.992	2160.97
455.365	2191.48
455.739	2216.57
456.112	2232.38
456.486	2262.21
456.859	2277.36
457.232	2356.9
457.606	2321.87
457.979	2379.05
458.352	2428.31
458.725	2450.23
459.099	2450.91
459.472	2497.24
459.845	2512.38
460.218	2543.79
460.591	2548.31
460.964	2586.73
461.337	2673.96
461.71	2711.92
462.083	2735.2
462.456	2729.55
462.829	2767.96
463.201	2812.71
463.574	2762.99
463.947	2797.57
464.32	2920.05
464.692	2937
465.065	2988.07
465.438	3014.74
465.81	3043.44
466.183	3099.93
466.555	3172.25
466.928	3166.82
467.3	3219.25
467.672	3261.51
468.045	3339.7
468.417	3350.1
468.789	3362.07
469.161	3426.03
469.534	3509.87
469.906	3583.54
470.278	3562.52
470.65	3587.6
471.022	3682.97
471.394	3745.57
471.766	3777.88
472.138	3809.74
472.51	3870.76
472.882	3923.41
473.253	4002.28
473.625	4049.29
473.997	4179
474.369	4205.67
474.74	4243.18
475.112	4333.35
475.484	4348.71
475.855	4484.53
476.227	4501.7
476.598	4637.29
476.97	4673.45
477.341	4872.54
477.713	4841.13
478.084	4877.96
478.455	5072.31
478.827	5104.85
479.198	5204.74
479.569	5262.14
479.94	5392.3
480.311	5451.28
480.682	5587.1
481.053	5662.58
481.424	5721.78
481.795	5830.26
482.166	5916.81
482.537	5992.96
482.908	6109.57
483.279	6138.72
483.65	6306.85
484.021	6470.24
484.391	6526.96
484.762	6576.68
485.133	6603.12
485.503	6717.69
485.874	6907.74
486.244	6941.87
486.615	7098.92
486.985	7129.88
487.356	7319.03
487.726	7280.16
488.097	7564.9
488.467	7527.16
488.837	7708.17
489.207	7757.89
489.578	7876.08
489.948	7918.79
490.318	8083.98
490.688	8089.63
491.058	8236.52
491.428	8365.33
491.798	8346.12
492.168	8575.49
492.538	8627.02
492.908	8663.63
493.278	8788.82
493.648	8741.37
494.017	8884.41
494.387	8971.19
494.757	9010.06
495.126	9049.38
495.496	9111.75
495.866	9201.02
496.235	9272.2
496.605	9319.2
496.974	9366.43
497.344	9452.31
497.713	9404.4
498.082	9525.53
498.452	9669.48
498.821	9673.09
499.19	9718.97
499.559	9758.06
499.928	9774.33
500.298	9822.47
500.667	9955.35
501.036	9835.35
501.405	9966.19
501.774	9962.58
502.143	9999.86
502.512	10071.73
502.88	10149.46
503.249	10107.21
503.618	10150.14
503.987	10177.94
504.356	10238.28
504.724	10293.42
505.093	10292.51
505.462	10283.7
505.83	10366.41
506.199	10389.23
506.567	10506.97
506.936	10492.96
507.304	10542
507.672	10538.83
508.041	10572.73
508.409	10582.67
508.777	10633.97
509.145	10641.88
509.514	10681.65
509.882	10725.04
510.25	10644.14
510.618	10727.53
510.986	10802.1
511.354	10801.65
511.722	10874.42
512.09	10894.98
512.458	10917.58
512.826	10945.6
513.193	10967.52
513.561	10946.28
513.929	11010.46
514.297	10965.49
514.664	11077.12
515.032	11024.24
515.4	11090.68
515.767	11001.87
516.135	11099.95
516.502	10967.75
516.869	11046.16
517.237	11079.38
517.604	11033.74
517.972	11098.59
518.339	11129.1
518.706	11107.63
519.073	11113.06
519.44	11099.5
519.808	11162.09
520.175	11186.73
520.542	11227.85
520.909	11199.38
521.276	11180.4
521.643	11217.46
522.009	11222.43
522.376	11245.48
522.743	11198.02
523.11	11259.49
523.477	11236.22
523.843	11286.61
524.21	11362.54
524.577	11296.78
524.943	11301.75
525.31	11314.63
525.676	11324.8
526.043	11420.62
526.409	11308.98
526.776	11356.21
527.142	11309.43
527.508	11237.35
527.874	11358.92
528.241	11360.05
528.607	11267.85
528.973	11344.91
529.339	11224.92
529.705	11287.74
530.071	11399.83
530.437	11251.58
530.803	11280.06
531.169	11239.38
531.535	11121.64
531.901	11167.52
532.267	11089.33
532.632	11141.76
532.998	11060.63
533.364	11003.91
533.73	11035.09
534.095	11017.46
534.461	10956.22
534.826	10950.8
535.192	10930.24
535.557	10936.79
535.923	10821.76
536.288	10812.72
536.653	10849.56
537.019	10710.13
537.384	10740.41
537.749	10631.03
538.114	10594.2
538.479	10588.1
538.845	10532.51
539.21	10456.12
539.575	10463.13
539.94	10330.48
540.305	10386.52
540.67	10313.53
541.034	10350.59
541.399	10274.89
541.764	10199.86
542.129	10131.84
542.494	10125.06
542.858	10065.85
543.223	10039.86
543.587	9973.88
543.952	9859.3
544.316	9930.49
544.681	9821.56
545.045	9817.5
545.41	9779.08
545.774	9711.06
546.138	9644.62
546.503	9690.95
546.867	9529.59
547.231	9455.7
547.595	9478.75
547.959	9412.99
548.324	9382.25
548.688	9345.64
549.052	9230.62
549.416	9288.24
549.779	9241.92
550.143	9124.18
550.507	9130.73
550.871	9076.5
551.235	8950.4
551.599	9005.99
551.962	8965.99
552.326	8946.56
552.689	8956.95
553.053	8821.59
553.417	8820.91
553.78	8820.23
554.143	8657.53
554.507	8686.68
554.87	8693.68
555.234	8659.11
555.597	8547.7
555.96	8516.74
556.323	8503.86
556.686	8466.8
557.05	8495.27
557.413	8462.5
557.776	8476.29
558.139	8436.06
558.502	8349.74
558.865	8379.34
559.228	8334.82
559.59	8302.96
559.953	8343.41
560.316	8298.67
560.679	8263.41
561.041	8283.3
561.404	8313.35
561.767	8257.99
562.129	8195.39
562.492	8251.44
562.854	8203.98
563.217	8175.28
563.579	8196.52
563.941	8151.33
564.304	8166.24
564.666	8163.3
565.028	8134.15
565.39	8116.52
565.753	8183.19
566.115	8143.87
566.477	8138.22
566.839	8124.66
567.201	8059.35
567.563	8113.81
567.925	8130.08
568.287	8098.22
568.648	8097.54
569.01	8105.9
569.372	8192.45
569.734	8016.41
570.095	8096.19
570.457	8082.85
570.819	8103.42
571.18	8055.96
571.542	8121.95
571.903	8116.98
572.265	8074.27
572.626	8085.79
572.987	8108.61
573.349	8076.52
573.71	8039.46
574.071	8102.51
574.432	8048.96
574.794	8139.12
575.155	8092.8
575.516	8039.01
575.877	8084.21
576.238	8024.55
576.599	8100.03
576.96	8088.05
577.32	8060.93
577.681	8080.37
578.042	8092.57
578.403	8048.28
578.763	8068.16
579.124	7993.36
579.485	8049.18
579.845	8120.82
580.206	8018.45
580.566	8001.05
580.927	7990.88
581.287	8076.07
581.648	7951.1
582.008	8028.84
582.368	7995.62
582.728	7990.88
583.089	7996.3
583.449	8004.66
583.809	7943.42
584.169	7978.45
584.529	7839.69
584.889	7938
585.249	7899.58
585.609	7860.71
585.969	7916.53
586.329	7888.06
586.688	7883.54
587.048	7848.51
587.408	7836.53
587.768	7886.47
588.127	7830.88
588.487	7786.14
588.846	7902.74
589.206	7841.28
589.565	7848.96
589.925	7781.84
590.284	7791.33
590.643	7812.58
591.003	7848.28
591.362	7846.93
591.721	7779.58
592.08	7753.14
592.44	7737.55
592.799	7804.89
593.158	7749.98
593.517	7713.82
593.876	7791.56
594.235	7713.37
594.593	7701.62
594.952	7755.4
595.311	7781.39
595.67	7694.84
596.029	7731.68
596.387	7737.32
596.746	7704.11
597.104	7657.1
597.463	7686.93
597.822	7660.04
598.18	7632.92
598.538	7646.48
598.897	7684.67
599.255	7655.29
599.613	7688.74
599.972	7580.49
600.33	7685.12
600.688	7585.69
601.046	7641.73
601.404	7696.65
601.762	7679.02
602.12	7674.73
602.478	7664.33
602.836	7716.31
603.194	7606.71
603.552	7605.12
603.91	7552.02
604.268	7649.64
604.625	7600.38
604.983	7542.75
605.341	7609.42
605.698	7621.17
606.056	7586.82
606.413	7580.94
606.771	7628.4
607.128	7624.79
607.485	7608.51
607.843	7585.46
608.2	7591.57
608.557	7652.58
608.914	7642.41
609.272	7636.08
609.629	7665.01
609.986	7763.76
610.343	7636.99
610.7	7712.01
611.057	7649.64
611.414	7644.9
611.771	7631.56
612.127	7688.29
612.484	7639.7
612.841	7695.74
613.198	7638.57
613.554	7679.7
613.911	7665.46
614.267	7686.03
614.624	7696.87
614.98	7712.69
615.337	7664.33
615.693	7688.74
616.05	7691.68
616.406	7709.75
616.762	7706.82
617.118	7631.56
617.475	7698.46
617.831	7707.04
618.187	7726.7
618.543	7743.88
618.899	7711.56
619.255	7745.91
619.611	7782.75
619.967	7794.72
620.323	7735.06
620.678	7744.33
621.034	7807.15
621.39	7734.16
621.746	7732.58
622.101	7818
622.457	7794.95
622.812	7668.63
623.168	7770.09
623.523	7713.6
623.879	7772.58
624.234	7757.66
624.589	7803.99
624.945	7785.91
625.3	7765.12
625.655	7779.81
626.01	7834.95
626.365	7763.09
626.72	7745.23
627.075	7663.65
627.43	7705.91
627.785	7737.1
628.14	7778.23
628.495	7764.67
628.85	7714.73
629.205	7660.72
629.559	7686.48
629.914	7676.99
630.269	7648.74
630.623	7691.68
630.978	7638.12
631.332	7711.34
631.687	7673.37
632.041	7637.89
632.396	7658
632.75	7639.25
633.104	7652.81
633.459	7611.23
633.813	7635.63
634.167	7614.84
634.521	7587.27
634.875	7603.32
635.229	7596.76
635.583	7514.73
635.937	7511.34
636.291	7493.94
636.645	7538.91
636.999	7481.29
637.352	7551.79
637.706	7463.89
638.06	7479.7
638.413	7525.35
638.767	7491.68
639.121	7431.34
639.474	7429.99
639.828	7420.95
640.181	7431.57
640.534	7445.81
640.888	7387.73
641.241	7378.46
641.594	7408.07
641.947	7316.77
642.301	7429.31
642.654	7398.8
643.007	7369.2
643.36	7349.99
643.713	7390.67
644.066	7356.32
644.419	7337.79
644.771	7313.83
645.124	7268.41
645.477	7266.6
645.83	7216.66
646.182	7221.63
646.535	7125.36
646.888	7183.89
647.24	7067.74
647.593	7171.01
647.945	7131.69
648.298	7143.67
648.65	7049.43
649.002	7107.74
649.355	7132.59
649.707	7058.25
650.059	7157.91
650.411	7243.78
650.763	7221.86
651.115	7349.54
651.467	7294.17
651.819	7341.4
652.171	7322.19
652.523	7315.41
652.875	7257.79
653.227	7248.75
653.578	7257.11
653.93	7261.86
654.282	7288.98
654.633	7220.73
654.985	7258.24
655.337	7330.78
655.688	7235.64
656.039	7334.4
656.391	7249.88
656.742	7255.3
657.094	7248.75
657.445	7301.18
657.796	7319.93
658.147	7269.77
658.498	7270.67
658.849	7301.86
659.2	7317.9
659.551	7313.38
659.902	7372.59
660.253	7337.11
660.604	7361.06
660.955	7341.85
661.306	7333.04
661.656	7291.01
662.007	7381.85
662.358	7354.51
662.708	7349.31
663.059	7383.44
663.409	7312.7
663.76	7361.29
664.11	7317.22
664.461	7409.65
664.811	7319.71
665.161	7330.1
665.511	7401.29
665.862	7345.02
666.212	7309.31
666.562	7395.41
666.912	7365.81
667.262	7356.32
667.612	7380.72
667.962	7392.02
668.312	7323.78
668.662	7346.15
669.011	7430.67
669.361	7374.17
669.711	7333.72
670.06	7373.94
670.41	7337.11
670.76	7359.48
671.109	7365.36
671.459	7322.42
671.808	7343.66
672.157	7328.3
672.507	7278.35
672.856	7271.35
673.205	7260.05
673.554	7263.44
673.904	7272.03
674.253	7347.96
674.602	7258.92
674.951	7168.53
675.3	7154.74
675.649	7255.3
675.998	7220.05
676.346	7208.53
676.695	7277.22
677.044	7214.85
677.393	7268.18
677.741	7198.13
678.09	7204.23
678.438	7173.05
678.787	7224.57
679.135	7245.59
679.484	7150.45
679.832	7162.65
680.181	7105.93
680.529	7099.83
680.877	7098.47
681.225	7074.07
681.573	7152.48
681.922	7062.54
682.27	7084.01
682.618	7060.05
682.966	7059.38
683.314	7078.59
683.661	7014.41
684.009	7030.68
684.357	6953.62
684.705	6995.2
685.053	6944.35
685.4	6928.98
685.748	6888.53
686.095	6870
686.443	6853.73
686.79	6923.33
687.138	6900.96
687.485	6819.16
687.832	6817.35
688.18	6824.58
688.527	6752.72
688.874	6832.49
689.221	6716.33
689.568	6733.51
689.915	6729.67
690.262	6718.14
690.609	6718.37
690.956	6614.42
691.303	6651.03
691.65	6627.3
691.997	6606.06
692.344	6520.63
692.69	6513.18
693.037	6477.7
693.383	6478.83
693.73	6483.57
694.077	6463.69
694.423	6459.84
694.769	6420.3
695.116	6402.67
695.462	6393.63
695.808	6359.96
696.155	6394.31
696.501	6293.29
696.847	6353.86
697.193	6279.28
697.539	6275.67
697.885	6241.54
698.231	6215.56
698.577	6140.76
698.923	6127.88
699.269	6154.99
699.614	6123.36
699.96	6070.93
700.306	6060.53
700.651	6054.88
700.997	6000.87
701.342	5991.38
701.688	6011.49
702.033	5990.25
702.379	5940.54
702.724	5974.43
703.069	5990.03
703.415	5867.09
703.76	5896.02
704.105	5853.31
704.45	5809.24
704.795	5781.22
705.14	5780.99
705.485	5761.33
705.83	5780.09
706.175	5803.36
706.52	5742.8
706.865	5706.87
707.209	5689.92
707.554	5696.93
707.899	5657.15
708.243	5635.69
708.588	5594.33
708.932	5592.97
709.277	5559.98
709.621	5597.72
709.966	5533.99
710.31	5565.86
710.654	5505.52
710.998	5519.08
711.342	5477.05
711.687	5511.85
712.031	5436.14
712.375	5416.26
712.719	5435.69
713.063	5443.83
713.407	5458.51
713.75	5421.45
714.094	5440.21
714.438	5418.52
714.782	5411.74
715.125	5343.72
715.469	5382.81
715.812	5311.4
716.156	5288.8
716.499	5372.87
716.843	5303.49
717.186	5270.05
717.53	5305.3
717.873	5323.6
718.216	5308.24
718.559	5303.26
718.902	5280.89
719.246	5255.81
719.589	5243.38
719.932	5294.9
720.275	5251.06
720.617	5262.14
720.96	5295.81
721.303	5276.82
721.646	5258.07
721.989	5222.59
722.331	5281.34
722.674	5260.55
723.016	5206.54
723.359	5180.78
723.701	5237.96
724.044	5215.13
724.386	5161.57
724.729	5208.58
725.071	5194.11
725.413	5198.63
725.755	5204.06
726.097	5188.69
726.439	5149.37
726.782	5145.53
727.124	5233.89
727.465	5185.3
727.807	5194.57
728.149	5104.17
728.491	5161.35
728.833	5145.53
729.175	5113.89
729.516	5122.03
729.858	5183.95
730.199	5150.73
730.541	5138.52
730.882	5117.28
731.224	5154.57
731.565	5084.51
731.906	5123.16
732.248	5112.54
732.589	5154.79
732.93	5140.56
733.271	5122.03
733.612	5120.22
733.953	5173.55
734.294	5181.91
734.635	5155.02
734.976	5195.47
735.317	5191.86
735.658	5129.26
735.999	5231.85
736.339	5164.74
736.68	5152.08
737.021	5185.75
737.361	5182.14
737.702	5222.59
738.042	5183.72
738.383	5177.39
738.723	5189.6
739.063	5258.75
739.404	5272.98
739.744	5236.37
740.084	5231.63
740.424	5250.61
740.764	5282.02
741.104	5283.15
741.444	5273.43
741.784	5259.2
742.124	5282.47
742.464	5334.68
742.804	5327.67
743.143	5354.79
743.483	5395.24
743.823	5358.4
744.162	5402.02
744.502	5401.79
744.841	5477.95
745.181	5517.5
745.52	5512.75
745.86	5566.08
746.199	5590.26
746.538	5684.72
746.877	5703.03
747.216	5700.77
747.556	5739.41
747.895	5846.3
748.234	5851.5
748.573	5853.31
748.911	5939.41
749.25	5963.81
749.589	5977.82
749.928	6109.35
750.267	6149.57
750.605	6170.59
750.944	6293.07
751.283	6292.62
751.621	6451.93
751.96	6465.95
752.298	6604.25
752.636	6685.15
752.975	6693.74
753.313	6882.43
753.651	6926.27
753.989	7014.63
754.327	7110.22
754.666	7200.39
755.004	7308.64
755.342	7441.97
755.679	7598.57
756.017	7689.64
756.355	7898.45
756.693	7949.75
757.031	8127.37
757.368	8253.24
757.706	8398.32
758.044	8511.54
758.381	8721.25
758.719	8760.57
759.056	8971.64
759.394	9200.34
759.731	9329.6
760.068	9351.07
760.405	9530.5
760.743	9745.86
761.08	9899.53
761.417	10028.56
761.754	10196.7
762.091	10416.12
762.428	10555.78
762.765	10685.27
763.102	10972.27
763.438	11043.23
763.775	11224.92
764.112	11442.76
764.449	11611.12
764.785	11751
765.122	11900.38
765.458	11962.07
765.795	12282.29
766.131	12327.94
766.467	12449.74
766.804	12630.53
767.14	12790.07
767.476	12947.13
767.812	13123.4
768.148	13294.01
768.485	13357.06
768.821	13596.83
769.157	13633.67
769.492	13796.15
769.828	14024.62
770.164	13935.35
770.5	14029.14
770.836	14280.88
771.171	14292.41
771.507	14385.96
771.842	14517.26
772.178	14676.13
772.513	14738.72
772.849	14865.72
773.184	14936.23
773.519	15023.23
773.855	15177.81
774.19	15220.52
774.525	15288.76
774.86	15438.82
775.195	15431.59
775.53	15575.08
775.865	15532.6
776.2	15553.62
776.535	15621.41
776.87	15651.24
777.205	15779.6
777.539	15758.36
777.874	15863.66
778.209	15826.38
778.543	15905.02
778.878	15913.38
779.212	15985.47
779.547	16052.36
779.881	16196.76
780.215	16057.33
780.55	16095.98
780.884	16178.23
781.218	16201.28
781.552	16236.31
781.886	16128.52
782.22	16163.32
782.554	16163.54
782.888	16116.31
783.222	16086.48
783.556	16184.79
783.889	16115.41
784.223	16102.3
784.557	16127.39
784.89	16211.45
785.224	16061.85
785.557	16082.87
785.891	16161.96
786.224	16158.12
786.558	16083.09
786.891	16112.92
787.224	16110.66
787.557	16173.49
787.891	16119.48
788.224	16053.26
788.557	16186.37
788.89	16148.4
789.223	16245.35
789.556	16074.96
789.888	16086.26
790.221	15957
790.554	15975.98
790.887	16080.38
791.219	15953.38
791.552	15963.32
791.884	15941.18
792.217	16004.68
792.549	15879.03
792.882	15855.08
793.214	15809.88
793.546	15801.07
793.879	15719.49
794.211	15623.22
794.543	15707.06
794.875	15708.87
795.207	15746.15
795.539	15742.31
795.871	15720.39
796.203	15490.57
796.535	15516.33
796.867	15436.56
797.198	15521.07
797.53	15589.1
797.862	15470.23
798.193	15408.31
798.525	15343.23
798.856	15396.11
799.188	15244.25
799.519	15266.17
799.85	15141.88
800.182	15076.79
800.513	15181.87
800.844	15078.15
801.175	15153.4
801.506	15104.14
801.837	15080.63
802.168	14977.36
802.499	15094.65
802.83	14960.41
803.161	14893.29
803.491	14902.79
803.822	14926.97
804.153	14881.32
804.483	14744.15
804.814	14698.27
805.145	14717.48
805.475	14684.03
805.805	14639.52
806.136	14632.28
806.466	14660.31
806.796	14637.03
807.126	14594.09
807.457	14569.69
807.787	14530.37
808.117	14415.79
808.447	14428.22
808.777	14514.77
809.107	14326.98
809.436	14336.02
809.766	14365.63
810.096	14288.34
810.426	14186.65
810.755	14315.68
811.085	14180.32
811.414	14244.72
811.744	14079.98
812.073	14114.33
812.403	14040.89
812.732	14090.38
813.061	14028.01
813.39	14013.32
813.719	13888.12
814.049	13965.41
814.378	14014.67
814.707	13879.08
815.036	13869.37
815.365	13847.45
815.693	13725.19
816.022	13782.82
816.351	13738.07
816.68	13692.65
817.008	13681.35
817.337	13652.65
817.665	13581.24
817.994	13610.62
818.322	13652.88
818.651	13536.49
818.979	13473.22
819.307	13541.24
819.636	13562.48
819.964	13451.3
820.292	13563.84
820.62	13538.08
820.948	13474.58
821.276	13523.39
821.604	13435.93
821.932	13536.72
822.259	13484.97
822.587	13501.47
822.915	13379.21
823.243	13451.52
823.57	13455.82
823.898	13433.67
824.225	13392.32
824.553	13416.05
824.88	13430.73
825.207	13454.24
825.535	13481.81
825.862	13439.55
826.189	13441.36
826.516	13515.93
826.843	13501.69
827.17	13514.8
827.497	13506.44
827.824	13527.68
828.151	13422.15
828.478	13443.39
828.805	13496.95
829.131	13385.09
829.458	13440
829.785	13398.87
830.111	13436.16
830.438	13606.32
830.764	13483.84
831.09	13543.73
831.417	13414.69
831.743	13476.61
832.069	13494.46
832.395	13405.65
832.722	13522.48
833.048	13354.35
833.374	13409.49
833.7	13383.28
834.026	13418.53
834.351	13328.14
834.677	13324.3
835.003	13398.19
835.329	13489.26
835.654	13394.13
835.98	13308.48
836.306	13310.29
836.631	13326.33
836.956	13360.91
837.282	13297.18
837.607	13240.23
837.932	13273.68
838.258	13243.39
838.583	13192.32
838.908	13163.85
839.233	13215.37
839.558	13034.59
839.883	13051.08
840.208	13067.58
840.533	13099.44
840.858	13000.24
841.182	13004.76
841.507	13058.09
841.832	13023.97
842.156	12916.62
842.481	12970.63
842.805	12902.84
843.13	12882.95
843.454	12859.68
843.778	12837.08
844.103	12831.2
844.427	12699.23
844.751	12804.76
845.075	12766.12
845.399	12629.63
845.723	12588.04
846.047	12635.95
846.371	12497.65
846.695	12557.76
847.019	12432.79
847.343	12437.99
847.666	12342.4
847.99	12328.39
848.313	12281.16
848.637	12215.85
848.96	12183.31
849.284	12168.62
849.607	12016.53
849.931	12086.36
850.254	11918.01
850.577	11947.84
850.9	11840.27
851.223	11860.61
851.546	11753.26
851.869	11645.47
852.192	11700.84
852.515	11590.56
852.838	11539.71
853.161	11580.16
853.483	11453.61
853.806	11430.56
854.129	11413.16
854.451	11410.22
854.774	11367.96
855.096	11304.46
855.419	11249.32
855.741	11244.8
856.063	11252.94
856.385	11127.29
856.708	11102.89
857.03	11056.56
857.352	11047.52
857.674	11033.28
857.996	11063.34
858.318	10974.53
858.64	10930.46
858.961	10897.69
859.283	10906.96
859.605	10835.77
859.926	10871.03
860.248	10811.37
860.57	10772.05
860.891	10785.38
861.212	10713.07
861.534	10672.61
861.855	10655.21
862.176	10701.77
862.498	10697.92
862.819	10659.73
863.14	10565.5
863.461	10606.63
863.782	10537.03
864.103	10559.85
864.424	10514.65
864.745	10586.29
865.065	10480.08
865.386	10452.28
865.707	10408.44
866.027	10451.83
866.348	10436.46
866.668	10370.48
866.989	10346.75
867.309	10375
867.63	10342.68
867.95	10315.79
868.27	10195.57
868.59	10277.15
868.91	10294.77
869.23	10274.89
869.55	10180.42
869.87	10284.83
870.19	10236.24
870.51	10243.25
870.83	10261.55
871.15	10186.07
871.469	10170.26
871.789	10195.79
872.109	10080.77
872.428	10052.97
872.748	10101.1
873.067	10092.97
873.386	10112.18
873.706	9997.38
874.025	10017.49
874.344	10003.71
874.663	10018.85
874.982	9970.49
875.301	10015.01
875.62	9903.82
875.939	9930.71
876.258	9859.75
876.577	9853.65
876.896	9859.53
877.214	9892.3
877.533	9876.7
877.852	9856.14
878.17	9779.53
878.489	9835.35
878.807	9847.1
879.125	9752.87
879.444	9729.14
879.762	9672.19
880.08	9744.73
880.398	9671.96
880.716	9711.06
881.034	9623.15
881.352	9687.33
881.67	9590.84
881.988	9575.69
882.306	9593.77
882.624	9571.4
882.941	9505.19
883.259	9469.26
883.577	9494.34
883.894	9509.93
884.212	9465.41
884.529	9505.64
884.846	9458.86
885.164	9402.82
885.481	9236.95
885.798	9382.25
886.115	9318.98
886.432	9254.8
886.75	9245.76
887.067	9220.45
887.383	9302.48
887.7	9278.75
888.017	9167.12
888.334	9141.81
888.651	9132.77
888.967	9099.77
889.284	9124.18
889.6	9073.11
889.917	9005.77
890.233	9015.48
890.55	9008.25
890.866	8967.57
891.182	8882.61
891.498	8871.53
891.815	8840.35
892.131	8880.35
892.447	8764.19
892.763	8809.84
893.079	8803.96
893.395	8780.01
893.71	8696.17
894.026	8759.9
894.342	8599.68
894.657	8603.06
894.973	8629.73
895.289	8680.12
895.604	8607.13
895.92	8524.87
896.235	8444.88
896.55	8495.95
896.865	8396.97
897.181	8323.07
897.496	8444.2
897.811	8355.61
898.126	8282.62
898.441	8314.94
898.756	8257.99
899.071	8235.16
899.386	8203.3
899.7	8165.79
900.015	8089.63
900.33	8084.21
900.644	8059.58
900.959	8104.32
901.273	8062.51
901.588	8033.59
901.902	7936.87
902.216	7930.99
902.531	7890.32
902.845	7903.42
903.159	7828.62
903.473	7759.7
903.787	7733.03
904.101	7763.09
904.415	7734.61
904.729	7684.44
905.042	7603.99
905.356	7631.79
905.67	7614.16
905.984	7582.53
906.297	7555.41
906.611	7497.56
906.924	7470.89
907.237	7456.65
907.551	7471.34
907.864	7424.56
908.177	7328.97
908.491	7350.89
908.804	7347.28
909.117	7244.91
909.43	7230.9
909.743	7233.16
910.056	7182.31
910.368	7167.17
910.681	7125.14
910.994	7097.57
911.307	7068.42
911.619	6965.37
911.932	7013.5
912.244	6996.55
912.557	6945.03
912.869	6980.28
913.181	6923.56
913.494	6875.2
913.806	6873.84
914.118	6884.01
914.43	6739.16
914.742	6752.04
915.054	6698.71
915.366	6724.92
915.678	6686.73
915.99	6664.13
916.302	6611.93
916.613	6585.26
916.925	6594.76
917.236	6578.71
917.548	6480.63
917.859	6522.89
918.171	6444.25
918.482	6455.55
918.794	6427.3
919.105	6433.63
919.416	6362.22
919.727	6353.86
920.038	6313.18
920.349	6304.59
920.66	6266.18
920.971	6253.52
921.282	6209
921.593	6175.33
921.903	6167.87
922.214	6119.74
922.525	6111.6
922.835	6096.69
923.146	6044.49
923.456	6036.13
923.767	5932.17
924.077	6009.46
924.387	5947.99
924.697	5937.37
925.008	5915.45
925.318	5978.73
925.628	5888.33
925.938	5846.3
926.248	5791.61
926.558	5784.38
926.867	5797.04
927.177	5775.34
927.487	5734.89
927.796	5707.32
928.106	5727.43
928.416	5646.31
928.725	5651.96
929.034	5631.62
929.344	5609.7
929.653	5594.56
929.962	5520.43
930.271	5500.77
930.581	5489.93
930.89	5489.7
931.199	5478.63
931.508	5435.01
931.817	5390.49
932.125	5443.83
932.434	5418.74
932.743	5394.56
933.051	5321.8
933.36	5313.66
933.669	5296.03
933.977	5239.99
934.286	5267.33
934.594	5216.71
934.902	5181.23
935.21	5173.1
935.519	5151.18
935.827	5126.55
936.135	5056.94
936.443	5040.67
936.751	5078.64
937.059	5066.43
937.367	5008.81
937.674	5020.33
937.982	5020.79
938.29	4970.39
938.597	4992.99
938.905	4911.86
939.213	4878.42
939.52	4843.62
939.827	4899.21
940.135	4820.79
940.442	4811.53
940.749	4830.51
941.056	4783.73
941.363	4713.68
941.67	4754.13
941.977	4707.8
942.284	4646.56
942.591	4634.36
942.898	4688.59
943.205	4661.25
943.511	4611.31
943.818	4642.49
944.125	4558.65
944.431	4603.62
944.738	4549.84
945.044	4541.25
945.35	4518.43
945.657	4477.52
945.963	4424.42
946.269	4441.14
946.575	4414.7
946.881	4430.29
947.187	4413.8
947.493	4393.91
947.799	4346.45
948.105	4336.28
948.41	4306.68
948.716	4298.09
949.022	4276.17
949.327	4283.18
949.633	4225.55
949.938	4250.41
950.244	4254.7
950.549	4209.51
950.854	4148.49
951.16	4211.77
951.465	4120.47
951.77	4074.6
952.075	4120.24
952.38	4086.12
952.685	4058.78
952.99	4033.24
953.294	4053.58
953.599	3993.47
953.904	4022.17
954.209	3972.68
954.513	3967.48
954.818	3963.41
955.122	3979.91
955.426	3874.6
955.731	3911.66
956.035	3925.22
956.339	3875.28
956.643	3866.01
956.948	3865.56
957.252	3838.67
957.556	3810.65
957.86	3748.5
958.163	3789.63
958.467	3764.1
958.771	3733.81
959.075	3731.33
959.378	3696.08
959.682	3684.55
959.985	3701.5
960.289	3653.82
960.592	3625.34
960.896	3651.33
961.199	3629.41
961.502	3653.14
961.805	3577.21
962.108	3540.82
962.411	3570.2
962.714	3510.32
963.017	3559.36
963.32	3492.69
963.623	3501.73
963.926	3499.47
964.228	3489.3
964.531	3452.47
964.833	3448.62
965.136	3420.38
965.438	3390.77
965.741	3386.48
966.043	3370.43
966.345	3387.83
966.648	3339.93
966.95	3322.07
967.252	3343.54
967.554	3294.28
967.856	3287.5
968.158	3229.87
968.46	3239.14
968.761	3250.44
969.063	3236.2
969.365	3245.92
969.666	3196.65
969.968	3192.81
970.269	3178.57
970.571	3176.09
970.872	3134.06
971.174	3076.43
971.475	3159.82
971.776	3102.87
972.077	3078.01
972.378	3066.71
972.679	3088.86
972.98	3059.93
973.281	3022.19
973.582	3042.98
973.883	3019.93
974.183	3000.95
974.484	2990.78
974.785	2982.2
975.085	2989.65
975.386	2946.72
975.686	2958.92
975.986	2939.94
976.287	2934.51
976.587	2889.32
976.887	2897
977.187	2887.73
977.487	2862.2
977.787	2855.42
978.087	2868.53
978.387	2798.92
978.687	2846.15
978.987	2788.08
979.286	2795.76
979.586	2754.18
979.885	2775.2
980.185	2748.98
980.484	2720.06
980.784	2743.33
981.083	2734.52
981.382	2727.29
981.682	2723.45
981.981	2655.88
982.28	2644.58
982.579	2640.28
982.878	2643
983.177	2636.67
983.475	2641.19
983.774	2611.13
984.073	2568.87
984.372	2589.21
984.67	2577.23
984.969	2563
985.267	2546.95
985.566	2528.65
985.864	2510.57
986.162	2545.6
986.461	2502.21
986.759	2496.78
987.057	2465.15
987.355	2499.5
987.653	2457.24
987.951	2463.11
988.249	2423.79
988.547	2403
988.844	2412.49
989.142	2433.74
989.44	2380.18
989.737	2391.48
990.035	2366.39
990.332	2358.03
990.63	2370.46
990.927	2368.2
991.224	2315.77
991.521	2341.99
991.819	2311.93
992.116	2313.74
992.413	2277.36
992.71	2252.5
993.006	2274.42
993.303	2263.12
993.6	2214.98
993.897	2234.42
994.193	2208.43
994.49	2187.64
994.787	2176.79
995.083	2188.77
995.379	2167.53
995.676	2166.17
995.972	2163.69
996.268	2148.77
996.565	2149.9
996.861	2133.63
997.157	2091.82
997.453	2116
997.749	2074.65
998.044	2092.05
998.34	2064.25
998.636	2065.16
998.932	2050.92
999.227	2038.04
999.523	2059.51
999.818	2007.76
1000.114	1993.97
1000.409	2010.02
1000.704	1999.4
1001	1995.1
1001.295	1958.04
1001.59	1956.69
1001.885	1933.18
1002.18	1937.7
1002.475	1943.58
1002.77	1917.82
1003.065	1894.99
1003.359	1888.89
1003.654	1935.67
1003.949	1898.16
1004.243	1868.1
1004.538	1844.15
1004.832	1835.56
1005.127	1824.49
1005.421	1824.03
1005.715	1827.65
1006.009	1796.69
1006.304	1806.18
1006.598	1785.84
1006.892	1737.48
1007.186	1733.41
1007.48	1767.31
1007.773	1729.12
1008.067	1743.81
1008.361	1726.86
1008.655	1721.44
1008.948	1730.03
1009.242	1721.89
1009.535	1690.03
1009.829	1664.04
1010.122	1659.74
1010.415	1672.63
1010.708	1667.65
1011.001	1666.98
1011.295	1630.82
1011.588	1630.37
1011.881	1608.67
1012.173	1640.31
1012.466	1582.46
1012.759	1588.79
1013.052	1591.95
1013.344	1590.82
1013.637	1561.89
1013.93	1578.62
1014.222	1529.13
1014.514	1552.4
1014.807	1519.18
1015.099	1496.36
1015.391	1500.2
1015.683	1507.21
1015.976	1474.89
1016.268	1481.44
1016.56	1454.1
1016.851	1469.47
1017.143	1464.27
1017.435	1415.01
1017.727	1439.19
1018.018	1409.81
1018.31	1444.83
1018.602	1423.14
1018.893	1403.71
1019.185	1403.71
1019.476	1372.52
1019.767	1374.1
1020.058	1371.84
1020.35	1361.9
1020.641	1349.24
1020.932	1353.99
1021.223	1334.78
1021.514	1339.75
1021.804	1315.35
1022.095	1308.12
1022.386	1321.22
1022.677	1287.32
1022.967	1276.93
1023.258	1289.36
1023.548	1296.14
1023.839	1266.08
1024.129	1259.98
1024.419	1244.84
1024.709	1231.51
1025	1205.97
1025.29	1226.31
1025.58	1177.72
1025.87	1191.73
1026.16	1195.12
1026.449	1164.84
1026.739	1158.06
1027.029	1188.57
1027.319	1162.58
1027.608	1180.44
1027.898	1161.9
1028.187	1124.62
1028.477	1144.28
1028.766	1127.1
1029.055	1116.71
1029.344	1121.23
1029.634	1121.91
1029.923	1103.83
1030.212	1098.63
1030.501	1099.53
1030.79	1096.14
1031.078	1035.13
1031.367	1055.47
1031.656	1057.95
1031.945	1041.23
1032.233	1044.17
1032.522	1062.02
1032.81	1031.06
1033.099	1044.17
1033.387	998.52
1033.675	1004.17
1033.963	1010.72
1034.251	999.2
1034.54	991.06
1034.828	984.28
1035.116	982.93
1035.403	971.4
1035.691	994.68
1035.979	971.4
1036.267	975.02
1036.554	935.02
1036.842	930.72
1037.129	937.28
1037.417	931.63
1037.704	894.57
1037.992	917.62
1038.279	913.55
1038.566	883.04
1038.853	883.04
1039.14	883.04
