Data from hue_10_FLMS001491_50.txt Node
Date: Mon Feb 06 15:31:59 GMT 2017
User: dcchb
Spectrometer: FLMS00149
Trigger mode: 0
Integration Time (sec): 2.000000E-2
Scans to average: 10
Electric dark correction enabled: true
Nonlinearity correction enabled: false
Boxcar width: 0
XAxis mode: Wavelengths
Number of Pixels in Spectrum: 2048
>>>>>Begin Spectral Data<<<<<
341.393	-5.28
341.776	-5.28
342.16	-5.28
342.543	-59.74
342.927	-78.5
343.31	-78.73
343.693	-64.26
344.077	-61.1
344.46	-54.77
344.843	-50.93
345.226	-19.75
345.61	-39.86
345.993	-29.01
346.376	-18.16
346.759	17.77
347.142	28.84
347.525	43.3
347.908	72.46
348.291	62.51
348.674	87.82
349.057	103.87
349.44	121.49
349.823	152.68
350.206	171.66
350.588	196.29
350.971	214.6
351.354	229.74
351.737	232
352.119	247.37
352.502	257.08
352.884	282.62
353.267	270.19
353.65	291.88
354.032	280.81
354.414	320.81
354.797	295.05
355.179	329.4
355.562	339.57
355.944	325.1
356.326	325.56
356.709	353.8
357.091	346.57
357.473	332.11
357.855	346.57
358.238	365.1
358.62	341.38
359.002	342.05
359.384	337.31
359.766	342.96
360.148	351.77
360.53	328.49
360.912	363.75
361.294	340.92
361.676	338.44
362.057	330.98
362.439	338.66
362.821	313.35
363.203	336.4
363.584	322.62
363.966	324.88
364.348	317.2
364.729	320.36
365.111	323.52
365.493	319
365.874	319.45
366.256	322.39
366.637	320.58
367.019	321.71
367.4	327.36
367.781	317.65
368.163	326.69
368.544	311.77
368.925	312.68
369.306	330.53
369.688	303.86
370.069	306.12
370.45	330.75
370.831	295.27
371.212	315.39
371.593	317.87
371.974	312.68
372.355	300.47
372.736	325.78
373.117	307.48
373.498	324.65
373.879	332.34
374.26	311.55
374.641	314.48
375.021	313.13
375.402	323.3
375.783	307.48
376.163	315.84
376.544	336.86
376.925	327.59
377.305	329.17
377.686	323.07
378.066	329.4
378.447	321.71
378.827	334.37
379.208	342.28
379.588	324.43
379.968	314.03
380.349	323.97
380.729	323.3
381.109	317.2
381.489	321.26
381.87	337.08
382.25	316.74
382.63	346.8
383.01	309.96
383.39	338.44
383.77	353.13
384.15	333.01
384.53	341.83
384.91	346.35
385.29	351.09
385.67	351.54
386.049	349.28
386.429	354.03
386.809	344.76
387.189	363.97
387.568	348.83
387.948	344.99
388.328	338.66
388.707	349.28
389.087	353.8
389.466	372.56
389.846	342.73
390.225	344.76
390.605	369.85
390.984	357.42
391.363	347.25
391.743	376.63
392.122	349.06
392.501	380.24
392.881	358.78
393.26	358.55
393.639	357.65
394.018	347.48
394.397	356.06
394.776	355.16
395.155	383.41
395.534	362.84
395.913	364.65
396.292	378.21
396.671	374.82
397.05	388.83
397.429	376.85
397.808	386.12
398.186	370.53
398.565	386.57
398.944	396.97
399.323	384.99
399.701	383.63
400.08	390.19
400.458	374.14
400.837	401.49
401.215	368.27
401.594	396.97
401.972	387.02
402.351	392
402.729	379.57
403.107	401.26
403.486	400.36
403.864	396.06
404.242	405.1
404.62	410.3
404.999	398.55
405.377	389.51
405.755	415.5
406.133	415.95
406.511	404.42
406.889	428.38
407.267	416.4
407.645	424.99
408.023	417.98
408.401	412.33
408.779	435.84
409.156	417.53
409.534	407.59
409.912	418.44
410.29	415.05
410.667	440.13
411.045	459.11
411.422	422.95
411.8	432.45
412.178	441.49
412.555	440.13
412.933	441.26
413.31	417.98
413.687	437.42
414.065	466.34
414.442	443.29
414.819	442.62
415.197	464.54
415.574	472.45
415.951	456.4
416.328	447.14
416.705	479.68
417.082	475.16
417.46	481.48
417.837	486.68
418.214	478.55
418.591	482.61
418.967	458.43
419.344	480.13
419.721	507.92
420.098	479.22
420.475	499.11
420.852	487.36
421.228	486.68
421.605	471.54
421.982	501.82
422.358	504.31
422.735	497.76
423.111	502.5
423.488	501.82
423.864	516.96
424.241	541.82
424.617	539.56
424.994	522.61
425.37	530.97
425.746	501.82
426.123	550.41
426.499	546.34
426.875	545.89
427.251	538.21
427.627	551.31
428.003	535.72
428.379	534.82
428.756	549.73
429.132	549.05
429.507	568.04
429.883	568.26
430.259	551.54
430.635	570.07
431.011	555.61
431.387	598.77
431.763	604.19
432.138	577.53
432.514	586.34
432.89	590.18
433.265	604.65
433.641	621.59
434.016	609.62
434.392	617.3
434.767	612.55
435.143	644.42
435.518	635.15
435.894	627.47
436.269	648.03
436.644	642.16
437.02	639.45
437.395	665.66
437.77	672.44
438.145	662.72
438.52	648.94
438.895	662.95
439.271	700.69
439.646	678.32
440.021	683.29
440.395	695.04
440.77	658.43
441.145	688.48
441.52	699.33
441.895	693
442.27	684.87
442.645	695.72
443.019	706.56
443.394	711.99
443.769	714.02
444.143	726.9
444.518	729.61
444.892	725.32
445.267	734.36
445.641	763.06
446.016	714.7
446.39	729.39
446.764	745.43
447.139	735.94
447.513	737.3
447.887	739.56
448.262	742.72
448.636	737.07
449.01	758.99
449.384	771.42
449.758	757.86
450.132	746.11
450.506	751.31
450.88	760.35
451.254	796.96
451.628	782.95
452.002	812.1
452.376	794.24
452.75	785.21
453.123	803.74
453.497	797.18
453.871	806.9
454.244	813.45
454.618	819.1
454.992	825.88
455.365	847.12
455.739	861.81
456.112	853.9
456.486	883.73
456.859	861.36
457.232	859.33
457.606	888.93
457.979	894.58
458.352	896.61
458.725	902.04
459.099	910.17
459.472	922.83
459.845	929.83
460.218	916.05
460.591	942.49
460.964	934.81
461.337	965.77
461.71	981.58
462.083	1014.8
462.456	992.88
462.829	988.36
463.201	1012.09
463.574	1020.91
463.947	1019.55
464.32	1059.1
464.692	1034.69
465.065	1058.64
465.438	1081.69
465.81	1059.77
466.183	1109.04
466.555	1111.3
466.928	1125.08
467.3	1136.61
467.672	1131.86
468.045	1163.27
468.417	1167.12
468.789	1170.51
469.161	1168.47
469.534	1220.9
469.906	1205.76
470.278	1252.54
470.65	1242.14
471.022	1276.49
471.394	1272.88
471.766	1289.15
472.138	1283.72
472.51	1341.57
472.882	1349.03
473.253	1390.16
473.625	1402.14
473.997	1436.26
474.369	1424.96
474.74	1452.53
475.112	1488.24
475.484	1528.24
475.855	1533.43
476.227	1514.45
476.598	1583.15
476.97	1595.81
477.341	1614.79
477.713	1650.72
478.084	1652.53
478.455	1691.4
478.827	1694.11
479.198	1786.53
479.569	1804.39
479.94	1838.74
480.311	1857.27
480.682	1886.65
481.053	1941.56
481.424	1977.26
481.795	2010.94
482.166	2046.19
482.537	2080.09
482.908	2116.02
483.279	2124.38
483.65	2152.63
484.021	2231.49
484.391	2277.6
484.762	2275.56
485.133	2339.97
485.503	2317.37
485.874	2389
486.244	2389.46
486.615	2484.37
486.985	2495.89
487.356	2561.66
487.726	2611.6
488.097	2664.48
488.467	2626.29
488.837	2728.21
489.207	2732.5
489.578	2768.2
489.948	2876.45
490.318	2840.97
490.688	2927.3
491.058	2964.81
491.428	3006.62
491.798	3038.03
492.168	3094.98
492.538	3098.36
492.908	3185.14
493.278	3201.86
493.648	3186.95
494.017	3266.04
494.387	3264.91
494.757	3322.31
495.126	3315.08
495.496	3360.96
495.866	3407.28
496.235	3455.42
496.605	3482.08
496.974	3527.73
497.344	3502.65
497.713	3600.95
498.082	3568.41
498.452	3616.32
498.821	3675.52
499.19	3668.52
499.559	3689.76
499.928	3732.92
500.298	3726.6
500.667	3760.04
501.036	3826.71
501.405	3824.9
501.774	3847.72
502.143	3883.88
502.512	3903.09
502.88	3908.06
503.249	3936.99
503.618	3979.92
503.987	3999.13
504.356	4005.69
504.724	3983.77
505.093	4028.74
505.462	4095.63
505.83	4081.84
506.199	4121.16
506.567	4148.51
506.936	4119.81
507.304	4133.14
507.672	4219.47
508.041	4242.29
508.409	4206.81
508.777	4235.28
509.145	4310.31
509.514	4333.36
509.882	4293.81
510.25	4368.61
510.618	4380.59
510.986	4412.91
511.354	4415.62
511.722	4410.42
512.09	4441.83
512.458	4471.44
512.826	4428.73
513.193	4510.98
513.561	4534.71
513.929	4486.35
514.297	4548.5
514.664	4560.93
515.032	4548.27
515.4	4583.3
515.767	4622.39
516.135	4645.89
516.502	4601.15
516.869	4670.3
517.237	4641.15
517.604	4640.92
517.972	4680.02
518.339	4697.87
518.706	4657.87
519.073	4702.16
519.44	4777.42
519.808	4798.66
520.175	4801.82
520.542	4816.96
520.909	4805.21
521.276	4875.95
521.643	4889.05
522.009	4910.52
522.376	4913.46
522.743	4925.21
523.11	4935.6
523.477	5020.57
523.843	5019.67
524.21	5063.06
524.577	5057.86
524.943	5063.06
525.31	5095.83
525.676	5204.98
526.043	5170.4
526.409	5174.02
526.776	5236.84
527.142	5237.97
527.508	5289.49
527.874	5324.97
528.241	5343.96
528.607	5305.54
528.973	5369.27
529.339	5389.38
529.705	5404.07
530.071	5479.32
530.437	5435.48
530.803	5512.31
531.169	5535.14
531.535	5535.81
531.901	5546.66
532.267	5583.72
532.632	5578.07
532.998	5642.93
533.364	5625.08
533.73	5688.35
534.095	5710.95
534.461	5735.58
534.826	5751.18
535.192	5780.1
535.557	5841.57
535.923	5822.81
536.288	5830.72
536.653	5883.15
537.019	5867.11
537.384	5926.99
537.749	5960.21
538.114	5908.46
538.479	5902.36
538.845	5968.12
539.21	5997.95
539.575	6035.24
539.94	6015.35
540.305	6070.72
540.67	6036.37
541.034	6147.78
541.399	6131.73
541.764	6203.37
542.129	6196.36
542.494	6217.6
542.858	6229.13
543.223	6284.27
543.587	6280.43
543.952	6347.32
544.316	6375.11
544.681	6350.71
545.045	6398.17
545.41	6451.5
545.774	6435.45
546.138	6412.4
546.503	6484.72
546.867	6494.66
547.231	6559.52
547.595	6574.43
547.959	6553.87
548.324	6627.31
548.688	6636.12
549.052	6677.03
549.416	6703.24
549.779	6673.19
550.143	6712.06
550.507	6757.48
550.871	6756.57
551.235	6816.01
551.599	6861.43
551.962	6824.59
552.326	6894.88
552.689	6881.99
553.053	6865.72
553.417	6865.95
553.78	6971.48
554.143	6977.81
554.507	6957.02
554.87	7022.78
555.234	7060.07
555.597	7048.32
555.96	7074.76
556.323	7068.43
556.686	7095.77
557.05	7119.28
557.413	7150.69
557.776	7171.48
558.139	7233.62
558.502	7240.63
558.865	7287.41
559.228	7245.15
559.59	7268.65
559.953	7314.98
560.316	7348.42
560.679	7366.95
561.041	7440.85
561.404	7425.93
561.767	7448.98
562.129	7438.14
562.492	7517.01
562.854	7493.96
563.217	7553.84
563.579	7538.02
563.941	7673.16
564.304	7655.31
564.666	7720.16
565.028	7723.55
565.39	7761.29
565.753	7716.32
566.115	7787.51
566.477	7745.93
566.839	7735.31
567.201	7825.25
567.563	7853.95
567.925	7873.83
568.287	7915.64
568.648	7962.64
569.01	7970.78
569.372	8042.19
569.734	8041.29
570.095	8135.07
570.457	8161.06
570.819	8165.12
571.18	8136.88
571.542	8248.74
571.903	8249.19
572.265	8356.76
572.626	8364.67
572.987	8396.98
573.349	8457.09
573.71	8460.26
574.071	8481.05
574.432	8635.39
574.794	8647.6
575.155	8736.86
575.516	8709.97
575.877	8848.5
576.238	8866.8
576.599	8908.61
576.96	9020.24
577.32	9041.71
577.681	9178.2
578.042	9199.22
578.403	9314.25
578.763	9386.56
579.124	9459.33
579.485	9635.14
579.845	9754.46
580.206	9806.21
580.566	9899.32
580.927	10022.48
581.287	10198.74
581.648	10322.81
582.008	10509.24
582.368	10595.34
582.728	10766.19
583.089	10827.43
583.449	11019.06
583.809	11219.06
584.169	11414.76
584.529	11569.33
584.889	11906.27
585.249	12026.94
585.609	12147.39
585.969	12427.84
586.329	12606.36
586.688	12882.97
587.048	13086.12
587.408	13268.94
587.768	13518.43
588.127	13752.32
588.487	13920
588.846	14288.58
589.206	14507.56
589.565	14849.02
589.925	15127.88
590.284	15310.7
590.643	15660.29
591.003	15973.05
591.362	16361.52
591.721	16547.95
592.08	16881.28
592.44	17200.82
592.799	17504.09
593.158	17810.97
593.517	18142.94
593.876	18459.32
594.235	18766.65
594.593	19094.1
594.952	19489.12
595.311	19652.96
595.67	20165.94
596.029	20595.76
596.387	20903.77
596.746	21247.94
597.104	21315.29
597.463	21800.02
597.822	22153.23
598.18	22514.35
598.538	22790.5
598.897	23257.38
599.255	23322.92
599.613	24085.84
599.972	24190.01
600.33	24556.33
600.688	24795.2
601.046	25368.06
601.404	25670.65
601.762	25830.65
602.12	26221.6
602.478	26566.45
602.836	26848.93
603.194	27165.53
603.552	27582.47
603.91	27605.52
604.268	28101.78
604.625	28358.27
604.983	28831.02
605.341	28797.12
605.698	29323.66
606.056	29613.37
606.413	29853.14
606.771	30241.15
607.128	30548.94
607.485	30547.13
607.843	30919.78
608.2	31302.37
608.557	31614.45
608.914	31814.67
609.272	32198.84
609.629	32564.71
609.986	32907.98
610.343	32866.62
610.7	33601.52
611.057	33600.39
611.414	33801.74
611.771	34075.63
612.127	34338
612.484	34479.91
612.841	34772.33
613.198	34960.8
613.554	35120.57
613.911	35450.06
614.267	35678.07
614.624	35769.6
614.98	36079.64
615.337	36328.45
615.693	36544.94
616.05	36571.83
616.406	37052.5
616.762	36841.66
617.118	37175.43
617.475	37081.43
617.831	37503.34
618.187	37701.52
618.543	37911.46
618.899	38143.32
619.255	38383.76
619.611	38391
619.967	38657.2
620.323	38790.31
620.678	38753.7
621.034	38838.89
621.39	38987.36
621.746	39088.15
622.101	39574.24
622.457	39368.6
622.812	39685.88
623.168	39809.72
623.523	39951.86
623.879	40095.81
624.234	39925.42
624.589	40156.6
624.945	40317.95
625.3	40414.45
625.655	40564.05
626.01	40690.6
626.365	40745.51
626.72	40788.22
627.075	40714.32
627.43	40873.19
627.785	40868.67
628.14	41036.58
628.495	41150.92
628.85	41108.66
629.205	41076.58
629.559	41323.35
629.914	41204.93
630.269	41259.4
630.623	41247.19
630.978	41158.83
631.332	41517.92
631.687	41542.55
632.041	41526.28
632.396	41556.11
632.75	41373.29
633.104	41531.25
633.459	41450.12
633.813	41538.26
634.167	41407.64
634.521	41428.2
634.875	41702.77
635.229	41600.63
635.583	41468.43
635.937	41508.65
636.291	41592.95
636.645	41617.58
636.999	41468.66
637.352	41790.45
637.706	41662.32
638.06	41603.34
638.413	41630.01
638.767	41533.06
639.121	41650.57
639.474	41370.58
639.828	41512.72
640.181	41529.22
640.534	41521.54
640.888	41539.39
641.241	41433.85
641.594	41474.3
641.947	41530.12
642.301	41385.49
642.654	41590.46
643.007	41574.64
643.36	41545.72
643.713	41494.87
644.066	41646.96
644.419	41416.91
644.771	41009.91
645.124	40696.92
645.477	40612.41
645.83	40539.19
646.182	40506.19
646.535	40281.12
646.888	40379.42
647.24	40182.59
647.593	40498.96
647.945	40247.9
648.298	40207.9
648.65	40140.1
649.002	40144.62
649.355	40224.39
649.707	40197.73
650.059	40244.05
650.411	40782.8
650.763	40807.43
651.115	41232.28
651.467	41144.6
651.819	41145.73
652.171	41041.77
652.523	41076.12
652.875	40981.66
653.227	40788.22
653.578	41161.77
653.93	40989.35
654.282	40801.78
654.633	40744.15
654.985	40823.93
655.337	40873.19
655.688	40836.58
656.039	40974.43
656.391	40575.35
656.742	40617.15
657.094	40799.29
657.445	40808.33
657.796	40813.08
658.147	40672.74
658.498	40663.48
658.849	40810.59
659.2	40818.28
659.551	40532.18
659.902	40767.66
660.253	40642.91
660.604	40713.65
660.955	40587.1
661.306	40790.71
661.656	40768.79
662.007	40714.55
662.358	40695.57
662.708	40720.88
663.059	40676.59
663.409	40411.51
663.76	40660.32
664.11	40677.94
664.461	40724.72
664.811	40667.77
665.161	40601.79
665.511	40511.84
665.862	40576.7
666.212	40823.7
666.562	40715.68
666.912	40629.58
667.262	40487.44
667.612	40574.89
667.962	40580.32
668.312	40588.68
668.662	40614.44
669.011	40542.8
669.361	40400.43
669.711	40508
670.06	40410.15
670.41	40434.78
670.76	40272.98
671.109	40580.54
671.459	40430.26
671.808	40311.85
672.157	40479.53
672.507	40201.34
672.856	40213.1
673.205	40269.36
673.554	40386.65
673.904	40200.67
674.253	40550.49
674.602	40320.89
674.951	39667.8
675.3	39547.8
675.649	40209.71
675.998	40275.69
676.346	40101.01
676.695	40229.14
677.044	39945.98
677.393	40036.83
677.741	40053.55
678.09	40063.27
678.438	39933.55
678.787	40027.56
679.135	39981.01
679.484	39781.24
679.832	39811.75
680.181	39642.71
680.529	39852.88
680.877	39613.56
681.225	39797.06
681.573	39939.66
681.922	39671.41
682.27	39467.35
682.618	39483.4
682.966	39495.37
683.314	39467.13
683.661	39430.06
684.009	39187.81
684.357	39162.05
684.705	38967.03
685.053	39070.75
685.4	38990.98
685.748	38858.1
686.095	38833.7
686.443	38764.09
686.79	38725.9
687.138	38762.06
687.485	38748.27
687.832	38532.69
688.18	38652.91
688.527	38366.36
688.874	38461.73
689.221	38275.29
689.568	38303.77
689.915	38185.13
690.262	38280.04
690.609	38060.84
690.956	37960.05
691.303	37934.06
691.65	37778.36
691.997	37925.47
692.344	37452.04
692.69	37459.95
693.037	37432.6
693.383	37309.89
693.73	37445.26
694.077	37043.69
694.423	37062.9
694.769	37014.54
695.116	36916.23
695.462	36873.97
695.808	36764.15
696.155	36858.38
696.501	36474.66
696.847	36597.37
697.193	36190.6
697.539	36551.5
697.885	36029.7
698.231	36104.28
698.577	36143.82
698.923	36024.28
699.269	35845.98
699.614	35713.33
699.96	35605.76
700.306	35732.31
700.651	35415.03
700.997	35422.71
701.342	35419.55
701.688	35307.46
702.033	35231.98
702.379	35163.06
702.724	35054.13
703.069	35086.68
703.415	34782.5
703.76	34771.66
704.105	34828.83
704.45	34538.44
704.795	34433.81
705.14	34307.94
705.485	34377.54
705.83	34227.04
706.175	34233.82
706.52	34245.12
706.865	34034.73
707.209	34017.1
707.554	33817.56
707.899	33942.07
708.243	33701.85
708.588	33636.77
708.932	33418.47
709.277	33538.69
709.621	33579.37
709.966	33309.32
710.31	33368.98
710.654	33007.41
710.998	33172.15
711.342	33112.04
711.687	32933.29
712.031	32805.61
712.375	32829.79
712.719	32804.93
713.063	32675.44
713.407	32860.97
713.75	32647.42
714.094	32704.37
714.438	32504.37
714.782	32665.72
715.125	32281.78
715.469	32410.14
715.812	32246.75
716.156	32011.95
716.499	32047.89
716.843	32148.9
717.186	31943.71
717.53	32124.72
717.873	32152.29
718.216	32018.06
718.559	31922.24
718.902	31608.58
719.246	31682.02
719.589	31636.82
719.932	31478.41
720.275	31529.71
720.617	31381.46
720.96	31480.9
721.303	31431.41
721.646	31319.54
721.989	31145.54
722.331	31321.58
722.674	31119.32
723.016	31107.35
723.359	31159.55
723.701	31034.35
724.044	30928.82
724.386	30672.56
724.729	30852.66
725.071	30761.82
725.413	30700.58
725.755	30743.51
726.097	30592.33
726.439	30350.08
726.782	30497.19
727.124	30602.95
727.465	30346.91
727.807	30405.67
728.149	30270.08
728.491	30355.28
728.833	30347.59
729.175	30210.42
729.516	30092.46
729.858	30150.76
730.199	30094.72
730.541	29972.01
730.882	29928.17
731.224	30047.71
731.565	29818.57
731.906	29883.88
732.248	29783.31
732.589	29692.69
732.93	29662.19
733.271	29695.41
733.612	29703.32
733.953	29760.94
734.294	29555.97
734.635	29462.19
734.976	29469.65
735.317	29445.92
735.658	29446.37
735.999	29421.97
736.339	29293.61
736.68	29442.98
737.021	29219.49
737.361	29040.06
737.702	29327.73
738.042	29158.92
738.383	28991.7
738.723	29073.73
739.063	28913.51
739.404	28996.44
739.744	28882.09
740.084	28830.8
740.424	28792.38
740.764	28802.32
741.104	28843.9
741.444	28667.64
741.784	28655.88
742.124	28732.27
742.464	28575.44
742.804	28415.44
743.143	28566.17
743.483	28479.62
743.823	28341.09
744.162	28391.94
744.502	28374.99
744.841	28239.85
745.181	28340.64
745.52	28187.42
745.86	28245.73
746.199	28182.9
746.538	28124.15
746.877	28295.22
747.216	28243.01
747.556	28031.49
747.895	28082.34
748.234	27971.16
748.573	27903.59
748.911	27914.89
749.25	27837.6
749.589	27700.66
749.928	27750.82
750.267	27767.09
750.605	27791.27
750.944	27798.28
751.283	27606.42
751.621	27634.44
751.96	27398.97
752.298	27534.78
752.636	27472.64
752.975	27331.85
753.313	27258.18
753.651	27405.97
753.989	27277.62
754.327	27074.91
754.666	27099.54
755.004	27053.44
755.342	27122.59
755.679	26968.25
756.017	26735.71
756.355	27026.1
756.693	26848.02
757.031	26829.72
757.368	26630.85
757.706	26685.54
758.044	26588.59
758.381	26576.17
758.719	26442.61
759.056	26522.83
759.394	26513.57
759.731	26184.09
760.068	26173.92
760.405	26024.54
760.743	26139.11
761.08	26126.23
761.417	25947.93
761.754	25883.98
762.091	25861.61
762.428	25912.68
762.765	25512.46
763.102	25700.03
763.438	25471.56
763.775	25322.64
764.112	25442.64
764.449	25443.09
764.785	25244.9
765.122	25135.07
765.458	25073.15
765.795	25039.48
766.131	25018.47
766.467	24834.97
766.804	24814.18
767.14	24719.04
767.476	24628.19
767.812	24611.47
768.148	24629.32
768.485	24434.08
768.821	24294.42
769.157	24364.02
769.492	24264.59
769.828	24207.87
770.164	24094.87
770.5	23932.39
770.836	23987.76
771.171	23803.36
771.507	23796.35
771.842	23647.43
772.178	23606.3
772.513	23505.29
772.849	23507.09
773.184	23370.6
773.519	23403.37
773.855	23230.72
774.19	23056.03
774.525	23041.57
774.86	23036.6
775.195	22934.91
775.53	22916.83
775.865	22757.73
776.2	22564.75
776.535	22503.05
776.87	22428.93
777.205	22344.64
777.539	22323.85
777.874	22443.39
778.209	22153.68
778.543	22049.73
778.878	22030.3
779.212	21895.16
779.547	21795.73
779.881	21798.89
780.215	21725.45
780.55	21710.98
780.884	21535.17
781.218	21475.06
781.552	21375.4
781.886	21431.67
782.22	21218.34
782.554	21224.44
782.888	21079.81
783.222	20992.13
783.556	20801.4
783.889	20777.67
784.223	20668.75
784.557	20654.97
784.89	20689.99
785.224	20485.48
785.557	20364.58
785.891	20271.47
786.224	20336.33
786.558	20294.3
786.891	20115.32
787.224	20052.04
787.557	20044.13
787.891	19952.38
788.224	19919.39
788.557	19908.32
788.89	19774.76
789.223	19680.98
789.556	19508.33
789.888	19594.2
790.221	19481.44
790.554	19339.52
790.887	19336.13
791.219	19254.55
791.552	19261.33
791.884	19240.77
792.217	19136.36
792.549	18976.59
792.882	18855.46
793.214	18812.75
793.546	18887.33
793.879	18733.89
794.211	18647.11
794.543	18653.66
794.875	18578.86
795.207	18701.8
795.539	18473.1
795.871	18480.79
796.203	18300.68
796.535	18214.13
796.867	18201.7
797.198	18191.08
797.53	18157.18
797.862	17961.48
798.193	18055.26
798.525	17948.14
798.856	17880.8
799.188	17658.89
799.519	17689.85
799.85	17657.53
800.182	17622.5
800.513	17600.58
800.844	17490.98
801.175	17527.36
801.506	17438.1
801.837	17339.8
802.168	17331.21
802.499	17206.02
802.83	17203.08
803.161	17093.93
803.491	17100.48
803.822	17136.41
804.153	17080.14
804.483	16869.08
804.814	16827.72
805.145	16805.35
805.475	16839.7
805.805	16562.19
806.136	16787.27
806.466	16615.3
806.796	16683.77
807.126	16542.98
807.457	16447.39
807.787	16492.14
808.117	16299.15
808.447	16297.34
808.777	16375.98
809.107	16267.96
809.436	16273.61
809.766	16178.47
810.096	16139.15
810.426	16095.09
810.755	16135.08
811.085	16039.27
811.414	16006.73
811.744	15872.27
812.073	15865.94
812.403	15859.61
812.732	15749.33
813.061	15741.42
813.39	15680.63
813.719	15619.39
814.049	15661.2
814.378	15619.39
814.707	15503.69
815.036	15532.84
815.365	15451.71
815.693	15273.86
816.022	15375.1
816.351	15246.75
816.68	15174.21
817.008	15251.72
817.337	15068.22
817.665	15092.17
817.994	15104.83
818.322	15072.29
818.651	14959.97
818.979	15016.02
819.307	15005.62
819.636	15003.36
819.964	14877.49
820.292	14931.05
820.62	14941.67
820.948	14858.73
821.276	14912.07
821.604	14814.89
821.932	14916.81
822.259	14833.65
822.587	14842.69
822.915	14790.94
823.243	14857.6
823.57	14760.21
823.898	14860.09
824.225	14726.08
824.553	14748.23
824.88	14770.15
825.207	14736.93
825.535	14684.95
825.862	14806.31
826.189	14778.28
826.516	14780.09
826.843	14786.65
827.17	14778.74
827.497	14818.73
827.824	14738.51
828.151	14739.41
828.478	14716.59
828.805	14780.09
829.131	14651.73
829.458	14653.54
829.785	14661.68
830.111	14691.05
830.438	14819.64
830.764	14767.44
831.09	14627.1
831.417	14668.23
831.743	14639.08
832.069	14710.71
832.395	14578.29
832.722	14603.15
833.048	14615.35
833.374	14575.35
833.7	14536.93
834.026	14610.6
834.351	14645.63
834.677	14489.93
835.003	14568.57
835.329	14543.04
835.654	14537.61
835.98	14413.77
836.306	14435.47
836.631	14373.32
836.956	14464.39
837.282	14519.53
837.607	14362.93
837.932	14348.24
838.258	14310.95
838.583	14373.55
838.908	14293.1
839.233	14286.32
839.558	14164.74
839.883	14155.02
840.208	14122.71
840.533	14145.08
840.858	14181.69
841.182	14112.09
841.507	14096.27
841.832	13971.75
842.156	14034.12
842.481	14003.84
842.805	14046.1
843.13	13927.68
843.454	13846.1
843.778	13839.1
844.103	13838.42
844.427	13790.97
844.751	13747.58
845.075	13705.54
845.399	13639.78
845.723	13657.41
846.047	13632.78
846.371	13541.71
846.695	13567.24
847.019	13446.79
847.343	13428.49
847.666	13272.33
847.99	13256.74
848.313	13264.65
848.637	13199.79
848.96	13173.35
849.284	13102.4
849.607	12996.18
849.931	12988.95
850.254	12888.16
850.577	12838.22
850.9	12784.44
851.223	12767.04
851.546	12619.47
851.869	12619.24
852.192	12628.51
852.515	12456.54
852.838	12506.25
853.161	12442.75
853.483	12363.66
853.806	12370.21
854.129	12358.91
854.451	12221.06
854.774	12222.87
855.096	12137
855.419	12085.93
855.741	12106.72
856.063	12057
856.385	12085.7
856.708	11993.27
857.03	11914.4
857.352	11917.12
857.674	11894.29
857.996	11885.7
858.318	11852.03
858.64	11794.18
858.961	11731.58
859.283	11702.66
859.605	11689.1
859.926	11634.19
860.248	11579.5
860.57	11562.55
860.891	11626.95
861.212	11565.26
861.534	11506.05
861.855	11491.82
862.176	11484.59
862.498	11513.51
862.819	11414.98
863.14	11365.72
863.461	11349.67
863.782	11269.45
864.103	11327.98
864.424	11325.49
864.745	11279.39
865.065	11263.35
865.386	11217.02
865.707	11171.6
866.027	11192.62
866.348	11158.04
866.668	11144.93
866.989	11102.45
867.309	11017.48
867.63	11072.84
867.95	11109
868.27	10961.89
868.59	11065.16
868.91	10978.84
869.23	10954.66
869.55	10987.65
869.87	11010.02
870.19	10934.09
870.51	10978.16
870.83	10936.35
871.15	10843.47
871.469	10857.93
871.789	10934.54
872.109	10850.93
872.428	10809.8
872.748	10792.85
873.067	10763.93
873.386	10880.99
873.706	10727.09
874.025	10724.61
874.344	10664.27
874.663	10682.57
874.982	10636.02
875.301	10641.22
875.62	10617.72
875.939	10542.69
876.258	10509.7
876.577	10542.91
876.896	10534.55
877.214	10492.29
877.533	10538.17
877.852	10475.8
878.17	10434.9
878.489	10519.64
878.807	10418.4
879.125	10443.93
879.444	10393.31
879.762	10435.35
880.08	10329.14
880.398	10306.99
880.716	10356.25
881.034	10267.89
881.352	10342.24
881.67	10180.44
881.988	10287.33
882.306	10249.36
882.624	10207.1
882.941	10160.1
883.259	10124.17
883.577	10154.68
883.894	10091.63
884.212	10050.27
884.529	10090.5
884.846	10122.36
885.164	10074
885.481	9995.36
885.798	10003.49
886.115	9885.08
886.432	9925.08
886.75	9881.69
887.067	9942.03
887.383	9891.41
887.7	9862.03
888.017	9852.76
888.334	9837.17
888.651	9858.87
888.967	9810.5
889.284	9735.25
889.6	9644.63
889.917	9623.62
890.233	9629.72
890.55	9582.71
890.866	9596.5
891.182	9583.39
891.498	9455.71
891.815	9441.7
892.131	9469.04
892.447	9415.26
892.763	9395.15
893.079	9376.17
893.395	9412.55
893.71	9302.27
894.026	9321.93
894.342	9297.75
894.657	9141.37
894.973	9210.07
895.289	9267.24
895.604	9168.71
895.92	9104.31
896.235	9086.68
896.55	9113.12
896.865	8975.95
897.181	9025.67
897.496	9025.44
897.811	8918.32
898.126	8956.97
898.441	8879
898.756	8862.96
899.071	8850.08
899.386	8801.49
899.7	8790.42
900.015	8673.59
900.33	8696.41
900.644	8643.76
900.959	8654.38
901.273	8652.12
901.588	8563.53
901.902	8486.92
902.216	8482.86
902.531	8464.33
902.845	8424.33
903.159	8386.14
903.473	8329.41
903.787	8344.33
904.101	8269.3
904.415	8292.8
904.729	8214.84
905.042	8232.24
905.356	8175.75
905.67	8199.47
905.984	8151.11
906.297	8105.92
906.611	8035.86
906.924	8094.62
907.237	8047.16
907.551	8015.07
907.864	7936.88
908.177	7976.43
908.491	7912.02
908.804	7874.96
909.117	7915.19
909.43	7817.56
909.743	7760.16
910.056	7731.92
910.368	7748.86
910.681	7644.69
910.994	7645.36
911.307	7510.9
911.619	7540.51
911.932	7595.87
912.244	7516.78
912.557	7492.37
912.869	7469.55
913.181	7375.99
913.494	7424.58
913.806	7346.39
914.118	7301.19
914.43	7295.32
914.742	7263.68
915.054	7211.93
915.366	7226.62
915.678	7201.76
915.99	7176.22
916.302	7104.14
916.613	7034.53
916.925	7058.71
917.236	7067.53
917.548	7009.9
917.859	6960.64
918.171	6931.26
918.482	6883.35
918.794	6841.77
919.105	6912.05
919.416	6869.34
919.727	6775.33
920.038	6795.67
920.349	6684.26
920.66	6701.21
920.971	6658.72
921.282	6680.64
921.593	6553.64
921.903	6593.19
922.214	6566.75
922.525	6492.63
922.835	6552.74
923.146	6487.2
923.456	6479.97
923.767	6432.51
924.077	6479.52
924.387	6391.16
924.697	6395
925.008	6335.57
925.318	6314.55
925.628	6319.07
925.938	6250.15
926.248	6191.16
926.558	6183.03
926.867	6182.8
927.177	6133.99
927.487	6083.15
927.796	6034.33
928.106	6032.07
928.416	6040.89
928.725	6045.63
929.034	5995.92
929.344	5974.67
929.653	5949.59
929.962	5911.4
930.271	5895.13
930.581	5833.21
930.89	5793.44
931.199	5773.77
931.508	5784.85
931.817	5760.22
932.125	5760.22
932.434	5711.63
932.743	5659.65
933.051	5636.15
933.36	5649.71
933.669	5616.26
933.977	5605.64
934.286	5604.51
934.594	5570.39
934.902	5474.12
935.21	5483.61
935.519	5557.96
935.827	5448.59
936.135	5367.91
936.443	5391.41
936.751	5396.16
937.059	5367.68
937.367	5345.31
937.674	5339.66
937.982	5315.03
938.29	5317.97
938.597	5287.01
938.905	5186.9
939.213	5192.77
939.52	5134.7
939.827	5178.54
940.135	5139.44
940.442	5085.66
940.749	5099.89
941.056	5136.28
941.363	5053.34
941.67	5030.52
941.977	4994.59
942.284	5025.32
942.591	4957.98
942.898	4938.32
943.205	4947.13
943.511	4883.18
943.818	4885.21
944.125	4885.89
944.431	4822.16
944.738	4846.34
945.044	4775.38
945.35	4769.51
945.657	4740.13
945.963	4761.6
946.269	4747.59
946.575	4701.26
946.881	4681.15
947.187	4658.78
947.493	4619.23
947.799	4612
948.105	4615.84
948.41	4562.96
948.716	4523.64
949.022	4519.34
949.327	4531.32
949.633	4498.33
949.938	4485.45
950.244	4494.26
950.549	4430.08
950.854	4408.84
951.16	4373.81
951.465	4295.17
951.77	4370.42
952.075	4306.24
952.38	4341.72
952.685	4294.49
952.99	4242.06
953.294	4263.08
953.599	4241.39
953.904	4231.22
954.209	4195.96
954.513	4183.08
954.818	4144.67
955.122	4118.68
955.426	4158.9
955.731	4122.29
956.035	4101.73
956.339	4054.27
956.643	4019.92
956.948	4044.33
957.252	4009.53
957.556	4006.59
957.86	3986.7
958.163	4002.07
958.467	3953.03
958.771	3916.2
959.075	3915.52
959.378	3870.77
959.682	3870.77
959.985	3838.68
960.289	3889.98
960.592	3847.27
960.896	3863.32
961.199	3760.04
961.502	3802.75
961.805	3732.02
962.108	3740.83
962.411	3768.86
962.714	3743.55
963.017	3735.41
963.32	3667.62
963.623	3689.08
963.926	3674.62
964.228	3621.06
964.531	3595.75
964.833	3654.51
965.136	3577.22
965.438	3608.63
965.741	3555.98
966.043	3542.19
966.345	3493.61
966.648	3510.56
966.95	3508.98
967.252	3500.16
967.554	3476.43
967.856	3477.34
968.158	3430.79
968.46	3421.75
968.761	3427.17
969.063	3404.35
969.365	3374.29
969.666	3391.69
969.968	3342.88
970.269	3320.51
970.571	3279.38
970.872	3311.24
971.174	3282.54
971.475	3294.29
971.776	3313.5
972.077	3236.89
972.378	3227.18
972.679	3254.97
972.98	3196.22
973.281	3207.06
973.582	3194.86
973.883	3186.72
974.183	3210.23
974.484	3185.14
974.785	3111.25
975.085	3126.39
975.386	3100.17
975.686	3100.4
975.986	3062.21
976.287	3070.12
976.587	3020.17
976.887	3026.95
977.187	3033.51
977.487	2992.15
977.787	2975.43
978.087	2946.5
978.387	2990.8
978.687	2926.17
978.987	2958.93
979.286	2947.18
979.586	2894.08
979.885	2912.38
980.185	2854.76
980.484	2871.03
980.784	2869.67
981.083	2848.2
981.382	2861.99
981.682	2803.01
981.981	2852.95
982.28	2786.51
982.579	2791.93
982.878	2814.3
983.177	2762.33
983.475	2758.03
983.774	2737.7
984.073	2711.93
984.372	2709.22
984.67	2700.86
984.969	2706.96
985.267	2667.64
985.566	2668.32
985.864	2658.38
986.162	2662.22
986.461	2625.16
986.759	2622.67
987.057	2607.08
987.355	2599.62
987.653	2594.65
987.951	2610.24
988.249	2560.3
988.547	2563.01
988.844	2521.2
989.142	2498.38
989.44	2509.68
989.737	2484.82
990.035	2476.01
990.332	2496.57
990.63	2468.1
990.927	2437.59
991.224	2455.44
991.521	2420.87
991.819	2407.76
992.116	2441.21
992.413	2440.08
992.71	2400.53
993.006	2359.63
993.303	2402.34
993.6	2361.66
993.897	2353.75
994.193	2362.11
994.49	2346.29
994.787	2330.93
995.083	2300.19
995.379	2274.88
995.676	2265.84
995.972	2269.46
996.268	2262.91
996.565	2232.62
996.861	2236.47
997.157	2245.51
997.453	2222
997.749	2194.89
998.044	2170.71
998.34	2184.49
998.636	2152.63
998.932	2150.37
999.227	2144.27
999.523	2150.82
999.818	2110.14
1000.114	2138.39
1000.409	2089.13
1000.704	2104.04
1001	2073.31
1001.295	2060.88
1001.59	2075.11
1001.885	2057.94
1002.18	2045.29
1002.475	2054.78
1002.77	1994.44
1003.065	1992.63
1003.359	1997.83
1003.654	2013.42
1003.949	2032.86
1004.243	1953.99
1004.538	1957.38
1004.832	1967.1
1005.127	1949.69
1005.421	1926.42
1005.715	1916.93
1006.009	1895.23
1006.304	1907.89
1006.598	1886.19
1006.892	1856.14
1007.186	1855.69
1007.48	1854.1
1007.773	1855.69
1008.067	1813.88
1008.361	1805.74
1008.655	1805.07
1008.948	1786.31
1009.242	1792.41
1009.535	1792.86
1009.829	1767.33
1010.122	1722.13
1010.415	1742.47
1010.708	1727.55
1011.001	1719.87
1011.295	1711.06
1011.588	1715.58
1011.881	1678.06
1012.173	1703.6
1012.466	1664.5
1012.759	1697.27
1013.052	1662.92
1013.344	1658.63
1013.637	1624.28
1013.93	1627.67
1014.222	1619.99
1014.514	1645.97
1014.807	1606.43
1015.099	1582.02
1015.391	1554.9
1015.683	1570.95
1015.976	1589.7
1016.268	1569.37
1016.56	1572.3
1016.851	1541.12
1017.143	1536.82
1017.435	1526.88
1017.727	1527.56
1018.018	1484.17
1018.31	1481.46
1018.602	1472.87
1018.893	1483.04
1019.185	1454.79
1019.476	1453.66
1019.767	1453.21
1020.058	1439.88
1020.35	1434.68
1020.641	1443.95
1020.932	1422.02
1021.223	1428.8
1021.514	1400.78
1021.804	1366.66
1022.095	1356.26
1022.386	1350.61
1022.677	1342.48
1022.967	1346.55
1023.258	1345.87
1023.548	1332.99
1023.839	1320.11
1024.129	1299.54
1024.419	1330.5
1024.709	1302.93
1025	1299.09
1025.29	1291.18
1025.58	1286.89
1025.87	1254.57
1026.16	1256.61
1026.449	1248.47
1026.739	1238.98
1027.029	1235.59
1027.319	1220.67
1027.608	1221.8
1027.898	1212.09
1028.187	1190.39
1028.477	1219.32
1028.766	1205.53
1029.055	1160.56
1029.344	1198.98
1029.634	1146.55
1029.923	1121.47
1030.212	1147.46
1030.501	1127.12
1030.79	1116.72
1031.078	1133.67
1031.367	1100.68
1031.656	1109.72
1031.945	1091.41
1032.233	1096.38
1032.522	1079.66
1032.81	1099.77
1033.099	1053.9
1033.387	1068.81
1033.675	1073.79
1033.963	1041.47
1034.251	1070.85
1034.54	1059.55
1034.828	1059.77
1035.116	1014.58
1035.403	1010.28
1035.691	1004.86
1035.979	995.14
1036.267	990.62
1036.554	1012.54
1036.842	1012.09
1037.129	969.83
1037.417	980.23
1037.704	952.66
1037.992	963.96
1038.279	923.73
1038.566	972.09
1038.853	972.09
1039.14	972.09
