Data from hue_150_FLMS001491_00091.txt Node
Date: Tue Feb 07 16:54:47 GMT 2017
User: dcchb
Spectrometer: FLMS00149
Trigger mode: 0
Integration Time (sec): 2.000000E-2
Scans to average: 10
Electric dark correction enabled: true
Nonlinearity correction enabled: false
Boxcar width: 0
XAxis mode: Wavelengths
Number of Pixels in Spectrum: 2048
>>>>>Begin Spectral Data<<<<<
341.393	-17.97
341.776	-17.97
342.16	-17.97
342.543	-54.57
342.927	-71.75
343.31	-66.1
343.693	-85.99
344.077	-47.8
344.46	-57.51
344.843	-62.71
345.226	-43.05
345.61	-40.11
345.993	-25.65
346.376	-3.5
346.759	10.51
347.142	35.82
347.525	52.32
347.908	49.38
348.291	88.02
348.674	100
349.057	96.38
349.44	131.18
349.823	153.33
350.206	161.46
350.588	188.36
350.971	211.86
351.354	224.06
351.737	222.03
352.119	267.68
352.502	249.37
352.884	267.9
353.267	276.72
353.65	290.73
354.032	299.31
354.414	301.35
354.797	303.38
355.179	329.37
355.562	311.29
355.944	317.84
356.326	318.97
356.709	337.28
357.091	321.91
357.473	347
357.855	320.56
358.238	337.51
358.62	330.73
359.002	327.34
359.384	339.99
359.766	328.24
360.148	342.7
360.53	325.53
360.912	319.88
361.294	322.36
361.676	329.37
362.057	319.2
362.439	315.58
362.821	325.98
363.203	296.38
363.584	337.28
363.966	323.04
364.348	333.44
364.729	304.51
365.111	310.61
365.493	311.74
365.874	324.4
366.256	318.52
366.637	326.43
367.019	311.74
367.4	334.79
367.781	316.94
368.163	309.71
368.544	306.32
368.925	305.42
369.306	308.35
369.688	309.03
370.069	325.53
370.45	302.93
370.831	301.35
371.212	325.98
371.593	319.2
371.974	319.43
372.355	313.78
372.736	323.95
373.117	323.72
373.498	288.92
373.879	301.35
374.26	297.28
374.641	309.71
375.021	315.58
375.402	309.03
375.783	336.6
376.163	323.04
376.544	321.01
376.925	322.59
377.305	325.53
377.686	322.14
378.066	318.52
378.447	329.6
378.827	309.48
379.208	296.83
379.588	323.49
379.968	318.07
380.349	317.17
380.729	309.03
381.109	325.08
381.489	328.69
381.87	323.95
382.25	319.43
382.63	321.91
383.01	335.25
383.39	321.91
383.77	330.73
384.15	335.47
384.53	336.83
384.91	335.47
385.29	347.9
385.67	354
386.049	320.1
386.429	337.05
386.809	344.28
387.189	335.7
387.568	355.58
387.948	366.21
388.328	359.2
388.707	332.99
389.087	330.27
389.466	344.96
389.846	369.37
390.225	363.27
390.605	356.26
390.984	349.71
391.363	369.59
391.743	363.49
392.122	365.75
392.501	360.33
392.881	375.47
393.26	374.34
393.639	361.69
394.018	355.58
394.397	369.59
394.776	367.79
395.155	358.07
395.534	368.46
395.913	376.83
396.292	387
396.671	366.43
397.05	380.89
397.429	357.62
397.808	377.96
398.186	381.57
398.565	375.92
398.944	376.37
399.323	402.36
399.701	394
400.08	378.18
400.458	380.22
400.837	368.92
401.215	389.71
401.594	384.06
401.972	388.13
402.351	408.46
402.729	387
403.107	396.03
403.486	398.29
403.864	412.31
404.242	418.86
404.62	405.3
404.999	402.36
405.377	393.1
405.755	398.07
406.133	402.36
406.511	406.43
406.889	413.66
407.267	403.27
407.645	435.13
408.023	417.5
408.401	395.36
408.779	416.6
409.156	417.73
409.534	451.63
409.912	419.99
410.29	423.15
410.667	417.73
411.045	425.86
411.422	433.55
411.8	446.65
412.178	451.4
412.555	442.59
412.933	451.63
413.31	446.88
413.687	451.4
414.065	479.42
414.442	472.19
414.819	475.13
415.197	460.67
415.574	473.55
415.951	459.31
416.328	467.9
416.705	485.98
417.082	469.03
417.46	471.96
417.837	490.95
418.214	473.77
418.591	487.56
418.967	497.05
419.344	484.39
419.721	507.44
420.098	501.12
420.475	480.1
420.852	492.08
421.228	485.3
421.605	509.7
421.982	533.88
422.358	504.05
422.735	528.23
423.111	506.77
423.488	515.35
423.864	551.28
424.241	528.69
424.617	562.13
424.994	553.77
425.37	544.73
425.746	532.3
426.123	543.6
426.499	559.65
426.875	542.47
427.251	559.65
427.627	551.06
428.003	576.6
428.379	572.08
428.756	560.55
429.132	550.38
429.507	564.84
429.883	578.18
430.259	580.89
430.635	609.81
431.011	605.07
431.387	605.97
431.763	610.49
432.138	632.64
432.514	615.69
432.89	627.44
433.265	630.15
433.641	625.63
434.016	626.76
434.392	642.81
434.767	666.54
435.143	625.18
435.518	662.24
435.894	643.94
436.269	673.99
436.644	670.83
437.02	651.17
437.395	666.99
437.77	674.22
438.145	704.95
438.52	690.26
438.895	695.24
439.271	715.12
439.646	704.28
440.021	720.55
440.395	730.72
440.77	739.53
441.145	735.01
441.52	733.2
441.895	734.33
442.27	768
442.645	771.39
443.019	753.54
443.394	756.25
443.769	773.65
444.143	761.45
444.518	774.56
444.892	762.8
445.267	783.14
445.641	776.14
446.016	811.84
446.39	808
446.764	789.7
447.139	794.22
447.513	807.78
447.887	817.94
448.262	812.07
448.636	826.76
449.01	847.32
449.384	846.42
449.758	857.49
450.132	841.22
450.506	864.5
450.88	888.68
451.254	874.67
451.628	856.81
452.002	875.8
452.376	895
452.75	919.41
453.123	904.72
453.497	900.2
453.871	920.31
454.244	913.54
454.618	953.53
454.992	945.85
455.365	943.14
455.739	967.77
456.112	970.03
456.486	989.92
456.859	990.6
457.232	1000.99
457.606	988.34
457.979	1010.03
458.352	1051.38
458.725	1051.61
459.099	1044.83
459.472	1085.51
459.845	1074.66
460.218	1079.86
460.591	1125.28
460.964	1103.36
461.337	1131.61
461.71	1153.08
462.083	1191.72
462.456	1163.47
462.829	1188.1
463.201	1199.18
463.574	1197.82
463.947	1231.72
464.32	1234.88
464.692	1242.57
465.065	1276.92
465.438	1301.32
465.81	1330.25
466.183	1358.5
466.555	1363.69
466.928	1350.81
467.3	1374.31
467.672	1394.43
468.045	1425.84
468.417	1459.06
468.789	1455.67
469.161	1495.67
469.534	1507.87
469.906	1541.77
470.278	1597.81
470.65	1582.44
471.022	1605.95
471.394	1644.82
471.766	1680.75
472.138	1739.73
472.51	1741.31
472.882	1789.67
473.253	1843.91
473.625	1872.38
473.997	1900.4
474.369	1941.3
474.74	1979.95
475.112	2031.7
475.484	2084.8
475.855	2120.06
476.227	2122.32
476.598	2237.79
476.97	2216.1
477.341	2355.76
477.713	2386.26
478.084	2422.65
478.455	2513.27
478.827	2558.92
479.198	2683.21
479.569	2664.22
479.94	2793.71
480.311	2849.53
480.682	2923.43
481.053	3032.58
481.424	3129.07
481.795	3158.67
482.166	3228.28
482.537	3337.43
482.908	3447.48
483.279	3555.27
483.65	3680.02
484.021	3742.61
484.391	3839.56
484.762	3877.53
485.133	4024.41
485.503	4078.65
485.874	4225.54
486.244	4286.33
486.615	4443.84
486.985	4511.86
487.356	4699.65
487.726	4772.64
488.097	4887.22
488.467	4996.37
488.837	5128.11
489.207	5275.45
489.578	5393.42
489.948	5524.94
490.318	5618.72
490.688	5747.98
491.058	5894.42
491.428	5985.94
491.798	6124.92
492.168	6223.9
492.538	6343.22
492.908	6488.76
493.278	6686.04
493.648	6730.11
494.017	6851.68
494.387	7026.37
494.757	7069.98
495.126	7215.74
495.496	7278.11
495.866	7420.48
496.235	7506.36
496.605	7669.52
496.974	7797.87
497.344	7867.25
497.713	7979.56
498.082	8118.54
498.452	8180.69
498.821	8356.05
499.19	8375.94
499.559	8478.99
499.928	8576.84
500.298	8618.42
500.667	8755.14
501.036	8822.71
501.405	8946.32
501.774	9044.17
502.143	9132.3
502.512	9126.88
502.88	9240.32
503.249	9304.73
503.618	9384.95
503.987	9474.67
504.356	9571.61
504.724	9550.82
505.093	9683.7
505.462	9786.07
505.83	9855
506.199	9869.23
506.567	10020.64
506.936	10010.92
507.304	10184.7
507.672	10248.21
508.041	10274.65
508.409	10336.56
508.777	10392.38
509.145	10444.81
509.514	10500.63
509.882	10567.52
510.25	10537.01
510.618	10592.38
510.986	10650
511.354	10761.41
511.722	10805.48
512.09	10877.12
512.458	10851.81
512.826	10982.2
513.193	10999.6
513.561	11000.95
513.929	11094.74
514.297	11209.76
514.664	11097.45
515.032	11209.54
515.4	11244.79
515.767	11271.23
516.135	11352.58
516.502	11246.14
516.869	11441.39
517.237	11333.15
517.604	11355.52
517.972	11478.23
518.339	11393.49
518.706	11398.91
519.073	11461.05
519.44	11512.58
519.808	11619.69
520.175	11529.75
520.542	11631.22
520.909	11706.25
521.276	11686.36
521.643	11713.48
522.009	11753.7
522.376	11844.1
522.743	11839.35
523.11	11894.26
523.477	11981.72
523.843	11938.78
524.21	12021.04
524.577	12098.55
524.943	12020.59
525.31	12017.2
525.676	12105.78
526.043	12151.21
526.409	12193.69
526.776	12202.05
527.142	12144.65
527.508	12143.52
527.874	12145.33
528.241	12202.05
528.607	12218.1
528.973	12228.49
529.339	12204.99
529.705	12206.57
530.071	12289.28
530.437	12235.5
530.803	12258.32
531.169	12263.52
531.535	12122.28
531.901	12196.18
532.267	12248.83
532.632	12232.56
532.998	12159.57
533.364	12183.75
533.73	12142.84
534.095	12249.51
534.461	12168.38
534.826	12167.25
535.192	12128.61
535.557	12144.65
535.923	12076.63
536.288	12056.07
536.653	12015.39
537.019	11956.63
537.384	11976.3
537.749	12020.14
538.114	11918.9
538.479	11938.33
538.845	11885
539.21	11848.16
539.575	11839.8
539.94	11818.11
540.305	11784.21
540.67	11765.91
541.034	11701.27
541.399	11722.97
541.764	11721.39
542.129	11697.66
542.494	11585.57
542.858	11589.64
543.223	11532.01
543.587	11641.84
543.952	11503.54
544.316	11478.23
544.681	11416.54
545.045	11453.82
545.41	11381.06
545.774	11397.33
546.138	11335.41
546.503	11360.94
546.867	11240.27
547.231	11348.06
547.595	11279.14
547.959	11201.4
548.324	11190.78
548.688	11117.56
549.052	11081.86
549.416	11129.31
549.779	11080.5
550.143	10951.46
550.507	10939.26
550.871	10880.28
551.235	10960.73
551.599	10971.58
551.962	10892.03
552.326	10795.99
552.689	10878.02
553.053	10810.9
553.417	10716.89
553.78	10902.43
554.143	10788.76
554.507	10736.1
554.87	10675.54
555.234	10763.9
555.597	10694.75
555.96	10679.83
556.323	10676.22
556.686	10632.6
557.05	10689.1
557.413	10581.3
557.776	10588.08
558.139	10658.82
558.502	10614.07
558.865	10594.86
559.228	10595.09
559.59	10540.4
559.953	10557.35
560.316	10617.23
560.679	10563.23
561.041	10581.53
561.404	10558.25
561.767	10546.95
562.129	10570.46
562.492	10627.63
562.854	10508.99
563.217	10551.47
563.579	10617.69
563.941	10600.96
564.304	10554.64
564.666	10644.35
565.028	10604.13
565.39	10552.38
565.753	10655.2
566.115	10635.99
566.477	10613.17
566.839	10655.88
567.201	10716.89
567.563	10659.49
567.925	10696.1
568.287	10689.32
568.648	10646.16
569.01	10709.89
569.372	10818.81
569.734	10704.24
570.095	10814.74
570.457	10720.28
570.819	10768.42
571.18	10766.61
571.542	10734.97
571.903	10717.57
572.265	10758.02
572.626	10790.11
572.987	10795.99
573.349	10810.45
573.71	10824.01
574.071	10857.23
574.432	10809.77
574.794	10925.02
575.155	10918.92
575.516	10822.43
575.877	10855.65
576.238	10827.17
576.599	10951.24
576.96	10883.44
577.32	10803.44
577.681	10845.93
578.042	10900.39
578.403	10866.95
578.763	10851.13
579.124	10858.13
579.485	10850.45
579.845	10918.7
580.206	10882.76
580.566	10879.6
580.927	10882.09
581.287	10815.87
581.648	10811.81
582.008	10792.6
582.368	10878.02
582.728	10900.62
583.089	10791.24
583.449	10834.86
583.809	10798.02
584.169	10861.52
584.529	10726.84
584.889	10788.08
585.249	10754.63
585.609	10784.24
585.969	10789.89
586.329	10807.06
586.688	10780.85
587.048	10789.89
587.408	10697.68
587.768	10815.2
588.127	10702.66
588.487	10741.98
588.846	10790.56
589.206	10698.36
589.565	10763.9
589.925	10749.43
590.284	10705.37
590.643	10695.42
591.003	10704.24
591.362	10774.07
591.721	10678.02
592.08	10630.79
592.44	10615.2
592.799	10708.31
593.158	10663.34
593.517	10626.95
593.876	10593.96
594.235	10648.65
594.593	10624.47
594.952	10638.25
595.311	10617.91
595.67	10640.51
596.029	10670.34
596.387	10652.26
596.746	10675.54
597.104	10625.37
597.463	10593.73
597.822	10614.3
598.18	10574.3
598.538	10599.16
598.897	10666.73
599.255	10456.11
599.613	10723.45
599.972	10667.86
600.33	10647.06
600.688	10594.86
601.046	10554.64
601.404	10624.24
601.762	10565.94
602.12	10663.79
602.478	10648.87
602.836	10610.68
603.194	10560.51
603.552	10550.8
603.91	10568.65
604.268	10585.82
604.625	10585.6
604.983	10539.95
605.341	10516.9
605.698	10597.35
606.056	10570.46
606.413	10579.5
606.771	10630.12
607.128	10657.01
607.485	10574.52
607.843	10594.64
608.2	10581.08
608.557	10678.25
608.914	10530.46
609.272	10624.92
609.629	10654.97
609.986	10657.46
610.343	10624.92
610.7	10719.61
611.057	10630.34
611.414	10633.28
611.771	10647.74
612.127	10683.45
612.484	10780.62
612.841	10728.42
613.198	10706.27
613.554	10688.87
613.911	10725.71
614.267	10768.64
614.624	10658.36
614.98	10768.19
615.337	10796.44
615.693	10729.77
616.05	10709.21
616.406	10778.59
616.762	10759.38
617.118	10732.26
617.475	10782.2
617.831	10788.76
618.187	10753.5
618.543	10873.73
618.899	10820.39
619.255	10791.69
619.611	10849.77
619.967	10864.91
620.323	10843.44
620.678	10787.63
621.034	10889.32
621.39	10878.7
621.746	10838.92
622.101	10943.78
622.457	10793.95
622.812	10790.56
623.168	10856.78
623.523	10868.3
623.879	10856.78
624.234	10848.19
624.589	10903.78
624.945	10818.59
625.3	10847.96
625.655	10813.16
626.01	10850.68
626.365	10851.35
626.72	10826.27
627.075	10897
627.43	10842.54
627.785	10866.72
628.14	10893.39
628.495	10853.61
628.85	10888.64
629.205	10827.62
629.559	10806.61
629.914	10794.86
630.269	10824.24
630.623	10784.24
630.978	10755.54
631.332	10739.72
631.687	10787.17
632.041	10763.45
632.396	10814.29
632.75	10763.67
633.104	10692.71
633.459	10618.14
633.813	10723.22
634.167	10703.56
634.521	10644.58
634.875	10680.96
635.229	10671.92
635.583	10665.14
635.937	10586.28
636.291	10603.22
636.645	10617.69
636.999	10653.39
637.352	10643.67
637.706	10538.14
638.06	10550.34
638.413	10544.47
638.767	10532.04
639.121	10515.77
639.474	10509.22
639.828	10480.74
640.181	10479.16
640.534	10550.12
640.888	10483.91
641.241	10376.11
641.594	10462.21
641.947	10431.7
642.301	10379.05
642.654	10479.84
643.007	10330.46
643.36	10395.77
643.713	10358.26
644.066	10409.1
644.419	10422.21
644.771	10252.05
645.124	10294.98
645.477	10199.84
645.83	10113.97
646.182	10127.3
646.535	10011.15
646.888	10108.32
647.24	10059.74
647.593	10118.27
647.945	10120.3
648.298	10073.97
648.65	10092.73
649.002	10008.21
649.355	10048.66
649.707	10069
650.059	10112.84
650.411	10245.04
650.763	10259.05
651.115	10269.45
651.467	10311.93
651.819	10260.86
652.171	10242.56
652.523	10273.06
652.875	10270.58
653.227	10289.33
653.578	10290.01
653.93	10306.06
654.282	10228.54
654.633	10217.7
654.985	10261.54
655.337	10316
655.688	10330.24
656.039	10346.96
656.391	10194.2
656.742	10209.34
657.094	10345.83
657.445	10303.57
657.796	10262.44
658.147	10308.09
658.498	10318.03
658.849	10271.03
659.2	10289.33
659.551	10246.85
659.902	10313.06
660.253	10274.42
660.604	10374.08
660.955	10236.23
661.306	10317.58
661.656	10313.97
662.007	10260.63
662.358	10323.68
662.708	10348.77
663.059	10300.41
663.409	10231.03
663.76	10371.59
664.11	10335.66
664.461	10296.34
664.811	10390.8
665.161	10396.9
665.511	10323.46
665.862	10312.16
666.212	10391.03
666.562	10354.87
666.912	10355.55
667.262	10333.85
667.612	10368.88
667.962	10378.37
668.312	10377.24
668.662	10334.53
669.011	10293.63
669.361	10287.98
669.711	10311.03
670.06	10284.14
670.41	10281.2
670.76	10276.23
671.109	10281.2
671.459	10322.55
671.808	10227.41
672.157	10267.41
672.507	10210.92
672.856	10266.96
673.205	10225.15
673.554	10255.44
673.904	10260.86
674.253	10362.78
674.602	10278.49
674.951	10082.11
675.3	10067.87
675.649	10177.47
675.998	10191.71
676.346	10202.56
676.695	10228.09
677.044	10136.34
677.393	10177.25
677.741	10216.12
678.09	10183.12
678.438	10128.43
678.787	10152.61
679.135	10097.93
679.484	10056.57
679.832	10091.6
680.181	10008.21
680.529	10036.46
680.877	10028.32
681.225	10056.35
681.573	10045.95
681.922	10008.44
682.27	9975.67
682.618	9928.89
682.966	9927.54
683.314	9953.3
683.661	9889.57
684.009	9888.89
684.357	9904.71
684.705	9758.05
685.053	9858.16
685.4	9820.87
685.748	9784.26
686.095	9773.64
686.443	9797.37
686.79	9730.03
687.138	9695.45
687.485	9713.53
687.832	9747.65
688.18	9631.05
688.527	9629.01
688.874	9648.22
689.221	9507.43
689.568	9506.98
689.915	9514.89
690.262	9527.32
690.609	9473.08
690.956	9401.9
691.303	9498.39
691.65	9361.67
691.997	9372.07
692.344	9260.66
692.69	9287.33
693.037	9253.2
693.383	9243.94
693.73	9210.04
694.077	9150.38
694.423	9191.06
694.769	9093.89
695.116	9065.64
695.462	9040.55
695.808	9070.61
696.155	9091.17
696.501	8972.76
696.847	8953.1
697.193	8849.37
697.539	8899.09
697.885	8878.3
698.231	8790.16
698.577	8810.05
698.923	8832.65
699.269	8753.78
699.614	8645.08
699.96	8692.54
700.306	8627.23
700.651	8565.09
700.997	8500.91
701.342	8528.48
701.688	8531.41
702.033	8547.01
702.379	8468.36
702.724	8399.44
703.069	8423.17
703.415	8353.34
703.76	8360.12
704.105	8345.88
704.45	8278.54
704.795	8308.37
705.14	8288.03
705.485	8225.89
705.83	8184.08
706.175	8220.24
706.52	8207.13
706.865	8143.63
707.209	8131.65
707.554	8106.79
707.899	8065.66
708.243	8054.36
708.588	8016.85
708.932	8002.61
709.277	8015.72
709.621	7921.49
709.966	7880.81
710.31	7909.74
710.654	7913.8
710.998	7853.92
711.342	7847.82
711.687	7840.13
712.031	7767.59
712.375	7751.32
712.719	7731.21
713.063	7761.26
713.407	7731.21
713.75	7662.51
714.094	7668.61
714.438	7662.28
714.782	7609.18
715.125	7634.04
715.469	7672.68
715.812	7598.33
716.156	7600.59
716.499	7577.77
716.843	7596.3
717.186	7493.93
717.53	7528.5
717.873	7542.51
718.216	7517.88
718.559	7561.95
718.902	7474.49
719.246	7412.57
719.589	7463.65
719.932	7482.4
720.275	7406.25
720.617	7454.61
720.96	7465.23
721.303	7422.52
721.646	7475.85
721.989	7358.11
722.331	7350.65
722.674	7405.12
723.016	7363.76
723.359	7404.44
723.701	7361.5
724.044	7350.65
724.386	7333.71
724.729	7360.15
725.071	7346.13
725.413	7305.46
725.755	7364.67
726.097	7344.33
726.439	7218.91
726.782	7286.02
727.124	7302.52
727.465	7368.05
727.807	7296.87
728.149	7259.81
728.491	7307.72
728.833	7315.85
729.175	7236.31
729.516	7322.18
729.858	7239.92
730.199	7280.83
730.541	7282.18
730.882	7294.61
731.224	7280.83
731.565	7209.64
731.906	7260.49
732.248	7293.71
732.589	7262.07
732.93	7225.69
733.271	7209.64
733.612	7206.03
733.953	7308.85
734.294	7253.48
734.635	7206.7
734.976	7312.69
735.317	7195.63
735.658	7251.9
735.999	7251.45
736.339	7243.54
736.68	7243.54
737.021	7252.13
737.361	7282.41
737.702	7295.74
738.042	7258.23
738.383	7282.41
738.723	7334.38
739.063	7243.31
739.404	7361.73
739.744	7312.46
740.084	7267.49
740.424	7354.72
740.764	7379.58
741.104	7379.58
741.444	7364.67
741.784	7375.96
742.124	7409.18
742.464	7402.86
742.804	7403.08
743.143	7427.04
743.483	7464.32
743.823	7406.25
744.162	7470.65
744.502	7535.73
744.841	7447.83
745.181	7583.64
745.52	7606.69
745.86	7632.23
746.199	7678.1
746.538	7694.6
746.877	7769.85
747.216	7820.47
747.556	7879.68
747.895	7882.84
748.234	7924.88
748.573	7959.45
748.911	7985.67
749.25	8076.06
749.589	8144.98
749.928	8185.66
750.267	8278.09
750.605	8324.41
750.944	8390.17
751.283	8470.62
751.621	8503.39
751.96	8542.94
752.298	8697.96
752.636	8820.45
752.975	8829.49
753.313	8914.91
753.651	9065.86
753.989	9137.05
754.327	9208.01
754.666	9369.13
755.004	9382.92
755.342	9554.89
755.679	9706.3
756.017	9684.38
756.355	9912.17
756.693	10036.46
757.031	10152.16
757.368	10238.94
757.706	10399.16
758.044	10486.39
758.381	10719.83
758.719	10858.81
759.056	10964.57
759.394	11087.05
759.731	11208.63
760.068	11407.27
760.405	11504.22
760.743	11624.44
761.08	11868.5
761.417	11942.4
761.754	12109.17
762.091	12351.2
762.428	12427.13
762.765	12556.17
763.102	12782.83
763.438	12933.78
763.775	13013.1
764.112	13130.62
764.449	13396.6
764.785	13450.38
765.122	13555.46
765.458	13800.43
765.795	13929.01
766.131	14181.21
766.467	14167.2
766.804	14340.98
767.14	14439.28
767.476	14659.16
767.812	14709.1
768.148	14945.93
768.485	14923.11
768.821	15045.14
769.157	15194.74
769.492	15293.04
769.828	15497.11
770.164	15531.23
770.5	15577.78
770.836	15674.05
771.171	15827.27
771.507	15885.35
771.842	15871.11
772.178	16017.32
772.513	16162.17
772.849	16272.23
773.184	16201.95
773.519	16409.17
773.855	16390.19
774.19	16377.08
774.525	16538.66
774.86	16636.06
775.195	16725.1
775.53	16728.03
775.865	16748.37
776.2	16746.79
776.535	16702.05
776.87	16865.66
777.205	16870.86
777.539	16803.74
777.874	16958.09
778.209	16804.64
778.543	16959.44
778.878	16838.99
779.212	17002.83
779.547	16953.34
779.881	17082.6
780.215	17078.99
780.55	17115.14
780.884	17055.94
781.218	17134.8
781.552	17121.92
781.886	17122.37
782.22	17052.09
782.554	17069.27
782.888	16999.21
783.222	17035.15
783.556	16937.75
783.889	17103.84
784.223	16839.44
784.557	16970.97
784.89	16876.28
785.224	17004.41
785.557	16874.7
785.891	16978.2
786.224	16889.61
786.558	16901.36
786.891	16746.34
787.224	16739.79
787.557	16782.04
787.891	16774.59
788.224	16849.61
788.557	16817.75
788.89	16783.63
789.223	16786.34
789.556	16662.5
789.888	16707.47
790.221	16679.9
790.554	16553.35
790.887	16683.29
791.219	16604.87
791.552	16557.64
791.884	16439.91
792.217	16456.18
792.549	16416.18
792.882	16354.26
793.214	16267.71
793.546	16358.33
793.879	16262.06
794.211	16263.87
794.543	16278.1
794.875	16176.64
795.207	16215.28
795.539	16159.91
795.871	16215.05
796.203	16088.5
796.535	15973.25
796.867	15958.11
797.198	15943.65
797.53	15937.32
797.862	15814.39
798.193	15855.06
798.525	15822.75
798.856	15941.84
799.188	15730.32
799.519	15702.52
799.85	15523.55
800.182	15599.7
800.513	15608.06
800.844	15482.42
801.175	15562.42
801.506	15558.12
801.837	15532.81
802.168	15469.31
802.499	15451.91
802.83	15389.09
803.161	15289.88
803.491	15278.36
803.822	15238.36
804.153	15198.81
804.483	15098.93
804.814	15070
805.145	15101.86
805.475	15020.51
805.805	15084.01
806.136	15042.2
806.466	14993.84
806.796	15022.77
807.126	14896.44
807.457	14761.98
807.787	14808.99
808.117	14805.37
808.447	14753.17
808.777	14856.67
809.107	14651.48
809.436	14704.59
809.766	14651.25
810.096	14604.25
810.426	14550.92
810.755	14517.02
811.085	14643.8
811.414	14632.95
811.744	14417.59
812.073	14425.04
812.403	14442.22
812.732	14356.35
813.061	14348.89
813.39	14250.81
813.719	14252.62
814.049	14283.58
814.378	14253.3
814.707	14189.8
815.036	14171.72
815.365	14182.79
815.693	13952.74
816.022	14028.67
816.351	13956.36
816.68	13867.32
817.008	14024.6
817.337	13912.97
817.665	13839.52
817.994	13904.61
818.322	13902.57
818.651	13794.55
818.979	13639.75
819.307	13815.12
819.636	13805.63
819.964	13729.02
820.292	13741.67
820.62	13679.3
820.948	13733.99
821.276	13699.19
821.604	13595.24
821.932	13691.73
822.259	13658.51
822.587	13650.6
822.915	13729.02
823.243	13661.22
823.57	13631.17
823.898	13662.35
824.225	13633.88
824.553	13635.23
824.88	13621
825.207	13716.36
825.535	13689.92
825.862	13723.59
826.189	13690.83
826.516	13637.72
826.843	13759.3
827.17	13738.96
827.497	13706.87
827.824	13725.4
828.151	13781.67
828.478	13714.78
828.805	13793.42
829.131	13705.52
829.458	13646.99
829.785	13663.03
830.111	13679.75
830.438	13800.2
830.764	13635.69
831.09	13803.59
831.417	13662.13
831.743	13638.85
832.069	13738.51
832.395	13646.76
832.722	13677.27
833.048	13661.45
833.374	13648.12
833.7	13518.4
834.026	13548.46
834.351	13646.31
834.677	13543.94
835.003	13653.77
835.329	13548.68
835.654	13525.63
835.98	13468.23
836.306	13464.62
836.631	13449.48
836.956	13545.52
837.282	13546.2
837.607	13418.74
837.932	13403.15
838.258	13472.98
838.583	13434.79
838.908	13251.52
839.233	13387.11
839.558	13338.29
839.883	13267.33
840.208	13291.97
840.533	13291.74
840.858	13256.71
841.182	13249.71
841.507	13204.51
841.832	13178.07
842.156	13134
842.481	13148.02
842.805	13053.33
843.13	13010.84
843.454	12991.64
843.778	13001.81
844.103	12950.05
844.427	12952.54
844.751	12895.82
845.075	12898.08
845.399	12881.36
845.723	12772.21
846.047	12721.59
846.371	12660.8
846.695	12640.68
847.019	12569.95
847.343	12574.25
847.666	12523.85
847.99	12473.91
848.313	12400.24
848.637	12256.29
848.96	12367.92
849.284	12296.96
849.607	12190.75
849.931	12187.14
850.254	12044.09
850.577	11990.98
850.9	11908.73
851.223	11988.5
851.546	11898.11
851.869	11856.52
852.192	11910.99
852.515	11752.12
852.838	11698.34
853.161	11699.69
853.483	11645.68
853.806	11558.91
854.129	11593.03
854.451	11541.5
854.774	11541.05
855.096	11433.94
855.419	11439.13
855.741	11409.3
856.063	11321.85
856.385	11337.22
856.708	11288.63
857.03	11156.66
857.352	11229.2
857.674	11175.19
857.996	11125.02
858.318	11088.41
858.64	11114.85
858.961	11094.06
859.283	11025.81
859.605	10998.92
859.926	10992.59
860.248	10993.27
860.57	10879.37
860.891	10864.91
861.212	10857
861.534	10812.94
861.855	10781.3
862.176	10819.94
862.498	10809.77
862.819	10724.35
863.14	10753.95
863.461	10657.46
863.782	10626.95
864.103	10750.11
864.424	10706.5
864.745	10649.1
865.065	10501.76
865.386	10567.07
865.707	10525.03
866.027	10560.29
866.348	10517.8
866.668	10547.18
866.989	10483
867.309	10419.95
867.63	10455.88
867.95	10422.89
868.27	10354.19
868.59	10372.04
868.91	10300.18
869.23	10347.64
869.55	10312.84
869.87	10380.63
870.19	10261.31
870.51	10292.95
870.83	10311.71
871.15	10233.52
871.469	10247.98
871.789	10217.02
872.109	10233.52
872.428	10187.87
872.748	10276.9
873.067	10160.75
873.386	10211.6
873.706	10158.26
874.025	10133.86
874.344	10073.52
874.663	10071.03
874.982	10024.48
875.301	10061.32
875.62	10026.06
875.939	9957.37
876.258	10045.05
876.577	9963.47
876.896	9972.51
877.214	9906.07
877.533	9889.34
877.852	9985.84
878.17	9885.5
878.489	9918.95
878.807	9945.61
879.125	9789.91
879.444	9877.14
879.762	9810.48
880.08	9760.53
880.398	9804.15
880.716	9785.17
881.034	9766.18
881.352	9744.94
881.67	9752.4
881.988	9683.25
882.306	9679.18
882.624	9633.31
882.941	9580.88
883.259	9596.47
883.577	9605.28
883.894	9578.62
884.212	9562.8
884.529	9478.96
884.846	9532.07
885.164	9470.15
885.481	9467.43
885.798	9461.33
886.115	9341.34
886.432	9399.64
886.75	9366.42
887.067	9401.67
887.383	9312.86
887.7	9319.42
888.017	9317.83
888.334	9238.06
888.651	9251.4
888.967	9244.16
889.284	9177.72
889.6	9123.49
889.917	9070.16
890.233	9102.47
890.55	9058.63
890.866	9045.98
891.182	8999.65
891.498	8997.39
891.815	9013.44
892.131	8925.75
892.447	8880.33
892.763	8904.29
893.079	8918.97
893.395	8849.82
893.71	8785.19
894.026	8772.31
894.342	8814.57
894.657	8670.39
894.973	8666.1
895.289	8698.64
895.604	8735.25
895.92	8609.83
896.235	8550.85
896.55	8630.17
896.865	8512.21
897.181	8560.34
897.496	8545.88
897.811	8455.03
898.126	8389.95
898.441	8385.43
898.756	8382.49
899.071	8295.04
899.386	8350.85
899.7	8237.64
900.015	8199.45
900.33	8163.97
900.644	8157.19
900.959	8161.71
901.273	8132.1
901.588	8111.31
901.902	8017.76
902.216	8012.11
902.531	7976.85
902.845	7981.37
903.159	7939.11
903.473	7889.62
903.787	7830.64
904.101	7863.64
904.415	7803.75
904.729	7837.65
905.042	7757.42
905.356	7717.65
905.67	7712.9
905.984	7659.8
906.297	7655.05
906.611	7547.94
906.924	7538.9
907.237	7474.27
907.551	7513.36
907.864	7484.66
908.177	7434.95
908.491	7401.5
908.804	7362.18
909.117	7298
909.43	7339.13
909.743	7276.76
910.056	7253.26
910.368	7229.53
910.681	7220.26
910.994	7163.99
911.307	7193.37
911.619	7116.76
911.932	7149.53
912.244	7081.06
912.557	7075.41
912.869	7004.9
913.181	7003.32
913.494	6927.61
913.806	6886.26
914.118	6903.66
914.43	6891.23
914.742	6855.75
915.054	6805.13
915.366	6726.26
915.678	6715.19
915.99	6739.6
916.302	6620.73
916.613	6691.69
916.925	6723.78
917.236	6586.61
917.548	6594.06
917.859	6597
918.171	6510.45
918.482	6517.68
918.794	6493.73
919.105	6451.92
919.416	6451.47
919.727	6434.52
920.038	6392.04
920.349	6373.05
920.66	6348.42
920.971	6380.06
921.282	6342.55
921.593	6246.73
921.903	6200.85
922.214	6173.74
922.525	6192.27
922.835	6176.45
923.146	6107.07
923.456	6104.13
923.767	6038.15
924.077	6058.71
924.387	5981.2
924.697	5989.56
925.008	6009.45
925.318	5942.33
925.628	5926.28
925.938	5898.26
926.248	5853.07
926.558	5863.69
926.867	5874.31
927.177	5832.28
927.487	5803.8
927.796	5761.77
928.106	5766.29
928.416	5718.61
928.725	5708.89
929.034	5679.06
929.344	5676.8
929.653	5620.08
929.962	5577.37
930.271	5553.64
930.581	5535.11
930.89	5555.9
931.199	5475.9
931.508	5472.96
931.817	5491.72
932.125	5426.64
932.434	5491.27
932.743	5384.15
933.051	5373.08
933.36	5341.89
933.669	5270.26
933.977	5353.87
934.286	5316.13
934.594	5291.95
934.902	5231.84
935.21	5223.48
935.519	5190.26
935.827	5179.86
936.135	5133.99
936.443	5082.92
936.751	5104.84
937.059	5098.28
937.367	5003.6
937.674	5053.09
937.982	5028.91
938.29	4987.55
938.597	5033.43
938.905	4955.24
939.213	4952.75
939.52	4901.91
939.827	4856.48
940.135	4879.98
940.442	4863.04
940.749	4846.54
941.056	4877.5
941.363	4792.08
941.67	4831.85
941.977	4756.82
942.284	4746.88
942.591	4693.1
942.898	4706.2
943.205	4675.7
943.511	4669.59
943.818	4658.3
944.125	4624.17
944.431	4611.07
944.738	4543.27
945.044	4575.81
945.35	4556.38
945.657	4505.98
945.963	4526.77
946.269	4471.63
946.575	4452.88
946.881	4409.26
947.187	4425.53
947.493	4368.13
947.799	4366.1
948.105	4361.81
948.41	4365.65
948.716	4331.52
949.022	4316.61
949.327	4317.97
949.633	4222.6
949.938	4273.45
950.244	4245.2
950.549	4211.75
950.854	4210.4
951.16	4211.53
951.465	4163.62
951.77	4161.59
952.075	4128.14
952.38	4140.12
952.685	4122.04
952.99	4048.37
953.294	4095.82
953.599	4015.6
953.904	4041.36
954.209	3959.33
954.513	4018.09
954.818	3967.24
955.122	3940.8
955.426	3935.38
955.731	3911.2
956.035	3897.41
956.339	3906.22
956.643	3865.77
956.948	3833.91
957.252	3848.83
957.556	3885.66
957.86	3793.91
958.163	3795.72
958.467	3750.75
958.771	3768.15
959.075	3759.34
959.378	3751.43
959.682	3716.17
959.985	3718.66
960.289	3694.48
960.592	3679.11
960.896	3700.58
961.199	3620.81
961.502	3626.01
961.805	3606.57
962.108	3616.97
962.411	3578.55
962.714	3549.62
963.017	3560.7
963.32	3552.11
963.623	3546.69
963.926	3502.17
964.228	3471.43
964.531	3464.88
964.833	3465.78
965.136	3453.58
965.438	3448.84
965.741	3393.47
966.043	3421.49
966.345	3398.22
966.648	3380.59
966.95	3378.78
967.252	3375.17
967.554	3330.87
967.856	3298.33
968.158	3293.59
968.46	3301.04
968.761	3278.22
969.063	3267.6
969.365	3207.03
969.666	3251.1
969.968	3200.48
970.269	3190.09
970.571	3181.95
970.872	3183.76
971.174	3148.73
971.475	3155.74
971.776	3130.88
972.077	3103.76
972.378	3097.21
972.679	3101.73
972.98	3047.49
973.281	3072.57
973.582	3038.23
973.883	3009.53
974.183	3023.99
974.484	2995.06
974.785	3007.94
975.085	3006.36
975.386	2977.21
975.686	2970.43
975.986	2967.94
976.287	2962.97
976.587	2921.62
976.887	2931.11
977.187	2920.94
977.487	2892.47
977.787	2887.27
978.087	2856.31
978.387	2823.32
978.687	2803.2
978.987	2784.67
979.286	2818.57
979.586	2811.34
979.885	2765.69
980.185	2809.53
980.484	2713.94
980.784	2754.84
981.083	2735.41
981.382	2716.88
981.682	2698.12
981.981	2701.06
982.28	2705.35
982.579	2689.53
982.878	2640.95
983.177	2685.92
983.475	2670.78
983.774	2648.4
984.073	2593.94
984.372	2618.58
984.67	2621.29
984.969	2581.06
985.267	2528.18
985.566	2547.84
985.864	2563.21
986.162	2514.62
986.461	2559.37
986.759	2502.42
987.057	2511.69
987.355	2451.8
987.653	2482.53
987.951	2452.93
988.249	2516.66
988.547	2481.18
988.844	2408.64
989.142	2438.69
989.44	2412.48
989.737	2395.76
990.035	2418.58
990.332	2364.34
990.63	2382.42
990.927	2323.67
991.224	2347.85
991.521	2331.8
991.819	2331.13
992.116	2292.03
992.413	2300.17
992.71	2294.06
993.006	2294.29
993.303	2258.13
993.6	2295.19
993.897	2233.95
994.193	2230.79
994.49	2235.31
994.787	2239.15
995.083	2214.52
995.379	2211.35
995.676	2168.19
995.972	2178.81
996.268	2170
996.565	2132.94
996.861	2162.77
997.157	2142.88
997.453	2120.51
997.749	2091.36
998.044	2106.95
998.34	2084.13
998.636	2090.91
998.932	2075.31
999.227	2052.71
999.523	2044.58
999.818	2033.73
1000.114	2040.29
1000.409	2005.94
1000.704	1991.93
1001	1981.08
1001.295	1959.84
1001.59	1965.49
1001.885	1965.94
1002.18	1954.19
1002.475	1920.74
1002.77	1945.82
1003.065	1916.22
1003.359	1911.48
1003.654	1906.73
1003.949	1906.05
1004.243	1892.72
1004.538	1866.28
1004.832	1863.57
1005.127	1866.05
1005.421	1854.3
1005.715	1817.92
1006.009	1821.99
1006.304	1819.5
1006.598	1785.38
1006.892	1772.27
1007.186	1772.72
1007.48	1770.24
1007.773	1746.73
1008.067	1762.78
1008.361	1735.21
1008.655	1714.87
1008.948	1728.2
1009.242	1707.64
1009.535	1712.38
1009.829	1676
1010.122	1665.61
1010.415	1672.39
1010.708	1655.66
1011.001	1663.8
1011.295	1640.07
1011.588	1656.79
1011.881	1635.32
1012.173	1619.28
1012.466	1596.46
1012.759	1580.86
1013.052	1593.07
1013.344	1572.73
1013.637	1579.28
1013.93	1546.74
1014.222	1556.68
1014.514	1544.25
1014.807	1552.16
1015.099	1544.48
1015.391	1516.46
1015.683	1532.5
1015.976	1539.96
1016.268	1517.81
1016.56	1467.42
1016.851	1467.65
1017.143	1442.56
1017.435	1462.45
1017.727	1452.73
1018.018	1429.23
1018.31	1427.65
1018.602	1400.08
1018.893	1403.01
1019.185	1409.79
1019.476	1389.23
1019.767	1374.99
1020.058	1377.7
1020.35	1360.98
1020.641	1345.16
1020.932	1384.94
1021.223	1358.04
1021.514	1344.94
1021.804	1324.82
1022.095	1314.88
1022.386	1315.56
1022.677	1295.22
1022.967	1287.08
1023.258	1287.54
1023.548	1288.67
1023.839	1301.55
1024.129	1263.13
1024.419	1253.87
1024.709	1222.45
1025	1239.4
1025.29	1219.29
1025.58	1245.28
1025.87	1192.62
1026.16	1221.55
1026.449	1217.93
1026.739	1199.18
1027.029	1177.71
1027.319	1184.04
1027.608	1161.21
1027.898	1135.45
1028.187	1167.31
1028.477	1165.73
1028.766	1139.29
1029.055	1139.07
1029.344	1105.17
1029.634	1123.47
1029.923	1105.62
1030.212	1110.37
1030.501	1099.07
1030.79	1085.06
1031.078	1069.24
1031.367	1069.46
1031.656	1082.12
1031.945	1055.45
1032.233	1075.34
1032.522	1062.01
1032.81	1062.23
1033.099	1055.45
1033.387	1022.23
1033.675	1022.68
1033.963	1002.8
1034.251	1006.64
1034.54	1015
1034.828	987.88
1035.116	977.26
1035.403	993.53
1035.691	983.36
1035.979	982.91
1036.267	969.81
1036.554	934.78
1036.842	958.05
1037.129	950.14
1037.417	949.47
1037.704	932.52
1037.992	936.13
1038.279	940.2
1038.566	926.87
1038.853	926.87
1039.14	926.87
