Data from hue_80_FLMS001491_72.txt Node
Date: Mon Feb 06 15:23:31 GMT 2017
User: dcchb
Spectrometer: FLMS00149
Trigger mode: 0
Integration Time (sec): 2.000000E-2
Scans to average: 10
Electric dark correction enabled: true
Nonlinearity correction enabled: false
Boxcar width: 0
XAxis mode: Wavelengths
Number of Pixels in Spectrum: 2048
>>>>>Begin Spectral Data<<<<<
341.393	-0.58
341.776	-0.58
342.16	-0.58
342.543	-60.01
342.927	-57.07
343.31	-64.31
343.693	-72.44
344.077	-69.73
344.46	-63.63
344.843	-57.53
345.226	-38.32
345.61	-28.6
345.993	-0.35
346.376	3.94
346.759	7.1
347.142	28.12
347.525	35.13
347.908	64.5
348.291	69.48
348.674	80.77
349.057	105.86
349.44	120.77
349.823	135.01
350.206	175.46
350.588	207.1
350.971	203.03
351.354	238.06
351.737	257.04
352.119	237.38
352.502	259.75
352.884	288
353.267	290.94
353.65	291.62
354.032	311.05
354.414	300.2
354.797	314.21
355.179	308.57
355.562	321.22
355.944	335.68
356.326	329.36
356.709	326.42
357.091	330.26
357.473	338.62
357.855	335.46
358.238	336.14
358.62	332.52
359.002	347.89
359.384	344.5
359.766	335.01
360.148	329.13
360.53	344.27
360.912	329.36
361.294	316.47
361.676	323.71
362.057	316.02
362.439	339.3
362.821	325.97
363.203	315.34
363.584	348.56
363.966	311.05
364.348	329.13
364.729	319.86
365.111	334.55
365.493	327.1
365.874	313.76
366.256	320.77
366.637	328.45
367.019	312.86
367.4	313.31
367.781	310.6
368.163	330.94
368.544	330.49
368.925	314.21
369.306	320.54
369.688	324.38
370.069	310.6
370.45	309.24
370.831	315.12
371.212	310.83
371.593	306.53
371.974	303.82
372.355	313.54
372.736	341.78
373.117	337.72
373.498	306.76
373.879	320.09
374.26	307.89
374.641	311.5
375.021	316.7
375.402	334.33
375.783	311.5
376.163	341.78
376.544	321.67
376.925	357.83
377.305	349.69
377.686	349.24
378.066	312.41
378.447	336.14
378.827	303.14
379.208	333.2
379.588	315.57
379.968	329.36
380.349	340.2
380.729	329.81
381.109	348.34
381.489	347.43
381.87	341.11
382.25	349.69
382.63	360.09
383.01	335.46
383.39	350.82
383.77	344.04
384.15	331.16
384.53	349.92
384.91	364.16
385.29	359.86
385.67	340.43
386.049	341.56
386.429	371.16
386.809	337.94
387.189	358.73
387.568	353.31
387.948	340.43
388.328	347.89
388.707	346.76
389.087	371.61
389.466	373.2
389.846	362.35
390.225	356.93
390.605	375.46
390.984	351.95
391.363	373.87
391.743	384.27
392.122	346.3
392.501	346.76
392.881	388.11
393.26	380.65
393.639	385.17
394.018	374.55
394.397	358.73
394.776	370.48
395.155	405.06
395.534	394.44
395.913	356.25
396.292	380.2
396.671	400.77
397.05	368
397.429	392.63
397.808	368.22
398.186	381.11
398.565	387.89
398.944	400.31
399.323	404.38
399.701	392.4
400.08	385.17
400.458	401.44
400.837	404.38
401.215	408.68
401.594	415.23
401.972	405.29
402.351	402.12
402.729	409.13
403.107	419.97
403.486	404.61
403.864	421.1
404.242	395.57
404.62	424.27
404.999	408.9
405.377	408.45
405.755	420.43
406.133	429.69
406.511	412.52
406.889	408.68
407.267	425.17
407.645	438.51
408.023	435.12
408.401	447.54
408.779	436.7
409.156	438.51
409.534	449.58
409.912	441.22
410.29	451.84
410.667	445.28
411.045	424.04
411.422	458.39
411.8	473.76
412.178	455.23
412.555	473.98
412.933	472.4
413.31	452.74
413.687	480.54
414.065	463.82
414.442	478.96
414.819	491.16
415.197	492.97
415.574	472.18
415.951	493.19
416.328	497.71
416.705	462.91
417.082	490.71
417.46	505.4
417.837	512.63
418.214	507.43
418.591	502.23
418.967	514.89
419.344	516.47
419.721	489.58
420.098	511.5
420.475	534.55
420.852	540.65
421.228	525.51
421.605	533.87
421.982	534.77
422.358	508.33
422.735	537.26
423.111	525.28
423.488	539.75
423.864	535.9
424.241	551.95
424.617	541.1
424.994	560.99
425.37	558.73
425.746	547.66
426.123	540.42
426.499	575.68
426.875	568.9
427.251	557.6
427.627	567.54
428.003	584.26
428.379	586.3
428.756	617.71
429.132	600.54
429.507	603.7
429.883	600.31
430.259	607.77
430.635	602.79
431.011	631.04
431.387	613.64
431.763	617.94
432.138	633.08
432.514	652.06
432.89	643.92
433.265	655.45
433.641	657.93
434.016	662.68
434.392	659.52
434.767	659.52
435.143	661.1
435.518	678.27
435.894	682.34
436.269	679.63
436.644	669.91
437.02	710.36
437.395	691.38
437.77	707.42
438.145	719.18
438.52	716.69
438.895	732.06
439.271	718.05
439.646	732.06
440.021	748.1
440.395	734.54
440.77	736.12
441.145	758.95
441.52	773.41
441.895	760.98
442.27	777.93
442.645	749.23
443.019	778.84
443.394	743.58
443.769	784.71
444.143	785.16
444.518	786.74
444.892	773.41
445.267	804.37
445.641	799.85
446.016	792.62
446.39	811.38
446.764	810.25
447.139	819.06
447.513	825.39
447.887	837.36
448.262	838.04
448.636	833.98
449.01	836.01
449.384	829.23
449.758	840.53
450.132	842.79
450.506	864.93
450.88	842.11
451.254	852.05
451.628	887.99
452.002	867.87
452.376	900.19
452.75	909
453.123	907.87
453.497	916.68
453.871	915.1
454.244	938.83
454.618	949.23
454.992	948.1
455.365	953.75
455.739	977.02
456.112	1007.76
456.486	992.39
456.859	997.36
457.232	1023.12
457.606	1026.96
457.979	1040.98
458.352	1058.38
458.725	1058.83
459.099	1070.35
459.472	1095.66
459.845	1090.92
460.218	1112.61
460.591	1115.1
460.964	1114.19
461.337	1132.72
461.71	1147.19
462.083	1167.98
462.456	1180.63
462.829	1188.99
463.201	1204.81
463.574	1204.36
463.947	1233.96
464.32	1250.91
464.692	1250.24
465.065	1270.35
465.438	1291.59
465.81	1309.44
466.183	1340.18
466.555	1355.32
466.928	1364.13
467.3	1362.1
467.672	1381.31
468.045	1417.69
468.417	1448.2
468.789	1454.3
469.161	1465.37
469.534	1512.38
469.906	1548.76
470.278	1574.07
470.65	1570
471.022	1623.11
471.394	1650.68
471.766	1694.52
472.138	1733.84
472.51	1769.77
472.882	1774.52
473.253	1839.6
473.625	1838.92
473.997	1912.14
474.369	1918.24
474.74	1946.94
475.112	1984.91
475.484	2066.49
475.855	2086.37
476.227	2137.9
476.598	2209.76
476.97	2257.21
477.341	2328.17
477.713	2389.41
478.084	2400.26
478.455	2503.08
478.827	2529.3
479.198	2666.24
479.569	2683.42
479.94	2842.51
480.311	2849.06
480.682	2889.51
481.053	3037.53
481.424	3117.08
481.795	3188.94
482.166	3281.82
482.537	3324.98
482.908	3465.09
483.279	3548.25
483.65	3655.37
484.021	3769.04
484.391	3866.21
484.762	3942.82
485.133	4063.95
485.503	4137.17
485.874	4288.8
486.244	4387.33
486.615	4526.76
486.985	4628.68
487.356	4724.49
487.726	4828.22
488.097	5014.88
488.467	5063.02
488.837	5279.28
489.207	5415.1
489.578	5506.17
489.948	5631.14
490.318	5830
490.688	5883.11
491.058	6065.25
491.428	6208.75
491.798	6354.51
492.168	6511.57
492.538	6589.76
492.908	6789.3
493.278	6868.17
493.648	7048.95
494.017	7137.09
494.387	7256.41
494.757	7491.2
495.126	7639.45
495.496	7699.11
495.866	7845.99
496.235	8056.38
496.605	8148.81
496.974	8338.18
497.344	8446.88
497.713	8574.79
498.082	8713.54
498.452	8861.11
498.821	8900.43
499.19	9038.96
499.559	9232.62
499.928	9346.97
500.298	9418.16
500.667	9577.02
501.036	9649.79
501.405	9800.75
501.774	9919.16
502.143	10026.05
502.512	10123
502.88	10225.37
503.249	10360.05
503.618	10536.32
503.987	10525.25
504.356	10633.49
504.724	10769.76
505.093	10838.91
505.462	10937.89
505.83	11100.37
506.199	11211.56
506.567	11355.73
506.936	11307.37
507.304	11507.37
507.672	11620.36
508.041	11680.92
508.409	11852.67
508.777	11996.85
509.145	12115.26
509.514	12091.08
509.882	12148.71
510.25	12236.16
510.618	12380.56
510.986	12484.29
511.354	12491.3
511.722	12665.53
512.09	12788.46
512.458	12785.98
512.826	12962.02
513.193	12946.88
513.561	13013.54
513.929	13141.45
514.297	13216.93
514.664	13312.74
515.032	13363.59
515.4	13550.48
515.767	13518.39
516.135	13536.47
516.502	13476.58
516.869	13825.5
517.237	13865.27
517.604	13777.82
517.972	13965.61
518.339	13967.64
518.706	14041.76
519.073	14123.12
519.44	14180.52
519.808	14236.56
520.175	14208.31
520.542	14408.99
520.909	14510.68
521.276	14481.07
521.643	14601.75
522.009	14738.02
522.376	14744.12
522.743	14841.52
523.11	14928.52
523.477	15044.9
523.843	15108.63
524.21	15198.34
524.577	15258.91
524.943	15302.3
525.31	15371.9
525.676	15475.85
526.043	15522.63
526.409	15524.66
526.776	15723.3
527.142	15694.6
527.508	15700.7
527.874	15851.66
528.241	15931.43
528.607	15857.76
528.973	15994.25
529.339	15959.91
529.705	16123.06
530.071	16179.79
530.437	16214.59
530.803	16217.98
531.169	16215.72
531.535	16196.28
531.901	16225.89
532.267	16314.92
532.632	16350.86
532.998	16355.83
533.364	16372.32
533.73	16400.8
534.095	16536.61
534.461	16505.65
534.826	16511.3
535.192	16644.18
535.557	16524.41
535.923	16452.32
536.288	16607.8
536.653	16613.9
537.019	16685.31
537.384	16623.62
537.749	16652.99
538.114	16629.72
538.479	16610.28
538.845	16638.53
539.21	16682.15
539.575	16580
539.94	16667.68
540.305	16579.1
540.67	16644.86
541.034	16682.15
541.399	16668.81
541.764	16650.51
542.129	16617.29
542.494	16751.52
542.858	16670.4
543.223	16587.46
543.587	16566.44
543.952	16630.62
544.316	16592.66
544.681	16632.2
545.045	16565.54
545.41	16597.4
545.774	16587.23
546.138	16564.86
546.503	16637.4
546.867	16492.09
547.231	16652.54
547.595	16533.22
547.959	16615.26
548.324	16558.99
548.688	16570.51
549.052	16577.06
549.416	16543.39
549.779	16575.03
550.143	16426.79
550.507	16541.81
550.871	16550.4
551.235	16447.8
551.599	16636.05
551.962	16585.2
552.326	16561.47
552.689	16693.45
553.053	16583.39
553.417	16447.12
553.78	16726.89
554.143	16587.69
554.507	16551.53
554.87	16643.28
555.234	16710.39
555.597	16534.81
555.96	16580
556.323	16558.53
556.686	16575.93
557.05	16723.73
557.413	16617.06
557.776	16581.58
558.139	16702.48
558.502	16711.98
558.865	16752.65
559.228	16780.22
559.59	16749.94
559.953	16780.45
560.316	16969.6
560.679	16869.94
561.041	16875.36
561.404	16903.84
561.767	17004.17
562.129	16918.07
562.492	16963.04
562.854	17031.29
563.217	16974.12
563.579	17049.82
563.941	17094.56
564.304	17112.64
564.666	17244.17
565.028	17119.42
565.39	17150.38
565.753	17232.19
566.115	17263.15
566.477	17330.49
566.839	17318.51
567.201	17412.75
567.563	17421.79
567.925	17563.03
568.287	17476.93
568.648	17535.91
569.01	17599.86
569.372	17662.01
569.734	17579.52
570.095	17609.13
570.457	17717.37
570.819	17624.27
571.18	17599.41
571.542	17788.33
571.903	17731.84
572.265	17852.28
572.626	17788.33
572.987	17823.13
573.349	17916.46
573.71	17980.64
574.071	17947.88
574.432	17922.79
574.794	18013.86
575.155	17988.1
575.516	17952.85
575.877	17979.51
576.238	17957.37
576.599	18132.5
576.96	18088.66
577.32	18150.58
577.681	18092.28
578.042	18220.64
578.403	18154.65
578.763	18175.21
579.124	18154.2
579.485	18202.33
579.845	18250.69
580.206	18244.59
580.566	18285.04
580.927	18097.93
581.287	18220.41
581.648	18205.27
582.008	18318.94
582.368	18286.85
582.728	18349.9
583.089	18240.3
583.449	18189.45
583.809	18146.74
584.169	18233.97
584.529	18239.17
584.889	18233.74
585.249	18181.77
585.609	18176.57
585.969	18199.17
586.329	18259.28
586.688	18179.96
587.048	18158.04
587.408	18126.18
587.768	18113.75
588.127	18071.26
588.487	18076.23
588.846	18227.64
589.206	18111.26
589.565	18029
589.925	18132.73
590.284	18056.35
590.643	18048.21
591.003	18080.3
591.362	18154.65
591.721	18077.36
592.08	18053.18
592.44	18131.83
592.799	18071.94
593.158	18057.93
593.517	18099.51
593.876	18098.15
594.235	18008.21
594.593	17999.63
594.952	18203.69
595.311	17924.15
595.67	18113.52
596.029	18131.37
596.387	18012.28
596.746	18128.66
597.104	18047.53
597.463	18072.39
597.822	18099.28
598.18	18032.62
598.538	18051.6
598.897	18110.58
599.255	17945.84
599.613	18209.34
599.972	18100.19
600.33	18075.56
600.688	17905.84
601.046	18167.3
601.404	18099.51
601.762	18060.87
602.12	18228.55
602.478	18126.85
602.836	18094.09
603.194	17954.2
603.552	18104.71
603.91	18007.53
604.268	18087.53
604.625	18117.14
604.983	18113.52
605.341	17946.97
605.698	18147.19
606.056	18261.54
606.413	18143.12
606.771	18201.43
607.128	18171.6
607.485	18138.15
607.843	18080.3
608.2	18297.7
608.557	18206.63
608.914	18252.73
609.272	18233.52
609.629	18296.79
609.986	18351.71
610.343	18304.7
610.7	18412.27
611.057	18365.04
611.414	18370.92
611.771	18363.01
612.127	18495.66
612.484	18350.8
612.841	18435.77
613.198	18419.28
613.554	18413.63
613.911	18541.98
614.267	18462.21
614.624	18530.01
614.98	18433.29
615.337	18605.49
615.693	18533.62
616.05	18620.4
616.406	18625.15
616.762	18534.3
617.118	18553.51
617.475	18627.41
617.831	18692.26
618.187	18653.62
618.543	18653.17
618.899	18726.39
619.255	18714.64
619.611	18713.96
619.967	18864.91
620.323	18786.95
620.678	18788.98
621.034	18814.29
621.39	18765.48
621.746	18755.54
622.101	18913.73
622.457	18726.39
622.812	18759.38
623.168	18809.77
623.523	18761.41
623.879	18897
624.234	18786.95
624.589	18822.65
624.945	18824.24
625.3	18846.38
625.655	18875.53
626.01	18969.54
626.365	18861.3
626.72	18749.89
627.075	18826.95
627.43	18860.17
627.785	18825.82
628.14	18873.5
628.495	18804.35
628.85	18779.49
629.205	18758.02
629.559	18781.3
629.914	18789.44
630.269	18838.93
630.623	18798.25
630.978	18641.64
631.332	18748.98
631.687	18719.61
632.041	18697.91
632.396	18783.33
632.75	18697.23
633.104	18616.11
633.459	18569.78
633.813	18542.89
634.167	18617.69
634.521	18451.82
634.875	18636.9
635.229	18583.11
635.583	18607.29
635.937	18515.09
636.291	18427.64
636.645	18462.44
636.999	18502.66
637.352	18493.4
637.706	18435.09
638.06	18493.85
638.413	18413.63
638.767	18335.21
639.121	18382.21
639.474	18276.91
639.828	18376.11
640.181	18341.99
640.534	18309.67
640.888	18341.09
641.241	18223.8
641.594	18198.04
641.947	18303.35
642.301	18190.13
642.654	18222.67
643.007	18141.99
643.36	18135.89
643.713	18110.36
644.066	18232.16
644.419	18071.04
644.771	17938.16
645.124	17799.4
645.477	17831.04
645.83	17649.8
646.182	17567.09
646.535	17448
646.888	17617.94
647.24	17440.09
647.593	17619.07
647.945	17635.57
648.298	17445.06
648.65	17537.26
649.002	17494.78
649.355	17537.94
649.707	17515.57
650.059	17544.5
650.411	17759.63
650.763	17777.03
651.115	17923.02
651.467	17864.49
651.819	17920.98
652.171	17880.31
652.523	17765.73
652.875	17906.97
653.227	17747.65
653.578	17909.91
653.93	17929.8
654.282	17760.08
654.633	17779.52
654.985	17797.37
655.337	17875.79
655.688	17920.31
656.039	17942
656.391	17847.54
656.742	17863.58
657.094	17925.05
657.445	17880.53
657.796	17856.13
658.147	17836.92
658.498	17915.11
658.849	17823.36
659.2	17922.11
659.551	17906.07
659.902	17900.19
660.253	17817.48
660.604	17974.54
660.955	17888.89
661.306	17931.15
661.656	17836.01
662.007	17846.41
662.358	17939.97
662.708	17966.41
663.059	17968.67
663.409	17821.1
663.76	18045.95
664.11	17947.65
664.461	17959.4
664.811	17893.41
665.161	17925.28
665.511	17922.79
665.862	17972.73
666.212	18037.59
666.562	17951.72
666.912	17935.45
667.262	17874.66
667.612	18012.51
667.962	17973.41
668.312	17959.4
668.662	17921.21
669.011	17921.44
669.361	17887.99
669.711	17908.55
670.06	17962.11
670.41	17776.81
670.76	17864.04
671.109	17875.56
671.459	17778.39
671.808	17866.3
672.157	17894.54
672.507	17718.5
672.856	17803.47
673.205	17678.96
673.554	17827.43
673.904	17784.04
674.253	17801.89
674.602	17759.63
674.951	17529.58
675.3	17486.64
675.649	17735.9
675.998	17718.5
676.346	17735.45
676.695	17649.58
677.044	17635.12
677.393	17611.61
677.741	17708.33
678.09	17622.01
678.438	17643.02
678.787	17619.07
679.135	17643.48
679.484	17497.27
679.832	17546.98
680.181	17445.52
680.529	17467.44
680.877	17467.44
681.225	17459.3
681.573	17523.93
681.922	17353.54
682.27	17350.83
682.618	17298.85
682.966	17242.58
683.314	17214.56
683.661	17158.74
684.009	17220.44
684.357	17084.17
684.705	17088.46
685.053	17120.33
685.4	17102.25
685.748	16893.89
686.095	16928.92
686.443	16911.74
686.79	16825.87
687.138	16801.47
687.485	16823.61
687.832	16776.83
688.18	16874.91
688.527	16658.87
688.874	16647.34
689.221	16615.93
689.568	16615.48
689.915	16573
690.262	16559.89
690.609	16483.73
690.956	16438.99
691.303	16390.85
691.65	16290.52
691.997	16312.44
692.344	16130.3
692.69	16104.99
693.037	16108.83
693.383	16006.46
693.73	16071.99
694.077	15995.61
694.423	15904.31
694.769	15855.28
695.116	15773.02
695.462	15849.17
695.808	15768.27
696.155	15747.93
696.501	15662.96
696.847	15566.92
697.193	15433.14
697.539	15565.34
697.885	15396.98
698.231	15368.28
698.577	15329.41
698.923	15234.27
699.269	15209.19
699.614	15125.35
699.96	15029.76
700.306	15087.16
700.651	15061.4
700.997	14884.91
701.342	14954.06
701.688	14824.57
702.033	14752.93
702.379	14877.45
702.724	14670.9
703.069	14741.18
703.415	14639.26
703.76	14590
704.105	14526.5
704.45	14495.99
704.795	14439.04
705.14	14319.95
705.485	14388.65
705.83	14279.5
706.175	14275.2
706.52	14192.49
706.865	14201.53
707.209	14130.35
707.554	14138.48
707.899	14047.87
708.243	14082.44
708.588	14019.17
708.932	13918.38
709.277	13910.47
709.621	13946.62
709.966	13846.97
710.31	13752.28
710.654	13775.78
710.998	13798.38
711.342	13693.07
711.687	13738.27
712.031	13648.33
712.375	13590.02
712.719	13643.36
713.063	13562.68
713.407	13513.64
713.75	13531.27
714.094	13491.04
714.438	13451.04
714.782	13477.26
715.125	13372.4
715.469	13395.68
715.812	13231.62
716.156	13221.67
716.499	13264.83
716.843	13278.39
717.186	13196.14
717.53	13292.18
717.873	13179.19
718.216	13192.29
718.559	13164.05
718.902	13010.6
719.246	13065.74
719.589	12985.29
719.932	12951.85
720.275	13026.42
720.617	12986.88
720.96	12969.93
721.303	12902.58
721.646	12929.02
721.989	12859.87
722.331	12858.52
722.674	12872.98
723.016	12856.26
723.359	12788.92
723.701	12846.31
724.044	12842.25
724.386	12775.36
724.729	12795.69
725.071	12750.05
725.413	12803.38
725.755	12744.62
726.097	12684.96
726.439	12670.27
726.782	12609.71
727.124	12782.59
727.465	12660.78
727.807	12691.97
728.149	12661.91
728.491	12684.74
728.833	12679.77
729.175	12615.13
729.516	12524.97
729.858	12576.04
730.199	12653.1
730.541	12571.29
730.882	12631.86
731.224	12610.16
731.565	12522.48
731.906	12570.39
732.248	12590.28
732.589	12597.96
732.93	12533.33
733.271	12536.94
733.612	12597.51
733.953	12558.41
734.294	12493.33
734.635	12437.96
734.976	12561.35
735.317	12480.9
735.658	12500.34
735.999	12546.44
736.339	12493.56
736.68	12494.69
737.021	12492.43
737.361	12463.95
737.702	12528.81
738.042	12567.45
738.383	12528.58
738.723	12590.73
739.063	12519.77
739.404	12576.27
739.744	12548.7
740.084	12568.13
740.424	12582.14
740.764	12535.59
741.104	12553.22
741.444	12523.16
741.784	12521.35
742.124	12634.57
742.464	12611.74
742.804	12592.31
743.143	12577.62
743.483	12645.42
743.823	12628.69
744.162	12642.48
744.502	12777.62
744.841	12668.24
745.181	12862.59
745.52	12852.87
745.86	12912.08
746.199	12904.84
746.538	12863.04
746.877	13004.05
747.216	13020.1
747.556	13049.47
747.895	13085.63
748.234	13056.25
748.573	13111.39
748.911	13232.29
749.25	13255.34
749.589	13298.96
749.928	13427.32
750.267	13441.78
750.605	13462.57
750.944	13547.31
751.283	13589.35
751.621	13678.38
751.96	13743.92
752.298	13835.67
752.636	13988.66
752.975	13936.91
753.313	14084.25
753.651	14312.04
753.989	14302.1
754.327	14308.42
754.666	14478.14
755.004	14542.09
755.342	14697.11
755.679	14822.99
756.017	14815.75
756.355	14970.55
756.693	15046.93
757.031	15214.84
757.368	15286.02
757.706	15347.04
758.044	15392.46
758.381	15628.16
758.719	15646.69
759.056	15900.7
759.394	15927.14
759.731	16077.64
760.068	16138.43
760.405	16214.14
760.743	16248.49
761.08	16481.02
761.417	16587.01
761.754	16622.26
762.091	16730.96
762.428	16870.84
762.765	16857.73
763.102	17157.84
763.438	17110.61
763.775	17273.09
764.112	17297.27
764.449	17401
764.785	17569.58
765.122	17472.41
765.458	17633.31
765.795	17620.2
766.131	17819.52
766.467	17858.61
766.804	17938.16
767.14	17936.35
767.476	17977.25
767.812	18118.72
768.148	18138.6
768.485	18225.83
768.821	18278.26
769.157	18314.42
769.492	18361.42
769.828	18479.39
770.164	18330.69
770.5	18444.81
770.836	18477.81
771.171	18453.62
771.507	18516.67
771.842	18443.46
772.178	18520.52
772.513	18452.5
772.849	18558.48
773.184	18649.78
773.519	18678.7
773.855	18576.79
774.19	18509.89
774.525	18574.53
774.86	18651.81
775.195	18557.8
775.53	18624.69
775.865	18602.77
776.2	18557.13
776.535	18611.36
776.87	18531.81
777.205	18580.63
777.539	18507.41
777.874	18607.07
778.209	18378.82
778.543	18526.84
778.878	18441.42
779.212	18427.41
779.547	18364.14
779.881	18475.32
780.215	18301.99
780.55	18459.95
780.884	18242.78
781.218	18363.91
781.552	18281.2
781.886	18257.25
782.22	18152.62
782.554	18132.28
782.888	18036.01
783.222	17991.49
783.556	17886.63
783.889	17977.93
784.223	17793.76
784.557	17885.5
784.89	17917.14
785.224	17734.77
785.557	17749.69
785.891	17628.79
786.224	17635.79
786.558	17622.69
786.891	17599.41
787.224	17443.93
787.557	17451.84
787.891	17417.27
788.224	17492.52
788.557	17428.12
788.89	17350.6
789.223	17293.88
789.556	17226.76
789.888	17189.7
790.221	17149.93
790.554	17022.93
790.887	17035.13
791.219	16980.9
791.552	16966.88
791.884	16930.73
792.217	16862.93
792.549	16851.63
792.882	16787.91
793.214	16676.95
793.546	16701.81
793.879	16522.83
794.211	16514.69
794.543	16572.77
794.875	16501.13
795.207	16489.38
795.539	16404.19
795.871	16492.77
796.203	16172.33
796.535	16217.98
796.867	16257.75
797.198	16210.52
797.53	16156.51
797.862	16057.76
798.193	16050.98
798.525	15963.29
798.856	16055.95
799.188	15836.29
799.519	15886.91
799.85	15833.58
800.182	15792.45
800.513	15815.73
800.844	15621.38
801.175	15674.71
801.506	15649.63
801.837	15487.15
802.168	15562.4
802.499	15534.38
802.83	15420.03
803.161	15428.85
803.491	15383.2
803.822	15364.89
804.153	15273.6
804.483	15262.07
804.814	15080.61
805.145	15104.79
805.475	15092.36
805.805	15126.48
806.136	15050.32
806.466	15086.03
806.796	14949.99
807.126	14867.28
807.457	14822.08
807.787	14871.12
808.117	14737.34
808.447	14740.95
808.777	14825.02
809.107	14691.46
809.436	14638.81
809.766	14758.81
810.096	14743.67
810.426	14618.92
810.755	14541.19
811.085	14571.69
811.414	14473.39
811.744	14379.16
812.073	14334.41
812.403	14441.75
812.732	14307.52
813.061	14253.28
813.39	14295.77
813.719	14166.28
814.049	14254.64
814.378	14160.4
814.707	14058.26
815.036	14031.37
815.365	14094.19
815.693	13924.25
816.022	13854.88
816.351	13918.83
816.68	13894.65
817.008	13900.75
817.337	13730.36
817.665	13743.69
817.994	13772.39
818.322	13719.96
818.651	13746.86
818.979	13642.68
819.307	13688.1
819.636	13660.53
819.964	13479.97
820.292	13650.81
820.62	13592.28
820.948	13558.16
821.276	13591.38
821.604	13513.42
821.932	13496.47
822.259	13600.87
822.587	13551.38
822.915	13514.32
823.243	13607.42
823.57	13496.92
823.898	13507.99
824.225	13483.59
824.553	13473.87
824.88	13477.03
825.207	13625.28
825.535	13447.65
825.862	13523.13
826.189	13530.36
826.516	13537.82
826.843	13503.7
827.17	13547.09
827.497	13480.87
827.824	13455.34
828.151	13576.01
828.478	13512.51
828.805	13485.85
829.131	13550.03
829.458	13512.29
829.785	13429.58
830.111	13419.86
830.438	13582.11
830.764	13512.06
831.09	13469.35
831.417	13423.7
831.743	13479.29
832.069	13469.58
832.395	13399.97
832.722	13423.7
833.048	13410.59
833.374	13401.1
833.7	13310.03
834.026	13382.12
834.351	13364.95
834.677	13355
835.003	13339.64
835.329	13303.03
835.654	13359.52
835.98	13257.15
836.306	13290.14
836.631	13221.9
836.956	13230.49
837.282	13205.4
837.607	13076.82
837.932	13102.13
838.258	13212.41
838.583	13124.27
838.908	13049.25
839.233	13040.21
839.558	13032.98
839.883	12997.95
840.208	12958.4
840.533	12941.23
840.858	12967.44
841.182	12990.72
841.507	12961.79
841.832	12853.09
842.156	12847.44
842.481	12845.64
842.805	12746.2
843.13	12739.65
843.454	12799.31
843.778	12660.1
844.103	12649.03
844.427	12729.26
844.751	12669.37
845.075	12555.02
845.399	12587.79
845.723	12550.5
846.047	12497.17
846.371	12454.23
846.695	12481.8
847.019	12332.88
847.343	12288.36
847.666	12151.42
847.99	12185.54
848.313	12130.85
848.637	12071.65
848.96	12055.15
849.284	12115.26
849.607	11897.41
849.931	11964.08
850.254	11774.25
850.577	11832.56
850.9	11722.28
851.223	11707.36
851.546	11634.37
851.869	11567.7
852.192	11571.55
852.515	11524.09
852.838	11464.88
853.161	11466.69
853.483	11362.96
853.806	11261.95
854.129	11371.55
854.451	11282.74
854.774	11198.22
855.096	11276.86
855.419	11157.32
855.741	11182.18
856.063	11042.97
856.385	11078.68
856.708	10995.97
857.03	10962.97
857.352	10930.43
857.674	10998.68
857.996	10939.7
858.318	10853.82
858.64	10850.89
858.961	10852.47
859.283	10756.88
859.605	10753.94
859.926	10723.88
860.248	10721.4
860.57	10689.54
860.891	10677.11
861.212	10608.18
861.534	10601.4
861.855	10584.91
862.176	10615.41
862.498	10496.09
862.819	10555.3
863.14	10477.56
863.461	10431.69
863.782	10446.15
864.103	10476.43
864.424	10349.43
864.745	10432.59
865.065	10357.34
865.386	10300.84
865.707	10324.12
866.027	10391.46
866.348	10266.95
866.668	10320.28
866.989	10190.11
867.309	10173.39
867.63	10211.81
867.95	10184.69
868.27	10157.12
868.59	10185.82
868.91	10151.02
869.23	10121.64
869.55	10089.1
869.87	10158.48
870.19	10060.63
870.51	10026.05
870.83	10118.7
871.15	10016.56
871.469	10031.25
871.789	10009.1
872.109	9973.62
872.428	9955.54
872.748	9992.38
873.067	9991.7
873.386	9935.43
873.706	9922.1
874.025	9918.48
874.344	9886.17
874.663	9834.64
874.982	9817.92
875.301	9902.44
875.62	9801.42
875.939	9781.54
876.258	9880.07
876.577	9740.18
876.896	9735.89
877.214	9728.43
877.533	9707.41
877.852	9671.03
878.17	9682.1
878.489	9705.61
878.807	9694.76
879.125	9622.22
879.444	9605.27
879.762	9610.47
880.08	9649.34
880.398	9536.57
880.716	9598.04
881.034	9516.01
881.352	9573.86
881.67	9517.59
881.988	9443.01
882.306	9456.8
882.624	9450.25
882.941	9389.23
883.259	9334.09
883.577	9284.37
883.894	9278.27
884.212	9332.73
884.529	9305.16
884.846	9251.83
885.164	9318.27
885.481	9206.86
885.798	9204.83
886.115	9193.98
886.432	9201.44
886.75	9118.05
887.067	9135.9
887.383	9063.14
887.7	9151.5
888.017	9090.71
888.334	9024.95
888.651	9003.93
888.967	9007.32
889.284	8967.77
889.6	8915.8
889.917	8859.3
890.233	8954.44
890.55	8853.43
890.866	8838.28
891.182	8869.7
891.498	8802.35
891.815	8708.12
892.131	8737.72
892.447	8651.62
892.763	8678.51
893.079	8674.9
893.395	8607.56
893.71	8583.15
894.026	8629.02
894.342	8604.84
894.657	8458.41
894.973	8503.15
895.289	8465.41
895.604	8400.33
895.92	8361.01
896.235	8368.69
896.55	8368.92
896.865	8327.11
897.181	8320.78
897.496	8289.82
897.811	8257.96
898.126	8190.17
898.441	8232.88
898.756	8161.01
899.071	8127.57
899.386	8136.38
899.7	8028.36
900.015	8007.8
900.33	7960.12
900.644	7985.65
900.959	7967.35
901.273	7888.93
901.588	7924.18
901.902	7828.14
902.216	7886.45
902.531	7808.26
902.845	7787.46
903.159	7719.9
903.473	7661.37
903.787	7667.47
904.101	7592.89
904.415	7543.18
904.729	7596.96
905.042	7500.24
905.356	7533.69
905.67	7517.64
905.984	7499.11
906.297	7471.99
906.611	7431.77
906.924	7406.68
907.237	7376.85
907.551	7327.36
907.864	7292.11
908.177	7293.47
908.491	7357.87
908.804	7248.95
909.117	7197.65
909.43	7184.54
909.743	7194.26
910.056	7146.13
910.368	7090.31
910.681	7031.78
910.994	7074.49
911.307	6977.99
911.619	6985
911.932	6947.03
912.244	6963.31
912.557	6922.4
912.869	6821.16
913.181	6848.28
913.494	6778
913.806	6708.17
914.118	6783.2
914.43	6729.64
914.742	6756.53
915.054	6648.06
915.366	6607.38
915.678	6673.82
915.99	6594.95
916.302	6552.24
916.613	6498.23
916.925	6517.22
917.236	6483.54
917.548	6479.93
917.859	6467.27
918.171	6394.06
918.482	6383.66
918.794	6387.95
919.105	6409.42
919.416	6303.66
919.727	6246.26
920.038	6228.18
920.349	6213.72
920.66	6196.77
920.971	6197.22
921.282	6139.37
921.593	6106.83
921.903	6070.67
922.214	6052.37
922.525	6042.65
922.835	6049.21
923.146	5995.65
923.456	5978.7
923.767	5934.63
924.077	5954.97
924.387	5952.03
924.697	5822.32
925.008	5870
925.318	5813.51
925.628	5820.51
925.938	5766.05
926.248	5765.6
926.558	5712.94
926.867	5691.93
927.177	5673.85
927.487	5648.76
927.796	5618.48
928.106	5597.69
928.416	5586.62
928.725	5558.6
929.034	5555.66
929.344	5544.59
929.653	5505.04
929.962	5455.77
930.271	5449.9
930.581	5446.28
930.89	5409.9
931.199	5385.49
931.508	5358.6
931.817	5350.24
932.125	5324.7
932.434	5291.03
932.743	5281.99
933.051	5229.11
933.36	5244.48
933.669	5184.82
933.977	5158.61
934.286	5142.79
934.594	5155.67
934.902	5131.26
935.21	5107.31
935.519	5082
935.827	5066.86
936.135	5043.81
936.443	4990.7
936.751	4989.57
937.059	4937.37
937.367	4935.79
937.674	4936.47
937.982	4965.39
938.29	4934.43
938.597	4896.02
938.905	4806.3
939.213	4866.86
939.52	4818.28
939.827	4813.53
940.135	4757.71
940.442	4713.42
940.749	4787.54
941.056	4752.29
941.363	4696.02
941.67	4634.1
941.977	4641.78
942.284	4598.62
942.591	4656.25
942.898	4611.96
943.205	4583.26
943.511	4529.02
943.818	4547.32
944.125	4473.65
944.431	4470.04
944.738	4452.19
945.044	4458.51
945.35	4419.87
945.657	4407.89
945.963	4406.31
946.269	4367.22
946.575	4379.87
946.881	4319.99
947.187	4382.58
947.493	4273.88
947.799	4278.63
948.105	4287.44
948.41	4239.08
948.716	4249.93
949.022	4210.61
949.327	4208.12
949.633	4171.97
949.938	4195.92
950.244	4176.26
950.549	4143.04
950.854	4092.19
951.16	4068.24
951.465	4102.59
951.77	4080.9
952.075	4011.07
952.38	3982.14
952.685	3980.11
952.99	4009.94
953.294	3998.86
953.599	3946.89
953.904	3927.91
954.209	3899.21
954.513	3873.44
954.818	3937.17
955.122	3873.67
955.426	3845.42
955.731	3853.78
956.035	3825.54
956.339	3789.83
956.643	3798.42
956.948	3796.16
957.252	3762.49
957.556	3736.05
957.86	3718.65
958.163	3701.7
958.467	3729.49
958.771	3680
959.075	3655.6
959.378	3673
959.682	3655.14
959.985	3592.55
960.289	3637.07
960.592	3585.99
960.896	3567.01
961.199	3558.88
961.502	3551.19
961.805	3539.44
962.108	3524.75
962.411	3477.07
962.714	3464.87
963.017	3447.01
963.32	3451.76
963.623	3422.16
963.926	3464.87
964.228	3357.52
964.531	3418.31
964.833	3363.17
965.136	3342.84
965.438	3350.52
965.741	3306
966.043	3310.97
966.345	3307.81
966.648	3298.09
966.95	3262.84
967.252	3250.41
967.554	3244.31
967.856	3248.15
968.158	3249.5
968.46	3214.25
968.761	3186.46
969.063	3169.51
969.365	3154.14
969.666	3138.32
969.968	3127.02
970.269	3080.7
970.571	3139.45
970.872	3117.76
971.174	3084.31
971.475	3073.24
971.776	3037.76
972.077	3075.95
972.378	3027.36
972.679	3030.98
972.98	3012.45
973.281	2959.57
973.582	2958.67
973.883	2973.81
974.183	2940.81
974.484	2979.46
974.785	2889.29
975.085	2909.4
975.386	2933.81
975.686	2870.31
975.986	2887.93
976.287	2839.35
976.587	2826.01
976.887	2836.63
977.187	2834.83
977.487	2809.52
977.787	2787.14
978.087	2748.05
978.387	2781.27
978.687	2787.37
978.987	2737.2
979.286	2736.07
979.586	2701.5
979.885	2720.25
980.185	2694.49
980.484	2717.32
980.784	2689.29
981.083	2698.11
981.382	2686.81
981.682	2684.77
981.981	2657.43
982.28	2624.89
982.579	2585.79
982.878	2612.69
983.177	2621.27
983.475	2596.19
983.774	2582.86
984.073	2545.57
984.372	2538.79
984.67	2526.81
984.969	2520.71
985.267	2500.37
985.566	2509.64
985.864	2525.91
986.162	2477.55
986.461	2468.28
986.759	2476.19
987.057	2421.5
987.355	2413.59
987.653	2432.35
987.951	2401.84
988.249	2410.2
988.547	2415.63
988.844	2393.93
989.142	2354.16
989.44	2373.14
989.737	2341.51
990.035	2347.83
990.332	2341.05
990.63	2287.04
990.927	2314.84
991.224	2317.55
991.521	2300.38
991.819	2296.76
992.116	2271
992.413	2249.98
992.71	2254.5
993.006	2239.14
993.303	2196.43
993.6	2194.17
993.897	2195.52
994.193	2219.93
994.49	2190.78
994.787	2179.48
995.083	2131.79
995.379	2160.95
995.676	2153.04
995.972	2130.89
996.268	2104.68
996.565	2106.94
996.861	2076.65
997.157	2099.03
997.453	2049.99
997.749	2076.65
998.044	2074.17
998.34	2055.86
998.636	2032.81
998.932	2054.73
999.227	1982.87
999.523	1996.43
999.818	1994.17
1000.114	1973.83
1000.409	2005.02
1000.704	1934.74
1001	1940.84
1001.295	1939.03
1001.59	1940.16
1001.885	1885.92
1002.18	1906.04
1002.475	1904.46
1002.77	1872.14
1003.065	1866.94
1003.359	1857.45
1003.654	1894.74
1003.949	1838.02
1004.243	1875.08
1004.538	1827.17
1004.832	1802.31
1005.127	1836.66
1005.421	1821.75
1005.715	1802.54
1006.009	1768.64
1006.304	1757.11
1006.598	1775.65
1006.892	1750.79
1007.186	1718.92
1007.48	1751.69
1007.773	1726.38
1008.067	1694.29
1008.361	1714.86
1008.655	1708.75
1008.948	1692.48
1009.242	1673.28
1009.535	1650.22
1009.829	1658.13
1010.122	1637.8
1010.415	1642.32
1010.708	1645.03
1011.001	1612.71
1011.295	1597.12
1011.588	1601.64
1011.881	1606.16
1012.173	1595.99
1012.466	1581.53
1012.759	1557.8
1013.052	1566.61
1013.344	1554.86
1013.637	1544.01
1013.93	1563.22
1014.222	1529.32
1014.514	1526.84
1014.807	1493.39
1015.099	1480.96
1015.391	1448.42
1015.683	1490.91
1015.976	1473.51
1016.268	1484.13
1016.56	1477.12
1016.851	1440.06
1017.143	1440.29
1017.435	1424.69
1017.727	1435.77
1018.018	1426.73
1018.31	1394.41
1018.602	1435.99
1018.893	1396.22
1019.185	1353.51
1019.476	1380.18
1019.767	1368.42
1020.058	1351.02
1020.35	1343.79
1020.641	1355.54
1020.932	1330.46
1021.223	1324.81
1021.514	1310.12
1021.804	1297.24
1022.095	1300.4
1022.386	1277.81
1022.677	1242.78
1022.967	1276
1023.258	1264.47
1023.548	1248.2
1023.839	1270.8
1024.129	1236.68
1024.419	1211.14
1024.709	1239.61
1025	1206.39
1025.29	1216.79
1025.58	1205.04
1025.87	1177.47
1026.16	1177.02
1026.449	1161.2
1026.739	1164.36
1027.029	1185.6
1027.319	1158.03
1027.608	1163.68
1027.898	1145.83
1028.187	1148.09
1028.477	1131.14
1028.766	1122.78
1029.055	1101.54
1029.344	1094.53
1029.634	1110.58
1029.923	1096.79
1030.212	1106.06
1030.501	1088.43
1030.79	1057.47
1031.078	1071.48
1031.367	1052.05
1031.656	1026.96
1031.945	1054.08
1032.233	1043.01
1032.522	1036.68
1032.81	1031.26
1033.099	1014.54
1033.387	1007.3
1033.675	1009.56
1033.963	1011.6
1034.251	972.5
1034.54	1009.56
1034.828	982.9
1035.116	1008.21
1035.403	976.12
1035.691	964.82
1035.979	970.69
1036.267	979.51
1036.554	945.61
1036.842	926.4
1037.129	939.51
1037.417	926.63
1037.704	921.2
1037.992	906.74
1038.279	913.97
1038.566	909.68
1038.853	909.68
1039.14	909.68
