Data from hue_350_FLMS001491_78.txt Node
Date: Mon Feb 06 15:38:30 GMT 2017
User: dcchb
Spectrometer: FLMS00149
Trigger mode: 0
Integration Time (sec): 2.000000E-2
Scans to average: 10
Electric dark correction enabled: true
Nonlinearity correction enabled: false
Boxcar width: 0
XAxis mode: Wavelengths
Number of Pixels in Spectrum: 2048
>>>>>Begin Spectral Data<<<<<
341.393	-21.14
341.776	-21.14
342.16	-21.14
342.543	-59.11
342.927	-99.33
343.31	-51.65
343.693	-71.76
344.077	-65.44
344.46	-61.37
344.843	-54.14
345.226	-38.77
345.61	-24.76
345.993	-24.76
346.376	-5.78
346.759	5.97
347.142	30.15
347.525	33.09
347.908	51.85
348.291	64.5
348.674	87.78
349.057	125.07
349.44	99.08
349.823	155.8
350.206	149.93
350.588	182.01
350.971	222.92
351.354	222.01
351.737	232.86
352.119	230.6
352.502	261.79
352.884	272.41
353.267	274.44
353.65	288.45
354.032	277.15
354.414	302.01
354.797	320.09
355.179	306.98
355.562	317.15
355.944	316.47
356.326	320.77
356.709	324.61
357.091	335.91
357.473	335.91
357.855	327.55
358.238	325.29
358.62	331.84
359.002	335.23
359.384	327.1
359.766	331.16
360.148	329.81
360.53	334.55
360.912	337.27
361.294	315.8
361.676	314.67
362.057	340.88
362.439	327.55
362.821	330.94
363.203	321.9
363.584	323.71
363.966	323.93
364.348	296.14
364.729	316.7
365.111	326.19
365.493	306.53
365.874	325.29
366.256	304.5
366.637	299.53
367.019	316.02
367.4	316.02
367.781	317.38
368.163	286.87
368.544	331.84
368.925	313.99
369.306	337.49
369.688	297.49
370.069	285.29
370.45	304.27
370.831	294.78
371.212	292.97
371.593	324.16
371.974	296.36
372.355	312.18
372.736	316.47
373.117	307.21
373.498	305.18
373.879	303.82
374.26	306.53
374.641	293.88
375.021	291.39
375.402	276.48
375.783	297.27
376.163	302.24
376.544	312.18
376.925	323.71
377.305	320.77
377.686	311.96
378.066	323.71
378.447	313.54
378.827	321.67
379.208	308.79
379.588	304.27
379.968	316.93
380.349	312.18
380.729	318.51
381.109	326.87
381.489	327.32
381.87	329.36
382.25	322.35
382.63	327.55
383.01	323.71
383.39	329.36
383.77	331.62
384.15	322.12
384.53	335.01
384.91	347.21
385.29	336.14
385.67	336.81
386.049	322.58
386.429	335.46
386.809	331.84
387.189	362.35
387.568	333.65
387.948	338.4
388.328	365.51
388.707	354.67
389.087	323.93
389.466	331.84
389.846	344.27
390.225	349.92
390.605	352.18
390.984	350.15
391.363	345.17
391.743	358.28
392.122	370.26
392.501	345.17
392.881	360.09
393.26	354.21
393.639	341.33
394.018	338.62
394.397	358.73
394.776	362.35
395.155	360.32
395.534	369.81
395.913	360.77
396.292	356.93
396.671	341.33
397.05	362.8
397.429	358.96
397.808	356.47
398.186	359.41
398.565	368.22
398.944	365.74
399.323	373.87
399.701	371.39
400.08	371.84
400.458	367.32
400.837	380.2
401.215	405.51
401.594	408.9
401.972	367.32
402.351	378.17
402.729	388.79
403.107	405.74
403.486	377.49
403.864	395.34
404.242	389.02
404.62	409.35
404.999	391.95
405.377	412.07
405.755	393.99
406.133	404.38
406.511	436.02
406.889	412.52
407.267	428.79
407.645	402.35
408.023	419.07
408.401	422.01
408.779	414.33
409.156	434.21
409.534	413.87
409.912	399.64
410.29	437.38
410.667	416.13
411.045	447.32
411.422	419.07
411.8	455.91
412.178	435.57
412.555	426.3
412.933	427.88
413.31	459.97
413.687	421.33
414.065	436.7
414.442	449.13
414.819	461.1
415.197	471.95
415.574	485.06
415.951	461.33
416.328	472.18
416.705	472.4
417.082	465.4
417.46	471.27
417.837	481.44
418.214	500.2
418.591	485.96
418.967	491.84
419.344	484.38
419.721	513.76
420.098	499.07
420.475	505.4
420.852	504.04
421.228	521.67
421.605	503.14
421.982	499.52
422.358	519.18
422.735	536.13
423.111	540.2
423.488	520.31
423.864	530.48
424.241	520.09
424.617	523.7
424.994	527.99
425.37	533.87
425.746	553.3
426.123	537.03
426.499	542.01
426.875	547.66
427.251	559.18
427.627	561.44
428.003	564.38
428.379	582.23
428.756	602.79
429.132	601.44
429.507	601.21
429.883	589.91
430.259	594.43
430.635	590.59
431.011	603.02
431.387	594.89
431.763	586.07
432.138	623.59
432.514	622.68
432.89	625.39
433.265	633.53
433.641	618.61
434.016	646.64
434.392	659.06
434.767	669.01
435.143	669.69
435.518	657.26
435.894	668.1
436.269	673.08
436.644	700.19
437.02	677.82
437.395	697.93
437.77	678.95
438.145	701.32
438.52	701.32
438.895	721.21
439.271	729.12
439.646	736.8
440.021	718.27
440.395	723.02
440.77	743.81
441.145	745.39
441.52	758.95
441.895	729.57
442.27	724.15
442.645	740.19
443.019	757.37
443.394	754.88
443.769	745.39
444.143	753.07
444.518	780.87
444.892	769.8
445.267	751.49
445.641	758.95
446.016	777.03
446.39	778.38
446.764	774.54
447.139	787.2
447.513	801.66
447.887	803.92
448.262	791.72
448.636	786.74
449.01	779.06
449.384	803.24
449.758	830.13
450.132	826.07
450.506	827.2
450.88	841.88
451.254	854.54
451.628	863.8
452.002	837.82
452.376	850.92
452.75	870.81
453.123	846.18
453.497	862.68
453.871	858.61
454.244	872.84
454.618	896.12
454.992	918.72
455.365	897.48
455.739	920.98
456.112	913.07
456.486	911.26
456.859	908.55
457.232	936.57
457.606	947.19
457.979	937.93
458.352	977.7
458.725	963.24
459.099	973.18
459.472	976.8
459.845	1014.76
460.218	996.23
460.591	1003.46
460.964	1019.51
461.337	1039.85
461.71	1055.44
462.083	1032.39
462.456	1079.84
462.829	1048.66
463.201	1107.87
463.574	1089.56
463.947	1106.51
464.32	1096.34
464.692	1127.53
465.065	1117.13
465.438	1130.01
465.81	1148.32
466.183	1192.84
466.555	1179.28
466.928	1169.11
467.3	1204.59
467.672	1224.93
468.045	1234.87
468.417	1251.59
468.789	1243
469.161	1254.98
469.534	1282.55
469.906	1311.25
470.278	1285.71
470.65	1318.26
471.022	1337.01
471.394	1349.67
471.766	1384.7
472.138	1409.78
472.51	1424.92
472.882	1446.84
473.253	1449.33
473.625	1478.7
473.997	1508.31
474.369	1490
474.74	1511.92
475.112	1545.37
475.484	1559.83
475.855	1586.05
476.227	1639.15
476.598	1623.56
476.97	1653.84
477.341	1709.21
477.713	1692.94
478.084	1721.18
478.455	1782.65
478.827	1789.43
479.198	1831.46
479.569	1842.08
479.94	1905.59
480.311	1903.33
480.682	1965.92
481.053	1986.71
481.424	1979.93
481.795	2036.66
482.166	2078.69
482.537	2065.13
482.908	2133.15
483.279	2188.52
483.65	2199.14
484.021	2241.85
484.391	2285.01
484.762	2293.82
485.133	2276.2
485.503	2354.84
485.874	2379.47
486.244	2396.42
486.615	2455.4
486.985	2468.96
487.356	2527.49
487.726	2576.53
488.097	2607.49
488.467	2621.05
488.837	2713.7
489.207	2731.55
489.578	2702.17
489.948	2809.29
490.318	2782.62
490.688	2777.65
491.058	2848.16
491.428	2906.24
491.798	2959.8
492.168	2971.09
492.538	3002.73
492.908	2995.5
493.278	3096.51
493.648	3100.36
494.017	3133.8
494.387	3161.15
494.757	3163.18
495.126	3219.9
495.496	3183.74
495.866	3228.49
496.235	3219.68
496.605	3299
496.974	3315.04
497.344	3385.09
497.713	3405.43
498.082	3385.55
498.452	3448.6
498.821	3452.21
499.19	3450.86
499.559	3459.67
499.928	3518.65
500.298	3565.2
500.667	3574.92
501.036	3570.63
501.405	3605.2
501.774	3581.02
502.143	3617.18
502.512	3650.17
502.88	3667.35
503.249	3685.65
503.618	3690.85
503.987	3715.48
504.356	3707.35
504.724	3727.46
505.093	3755.25
505.462	3791.64
505.83	3804.07
506.199	3830.96
506.567	3877.29
506.936	3888.58
507.304	3909.83
507.672	3925.65
508.041	3926.32
508.409	3934.46
508.777	3940.79
509.145	3979.66
509.514	3988.92
509.882	3988.02
510.25	4034.8
510.618	4054
510.986	4058.3
511.354	4089.71
511.722	4054.68
512.09	4127.22
512.458	4124.28
512.826	4174
513.193	4140.1
513.561	4163.38
513.929	4176.94
514.297	4205.86
514.664	4232.98
515.032	4221.46
515.4	4282.7
515.767	4272.08
516.135	4308.91
516.502	4285.41
516.869	4307.56
517.237	4330.83
517.604	4309.36
517.972	4346.43
518.339	4381.9
518.706	4407.67
519.073	4409.25
519.44	4413.32
519.808	4432.3
520.175	4421
520.542	4479.3
520.909	4511.62
521.276	4496.48
521.643	4554.78
522.009	4533.09
522.376	4566.98
522.743	4592.97
523.11	4598.62
523.477	4611.96
523.843	4658.73
524.21	4734.66
524.577	4731.27
524.943	4771.72
525.31	4749.13
525.676	4816.24
526.043	4815.79
526.409	4850.59
526.776	4863.93
527.142	4848.33
527.508	4918.16
527.874	4952.06
528.241	4901.66
528.607	4906.64
528.973	5032.06
529.339	4986.63
529.705	5057.14
530.071	5067.31
530.437	5102.34
530.803	5105.28
531.169	5134.88
531.535	5163.58
531.901	5194.31
532.267	5178.72
532.632	5208.1
532.998	5237.02
533.364	5229.79
533.73	5273.18
534.095	5327.19
534.461	5329
534.826	5360.18
535.192	5400.18
535.557	5427.98
535.923	5430.01
536.288	5429.11
536.653	5510.24
537.019	5458.94
537.384	5476.11
537.749	5463.91
538.114	5510.01
538.479	5557.92
538.845	5583.91
539.21	5563.57
539.575	5576.68
539.94	5672.27
540.305	5700.29
540.67	5634.53
541.034	5700.06
541.399	5750
541.764	5733.73
542.129	5774.64
542.494	5764.24
542.858	5810.79
543.223	5813.96
543.587	5863.45
543.952	5908.87
544.316	5894.18
544.681	5870.23
545.045	5937.12
545.41	5965.59
545.774	5962.65
546.138	5992.71
546.503	5995.87
546.867	6075.19
547.231	6109.99
547.595	6116.77
547.959	6155.64
548.324	6097.34
548.688	6190.22
549.052	6173.27
549.416	6258.01
549.779	6224.79
550.143	6272.48
550.507	6255.98
550.871	6320.61
551.235	6272.48
551.599	6391.12
551.962	6351.12
552.326	6383.89
552.689	6394.51
553.053	6409.2
553.417	6473.15
553.78	6483.32
554.143	6470.44
554.507	6491.23
554.87	6464.56
555.234	6613.94
555.597	6494.62
555.96	6581.62
556.323	6638.12
556.686	6565.12
557.05	6661.62
557.413	6667.27
557.776	6658.68
558.139	6709.75
558.502	6670.88
558.865	6757.44
559.228	6788.62
559.59	6788.62
559.953	6798.79
560.316	6889.64
560.679	6859.81
561.041	6859.81
561.404	6920.82
561.767	6908.17
562.129	6890.99
562.492	6936.87
562.854	6960.59
563.217	6952.01
563.579	7003.08
563.941	7025.9
564.304	7039.24
564.666	7130.76
565.028	7173.24
565.39	7119.69
565.753	7172.34
566.115	7210.53
566.477	7264.09
566.839	7261.6
567.201	7307.25
567.563	7291.43
567.925	7407.14
568.287	7366.46
568.648	7389.06
569.01	7428.6
569.372	7443.97
569.734	7508.6
570.095	7494.59
570.457	7608.71
570.819	7571.88
571.18	7636.51
571.542	7666.56
571.903	7658.88
572.265	7699.33
572.626	7839.67
572.987	7794.24
573.349	7862.49
573.71	7886.45
574.071	7929.16
574.432	7930.96
574.794	8031.75
575.155	8050.06
575.516	8060.23
575.877	8148.13
576.238	8178.41
576.599	8275.59
576.96	8329.6
577.32	8410.95
577.681	8509.93
578.042	8527.78
578.403	8635.13
578.763	8743.82
579.124	8759.19
579.485	8924.16
579.845	8977.26
580.206	8999.18
580.566	9156.92
580.927	9295.45
581.287	9377.03
581.648	9429.23
582.008	9603.69
582.368	9690.92
582.728	9782.67
583.089	10004.13
583.449	10126.84
583.809	10286.61
584.169	10433.27
584.529	10527.96
584.889	10761.17
585.249	10905.8
585.609	10999.81
585.969	11243.42
586.329	11364.32
586.688	11586.91
587.048	11818.09
587.408	11953.46
587.768	12148.71
588.127	12394.35
588.487	12548.92
588.846	12850.38
589.206	13040.21
589.565	13326.08
589.925	13582.11
590.284	13739.62
590.643	14050.8
591.003	14281.76
591.362	14500.73
591.721	14829.54
592.08	15025.01
592.44	15416.42
592.799	15557.66
593.158	15810.98
593.517	16002.39
593.876	16366.67
594.235	16646.67
594.593	16859.77
594.952	17252.75
595.311	17401.45
595.67	17710.37
596.029	18101.77
596.387	18442.78
596.746	18748.31
597.104	18947.4
597.463	19184
597.822	19575.63
598.18	19750.31
598.538	19971.78
598.897	20427.58
599.255	20597.07
599.613	21080.22
599.972	21142.37
600.33	21565.18
600.688	21752.75
601.046	22024.83
601.404	22370.81
601.762	22646.28
602.12	22993.84
602.478	23214.86
602.836	23433.83
603.194	23648.74
603.552	23968.28
603.91	24133.48
604.268	24502.05
604.625	24663.63
604.983	25088.25
605.341	25122.6
605.698	25538.64
606.056	25804.39
606.413	26026.99
606.771	26309.46
607.128	26594.43
607.485	26716.46
607.843	26970.46
608.2	27370.23
608.557	27549.66
608.914	27653.84
609.272	28144.22
609.629	28308.96
609.986	28624.88
610.343	28653.13
610.7	29073.91
611.057	29190.74
611.414	29371.08
611.771	29527.46
612.127	29870.5
612.484	30024.85
612.841	30299.64
613.198	30258.29
613.554	30488.34
613.911	30755.22
614.267	30970.13
614.624	31158.38
614.98	31333.51
615.337	31569.21
615.693	31706.61
616.05	31876.55
616.406	32146.37
616.762	32204.45
617.118	32399.92
617.475	32467.95
617.831	32672.91
618.187	32937.09
618.543	33009.17
618.899	33234.48
619.255	33434.47
619.611	33371.2
619.967	33589.72
620.323	33829.04
620.678	33838.08
621.034	33786.78
621.39	33930.73
621.746	33953.56
622.101	34522.58
622.457	34367.33
622.812	34316.26
623.168	34516.93
623.523	34638.28
623.879	34902.01
624.234	34758.06
624.589	34912.4
624.945	35077.14
625.3	35262.67
625.655	35320.07
626.01	35355.78
626.365	35442.56
626.72	35389.22
627.075	35454.76
627.43	35505.61
627.785	35553.51
628.14	35806.16
628.495	35794.86
628.85	35830.12
629.205	35872.15
629.559	36055.42
629.914	35939.49
630.269	36034.41
630.623	35984.01
630.978	35960.06
631.332	36105.59
631.687	36369.31
632.041	36157.57
632.396	36196.89
632.75	36222.2
633.104	36315.3
633.459	35957.12
633.813	36234.4
634.167	36204.34
634.521	36331.8
634.875	36325.02
635.229	36322.08
635.583	36177
635.937	36209.09
636.291	36451.57
636.645	36322.31
636.999	36298.81
637.352	36447.73
637.706	36192.59
638.06	36411.8
638.413	36281.63
638.767	36261.52
639.121	36327.05
639.474	36169.77
639.828	36303.78
640.181	36293.83
640.534	36405.24
640.888	36284.34
641.241	36140.39
641.594	36230.56
641.947	36393.94
642.301	36254.51
642.654	36231.69
643.007	36255.64
643.36	36218.13
643.713	36180.62
644.066	36382.65
644.419	36225.36
644.771	35860.17
645.124	35562.33
645.477	35530.01
645.83	35423.8
646.182	35343.58
646.535	35203.02
646.888	35269
647.24	35030.36
647.593	35245.5
647.945	35302.45
648.298	35191.94
648.65	34982.23
649.002	34933.19
649.355	34980.65
649.707	35106.75
650.059	35231.49
650.411	35698.37
650.763	35706.28
651.115	35976.78
651.467	35914.63
651.819	35862.21
652.171	35879.38
652.523	35809.33
652.875	35925.93
653.227	35666.28
653.578	35894.52
653.93	35917.8
654.282	35678.93
654.633	35605.26
654.985	35641.65
655.337	35817.01
655.688	35745.15
656.039	35860.17
656.391	35410.92
656.742	35662.44
657.094	35609.78
657.445	35737.24
657.796	35689.56
658.147	35648.88
658.498	35627.86
658.849	35579.73
659.2	35604.36
659.551	35475.78
659.902	35606.62
660.253	35617.69
660.604	35481.65
660.955	35406.85
661.306	35623.79
661.656	35439.17
662.007	35569.33
662.358	35563.46
662.708	35548.09
663.059	35584.93
663.409	35234.65
663.76	35567.75
664.11	35590.35
664.461	35528.2
664.811	35470.35
665.161	35571.59
665.511	35343.8
665.862	35551.93
666.212	35514.19
666.562	35531.82
666.912	35472.84
667.262	35357.59
667.612	35346.74
667.962	35470.13
668.312	35282.79
668.662	35666.51
669.011	35440.3
669.361	35319.4
669.711	35362.11
670.06	35353.07
670.41	35285.5
670.76	35210.25
671.109	35376.12
671.459	35342.22
671.808	35222.68
672.157	35414.53
672.507	35123.02
672.856	35145.62
673.205	35290.47
673.554	35359.4
673.904	35194.2
674.253	35445.04
674.602	35089.8
674.951	34764.16
675.3	34506.54
675.649	35012.51
675.998	35084.6
676.346	35163.69
676.695	35200.08
677.044	34896.36
677.393	34997.37
677.741	35008.44
678.09	34956.47
678.438	34897.71
678.787	34938.84
679.135	34956.24
679.484	34788.56
679.832	34827.66
680.181	34646.87
680.529	35028.1
680.877	34740.65
681.225	34671.73
681.573	35028.56
681.922	34673.09
682.27	34450.94
682.618	34526.42
682.966	34470.38
683.314	34633.76
683.661	34517.16
684.009	34238.75
684.357	34326.88
684.705	34285.53
685.053	34218.41
685.4	34125.76
685.748	33878.53
686.095	33944.29
686.443	33903.39
686.79	33888.7
687.138	33953.33
687.485	33917.85
687.832	33754.47
688.18	33847.34
688.527	33580.46
688.874	33655.26
689.221	33476.73
689.568	33541.59
689.915	33490.97
690.262	33424.3
690.609	33211.2
690.956	33033.58
691.303	33214.37
691.65	33042.62
691.997	33078.1
692.344	32796.75
692.69	32748.62
693.037	32795.17
693.383	32667.94
693.73	32791.33
694.077	32420.94
694.423	32566.25
694.769	32415.07
695.116	32328.29
695.462	32342.75
695.808	32167.61
696.155	32200.16
696.501	31956.09
696.847	32083.32
697.193	31756.1
697.539	31922.65
697.885	31654.86
698.231	31617.8
698.577	31525.6
698.923	31482.43
699.269	31449.22
699.614	31259.62
699.96	31162.22
700.306	31231.14
700.651	31089.9
700.997	30979.62
701.342	31053.52
701.688	30942.11
702.033	30723.81
702.379	30680.65
702.724	30661.89
703.069	30731.72
703.415	30337.61
703.76	30312.75
704.105	30441.56
704.45	30348.91
704.795	30210.6
705.14	30075.24
705.485	29942.36
705.83	29921.12
706.175	29977.39
706.52	29862.14
706.865	29759.77
707.209	29817.39
707.554	29653.78
707.899	29652.43
708.243	29549.38
708.588	29446.56
708.932	29281.14
709.277	29344.41
709.621	29209.27
709.966	29185.77
710.31	29226.9
710.654	28976.74
710.998	28901.49
711.342	28962.73
711.687	28903.75
712.031	28886.57
712.375	28687.71
712.719	28699.68
713.063	28664.88
713.407	28710.08
713.75	28608.84
714.094	28530.2
714.438	28425.57
714.782	28470.76
715.125	28329.75
715.469	28427.15
715.812	28145.35
716.156	28166.36
716.499	28041.17
716.843	28163.65
717.186	27903.09
717.53	28133.14
717.873	28014.73
718.216	27964.34
718.559	27810.89
718.902	27683.66
719.246	27706.71
719.589	27494.97
719.932	27564.8
720.275	27566.15
720.617	27465.37
720.96	27435.08
721.303	27368.42
721.646	27436.21
721.989	27348.76
722.331	27383.56
722.674	27275.09
723.016	27279.61
723.359	27317.8
723.701	27172.49
724.044	27057.92
724.386	26968.66
724.729	27064.47
725.071	26929.79
725.413	26966.85
725.755	26855.66
726.097	26903.8
726.439	26679.85
726.782	26723.01
727.124	26733.86
727.465	26670.13
727.807	26522.34
728.149	26418.16
728.491	26560.3
728.833	26607.53
729.175	26424.94
729.516	26318.05
729.858	26382
730.199	26404.15
730.541	26307.66
730.882	26166.87
731.224	26349.69
731.565	26155.12
731.906	26138.85
732.248	26177.49
732.589	25978.85
732.93	25971.39
733.271	25886.42
733.612	26005.97
733.953	25982.69
734.294	25906.08
734.635	25817.27
734.976	25828.35
735.317	25733.21
735.658	25731.17
735.999	25638.75
736.339	25726.65
736.68	25774.34
737.021	25587.22
737.361	25580.9
737.702	25650.5
738.042	25555.59
738.383	25475.14
738.723	25561.69
739.063	25464.51
739.404	25468.36
739.744	25356.27
740.084	25233.33
740.424	25283.28
740.764	25305.65
741.104	25321.47
741.444	25134.81
741.784	25020.23
742.124	24970.52
742.464	25043.73
742.804	25017.97
743.143	25050.97
743.483	24917.18
743.823	24884.64
744.162	24782.95
744.502	24835.6
744.841	24710.18
745.181	24900.24
745.52	24610.53
745.86	24764.19
746.199	24710.18
746.538	24685.33
746.877	24780.46
747.216	24636.06
747.556	24482.39
747.895	24495.05
748.234	24278.33
748.573	24353.81
748.911	24369.85
749.25	24367.14
749.589	24142.51
749.928	24232
750.267	24255.28
750.605	24249.4
750.944	24071.33
751.283	24013.93
751.621	24159.46
751.96	24014.16
752.298	24009.41
752.636	24061.16
752.975	23994.95
753.313	23770.55
753.651	23962.63
753.989	23699.14
754.327	23793.37
754.666	23574.62
755.004	23644.22
755.342	23592.92
755.679	23601.96
756.017	23366.49
756.355	23567.39
756.693	23429.77
757.031	23420.73
757.368	23354.51
757.706	23198.81
758.044	23117.01
758.381	23173.95
758.719	23107.74
759.056	23004.69
759.394	22918.59
759.731	22852.38
760.068	22790.23
760.405	22764.92
760.743	22759.5
761.08	22757.47
761.417	22522.22
761.754	22671.37
762.091	22591.37
762.428	22472.05
762.765	22344.6
763.102	22408.78
763.438	22271.83
763.775	22166.07
764.112	22188.89
764.449	22262.11
764.785	22143.7
765.122	21892.86
765.458	21890.14
765.795	21826.19
766.131	21817.15
766.467	21610.15
766.804	21651.06
767.14	21502.36
767.476	21465.07
767.812	21495.13
768.148	21501.68
768.485	21352.53
768.821	21225.3
769.157	21173.33
769.492	20998.64
769.828	21099.21
770.164	20917.97
770.5	20875.93
770.836	20924.29
771.171	20683.4
771.507	20643.85
771.842	20573.8
772.178	20650.63
772.513	20465.55
772.849	20446.11
773.184	20295.38
773.519	20319.34
773.855	20279.11
774.19	20027.82
774.525	20011.55
774.86	20042.51
775.195	20027.59
775.53	19916.19
775.865	19751.9
776.2	19658.34
776.535	19545.57
776.87	19567.95
777.205	19509.64
777.539	19449.98
777.874	19379.7
778.209	19296.77
778.543	19232.59
778.878	19015.42
779.212	19043.89
779.547	18930
779.881	19084.57
780.215	18859.49
780.55	18938.81
780.884	18768.19
781.218	18759.15
781.552	18713.28
781.886	18596.22
782.22	18481.19
782.554	18363.23
782.888	18203.91
783.222	18211.15
783.556	18053.41
783.889	18160.53
784.223	18043.01
784.557	17848.22
784.89	17977.71
785.224	17869.69
785.557	17835.56
785.891	17771.83
786.224	17645.28
786.558	17627.88
786.891	17593.08
787.224	17478.06
787.557	17434.67
787.891	17281.68
788.224	17374.11
788.557	17278.74
788.89	17313.54
789.223	17247.78
789.556	17129.14
789.888	17108.12
790.221	17035.13
790.554	16927.79
790.887	16877.62
791.219	16773.44
791.552	16818.64
791.884	16644.18
792.217	16579.78
792.549	16610.06
792.882	16428.59
793.214	16373.68
793.546	16360.57
793.879	16208.71
794.211	16201.93
794.543	16241.93
794.875	16224.98
795.207	16204.42
795.539	16116.29
795.871	16027.25
796.203	15917.19
796.535	15847.59
796.867	15869.51
797.198	15776.18
797.53	15737.76
797.862	15724.66
798.193	15706.8
798.525	15594.72
798.856	15520.37
799.188	15469.75
799.519	15410.09
799.85	15332.8
800.182	15390.88
800.513	15370.54
800.844	15176.2
801.175	15270.88
801.506	15205.12
801.837	15100.49
802.168	15163.99
802.499	15003.77
802.83	14941.63
803.161	14912.02
803.491	14967.61
803.822	14921.97
804.153	14823.66
804.483	14720.16
804.814	14657.79
805.145	14578.47
805.475	14673.84
805.805	14545.48
806.136	14574.63
806.466	14585.25
806.796	14519.72
807.126	14414.64
807.457	14376.44
807.787	14364.69
808.117	14254.41
808.447	14228.65
808.777	14302.1
809.107	14211.93
809.436	14120.18
809.766	14157.24
810.096	14076.79
810.426	14027.98
810.755	13983.91
811.085	13961.54
811.414	13969.68
811.744	13892.39
812.073	13754.99
812.403	13872.95
812.732	13757.25
813.061	13698.5
813.39	13679.97
813.719	13557.26
814.049	13696.01
814.378	13579.85
814.707	13472.74
815.036	13559.06
815.365	13523.13
815.693	13356.58
816.022	13368.56
816.351	13399.52
816.68	13192.52
817.008	13291.73
817.337	13287.89
817.665	13198.85
817.994	13262.35
818.322	13223.25
818.651	13089.47
818.979	13047.67
819.307	13110.26
819.636	13051.06
819.964	13029.36
820.292	13051.51
820.62	12969.7
820.948	12882.25
821.276	13035.01
821.604	12916.6
821.932	12933.54
822.259	12994.11
822.587	12981.68
822.915	12914.56
823.243	12956.37
823.57	12862.36
823.898	12841.34
824.225	12948.46
824.553	12865.3
824.88	12849.48
825.207	12924.5
825.535	12867.56
825.862	12899.19
826.189	12781.23
826.516	12928.12
826.843	12914.11
827.17	12949.14
827.497	12979.19
827.824	12896.93
828.151	12887.67
828.478	12890.38
828.805	12921.12
829.131	12810.84
829.458	12805.86
829.785	12823.26
830.111	12842.25
830.438	12869.59
830.764	12888.8
831.09	12791.17
831.417	12767.9
831.743	12745.75
832.069	12802.02
832.395	12755.02
832.722	12805.64
833.048	12717.05
833.374	12774.45
833.7	12679.09
834.026	12680.9
834.351	12757.96
834.677	12674.12
835.003	12654.23
835.329	12697.62
835.654	12695.58
835.98	12587.11
836.306	12606.32
836.631	12592.31
836.956	12607.45
837.282	12677.05
837.607	12521.8
837.932	12515.93
838.258	12552.99
838.583	12474.35
838.908	12445.2
839.233	12487.45
839.558	12352.99
839.883	12420.79
840.208	12407
840.533	12354.58
840.858	12342.83
841.182	12334.69
841.507	12403.16
841.832	12312.09
842.156	12202.72
842.481	12201.13
842.805	12144.19
843.13	12153.23
843.454	12124.98
843.778	12053.34
844.103	12096.05
844.427	12013.57
844.751	12112.32
845.075	11922.72
845.399	12007.69
845.723	11899
846.047	11988.26
846.371	11800.92
846.695	11843.18
847.019	11665.78
847.343	11665.33
847.666	11545.33
847.99	11629.4
848.313	11608.38
848.637	11473.02
848.96	11513.02
849.284	11423.98
849.607	11342.17
849.931	11298.56
850.254	11275.06
850.577	11221.27
850.9	11146.47
851.223	11052.69
851.546	11038.23
851.869	10994.84
852.192	11066.25
852.515	10966.14
852.838	10898.34
853.161	10858.57
853.483	10805.92
853.806	10795.07
854.129	10758.91
854.451	10712.13
854.774	10674.17
855.096	10579.03
855.419	10535.87
855.741	10577
856.063	10495.87
856.385	10522.76
856.708	10500.84
857.03	10374.74
857.352	10397.34
857.674	10396.44
857.996	10328.19
858.318	10251.13
858.64	10299.49
858.961	10169.1
859.283	10294.07
859.605	10150.11
859.926	10216.55
860.248	10130.68
860.57	10151.92
860.891	10137.46
861.212	9992.83
861.534	10072.83
861.855	10049.33
862.176	10036.45
862.498	10042.32
862.819	9998.93
863.14	9952.38
863.461	9924.36
863.782	9889.78
864.103	9903.57
864.424	9788.09
864.745	9880.07
865.065	9800.52
865.386	9808.88
865.707	9826.06
866.027	9772.05
866.348	9772.5
866.668	9748.32
866.989	9723.23
867.309	9588.77
867.63	9696.12
867.95	9727.3
868.27	9600.3
868.59	9655.89
868.91	9656.34
869.23	9610.47
869.55	9579.28
869.87	9618.15
870.19	9521.2
870.51	9534.76
870.83	9554.42
871.15	9541.99
871.469	9476.69
871.789	9556.23
872.109	9464.26
872.428	9528.89
872.748	9510.13
873.067	9493.63
873.386	9436.01
873.706	9455.22
874.025	9373.86
874.344	9333.41
874.663	9346.97
874.982	9318.72
875.301	9332.51
875.62	9289.8
875.939	9268.56
876.258	9261.55
876.577	9226.3
876.896	9238.95
877.214	9233.08
877.533	9242.12
877.852	9231.04
878.17	9189.01
878.489	9190.14
878.807	9198.5
879.125	9084.61
879.444	9145.4
879.762	9030.82
880.08	9106.75
880.398	9044.15
880.716	9064.95
881.034	9006.87
881.352	9052.52
881.67	8947.43
881.988	8975.23
882.306	8935.91
882.624	8963.25
882.941	8974.33
883.259	8944.95
883.577	8877.38
883.894	8849.81
884.212	8822.47
884.529	8749.25
884.846	8761.68
885.164	8782.92
885.481	8699.53
885.798	8808.45
886.115	8642.58
886.432	8666.54
886.75	8609.59
887.067	8671.96
887.383	8629.02
887.7	8623.83
888.017	8578.86
888.334	8595.81
888.651	8554
888.967	8516.49
889.284	8467.67
889.6	8501.12
889.917	8400.33
890.233	8408.92
890.55	8396.71
890.866	8358.52
891.182	8345.64
891.498	8339.09
891.815	8285.53
892.131	8329.15
892.447	8300.45
892.763	8210.28
893.079	8197.17
893.395	8143.16
893.71	8144.97
894.026	8138.64
894.342	8103.84
894.657	8101.35
894.973	8093.9
895.289	8059.32
895.604	8023.16
895.92	7980.45
896.235	7944.07
896.55	7925.31
896.865	7923.51
897.181	7916.73
897.496	7889.16
897.811	7835.6
898.126	7804.64
898.441	7810.74
898.756	7778.2
899.071	7695.94
899.386	7748.82
899.7	7694.13
900.015	7611.65
900.33	7631.08
900.644	7621.37
900.959	7612.78
901.273	7570.52
901.588	7513.8
901.902	7475.61
902.216	7443.29
902.531	7422.28
902.845	7337.31
903.159	7350.87
903.473	7292.79
903.787	7270.87
904.101	7275.16
904.415	7253.69
904.729	7261.15
905.042	7174.6
905.356	7119.23
905.67	7132.57
905.984	7104.32
906.297	7081.95
906.611	7067.48
906.924	7088.95
907.237	7009.86
907.551	7029.52
907.864	7005.79
908.177	6951.33
908.491	6920.59
908.804	6925.34
909.117	6836.3
909.43	6851.22
909.743	6781.84
910.056	6800.15
910.368	6757.66
910.681	6754.27
910.994	6694.39
911.307	6646.93
911.619	6618
911.932	6622.52
912.244	6575.52
912.557	6558.34
912.869	6596.76
913.181	6485.13
913.494	6485.8
913.806	6450.1
914.118	6468.86
914.43	6421.17
914.742	6384.56
915.054	6341.85
915.366	6319.93
915.678	6295.53
915.99	6318.35
916.302	6231.57
916.613	6189.09
916.925	6177.11
917.236	6233.61
917.548	6113.38
917.859	6160.84
918.171	6098.92
918.482	6142.54
918.794	6077.68
919.105	6017.12
919.416	5992.26
919.727	5972.82
920.038	5965.14
920.349	5976.21
920.66	5867.74
920.971	5878.36
921.282	5911.36
921.593	5808.76
921.903	5781.19
922.214	5778.03
922.525	5750.46
922.835	5757.24
923.146	5740.74
923.456	5702.32
923.767	5652.61
924.077	5619.16
924.387	5595.21
924.697	5576.45
925.008	5622.1
925.318	5593.4
925.628	5585.04
925.938	5557.47
926.248	5475.44
926.558	5401.09
926.867	5428.66
927.177	5386.4
927.487	5376.45
927.796	5303.91
928.106	5358.38
928.416	5339.85
928.725	5338.72
929.034	5257.81
929.344	5260.53
929.653	5245.16
929.962	5165.84
930.271	5153.64
930.581	5171.71
930.89	5038.16
931.199	5072.51
931.508	5098.95
931.817	5103.02
932.125	5053.98
932.434	5081.55
932.743	4952.29
933.051	4940.08
933.36	4992.06
933.669	4956.8
933.977	4954.09
934.286	4872.97
934.594	4935.11
934.902	4870.93
935.21	4832.51
935.519	4800.42
935.827	4834.1
936.135	4795.23
936.443	4734.44
936.751	4730.14
937.059	4750.48
937.367	4672.74
937.674	4719.75
937.982	4680.43
938.29	4664.38
938.597	4661.45
938.905	4571.28
939.213	4550.71
939.52	4562.46
939.827	4539.19
940.135	4569.02
940.442	4460.55
940.749	4495.8
941.056	4492.41
941.363	4444.28
941.67	4477.72
941.977	4404.73
942.284	4369.7
942.591	4360.89
942.898	4328.8
943.205	4338.97
943.511	4317.73
943.818	4291.51
944.125	4261.91
944.431	4273.43
944.738	4229.59
945.044	4231.63
945.35	4175.36
945.657	4161.57
945.963	4192.76
946.269	4110.27
946.575	4112.99
946.881	4101.91
947.187	4092.87
947.493	4061.46
947.799	4073.89
948.105	4014.46
948.41	4028.47
948.716	4059.65
949.022	4010.84
949.327	4024.17
949.633	3949.83
949.938	3980.56
950.244	3965.42
950.549	3893.56
950.854	3919.77
951.16	3846.33
951.465	3839.55
951.77	3863.95
952.075	3836.83
952.38	3850.17
952.685	3789.83
952.99	3768.59
953.294	3789.6
953.599	3686.78
953.904	3736.27
954.209	3716.61
954.513	3680.45
954.818	3701.92
955.122	3648.82
955.426	3624.18
955.731	3643.84
956.035	3610.63
956.339	3595.94
956.643	3602.26
956.948	3575.6
957.252	3579.44
957.556	3561.81
957.86	3515.26
958.163	3518.88
958.467	3476.39
958.771	3507.8
959.075	3464.64
959.378	3463.06
959.682	3437.75
959.985	3407.92
960.289	3418.77
960.592	3397.3
960.896	3377.41
961.199	3397.98
961.502	3330.63
961.805	3373.57
962.108	3292.44
962.411	3341.25
962.714	3302.84
963.017	3284.76
963.32	3297.19
963.623	3228.26
963.926	3219.22
964.228	3291.99
964.531	3214.7
964.833	3212.22
965.136	3183.74
965.438	3126.57
965.741	3139.9
966.043	3142.84
966.345	3124.54
966.648	3106.23
966.95	3109.17
967.252	3080.47
967.554	3065.55
967.856	3064.43
968.158	3021.26
968.46	3044.76
968.761	3057.42
969.063	3006.8
969.365	3002.28
969.666	2969.51
969.968	2968.83
970.269	2912.56
970.571	2950.08
970.872	2927.71
971.174	2922.51
971.475	2923.64
971.776	2928.16
972.077	2904.43
972.378	2899.46
972.679	2832.79
972.98	2866.69
973.281	2813.36
973.582	2821.49
973.883	2831.44
974.183	2770.2
974.484	2804.09
974.785	2749.41
975.085	2774.26
975.386	2753.7
975.686	2717.77
975.986	2698.78
976.287	2706.24
976.587	2687.49
976.887	2668.73
977.187	2670.31
977.487	2663.08
977.787	2664.44
978.087	2651.55
978.387	2634.61
978.687	2608.84
978.987	2623.08
979.286	2600.71
979.586	2588.73
979.885	2565.23
980.185	2559.58
980.484	2529.75
980.784	2553.93
981.083	2556.64
981.382	2532.24
981.682	2502.18
981.981	2521.39
982.28	2475.06
982.579	2483.65
982.878	2483.2
983.177	2452.01
983.475	2454.05
983.774	2424.67
984.073	2442.07
984.372	2398.91
984.67	2399.36
984.969	2365.69
985.267	2384.67
985.566	2419.47
985.864	2344.44
986.162	2369.98
986.461	2315.52
986.759	2319.13
987.057	2338.79
987.355	2308.29
987.653	2307.16
987.951	2268.29
988.249	2306.7
988.547	2259.02
988.844	2267.38
989.142	2244.11
989.44	2222.19
989.737	2228.29
990.035	2224.9
990.332	2214.5
990.63	2195.3
990.927	2192.58
991.224	2171.79
991.521	2168.63
991.819	2152.13
992.116	2145.35
992.413	2103.09
992.71	2115.52
993.006	2105.35
993.303	2095.86
993.6	2129.76
993.897	2084.11
994.193	2121.85
994.49	2108.97
994.787	2070.33
995.083	2045.47
995.379	2075.52
995.676	2041.4
995.972	1981.74
996.268	1997.11
996.565	2022.87
996.861	1969.76
997.157	1988.75
997.453	1960.5
997.749	1961.86
998.044	1957.56
998.34	1933.83
998.636	1926.15
998.932	1927.73
999.227	1892.48
999.523	1918.01
999.818	1907.39
1000.114	1884.12
1000.409	1871.24
1000.704	1890.9
1001	1853.16
1001.295	1823.1
1001.59	1835.08
1001.885	1812.93
1002.18	1803.89
1002.475	1824.23
1002.77	1804.12
1003.065	1793.95
1003.359	1756.21
1003.654	1748.98
1003.949	1770
1004.243	1764.35
1004.538	1745.14
1004.832	1727.96
1005.127	1748.3
1005.421	1724.8
1005.715	1716.44
1006.009	1681.41
1006.304	1693.61
1006.598	1683.9
1006.892	1666.27
1007.186	1655.42
1007.48	1647.74
1007.773	1655.42
1008.067	1649.55
1008.361	1615.88
1008.655	1609.77
1008.948	1625.37
1009.242	1608.87
1009.535	1629.89
1009.829	1584.46
1010.122	1562.54
1010.415	1549.44
1010.708	1535.88
1011.001	1546.5
1011.295	1509.21
1011.588	1538.36
1011.881	1522.32
1012.173	1523
1012.466	1492.04
1012.759	1470.34
1013.052	1502.43
1013.344	1450.68
1013.637	1498.14
1013.93	1462.21
1014.222	1440.96
1014.514	1426.5
1014.807	1438.93
1015.099	1452.72
1015.391	1428.08
1015.683	1406.39
1015.976	1407.75
1016.268	1415.88
1016.56	1376.11
1016.851	1379.05
1017.143	1379.27
1017.435	1342.21
1017.727	1376.33
1018.018	1328.65
1018.31	1349.89
1018.602	1352.15
1018.893	1324.58
1019.185	1319.39
1019.476	1319.16
1019.767	1287.07
1020.058	1293.4
1020.35	1301.31
1020.641	1280.29
1020.932	1270.8
1021.223	1272.61
1021.514	1246.62
1021.804	1256.34
1022.095	1228.54
1022.386	1230.12
1022.677	1221.76
1022.967	1233.96
1023.258	1211.14
1023.548	1205.04
1023.839	1195.55
1024.129	1176.57
1024.419	1171.59
1024.709	1169.79
1025	1164.14
1025.29	1134.53
1025.58	1145.15
1025.87	1125.94
1026.16	1137.24
1026.449	1145.61
1026.739	1117.13
1027.029	1094.76
1027.319	1106.06
1027.608	1116.68
1027.898	1099.5
1028.187	1094.76
1028.477	1098.6
1028.766	1078.26
1029.055	1060.18
1029.344	1054.08
1029.634	1027.42
1029.923	1039.17
1030.212	1019.73
1030.501	1033.07
1030.79	1019.28
1031.078	1029.68
1031.367	1014.08
1031.656	1010.69
1031.945	978.38
1032.233	970.24
1032.522	970.02
1032.81	975.89
1033.099	972.05
1033.387	966.4
1033.675	963.46
1033.963	970.02
1034.251	994.65
1034.54	949.23
1034.828	922.11
1035.116	937.93
1035.403	935.44
1035.691	926.4
1035.979	931.37
1036.267	915.1
1036.554	905.84
1036.842	888.44
1037.129	905.84
1037.417	880.98
1037.704	885.5
1037.992	877.36
1038.279	865.39
1038.566	869.23
1038.853	869.23
1039.14	869.23
