Data from hue_190_FLMS001491_00034.txt Node
Date: Tue Feb 07 16:45:12 GMT 2017
User: dcchb
Spectrometer: FLMS00149
Trigger mode: 0
Integration Time (sec): 2.000000E-2
Scans to average: 10
Electric dark correction enabled: true
Nonlinearity correction enabled: false
Boxcar width: 0
XAxis mode: Wavelengths
Number of Pixels in Spectrum: 2048
>>>>>Begin Spectral Data<<<<<
341.393	10.61
341.776	10.61
342.16	10.61
342.543	-61.71
342.927	-78.88
343.31	-73.68
343.693	-70.07
344.077	-44.76
344.46	-56.28
344.843	-47.92
345.226	-51.09
345.61	-25.78
345.993	-21.48
346.376	-6.12
346.759	8.12
347.142	15.35
347.525	25.07
347.908	56.03
348.291	81.79
348.674	84.96
349.057	125.86
349.44	144.84
349.823	138.29
350.206	183.94
350.588	208.12
350.971	216.7
351.354	212.64
351.737	228.45
352.119	247.66
352.502	282.92
352.884	270.71
353.267	273.65
353.65	300.32
354.032	293.31
354.414	313.2
354.797	298.74
355.179	324.72
355.562	334.89
355.944	331.05
356.326	322.92
356.709	321.11
357.091	338.51
357.473	362.91
357.855	318.62
358.238	341.9
358.62	336.7
359.002	328.34
359.384	353.42
359.766	334.89
360.148	332.41
360.53	315.46
360.912	330.82
361.294	337.6
361.676	331.73
362.057	324.5
362.439	324.27
362.821	330.37
363.203	306.87
363.584	322.69
363.966	312.07
364.348	322.69
364.729	300.77
365.111	319.98
365.493	303.71
365.874	322.69
366.256	322.24
366.637	303.71
367.019	309.36
367.4	304.16
367.781	316.36
368.163	303.93
368.544	291.28
368.925	312.97
369.306	324.27
369.688	316.81
370.069	321.56
370.45	323.37
370.831	322.69
371.212	325.63
371.593	303.03
371.974	295.12
372.355	329.47
372.736	316.14
373.117	303.25
373.498	328.56
373.879	310.71
374.26	320.88
374.641	312.07
375.021	310.26
375.402	319.07
375.783	316.14
376.163	326.98
376.544	339.64
376.925	306.42
377.305	316.81
377.686	326.08
378.066	310.49
378.447	329.24
378.827	326.53
379.208	304.38
379.588	327.43
379.968	328.79
380.349	329.69
380.729	329.92
381.109	322.92
381.489	331.5
381.87	347.32
382.25	334.67
382.63	317.49
383.01	366.08
383.39	340.09
383.77	347.77
384.15	323.82
384.53	377.15
384.91	355.68
385.29	338.51
385.67	347.55
386.049	364.04
386.429	340.54
386.809	341.67
387.189	349.58
387.568	357.04
387.948	349.13
388.328	373.08
388.707	353.65
389.087	358.85
389.466	339.64
389.846	343.25
390.225	359.3
390.605	373.08
390.984	367.21
391.363	360.65
391.743	366.76
392.122	370.37
392.501	372.41
392.881	366.3
393.26	384.16
393.639	361.11
394.018	347.55
394.397	365.17
394.776	383.25
395.155	381.22
395.534	383.48
395.913	365.63
396.292	379.64
396.671	375.34
397.05	374.21
397.429	386.87
397.808	381.67
398.186	388.9
398.565	391.16
398.944	384.83
399.323	402.01
399.701	392.07
400.08	385.74
400.458	401.11
400.837	402.91
401.215	399.3
401.594	427.55
401.972	406.08
402.351	416.7
402.729	391.16
403.107	414.66
403.486	409.47
403.864	416.25
404.242	405.62
404.62	446.98
404.999	417.38
405.377	442.69
405.755	419.18
406.133	438.17
406.511	464.61
406.889	442.91
407.267	426.42
407.645	447.21
408.023	461.67
408.401	456.7
408.779	471.16
409.156	499.63
409.534	480.2
409.912	486.3
410.29	476.13
410.667	504.38
411.045	536.92
411.422	517.71
411.8	511.84
412.178	542.34
412.555	534.89
412.933	536.24
413.31	545.06
413.687	554.77
414.065	573.53
414.442	584.6
414.819	585.28
415.197	577.15
415.574	600.42
415.951	589.35
416.328	606.98
416.705	605.39
417.082	652.4
417.46	651.49
417.837	630.25
418.214	648.1
418.591	653.3
418.967	668.89
419.344	685.84
419.721	690.36
420.098	659.4
420.475	710.7
420.852	696.69
421.228	705.73
421.605	733.75
421.982	731.49
422.358	791.38
422.735	768.78
423.111	772.85
423.488	786.18
423.864	802.45
424.241	810.59
424.617	820.98
424.994	822.79
425.37	855.56
425.746	869.57
426.123	904.14
426.499	878.61
426.875	910.92
427.251	912.05
427.627	925.16
428.003	939.4
428.379	943.92
428.756	935.78
429.132	945.72
429.507	965.84
429.883	990.02
430.259	1011.26
430.635	1002.9
431.011	1009.22
431.387	1028.66
431.763	1048.55
432.138	1077.47
432.514	1073.86
432.89	1073.18
433.265	1119.28
433.641	1141.2
434.016	1163.8
434.392	1177.58
434.767	1170.8
435.143	1205.38
435.518	1233.4
435.894	1245.38
436.269	1257.13
436.644	1288.09
437.02	1296.22
437.395	1313.62
437.77	1358.14
438.145	1381.42
438.52	1411.7
438.895	1423.9
439.271	1434.52
439.646	1463
440.021	1484.47
440.395	1498.93
440.77	1478.59
441.145	1507.74
441.52	1548.42
441.895	1581.64
442.27	1568.76
442.645	1624.58
443.019	1607.18
443.394	1638.13
443.769	1657.34
444.143	1644.91
444.518	1698.02
444.892	1695.99
445.267	1724.69
445.641	1744.35
446.016	1738.92
446.39	1766.72
446.764	1780.96
447.139	1769.43
447.513	1826.83
447.887	1805.59
448.262	1822.08
448.636	1838.58
449.01	1854.4
449.384	1882.42
449.758	1898.24
450.132	1907.51
450.506	1888.52
450.88	1917.22
451.254	1938.47
451.628	1957.45
452.002	1994.06
452.376	2013.49
452.75	2032.02
453.123	2052.81
453.497	2060.5
453.871	2096.65
454.244	2161.06
454.618	2142.53
454.992	2185.47
455.365	2150.89
455.739	2257.78
456.112	2245.8
456.486	2264.79
456.859	2303.88
457.232	2349.53
457.606	2376.87
457.979	2373.48
458.352	2426.59
458.725	2422.52
459.099	2461.62
459.472	2475.85
459.845	2554.95
460.218	2556.53
460.591	2534.83
460.964	2592.69
461.337	2665
461.71	2686.69
462.083	2736.41
462.456	2701.84
462.829	2747.48
463.201	2834.71
463.574	2833.81
463.947	2859.35
464.32	2912
464.692	2911.77
465.065	2968.72
465.438	2989.74
465.81	3092.11
466.183	3123.75
466.555	3201.71
466.928	3209.62
467.3	3167.59
467.672	3211.43
468.045	3327.58
468.417	3356.06
468.789	3393.34
469.161	3408.26
469.534	3458.2
469.906	3508.82
470.278	3566.67
470.65	3640.12
471.022	3678.08
471.394	3794.69
471.766	3788.13
472.138	3850.28
472.51	3889.83
472.882	4053.66
473.253	4024.51
473.625	4069.26
473.997	4156.49
474.369	4190.38
474.74	4230.61
475.112	4344.96
475.484	4429.47
475.855	4469.47
476.227	4506.31
476.598	4648.23
476.97	4699.07
477.341	4800.31
477.713	4862.46
478.084	4912.85
478.455	5063.81
478.827	5106.74
479.198	5227.87
479.569	5241.88
479.94	5379.73
480.311	5494.3
480.682	5576.34
481.053	5662.66
481.424	5812.26
481.795	5812.49
482.166	5927.51
482.537	6033.95
482.908	6137.9
483.279	6204.34
483.65	6281.63
484.021	6424.22
484.391	6511.68
484.762	6585.8
485.133	6683.43
485.503	6757.77
485.874	6928.84
486.244	6912.57
486.615	7115.96
486.985	7211.55
487.356	7304.43
487.726	7350.53
488.097	7480.24
488.467	7527.47
488.837	7732.44
489.207	7826.45
489.578	7955.93
489.948	7961.81
490.318	8057.85
490.688	8117.29
491.058	8220.11
491.428	8327.45
491.798	8482.25
492.168	8632.08
492.538	8621.45
492.908	8695.58
493.278	8782.13
493.648	8797.95
494.017	8934.21
494.387	9000.65
494.757	8997.72
495.126	9103.48
495.496	9154.77
495.866	9156.58
496.235	9319.06
496.605	9276.58
496.974	9440.42
497.344	9531.26
497.713	9467.08
498.082	9593.86
498.452	9700.75
498.821	9636.12
499.19	9699.17
499.559	9760.63
499.928	9876.79
500.298	9853.29
500.667	9922.44
501.036	9870.69
501.405	10018.03
501.774	9941.42
502.143	10068.65
502.512	10101.42
502.88	10182.09
503.249	10159.72
503.618	10226.38
503.987	10223.9
504.356	10253.5
504.724	10309.32
505.093	10344.8
505.462	10335.08
505.83	10364.91
506.199	10373.05
506.567	10543.21
506.936	10451.91
507.304	10535.98
507.672	10570.1
508.041	10622.98
508.409	10623.66
508.777	10700.04
509.145	10712.92
509.514	10618.46
509.882	10733.94
510.25	10704.11
510.618	10735.97
510.986	10763.09
511.354	10869.3
511.722	10946.59
512.09	10982.3
512.458	10901.85
512.826	10948.4
513.193	10887.84
513.561	10947.95
513.929	11021.84
514.297	10982.3
514.664	11085.8
515.032	11065.46
515.4	11097.1
515.767	11087.15
516.135	11089.86
516.502	11048.51
516.869	11110.2
517.237	11154.72
517.604	11040.15
517.972	11103.65
518.339	11193.36
518.706	11171.9
519.073	11133.25
519.44	11175.29
519.808	11198.56
520.175	11161.95
520.542	11275.85
520.909	11290.31
521.276	11078.79
521.643	11256.87
522.009	11189.3
522.376	11274.49
522.743	11294.38
523.11	11328.5
523.477	11399.69
523.843	11339.57
524.21	11324.66
524.577	11386.81
524.943	11387.48
525.31	11272.01
525.676	11287.37
526.043	11422.51
526.409	11372.34
526.776	11383.64
527.142	11450.53
527.508	11406.92
527.874	11445.79
528.241	11409.4
528.607	11374.6
528.973	11387.48
529.339	11222.06
529.705	11319.24
530.071	11272.91
530.437	11330.08
530.803	11269.52
531.169	11260.48
531.535	11219.35
531.901	11153.82
532.267	11167.6
532.632	11119.24
532.998	11093.71
533.364	11137.77
533.73	11066.14
534.095	11067.27
534.461	11040.37
534.826	11033.59
535.192	10916.08
535.557	10950.66
535.923	10924.44
536.288	10892.58
536.653	10764
537.019	10772.81
537.384	10750.44
537.749	10659.14
538.114	10666.37
538.479	10607.39
538.845	10564.45
539.21	10477.45
539.575	10441.97
539.94	10441.07
540.305	10471.12
540.67	10326.04
541.034	10292.37
541.399	10226.38
541.764	10198.14
542.129	10091.47
542.494	10168.31
542.858	10035.2
543.223	10012.83
543.587	9998.82
543.952	9872.72
544.316	9889.22
544.681	9818.26
545.045	9816.22
545.41	9769.67
545.774	9698.04
546.138	9744.81
546.503	9647.64
546.867	9587.53
547.231	9539.85
547.595	9460.3
547.959	9441.77
548.324	9307.09
548.688	9333.53
549.052	9284.04
549.416	9267.54
549.779	9234.77
550.143	9146.86
550.507	9133.76
550.871	9108.45
551.235	9030.48
551.599	9024.16
551.962	8976.92
552.326	8895.57
552.689	8930.82
553.053	8851.5
553.417	8748.23
553.78	8858.74
554.143	8723.6
554.507	8699.19
554.87	8730.6
555.234	8682.24
555.597	8557.5
555.96	8549.82
556.323	8562.25
556.686	8510.04
557.05	8570.38
557.413	8507.78
557.776	8454
558.139	8424.17
558.502	8409.03
558.865	8341.91
559.228	8405.19
559.59	8311.18
559.953	8381.01
560.316	8286.77
560.679	8343.72
561.041	8298.98
561.404	8264.4
561.767	8320.67
562.129	8152.77
562.492	8284.97
562.854	8180.11
563.217	8154.35
563.579	8167.45
563.941	8137.85
564.304	8188.25
564.666	8119.77
565.028	8154.8
565.39	8160.68
565.753	8169.94
566.115	8105.08
566.477	8129.04
566.839	8070.06
567.201	8110.28
567.563	8156.16
567.925	8182.37
568.287	8141.92
568.648	8117.51
569.01	8160.22
569.372	8186.89
569.734	8133.33
570.095	8105.08
570.457	8121.81
570.819	8105.76
571.18	8068.47
571.542	8075.93
571.903	8137.17
572.265	8091.75
572.626	8081.13
572.987	8121.81
573.349	8057.4
573.71	8111.19
574.071	8122.48
574.432	8118.42
574.794	8141.92
575.155	8127.23
575.516	8083.62
575.877	8054.46
576.238	8060.11
576.599	8100.11
576.96	8110.28
577.32	7998.42
577.681	8056.5
578.042	8102.6
578.403	8004.07
578.763	8052.43
579.124	8057.4
579.485	8027.8
579.845	8054.01
580.206	8091.07
580.566	8013.33
580.927	8046.1
581.287	8096.27
581.648	8004.75
582.008	7976.73
582.368	8009.04
582.728	8031.19
583.089	8031.41
583.449	7978.31
583.809	7996.16
584.169	8004.75
584.529	7941.02
584.889	7999.78
585.249	7968.14
585.609	7906.67
585.969	7977.86
586.329	7941.47
586.688	7896.5
587.048	7911.42
587.408	7877.29
587.768	7864.19
588.127	7828.03
588.487	7872.1
588.846	7927.46
589.206	7880.46
589.565	7901.47
589.925	7862.83
590.284	7821.02
590.643	7856.95
591.003	7879.78
591.362	7841.81
591.721	7850.63
592.08	7801.14
592.44	7881.36
592.799	7835.03
593.158	7786.67
593.517	7758.65
593.876	7816.28
594.235	7794.81
594.593	7742.16
594.952	7739.67
595.311	7645.21
595.67	7685.66
596.029	7778.31
596.387	7733.57
596.746	7767.69
597.104	7684.53
597.463	7718.43
597.822	7688.15
598.18	7659.9
598.538	7696.05
598.897	7649.5
599.255	7661.48
599.613	7718.43
599.972	7694.02
600.33	7694.7
600.688	7696.96
601.046	7672.78
601.404	7632.78
601.762	7727.24
602.12	7723.4
602.478	7711.42
602.836	7679.33
603.194	7588.26
603.552	7623.06
603.91	7586.23
604.268	7649.05
604.625	7557.75
604.983	7644.98
605.341	7588.49
605.698	7651.99
606.056	7641.37
606.413	7630.52
606.771	7587.58
607.128	7673.46
607.485	7604.76
607.843	7589.84
608.2	7690.18
608.557	7681.59
608.914	7614.93
609.272	7660.12
609.629	7684.98
609.986	7712.1
610.343	7647.02
610.7	7664.64
611.057	7647.47
611.414	7626
611.771	7697.18
612.127	7756.62
612.484	7677.98
612.841	7704.87
613.198	7704.87
613.554	7654.93
613.911	7718.43
614.267	7744.64
614.624	7728.6
614.98	7689.95
615.337	7747.35
615.693	7675.94
616.05	7774.92
616.406	7829.61
616.762	7728.14
617.118	7741.7
617.475	7721.82
617.831	7746.9
618.187	7740.57
618.543	7783.06
618.899	7802.04
619.255	7732.21
619.611	7750.06
619.967	7820.8
620.323	7713
620.678	7762.72
621.034	7707.81
621.39	7728.37
621.746	7761.82
622.101	7790.29
622.457	7807.92
622.812	7718.43
623.168	7780.8
623.523	7815.83
623.879	7712.1
624.234	7746.9
624.589	7760.69
624.945	7828.93
625.3	7773.79
625.655	7773.34
626.01	7737.64
626.365	7790.52
626.72	7773.57
627.075	7720.01
627.43	7783.51
627.785	7754.36
628.14	7794.58
628.495	7773.57
628.85	7673.68
629.205	7707.13
629.559	7665.55
629.914	7697.86
630.269	7718.88
630.623	7641.59
630.978	7602.27
631.332	7661.25
631.687	7667.35
632.041	7643.85
632.396	7635.72
632.75	7691.54
633.104	7592.55
633.459	7624.42
633.813	7644.3
634.167	7632.1
634.521	7633.23
634.875	7560.24
635.229	7539.67
635.583	7603.85
635.937	7557.53
636.291	7564.76
636.645	7546.91
636.999	7565.89
637.352	7565.66
637.706	7466.91
638.06	7442.73
638.413	7559.34
638.767	7444.31
639.121	7456.51
639.474	7423.75
639.828	7420.58
640.181	7414.93
640.534	7443.86
640.888	7395.5
641.241	7402.5
641.594	7459.68
641.947	7481.82
642.301	7361.15
642.654	7405.67
643.007	7432.11
643.36	7374.03
643.713	7339.68
644.066	7405.44
644.419	7344.65
644.771	7340.36
645.124	7298.55
645.477	7219.91
645.83	7195.73
646.182	7194.6
646.535	7133.13
646.888	7178.55
647.24	7112.34
647.593	7156.41
647.945	7191.44
648.298	7170.42
648.65	7121.61
649.002	7135.17
649.355	7115.96
649.707	7144.43
650.059	7154.15
650.411	7214.26
650.763	7227.14
651.115	7299.68
651.467	7290.42
651.819	7288.61
652.171	7334.26
652.523	7248.16
652.875	7296.52
653.227	7230.76
653.578	7273.69
653.93	7286.8
654.282	7283.18
654.633	7247.48
654.985	7251.55
655.337	7322.28
655.688	7272.56
656.039	7369.74
656.391	7299
656.742	7262.17
657.094	7251.77
657.445	7327.7
657.796	7332
658.147	7254.48
658.498	7281.38
658.849	7263.75
659.2	7324.09
659.551	7363.18
659.902	7304.65
660.253	7417.19
660.604	7368.38
660.955	7314.37
661.306	7372
661.656	7339.45
662.007	7337.87
662.358	7379.45
662.708	7317.99
663.059	7341.26
663.409	7326.8
663.76	7390.07
664.11	7400.02
664.461	7369.06
664.811	7351.88
665.161	7431.2
665.511	7367.48
665.862	7382.62
666.212	7423.07
666.562	7379.9
666.912	7357.31
667.262	7391.2
667.612	7394.14
667.962	7346.46
668.312	7313.69
668.662	7432.11
669.011	7367.25
669.361	7337.42
669.711	7367.25
670.06	7362.05
670.41	7312.34
670.76	7347.14
671.109	7388.27
671.459	7353.46
671.808	7306.23
672.157	7380.58
672.507	7326.35
672.856	7309.85
673.205	7283.41
673.554	7346.01
673.904	7319.79
674.253	7320.92
674.602	7304.88
674.951	7223.3
675.3	7189.4
675.649	7242.51
675.998	7287.03
676.346	7285.44
676.695	7332.9
677.044	7266.69
677.393	7232.34
677.741	7212.45
678.09	7201.6
678.438	7192.57
678.787	7215.39
679.135	7209.97
679.484	7146.46
679.832	7135.39
680.181	7167.03
680.529	7144.88
680.877	7161.61
681.225	7133.81
681.573	7186.92
681.922	7060.82
682.27	7124.09
682.618	7137.88
682.966	7073.02
683.314	7036.41
683.661	6985.34
684.009	6985.11
684.357	6940.59
684.705	6932.01
685.053	6986.92
685.4	6957.09
685.748	6893.14
686.095	6891.78
686.443	6903.31
686.79	6882.52
687.138	6879.13
687.485	6885.91
687.832	6835.29
688.18	6838.22
688.527	6771.56
688.874	6802.52
689.221	6735.85
689.568	6745.8
689.915	6710.77
690.262	6688.17
690.609	6743.54
690.956	6649.53
691.303	6678.23
691.65	6640.26
691.997	6612.92
692.344	6594.84
692.69	6580.38
693.037	6590.55
693.383	6471.91
693.73	6509.65
694.077	6466.48
694.423	6418.8
694.769	6459.25
695.116	6466.71
695.462	6349.2
695.808	6337.45
696.155	6328.63
696.501	6319.82
696.847	6334.73
697.193	6274.85
697.539	6274.85
697.885	6237.56
698.231	6225.13
698.577	6217.22
698.923	6197.56
699.269	6140.84
699.614	6159.6
699.96	6132.25
700.306	6063.1
700.651	6057.68
700.997	6011.81
701.342	6050
701.688	5991.24
702.033	5983.11
702.379	6024.69
702.724	5924.35
703.069	5950.79
703.415	5851.58
703.76	5867.4
704.105	5885.71
704.45	5846.39
704.795	5778.59
705.14	5797.8
705.485	5791.7
705.83	5758.7
706.175	5792.38
706.52	5744.47
706.865	5755.31
707.209	5689.33
707.554	5667.18
707.899	5657.46
708.243	5646.84
708.588	5631.02
708.932	5590.12
709.277	5568.88
709.621	5621.98
709.966	5556.22
710.31	5549.9
710.654	5455.21
710.998	5495.66
711.342	5492.5
711.687	5540.86
712.031	5457.92
712.375	5453.4
712.719	5441.2
713.063	5450.01
713.407	5476.68
713.75	5436.45
714.094	5434.42
714.438	5415.44
714.782	5402.1
715.125	5377.25
715.469	5385.16
715.812	5318.49
716.156	5369.11
716.499	5340.18
716.843	5299.28
717.186	5366.4
717.53	5297.25
717.873	5307.19
718.216	5283.69
718.559	5262.45
718.902	5263.8
719.246	5281.65
719.589	5313.74
719.932	5246.85
720.275	5269
720.617	5264.48
720.96	5292.95
721.303	5276.23
721.646	5304.71
721.989	5287.98
722.331	5233.52
722.674	5215.67
723.016	5221.32
723.359	5186.06
723.701	5216.8
724.044	5174.54
724.386	5170.92
724.729	5210.02
725.071	5176.12
725.413	5192.17
725.755	5160.3
726.097	5204.59
726.439	5160.75
726.782	5160.53
727.124	5208.44
727.465	5119.85
727.807	5189.68
728.149	5141.32
728.491	5158.04
728.833	5137.25
729.175	5173.41
729.516	5168.44
729.858	5184.03
730.199	5163.01
730.541	5189.45
730.882	5167.53
731.224	5109.46
731.565	5114.88
731.906	5157.36
732.248	5164.82
732.589	5156.91
732.93	5153.97
733.271	5129.12
733.612	5146.29
733.953	5175.44
734.294	5156.01
734.635	5174.99
734.976	5186.29
735.317	5135.67
735.658	5163.69
735.999	5156.01
736.339	5177.93
736.68	5196.91
737.021	5206.4
737.361	5164.6
737.702	5237.59
738.042	5204.82
738.383	5222.9
738.723	5248.66
739.063	5219.06
739.404	5230.13
739.744	5249.57
740.084	5257.02
740.424	5259.96
740.764	5297.7
741.104	5255.89
741.444	5278.04
741.784	5331.82
742.124	5354.42
742.464	5312.16
742.804	5367.75
743.143	5351.03
743.483	5339.28
743.823	5418.15
744.162	5404.59
744.502	5509.9
744.841	5471.93
745.181	5536.79
745.52	5541.99
745.86	5574.3
746.199	5584.92
746.538	5640.52
746.877	5673.73
747.216	5731.59
747.556	5826.5
747.895	5757.35
748.234	5795.54
748.573	5884.12
748.911	5944.46
749.25	5963.22
749.589	6017.68
749.928	6037.79
750.267	6164.34
750.605	6248.41
750.944	6298.8
751.283	6295.41
751.621	6438.23
751.96	6490.66
752.298	6554.16
752.636	6689.08
752.975	6734.05
753.313	6806.13
753.651	6928.17
753.989	7053.59
754.327	7078.44
754.666	7204.32
755.004	7352.11
755.342	7522.27
755.679	7640.91
756.017	7693.34
756.355	7855.37
756.693	7985.09
757.031	8124.52
757.368	8244.29
757.706	8383.72
758.044	8533.55
758.381	8696.71
758.719	8786.42
759.056	8983.93
759.394	9157.71
759.731	9297.82
760.068	9409.68
760.405	9605.61
760.743	9752.95
761.08	9951.14
761.417	10113.84
761.754	10234.75
762.091	10423.89
762.428	10614.85
762.765	10711.79
763.102	10998.34
763.438	11118.56
763.775	11175.96
764.112	11490.31
764.449	11656.85
764.785	11805.33
765.122	11899.11
765.458	12003.06
765.795	12280.11
766.131	12422.03
766.467	12536.15
766.804	12735.24
767.14	12828.12
767.476	12992.41
767.812	13132.97
768.148	13290.26
768.485	13377.94
768.821	13492.51
769.157	13703.81
769.492	13798.72
769.828	13975.66
770.164	13980.64
770.5	14153.51
770.836	14303.79
771.171	14327.07
771.507	14522.99
771.842	14556.21
772.178	14643.67
772.513	14792.37
772.849	14915.98
773.184	14911.23
773.519	15035.75
773.855	15140.83
774.19	15199.36
774.525	15297.21
774.86	15339.24
775.195	15431.67
775.53	15575.17
775.865	15547.83
776.2	15571.55
776.535	15671.66
776.87	15712.79
777.205	15759.8
777.539	15831.89
777.874	15922.05
778.209	15812.68
778.543	15953.92
778.878	15950.3
779.212	16023.52
779.547	15899.23
779.881	16172.89
780.215	16122.27
780.55	16137.64
780.884	16139.67
781.218	16186.23
781.552	16269.84
781.886	16236.85
782.22	16220.35
782.554	16185.1
782.888	16160.24
783.222	16130.64
783.556	16140.13
783.889	16159.11
784.223	16106.46
784.557	16220.58
784.89	16164.08
785.224	16150.3
785.557	16196.4
785.891	16106.46
786.224	16237.75
786.558	16255.83
786.891	16131.77
787.224	16139.67
787.557	16207.92
787.891	16186.68
788.224	16134.7
788.557	16163.18
788.89	16187.58
789.223	16270.07
789.556	16050.19
789.888	16052.9
790.221	16028.94
790.554	15978.32
790.887	15952.11
791.219	15980.13
791.552	15981.49
791.884	15922.96
792.217	15928.38
792.549	15916.63
792.882	15909.17
793.214	15777.2
793.546	15778.1
793.879	15765.45
794.211	15635.05
794.543	15709.63
794.875	15742.62
795.207	15739.23
795.539	15710.08
795.871	15777.42
796.203	15540.59
796.535	15553.02
796.867	15475.51
797.198	15504.44
797.53	15422.41
797.862	15480.03
798.193	15459.69
798.525	15328.62
798.856	15495.4
799.188	15310.77
799.519	15242.52
799.85	15197.78
800.182	15219.47
800.513	15291.34
800.844	15062.19
801.175	15264.9
801.506	15184.67
801.837	15206.82
802.168	15070.78
802.499	15078.01
802.83	14928.18
803.161	14944
803.491	14969.08
803.822	14911.68
804.153	14881.18
804.483	14800.73
804.814	14789.43
805.145	14733.38
805.475	14834.62
805.805	14671.69
806.136	14662.88
806.466	14678.02
806.796	14607.96
807.126	14616.55
807.457	14515.08
807.787	14476.22
808.117	14554.86
808.447	14401.87
808.777	14449.1
809.107	14398.48
809.436	14305.6
809.766	14380.4
810.096	14348.54
810.426	14313.73
810.755	14245.26
811.085	14204.36
811.414	14262.89
811.744	14146.51
812.073	14111.71
812.403	14157.13
812.732	13996.23
813.061	14053.85
813.39	13971.37
813.719	13991.93
814.049	14056.79
814.378	14052.5
814.707	13908.32
815.036	13929.11
815.365	13820.19
815.693	13731.15
816.022	13802.33
816.351	13750.81
816.68	13634.66
817.008	13710.59
817.337	13650.25
817.665	13627.88
817.994	13605.28
818.322	13602.11
818.651	13603.7
818.979	13518.27
819.307	13624.26
819.636	13551.04
819.964	13418.39
820.292	13541.55
820.62	13521.66
820.948	13418.39
821.276	13510.14
821.604	13511.95
821.932	13448.9
822.259	13478.5
822.587	13522.12
822.915	13392.85
823.243	13466.3
823.57	13445.96
823.898	13458.16
824.225	13407.32
824.553	13458.16
824.88	13532.51
825.207	13446.64
825.535	13394.44
825.862	13541.32
826.189	13471.27
826.516	13483.25
826.843	13545.39
827.17	13466.52
827.497	13524.38
827.824	13542
828.151	13573.19
828.478	13544.94
828.805	13593.3
829.131	13550.36
829.458	13532.06
829.785	13409.35
830.111	13473.3
830.438	13544.71
830.764	13539.06
831.09	13527.77
831.417	13428.79
831.743	13530.7
832.069	13543.13
832.395	13456.58
832.722	13427.2
833.048	13431.95
833.374	13497.03
833.7	13406.19
834.026	13423.14
834.351	13412.51
834.677	13381.1
835.003	13366.87
835.329	13389.69
835.654	13366.41
835.98	13291.84
836.306	13337.94
836.631	13288.68
836.956	13361.22
837.282	13396.24
837.607	13265.4
837.932	13272.63
838.258	13251.61
838.583	13255.68
838.908	13141.79
839.233	13223.37
839.558	13187.89
839.883	13132.07
840.208	13033.54
840.533	13101.11
840.858	13170.71
841.182	13094.33
841.507	13122.58
841.832	12993.99
842.156	12927.1
842.481	13007.1
842.805	12993.54
843.13	12855.92
843.454	12920.78
843.778	12876.26
844.103	12878.29
844.427	12793.55
844.751	12783.83
845.075	12793.1
845.399	12747.9
845.723	12654.12
846.047	12754.45
846.371	12504.52
846.695	12573.44
847.019	12485.99
847.343	12431.07
847.666	12376.38
847.99	12327.35
848.313	12242.38
848.637	12266.78
848.96	12216.84
849.284	12176.16
849.607	12114.92
849.931	11961.03
850.254	11943.17
850.577	11923.97
850.9	11847.36
851.223	11874.02
851.546	11806.23
851.869	11728.94
852.192	11800.35
852.515	11688.49
852.838	11644.65
853.161	11630.41
853.483	11554.48
853.806	11448.27
854.129	11369.86
854.451	11392.68
854.774	11340.48
855.096	11345.9
855.419	11286.02
855.741	11202.4
856.063	11229.07
856.385	11158.56
856.708	11147.49
857.03	11171.9
857.352	11094.84
857.674	11093.03
857.996	11140.48
858.318	10960.83
858.64	10995.4
858.961	10941.39
859.283	10880.83
859.605	10833.15
859.926	10845.8
860.248	10826.59
860.57	10746.82
860.891	10795.63
861.212	10759.03
861.534	10719.03
861.855	10754.05
862.176	10737.1
862.498	10665.24
862.819	10697.11
863.14	10692.59
863.461	10565.36
863.782	10577.79
864.103	10590.89
864.424	10575.3
864.745	10548.41
865.065	10509.99
865.386	10437.23
865.707	10448.3
866.027	10379.37
866.348	10450.56
866.668	10420.73
866.989	10330.56
867.309	10321.3
867.63	10357.91
867.95	10341.18
868.27	10236.1
868.59	10288.98
868.91	10292.82
869.23	10238.81
869.55	10266.61
869.87	10223.67
870.19	10192.71
870.51	10180.74
870.83	10291.01
871.15	10216.44
871.469	10161.3
871.789	10174.41
872.109	10156.78
872.428	10069.78
872.748	10110.45
873.067	10116.56
873.386	10088.31
873.706	10055.09
874.025	9976.45
874.344	9914.53
874.663	10023.9
874.982	9955.88
875.301	10021.42
875.62	9986.62
875.939	9912.27
876.258	10010.34
876.577	9824.36
876.896	9919.05
877.214	9845.83
877.533	9838.15
877.852	9899.61
878.17	9826.62
878.489	9865.72
878.807	9804.25
879.125	9779.39
879.444	9761.99
879.762	9682.44
880.08	9740.52
880.398	9682.67
880.716	9668.88
881.034	9712.05
881.352	9672.95
881.67	9645.61
881.988	9660.3
882.306	9602.45
882.624	9546.4
882.941	9558.6
883.259	9511.6
883.577	9491.94
883.894	9505.05
884.212	9477.02
884.529	9449.68
884.846	9384.82
885.164	9372.39
885.481	9391.15
885.798	9431.83
886.115	9371.49
886.432	9329.91
886.75	9268.89
887.067	9267.76
887.383	9276.58
887.7	9211.27
888.017	9267.31
888.334	9199.29
888.651	9184.38
888.967	9129.69
889.284	9173.76
889.6	9112.97
889.917	9056.7
890.233	9042.23
890.55	8953.42
890.866	9019.41
891.182	8913.65
891.498	8979.18
891.815	8879.53
892.131	8819.64
892.447	8866.19
892.763	8817.16
893.079	8841.56
893.395	8745.07
893.71	8718.85
894.026	8744.16
894.342	8745.29
894.657	8612.64
894.973	8658.52
895.289	8613.32
895.604	8568.35
895.92	8517.73
896.235	8444.06
896.55	8535.13
896.865	8472.08
897.181	8422.14
897.496	8447
897.811	8398.86
898.126	8359.54
898.441	8321.35
898.756	8322.03
899.071	8174.01
899.386	8198.87
899.7	8201.13
900.015	8109.6
900.33	8037.51
900.644	8061.24
900.959	8087
901.273	8066.67
901.588	8032.54
901.902	7954.58
902.216	7968.36
902.531	7934.92
902.845	7927.91
903.159	7852.43
903.473	7759.78
903.787	7812.89
904.101	7718.2
904.415	7789.84
904.729	7732.44
905.042	7640.01
905.356	7624.87
905.67	7583.74
905.984	7612.89
906.297	7549.84
906.611	7532.9
906.924	7517.98
907.237	7429.17
907.551	7435.27
907.864	7417.42
908.177	7351.21
908.491	7452.45
908.804	7343.3
909.117	7254.48
909.43	7253.35
909.743	7250.19
910.056	7223.3
910.368	7187.59
910.681	7161.83
910.994	7161.15
911.307	7105.79
911.619	7102.4
911.932	7080.7
912.244	6993.93
912.557	6965
912.869	6954.61
913.181	6942.4
913.494	6903.31
913.806	6870.54
914.118	6812.69
914.43	6781.95
914.742	6737.89
915.054	6744.67
915.366	6754.84
915.678	6666.25
915.99	6687.04
916.302	6648.85
916.613	6579.02
916.925	6621.51
917.236	6610.89
917.548	6543.99
917.859	6489.76
918.171	6473.71
918.482	6437.78
918.794	6437.1
919.105	6393.49
919.416	6405.02
919.727	6367.5
920.038	6344.45
920.349	6324.34
920.66	6245.02
920.971	6245.92
921.282	6269.2
921.593	6198.24
921.903	6142.65
922.214	6128.86
922.525	6169.77
922.835	6111.92
923.146	6072.14
923.456	6049.32
923.767	6034.4
924.077	6028.98
924.387	5980.39
924.697	5954.18
925.008	5927.97
925.318	5947.63
925.628	5918.47
925.938	5865.59
926.248	5838.48
926.558	5773.17
926.867	5790.57
927.177	5787.4
927.487	5733.85
927.796	5698.14
928.106	5664.7
928.416	5687.52
928.725	5623.34
929.034	5620.18
929.344	5585.6
929.653	5591.93
929.962	5565.04
930.271	5551.48
930.581	5490.46
930.89	5430.8
931.199	5513.51
931.508	5446.62
931.817	5476.45
932.125	5386.51
932.434	5351.48
932.743	5318.49
933.051	5307.42
933.36	5307.42
933.669	5297.7
933.977	5231.26
934.286	5245.27
934.594	5226.06
934.902	5183.13
935.21	5226.06
935.519	5220.19
935.827	5152.39
936.135	5077.82
936.443	5098.16
936.751	5125.5
937.059	5056.12
937.367	5030.36
937.674	5017.93
937.982	5022.45
938.29	5011.61
938.597	5008.44
938.905	4921.66
939.213	4855.45
939.52	4870.37
939.827	4897.71
940.135	4802.57
940.442	4824.04
940.749	4790.82
941.056	4813.42
941.363	4758.73
941.67	4770.03
941.977	4714.89
942.284	4703.37
942.591	4694.33
942.898	4629.24
943.205	4631.5
943.511	4688.22
943.818	4611.62
944.125	4562.35
944.431	4554.67
944.738	4610.94
945.044	4501.56
945.35	4494.56
945.657	4513.54
945.963	4521
946.269	4484.39
946.575	4438.06
946.881	4416.82
947.187	4378.18
947.493	4394.45
947.799	4403.26
948.105	4308.57
948.41	4316.93
948.716	4338.18
949.022	4294.56
949.327	4303.15
949.633	4255.24
949.938	4269.48
950.244	4255.69
950.549	4167.33
950.854	4195.81
951.16	4191.51
951.465	4138.18
951.77	4134.11
952.075	4126.66
952.38	4093.89
952.685	4068.81
952.99	4019.77
953.294	4044.85
953.599	4064.06
953.904	4021.8
954.209	3998.98
954.513	3983.38
954.818	3962.14
955.122	3932.99
955.426	3982.93
955.731	3951.29
956.035	3909.94
956.339	3911.75
956.643	3873.33
956.948	3863.61
957.252	3824.07
957.556	3808.47
957.86	3798.08
958.163	3791.52
958.467	3759.44
958.771	3786.55
959.075	3742.94
959.378	3720.57
959.682	3714.24
959.985	3697.06
960.289	3665.43
960.592	3669.04
960.896	3669.95
961.199	3630.17
961.502	3637.18
961.805	3616.39
962.108	3566.22
962.411	3563.96
962.714	3554.92
963.017	3509.05
963.32	3494.58
963.623	3500.46
963.926	3497.52
964.228	3477.86
964.531	3429.73
964.833	3434.7
965.136	3434.02
965.438	3381.59
965.741	3401.03
966.043	3381.82
966.345	3380.01
966.648	3381.59
966.95	3363.29
967.252	3348.37
967.554	3313.12
967.856	3290.07
968.158	3312.89
968.46	3273.12
968.761	3239.67
969.063	3253.46
969.365	3231.31
969.666	3238.32
969.968	3204.42
970.269	3177.76
970.571	3191.31
970.872	3146.8
971.174	3121.26
971.475	3118.32
971.776	3136.4
972.077	3070.64
972.378	3101.37
972.679	3074.26
972.98	3067.48
973.281	3068.15
973.582	3010.75
973.883	3031.54
974.183	2977.99
974.484	2984.99
974.785	2986.12
975.085	3011.43
975.386	2965.78
975.686	2960.81
975.986	2962.17
976.287	2904.54
976.587	2912.45
976.887	2894.37
977.187	2861.61
977.487	2880.81
977.787	2852.57
978.087	2849.18
978.387	2854.83
978.687	2824.54
978.987	2801.72
979.286	2793.58
979.586	2786.58
979.885	2784.09
980.185	2751.55
980.484	2730.76
980.784	2757.43
981.083	2693.93
981.382	2741.16
981.682	2701.61
981.981	2687.37
982.28	2707.94
982.579	2645.11
982.878	2641.72
983.177	2668.62
983.475	2631.1
983.774	2635.62
984.073	2604.89
984.372	2597.43
984.67	2585.68
984.969	2551.33
985.267	2578.68
985.566	2541.16
985.864	2563.08
986.162	2519.92
986.461	2482.86
986.759	2490.99
987.057	2436.08
987.355	2467.04
987.653	2491.67
987.951	2459.36
988.249	2470.43
988.547	2446.02
988.844	2395.86
989.142	2427.27
989.44	2388.85
989.737	2396.98
990.035	2394.27
990.332	2361.96
990.63	2370.77
990.927	2374.61
991.224	2323.09
991.521	2327.16
991.819	2336.2
992.116	2313.6
992.413	2336.87
992.71	2290.32
993.006	2261.85
993.303	2281.51
993.6	2279.25
993.897	2232.02
994.193	2230.44
994.49	2184.79
994.787	2242.19
995.083	2200.83
995.379	2189.31
995.676	2154.51
995.972	2154.51
996.268	2150.89
996.565	2126.71
996.861	2145.47
997.157	2138.46
997.453	2129.65
997.749	2113.15
998.044	2106.6
998.34	2089.2
998.636	2100.04
998.932	2066.82
999.227	2045.13
999.523	2059.59
999.818	2019.37
1000.114	2016.2
1000.409	1984.34
1000.704	1989.76
1001	1994.74
1001.295	1973.72
1001.59	1928.52
1001.885	1971.69
1002.18	1977.11
1002.475	1947.96
1002.77	1948.18
1003.065	1937.11
1003.359	1916.09
1003.654	1922.2
1003.949	1872.48
1004.243	1891.91
1004.538	1863.89
1004.832	1846.72
1005.127	1855.08
1005.421	1843.33
1005.715	1838.13
1006.009	1834.51
1006.304	1806.27
1006.598	1800.84
1006.892	1820.05
1007.186	1779.37
1007.48	1758.58
1007.773	1768.53
1008.067	1767.62
1008.361	1724.01
1008.655	1710.68
1008.948	1688.76
1009.242	1712.71
1009.535	1706.61
1009.829	1712.94
1010.122	1687.17
1010.415	1695.53
1010.708	1632.94
1011.001	1666.16
1011.295	1672.48
1011.588	1637.46
1011.881	1615.76
1012.173	1617.34
1012.466	1591.36
1012.759	1604.69
1013.052	1620.73
1013.344	1583
1013.637	1565.14
1013.93	1545.71
1014.222	1559.04
1014.514	1565.37
1014.807	1571.92
1015.099	1502.09
1015.391	1500.06
1015.683	1501.19
1015.976	1486.27
1016.268	1501.42
1016.56	1455.77
1016.851	1463.45
1017.143	1427.97
1017.435	1446.28
1017.727	1399.05
1018.018	1421.19
1018.31	1414.64
1018.602	1405.82
1018.893	1395.43
1019.185	1391.14
1019.476	1354.53
1019.767	1361.76
1020.058	1365.83
1020.35	1355.2
1020.641	1345.71
1020.932	1355.88
1021.223	1337.13
1021.514	1318.6
1021.804	1315.21
1022.095	1286.28
1022.386	1298.71
1022.677	1299.61
1022.967	1279.5
1023.258	1263.23
1023.548	1286.73
1023.839	1267.98
1024.129	1245.6
1024.419	1245.38
1024.709	1234.98
1025	1243.12
1025.29	1222.33
1025.58	1199.28
1025.87	1195.89
1026.16	1177.36
1026.449	1189.79
1026.739	1190.01
1027.029	1186.85
1027.319	1159.96
1027.608	1168.54
1027.898	1141.88
1028.187	1130.58
1028.477	1119.05
1028.766	1102.1
1029.055	1124.48
1029.344	1127.87
1029.634	1098.26
1029.923	1067.53
1030.212	1092.39
1030.501	1074.53
1030.79	1081.99
1031.078	1058.26
1031.367	1072.95
1031.656	1059.17
1031.945	1058.26
1032.233	1061.2
1032.522	1060.75
1032.81	1025.72
1033.099	1026.63
1033.387	1031.15
1033.675	1018.49
1033.963	986.63
1034.251	1014.65
1034.54	1019.85
1034.828	982.56
1035.116	998.15
1035.403	952.73
1035.691	972.16
1035.979	984.82
1036.267	983.24
1036.554	973.07
1036.842	966.74
1037.129	929.45
1037.417	940.53
1037.704	925.16
1037.992	936.91
1038.279	939.4
1038.566	911.37
1038.853	911.37
1039.14	911.37
