Data from hue_50_FLMS001491_69.txt Node
Date: Mon Feb 06 15:10:46 GMT 2017
User: dcchb
Spectrometer: FLMS00149
Trigger mode: 0
Integration Time (sec): 2.000000E-2
Scans to average: 10
Electric dark correction enabled: true
Nonlinearity correction enabled: false
Boxcar width: 0
XAxis mode: Wavelengths
Number of Pixels in Spectrum: 2048
>>>>>Begin Spectral Data<<<<<
341.393	-12.68
341.776	-12.68
342.16	-12.68
342.543	-41.84
342.927	-73.25
343.31	-88.39
343.693	-54.26
344.077	-66.69
344.46	-66.92
344.843	-38.22
345.226	-58.33
345.61	-26.24
345.993	-9.75
346.376	-12.46
346.759	13.98
347.142	34.1
347.525	56.24
347.908	64.38
348.291	77.26
348.674	81.33
349.057	93.98
349.44	129.46
349.823	145.73
350.206	174.43
350.588	193.64
350.971	221.21
351.354	213.98
351.737	247.65
352.119	259.63
352.502	271.83
352.884	290.36
353.267	301.66
353.65	298.04
354.032	316.8
354.414	306.86
354.797	321.09
355.179	325.39
355.562	349.34
355.944	325.39
356.326	342.34
356.709	340.08
357.091	351.83
357.473	339.62
357.855	348.21
358.238	345.5
358.62	350.25
359.002	358.38
359.384	336.23
359.766	344.14
360.148	339.17
360.53	347.08
360.912	354.76
361.294	322.9
361.676	345.27
362.057	336.23
362.439	325.61
362.821	337.82
363.203	315.9
363.584	325.39
363.966	322.68
364.348	345.5
364.729	347.31
365.111	329.23
365.493	306.18
365.874	320.87
366.256	335.33
366.637	329.91
367.019	317.03
367.4	320.19
367.781	305.27
368.163	333.3
368.544	329.23
368.925	324.03
369.306	352.28
369.688	304.14
370.069	330.36
370.45	301.88
370.831	343.47
371.212	327.42
371.593	329.45
371.974	297.59
372.355	326.06
372.736	338.72
373.117	324.71
373.498	309.79
373.879	315.44
374.26	323.35
374.641	315.67
375.021	327.87
375.402	343.24
375.783	327.42
376.163	328.78
376.544	331.71
376.925	319.96
377.305	352.73
377.686	328.55
378.066	344.6
378.447	338.04
378.827	327.42
379.208	334.88
379.588	340.53
379.968	330.36
380.349	332.39
380.729	333.52
381.109	322.9
381.489	338.04
381.87	351.15
382.25	339.62
382.63	351.15
383.01	355.22
383.39	354.09
383.77	343.01
384.15	348.89
384.53	359.74
384.91	342.34
385.29	375.33
385.67	358.83
386.049	369.68
386.429	346.4
386.809	354.54
387.189	345.05
387.568	362.67
387.948	364.03
388.328	344.6
388.707	360.87
389.087	355.89
389.466	359.96
389.846	376.23
390.225	358.83
390.605	374.65
390.984	357.48
391.363	377.36
391.743	362.45
392.122	353.41
392.501	357.02
392.881	371.26
393.26	384.37
393.639	380.75
394.018	350.7
394.397	383.46
394.776	385.5
395.155	402.9
395.534	371.71
395.913	366.06
396.292	362.45
396.671	386.4
397.05	371.94
397.429	374.65
397.808	396.8
398.186	380.07
398.565	385.27
398.944	374.43
399.323	377.14
399.701	399.96
400.08	388.21
400.458	423.92
400.837	395.89
401.215	396.12
401.594	387.53
401.972	399.28
402.351	397.93
402.729	403.58
403.107	383.92
403.486	400.64
403.864	387.31
404.242	408.1
404.62	410.58
404.999	396.12
405.377	420.3
405.755	397.7
406.133	402.22
406.511	412.62
406.889	414.2
407.267	437.7
407.645	410.58
408.023	419.17
408.401	419.62
408.779	418.72
409.156	411.71
409.534	425.95
409.912	411.03
410.29	426.85
410.667	437.93
411.045	421.43
411.422	437.47
411.8	449.23
412.178	458.26
412.555	444.93
412.933	447.42
413.31	449.9
413.687	448.32
414.065	470.69
414.442	474.31
414.819	459.62
415.197	452.62
415.574	473.41
415.951	466.63
416.328	474.08
416.705	467.3
417.082	476.34
417.46	477.47
417.837	460.98
418.214	501.2
418.591	471.15
418.967	480.64
419.344	497.13
419.721	504.59
420.098	494.42
420.475	513.63
420.852	496
421.228	512.05
421.605	519.51
421.982	500.98
422.358	529.9
422.735	520.18
423.111	519.28
423.488	521.54
423.864	514.76
424.241	543.91
424.617	508.21
424.994	554.31
425.37	535.78
425.746	523.57
426.123	555.44
426.499	526.96
426.875	532.39
427.251	542.1
427.627	552.73
428.003	556.34
428.379	558.83
428.756	555.21
429.132	564.93
429.507	590.69
429.883	572.16
430.259	578.04
430.635	587.75
431.011	596.34
431.387	603.12
431.763	596.79
432.138	586.17
432.514	592.27
432.89	606.74
433.265	592.27
433.641	616
434.016	615.1
434.392	591.82
434.767	628.88
435.143	660.07
435.518	638.37
435.894	655.77
436.269	644.47
436.644	656.23
437.02	658.26
437.395	669.78
437.77	661.88
438.145	665.49
438.52	648.54
438.895	659.62
439.271	691.25
439.646	677.24
440.021	684.7
440.395	688.09
440.77	703.23
441.145	710.91
441.52	694.42
441.895	688.54
442.27	701.2
442.645	686.06
443.019	711.14
443.394	713.85
443.769	736.22
444.143	717.47
444.518	744.58
444.892	736
445.267	717.02
445.641	738.48
446.016	741.42
446.39	744.81
446.764	727.18
447.139	741.2
447.513	761.08
447.887	753.62
448.262	756.79
448.636	760.18
449.01	756.79
449.384	780.97
449.758	782.32
450.132	789.33
450.506	779.84
450.88	789.78
451.254	782.32
451.628	813.06
452.002	818.48
452.376	800.4
452.75	823.9
453.123	838.14
453.497	839.72
453.871	846.28
454.244	857.8
454.618	864.81
454.992	847.86
455.365	885.15
455.739	888.08
456.112	871.14
456.486	887.86
456.859	904.35
457.232	917.91
457.606	894.19
457.979	917.01
458.352	959.49
458.725	938.93
459.099	924.92
459.472	960.62
459.845	990.91
460.218	981.41
460.591	984.8
460.964	992.94
461.337	1028.42
461.71	1013.73
462.083	1051.47
462.456	1043.33
462.829	1067.29
463.201	1074.52
463.574	1074.07
463.947	1064.58
464.32	1133.28
464.692	1120.39
465.065	1123.56
465.438	1156.33
465.81	1185.93
466.183	1185.93
466.555	1201.3
466.928	1204.91
467.3	1223.67
467.672	1260.73
468.045	1263.67
468.417	1274.06
468.789	1300.5
469.161	1295.08
469.534	1336.89
469.906	1345.02
470.278	1393.16
470.65	1410.1
471.022	1425.7
471.394	1475.19
471.766	1505.92
472.138	1543.43
472.51	1577.78
472.882	1595.64
473.253	1643.09
473.625	1657.33
473.997	1712.92
474.369	1708.4
474.74	1760.15
475.112	1801.51
475.484	1836.08
475.855	1891.67
476.227	1964.21
476.598	2019.58
476.97	2055.51
477.341	2097.77
477.713	2127.37
478.084	2205.34
478.455	2264.32
478.827	2319.01
479.198	2402.85
479.569	2470.64
479.94	2533.24
480.311	2612.56
480.682	2695.49
481.053	2781.59
481.424	2908.14
481.795	2908.37
482.166	2991.31
482.537	3110.17
482.908	3215.48
483.279	3300.22
483.65	3376.38
484.021	3518.52
484.391	3580.89
484.762	3712.87
485.133	3755.58
485.503	3882.13
485.874	4024.95
486.244	4104.5
486.615	4257.26
486.985	4384.04
487.356	4525.5
487.726	4581.77
488.097	4734.76
488.467	4829.68
488.837	4977.69
489.207	5142.21
489.578	5269.44
489.948	5410.45
490.318	5521.63
490.688	5596.21
491.058	5843.21
491.428	5946.26
491.798	6050.43
492.168	6251.33
492.538	6364.1
492.908	6530.2
493.278	6696.07
493.648	6773.35
494.017	6934.25
494.387	7050.63
494.757	7229.16
495.126	7446.78
495.496	7524.52
495.866	7630.51
496.235	7849.26
496.605	7978.97
496.974	8088.35
497.344	8289.25
497.713	8364.05
498.082	8459.64
498.452	8672.96
498.821	8754.09
499.19	8915.67
499.559	9064.37
499.928	9205.15
500.298	9339.84
500.667	9459.84
501.036	9573.73
501.405	9709.55
501.774	9845.81
502.143	9993.83
502.512	10106.6
502.88	10268.85
503.249	10312.92
503.618	10418.91
503.987	10621.61
504.356	10724.89
504.724	10790.87
505.093	10840.36
505.462	11001.04
505.83	11206
506.199	11318.32
506.567	11489.39
506.936	11573
507.304	11731.19
507.672	11824.29
508.041	11904.29
508.409	12039.2
508.777	12086.89
509.145	12341.57
509.514	12373.88
509.882	12513.54
510.25	12582.01
510.618	12732.07
510.986	12848
511.354	12980.87
511.722	13097.03
512.09	13244.6
512.458	13314.65
512.826	13380.86
513.193	13518.26
513.561	13672.83
513.929	13754.86
514.297	13835.77
514.664	14032.82
515.032	14138.81
515.4	14179.26
515.767	14317.79
516.135	14480.95
516.502	14292.25
516.869	14673.94
517.237	14720.71
517.604	14779.47
517.972	14946.92
518.339	15010.2
518.706	15054.27
519.073	15280.47
519.44	15333.13
519.808	15489.06
520.175	15533.35
520.542	15791.87
520.909	15872.1
521.276	15927.46
521.643	16044.07
522.009	16086.55
522.376	16284.97
522.743	16417.39
523.11	16609.03
523.477	16747.1
523.843	16846.31
524.21	16962.24
524.577	17129.46
524.943	17259.63
525.31	17268.9
525.676	17475.22
526.043	17628.43
526.409	17620.07
526.776	17867.07
527.142	17947.07
527.508	18001.98
527.874	18227.74
528.241	18298.02
528.607	18390.45
528.973	18583.66
529.339	18568.98
529.705	18789.99
530.071	18908.63
530.437	18939.59
530.803	19142.07
531.169	19252.35
531.535	19130.54
531.901	19329.18
532.267	19460.93
532.632	19642.39
532.998	19553.58
533.364	19771.43
533.73	19707.48
534.095	19898.21
534.461	19988.6
534.826	20088.94
535.192	20236.73
535.557	20391.75
535.923	20360.57
536.288	20381.58
536.653	20591.29
537.019	20558.75
537.384	20658.64
537.749	20699.99
538.114	20793.55
538.479	20865.41
538.845	20896.15
539.21	20961
539.575	21047.33
539.94	21078.74
540.305	21275.12
540.67	21299.07
541.034	21405.74
541.399	21452.52
541.764	21523.93
542.129	21613.64
542.494	21672.4
542.858	21816.35
543.223	21813.18
543.587	21910.81
543.952	21971.82
544.316	22077.36
544.681	22094.98
545.045	22185.38
545.41	22295.88
545.774	22405.03
546.138	22484.58
546.503	22485.93
546.867	22445.03
547.231	22796.89
547.595	22702.88
547.959	22847.28
548.324	22756.44
548.688	22844.57
549.052	23023.77
549.416	23138.12
549.779	23220.38
550.143	23261.73
550.507	23448.17
550.871	23388.74
551.235	23453.14
551.599	23528.17
551.962	23646.36
552.326	23819.23
552.689	23890.19
553.053	23796.18
553.417	23962.96
553.78	24204.99
554.143	24075.27
554.507	24371.53
554.87	24234.59
555.234	24572.43
555.597	24437.75
555.96	24585.09
556.323	24702.37
556.686	24671.19
557.05	24899.88
557.413	25065.3
557.776	24969.03
558.139	25223.49
558.502	25240.44
558.865	25204.96
559.228	25454.44
559.59	25577.15
559.953	25422.13
560.316	25832.96
560.679	25869.57
561.041	25963.81
561.404	26002.45
561.767	26277.02
562.129	26088.55
562.492	26571.02
562.854	26499.39
563.217	26469.33
563.579	26639.05
563.941	26757.91
564.304	26906.16
564.666	27123.55
565.028	27147.05
565.39	27197.45
565.753	27314.96
566.115	27356.99
566.477	27491.9
566.839	27485.35
567.201	27682.41
567.563	27731.67
567.925	27856.64
568.287	27987.26
568.648	28153.36
569.01	28249.4
569.372	28475.16
569.734	28264.31
570.095	28453.01
570.457	28683.06
570.819	28726
571.18	28748.82
571.542	28840.12
571.903	28963.73
572.265	29115.36
572.626	29330.73
572.987	29322.14
573.349	29284.4
573.71	29480.1
574.071	29584.05
574.432	29703.37
574.794	29941.33
575.155	29901.11
575.516	29840.32
575.877	30110.59
576.238	30249.8
576.599	30329.12
576.96	30363.02
577.32	30452.73
577.681	30563.01
578.042	30768.65
578.403	30843.45
578.763	30819.27
579.124	31006.39
579.485	31237.79
579.845	31349.2
580.206	31304.91
580.566	31418.58
580.927	31553.94
581.287	31860.38
581.648	31791.45
582.008	31923.43
582.368	32057.89
582.728	32233.02
583.089	32262.85
583.449	32162.74
583.809	32460.36
584.169	32591.88
584.529	32669.62
584.889	33100.8
585.249	32930.18
585.609	32921.82
585.969	33197.06
586.329	33258.08
586.688	33427.79
587.048	33546.66
587.408	33551.41
587.768	33607.9
588.127	33833.43
588.487	33914.56
588.846	34227.32
589.206	34072.75
589.565	34206.08
589.925	34447.65
590.284	34482.23
590.643	34533.75
591.003	34643.13
591.362	35083.34
591.721	35096
592.08	35142.55
592.44	35394.52
592.799	35396.1
593.158	35460.51
593.517	35560.17
593.876	35782.99
594.235	35742.53
594.593	35891.23
594.952	36022.3
595.311	36072.24
595.67	36252.35
596.029	36693.47
596.387	36582.29
596.746	36574.6
597.104	36551.55
597.463	36756.07
597.822	36884.65
598.18	37036.29
598.538	37053.01
598.897	37215.94
599.255	37095.49
599.613	37618.42
599.972	37581.81
600.33	37673.78
600.688	37551.53
601.046	37772.31
601.404	38024.51
601.762	37945.64
602.12	38163.49
602.478	38310.6
602.836	38166.43
603.194	38308.79
603.552	38395.35
603.91	38253.88
604.268	38656.36
604.625	38664.72
604.983	38784.94
605.341	38793.75
605.698	39011.83
606.056	39119.17
606.413	39085.95
606.771	39238.71
607.128	39307.86
607.485	39184.03
607.843	39247.53
608.2	39604.13
608.557	39717.35
608.914	39524.58
609.272	39890.45
609.629	39862.88
609.986	40111.23
610.343	40124.11
610.7	40270.78
611.057	40372.02
611.414	40311
611.771	40371.57
612.127	40440.04
612.484	40529.98
612.841	40727.49
613.198	40627.6
613.554	40800.71
613.911	41046.35
614.267	41040.93
614.624	40940.36
614.98	41009.74
615.337	41325.89
615.693	41478.43
616.05	41344.2
616.406	41555.94
616.762	41442.95
617.118	41454.02
617.475	41607.92
617.831	41696.5
618.187	41729.04
618.543	41944.41
618.899	42024.18
619.255	41990.51
619.611	41926.55
619.967	42175.36
620.323	42318.63
620.678	42091.75
621.034	42092.42
621.39	42093.78
621.746	42107.57
622.101	42668.91
622.457	42294.9
622.812	42504.16
623.168	42483.15
623.523	42584.84
623.879	42550.27
624.234	42364.96
624.589	42734.89
624.945	42729.7
625.3	42749.58
625.655	42600.89
626.01	42762.46
626.365	42777.83
626.72	42797.49
627.075	42790.49
627.43	42666.19
627.785	42623.71
628.14	42854.44
628.495	42896.7
628.85	42668.45
629.205	42727.21
629.559	42890.6
629.914	42825.74
630.269	42822.35
630.623	42831.16
630.978	42631.62
631.332	42858.73
631.687	43104.38
632.041	42743.93
632.396	42817.38
632.75	42762.69
633.104	42866.64
633.459	42663.03
633.813	42618.29
634.167	42573.54
634.521	42714.78
634.875	42762.69
635.229	42619.42
635.583	42534.22
635.937	42443.38
636.291	42517.27
636.645	42605.41
636.999	42324.06
637.352	42562.24
637.706	42416.48
638.06	42694.22
638.413	42437.95
638.767	42374.22
639.121	42335.36
639.474	42193.44
639.828	42193.44
640.181	42230.5
640.534	42331.51
640.888	42249.93
641.241	41990.05
641.594	42081.35
641.947	42321.34
642.301	42028.92
642.654	42121.58
643.007	42064.18
643.36	42044.29
643.713	41980.11
644.066	42132.65
644.419	41919.55
644.771	41617.41
645.124	41285.89
645.477	41249.96
645.83	40963.41
646.182	40917.31
646.535	40801.38
646.888	40797.09
647.24	40559.36
647.593	40821.05
647.945	40746.92
648.298	40431.68
648.65	40524.56
649.002	40437.78
649.355	40582.63
649.707	40537.21
650.059	40732.01
650.411	41126.57
650.763	41200.7
651.115	41570.86
651.467	41488.6
651.819	41380.8
652.171	41294.71
652.523	41275.95
652.875	41323.4
653.227	41085.67
653.578	41320.92
653.93	41248.38
654.282	41069.4
654.633	41068.27
654.985	41048.38
655.337	41096.07
655.688	41138.78
656.039	41246.12
656.391	40826.47
656.742	40908.73
657.094	40974.26
657.445	41084.99
657.796	41029.85
658.147	40869.18
658.498	40947.6
658.849	40969.29
659.2	40896.52
659.551	40689.3
659.902	40918.22
660.253	40907.6
660.604	40985.11
660.955	40719.58
661.306	40875.06
661.656	40841.38
662.007	40729.75
662.358	40617.66
662.708	40769.3
663.059	40717.09
663.409	40462.64
663.76	40814.94
664.11	40744.89
664.461	40755.96
664.811	40748.5
665.161	40789.86
665.511	40721.61
665.862	40819.92
666.212	40800.25
666.562	40835.51
666.912	40731.33
667.262	40643.65
667.612	40766.81
667.962	40623.31
668.312	40586.25
668.662	40752.57
669.011	40421.06
669.361	40545.8
669.711	40496.76
670.06	40411.34
670.41	40443.88
670.76	40481.62
671.109	40684.55
671.459	40429.64
671.808	40428.06
672.157	40518.23
672.507	40275.52
672.856	40318.23
673.205	40313.94
673.554	40414.73
673.904	40246.15
674.253	40517.32
674.602	40288.18
674.951	39713.05
675.3	39531.14
675.649	40168.86
675.998	40096.09
676.346	40117.11
676.695	40286.6
677.044	39926.83
677.393	40125.92
677.741	40197.56
678.09	39951.24
678.438	39952.14
678.787	40013.16
679.135	40143.32
679.484	39683.67
679.832	39987.17
680.181	39834.86
680.529	39739.94
680.877	39689.32
681.225	39690.68
681.573	39763.22
681.922	39578.59
682.27	39474.19
682.618	39533.62
682.966	39422.21
683.314	39444.81
683.661	39374.08
684.009	39257.92
684.357	39143.58
684.705	39184.25
685.053	39124.14
685.4	39144.71
685.748	38932.73
686.095	38888.67
686.443	38708.11
686.79	38722.57
687.138	38751.95
687.485	38768.44
687.832	38666.3
688.18	38603.48
688.527	38448.68
688.874	38463.59
689.221	38306.99
689.568	38272.86
689.915	38206.42
690.262	38065.86
690.609	38091.17
690.956	37940.67
691.303	37960.1
691.65	37654.35
691.997	37694.57
692.344	37514.92
692.69	37462.49
693.037	37520.12
693.383	37234.92
693.73	37165.1
694.077	37083.29
694.423	37084.19
694.769	36839
695.116	36828.16
695.462	36875.16
695.808	36743.64
696.155	36683.08
696.501	36471.56
696.847	36480.37
697.193	36147.27
697.539	36396.75
697.885	36111.34
698.231	36121.51
698.577	36017.56
698.923	36021.17
699.269	35774.17
699.614	35663.44
699.96	35499.15
700.306	35533.73
700.651	35433.16
700.997	35326.27
701.342	35328.76
701.688	35232.27
702.033	35112.04
702.379	35110.24
702.724	35021.65
703.069	35011.71
703.415	34596.12
703.76	34745.27
704.105	34767.42
704.45	34571.04
704.795	34476.13
705.14	34401.55
705.485	34278.17
705.83	34273.87
706.175	34232.29
706.52	34148
706.865	34057.61
707.209	34002.02
707.554	33832.3
707.899	33862.13
708.243	33653.55
708.588	33702.36
708.932	33440.22
709.277	33562.71
709.621	33448.13
709.966	33255.37
710.31	33237.06
710.654	33056.73
710.998	33076.84
711.342	33164.98
711.687	33056.96
712.031	32843.18
712.375	32634.37
712.719	32708.94
713.063	32673.91
713.407	32720.69
713.75	32556.63
714.094	32645.44
714.438	32526.8
714.782	32641.6
715.125	32359.57
715.469	32260.14
715.812	32237.77
716.156	31954.61
716.499	32065.34
716.843	32135.62
717.186	31956.87
717.53	32042.07
717.873	31963.2
718.216	31867.61
718.559	31962.07
718.902	31572.7
719.246	31680.72
719.589	31663.77
719.932	31528.18
720.275	31473.04
720.617	31362.08
720.96	31274.63
721.303	31387.17
721.646	31280.96
721.989	31118.25
722.331	31215.42
722.674	31060.62
723.016	31126.38
723.359	30902.89
723.701	31089.32
724.044	30845.26
724.386	30701.99
724.729	30819.5
725.071	30687.75
725.413	30792.16
725.755	30721.65
726.097	30606.62
726.439	30368.44
726.782	30449.11
727.124	30593.07
727.465	30406.18
727.807	30280.08
728.149	30421.54
728.491	30156.01
728.833	30301.55
729.175	30160.76
729.516	29935
729.858	30123.93
730.199	30059.52
730.541	30123.47
730.882	29842.58
731.224	29921.67
731.565	29891.62
731.906	29860.66
732.248	29688.23
732.589	29548.35
732.93	29533.43
733.271	29585.86
733.612	29537.5
733.953	29631.06
734.294	29497.05
734.635	29276.49
734.976	29387
735.317	29243.95
735.658	29335.92
735.999	29283.95
736.339	29218.41
736.68	29378.63
737.021	29159.43
737.361	29125.08
737.702	29232.2
738.042	29125.99
738.383	28925.09
738.723	29064.07
739.063	28845.77
739.404	28872.88
739.744	28852.77
740.084	28751.08
740.424	28767.58
740.764	28693.23
741.104	28905.43
741.444	28711.53
741.784	28539.56
742.124	28490.3
742.464	28466.12
742.804	28438.09
743.143	28328.04
743.483	28399.23
743.823	28233.58
744.162	28219.57
744.502	28251.66
744.841	28121.49
745.181	28275.84
745.52	28184.09
745.86	28180.25
746.199	28001.5
746.538	28034.04
746.877	28019.35
747.216	27985
747.556	27896.87
747.895	27933.7
748.234	27841.05
748.573	27867.49
748.911	27830.65
749.25	27780.94
749.589	27651.9
749.928	27665.68
750.267	27639.25
750.605	27565.35
750.944	27626.36
751.283	27385.24
751.621	27493.03
751.96	27274.06
752.298	27322.19
752.636	27252.81
752.975	27081.52
753.313	27045.14
753.651	27176.66
753.989	26991.35
754.327	26917.68
754.666	26902.09
755.004	26798.59
755.342	26874.52
755.679	26814.86
756.017	26702.09
756.355	26692.15
756.693	26560.18
757.031	26713.85
757.368	26348.66
757.706	26464.13
758.044	26357.92
758.381	26315.66
758.719	26218.04
759.056	26121.77
759.394	26037.93
759.731	25912.28
760.068	25946.18
760.405	25719.52
760.743	25777.37
761.08	25900.99
761.417	25594.1
761.754	25667.09
762.091	25572.41
762.428	25384.84
762.765	25295.35
763.102	25351.62
763.438	25188.24
763.775	25074.79
764.112	25143.49
764.449	25064.17
764.785	25082.7
765.122	24785.08
765.458	24800.9
765.795	24771.75
766.131	24589.83
766.467	24524.75
766.804	24500.34
767.14	24306
767.476	24248.6
767.812	24133.35
768.148	24266.23
768.485	24050.86
768.821	23912.34
769.157	23862.85
769.492	23856.97
769.828	23889.97
770.164	23535.85
770.5	23575.62
770.836	23621.05
771.171	23409.98
771.507	23407.49
771.842	23275.52
772.178	23184.22
772.513	23162.75
772.849	23045.47
773.184	23060.16
773.519	22981.51
773.855	22913.72
774.19	22689.32
774.525	22603.22
774.86	22649.77
775.195	22601.41
775.53	22517.35
775.865	22401.42
776.2	22252.49
776.535	22096.34
776.87	22106.06
777.205	22081.43
777.539	21893.41
777.874	21957.13
778.209	21742.22
778.543	21749.23
778.878	21679.4
779.212	21471.72
779.547	21460.88
779.881	21437.83
780.215	21344.04
780.55	21320.77
780.884	21168.68
781.218	21185.63
781.552	21066.31
781.886	21074.22
782.22	20959.42
782.554	20928.46
782.888	20662.03
783.222	20603.5
783.556	20509.71
783.889	20558.3
784.223	20347.69
784.557	20259.1
784.89	20215.03
785.224	20152.89
785.557	20169.16
785.891	20020.69
786.224	20006.9
786.558	20039.44
786.891	19810.98
787.224	19726.23
787.557	19690.08
787.891	19646.01
788.224	19633.58
788.557	19573.92
788.89	19474.26
789.223	19395.17
789.556	19281.5
789.888	19302.52
790.221	19208.51
790.554	19069.07
790.887	19096.19
791.219	18947.95
791.552	18959.47
791.884	18779.36
792.217	18771.68
792.549	18751.12
792.882	18596.54
793.214	18487.17
793.546	18452.37
793.879	18416.21
794.211	18337.57
794.543	18424.35
794.875	18320.85
795.207	18329.89
795.539	18287.4
795.871	18201.53
796.203	18079.95
796.535	17866.85
796.867	17857.13
797.198	17834.08
797.53	17764.48
797.862	17708.88
798.193	17783.68
798.525	17682.44
798.856	17588.89
799.188	17422.79
799.519	17379.85
799.85	17325.17
800.182	17399.97
800.513	17279.74
800.844	17133.53
801.175	17169.69
801.506	17226.64
801.837	17172.4
802.168	17110.48
802.499	16988
802.83	16867.78
803.161	16891.73
803.491	16895.35
803.822	16840.88
804.153	16710.49
804.483	16640.89
804.814	16565.64
805.145	16562.7
805.475	16537.16
805.805	16533.1
806.136	16460.78
806.466	16379.43
806.796	16403.38
807.126	16325.19
807.457	16254.69
807.787	16191.41
808.117	16227.79
808.447	16101.47
808.777	16082.49
809.107	15927.24
809.436	16072.77
809.766	16039.78
810.096	15894.24
810.426	15836.39
810.755	15818.31
811.085	15805.43
811.414	15791.19
811.744	15658.77
812.073	15629.84
812.403	15608.6
812.732	15518.89
813.061	15535.38
813.39	15406.8
813.719	15477.53
814.049	15444.54
814.378	15427.36
814.707	15317.99
815.036	15301.72
815.365	15208.84
815.693	15051.33
816.022	15140.36
816.351	15024.21
816.68	14870.77
817.008	14967.94
817.337	14908.96
817.665	14834.38
817.994	14811.79
818.322	14894.27
818.651	14780.15
818.979	14756.65
819.307	14797.55
819.636	14733.14
819.964	14718.45
820.292	14594.39
820.62	14677.78
820.948	14633.49
821.276	14634.16
821.604	14626.71
821.932	14690.66
822.259	14614.28
822.587	14625.35
822.915	14547.39
823.243	14627.38
823.57	14527.27
823.898	14551.23
824.225	14405.69
824.553	14533.37
824.88	14516.88
825.207	14536.76
825.535	14560.27
825.862	14591.68
826.189	14511.68
826.516	14550.55
826.843	14547.84
827.17	14579.25
827.497	14597.78
827.824	14517.33
828.151	14541.06
828.478	14566.37
828.805	14587.61
829.131	14490.66
829.458	14503.09
829.785	14336.32
830.111	14483.21
830.438	14534.28
830.764	14420.84
831.09	14522.75
831.417	14338.35
831.743	14504.22
832.069	14449.31
832.395	14330.44
832.722	14348.75
833.048	14360.05
833.374	14321.63
833.7	14323.44
834.026	14275.3
834.351	14385.81
834.677	14341.52
835.003	14287.28
835.329	14256.55
835.654	14302.65
835.98	14160.73
836.306	14264.68
836.631	14142.42
836.956	14247.28
837.282	14263.33
837.607	14059.72
837.932	14097.68
838.258	14107.4
838.583	14094.29
838.908	14015.65
839.233	14060.39
839.558	13990.79
839.883	13977.46
840.208	13975.42
840.533	13924.8
840.858	13986.95
841.182	13861.08
841.507	13839.61
841.832	13854.07
842.156	13757.12
842.481	13731.59
842.805	13776.33
843.13	13670.57
843.454	13716.22
843.778	13621.08
844.103	13656.79
844.427	13576.11
844.751	13550.8
845.075	13525.94
845.399	13489.33
845.723	13376.12
846.047	13391.48
846.371	13301.77
846.695	13333.41
847.019	13264.93
847.343	13122.34
847.666	13041.44
847.99	12973.19
848.313	13024.71
848.637	12897.03
848.96	12915.79
849.284	12835.79
849.607	12766.19
849.931	12722.35
850.254	12691.84
850.577	12507.67
850.9	12497.5
851.223	12497.95
851.546	12438.06
851.869	12244.85
852.192	12385.41
852.515	12308.8
852.838	12281.46
853.161	12305.86
853.483	12168.69
853.806	12186.09
854.129	12131.63
854.451	12189.03
854.774	12064.29
855.096	11930.73
855.419	12010.05
855.741	11897.74
856.063	11853.67
856.385	11823.84
856.708	11737.29
857.03	11734.35
857.352	11709.72
857.674	11759.21
857.996	11630.63
858.318	11630.85
858.64	11534.13
858.961	11547.24
859.283	11506.11
859.605	11466.79
859.926	11502.95
860.248	11464.98
860.57	11414.81
860.891	11416.62
861.212	11309.28
861.534	11333.46
861.855	11291.65
862.176	11318.32
862.498	11234.48
862.819	11292.1
863.14	11209.85
863.461	11208.72
863.782	11105.22
864.103	11126.46
864.424	11105.89
864.745	11159.23
865.065	11012.79
865.386	10946.35
865.707	11015.73
866.027	11042.17
866.348	10967.37
866.668	10967.82
866.989	10923.07
867.309	10847.14
867.63	10940.25
867.95	10865.67
868.27	10775.96
868.59	10821.38
868.91	10837.88
869.23	10810.08
869.55	10843.53
869.87	10783.42
870.19	10769.41
870.51	10808.73
870.83	10777.77
871.15	10735.73
871.469	10665.68
871.789	10703.19
872.109	10674.27
872.428	10546.14
872.748	10602.86
873.067	10561.05
873.386	10535.97
873.706	10562.86
874.025	10531.45
874.344	10535.74
874.663	10555.63
874.982	10461.17
875.301	10478.11
875.62	10474.72
875.939	10404.44
876.258	10387.27
876.577	10381.62
876.896	10422.07
877.214	10456.65
877.533	10288.06
877.852	10328.51
878.17	10354.28
878.489	10342.07
878.807	10304.79
879.125	10341.85
879.444	10284.67
879.762	10193.6
880.08	10267.95
880.398	10190.21
880.716	10224.56
881.034	10168.07
881.352	10195.18
881.67	10130.33
881.988	10106.15
882.306	10131.91
882.624	10087.39
882.941	10046.94
883.259	9983.44
883.577	9976.66
883.894	9943.21
884.212	9995.87
884.529	9895.3
884.846	9879.03
885.164	9858.47
885.481	9853.5
885.798	9847.17
886.115	9756.78
886.432	9817.57
886.75	9717.68
887.067	9717.91
887.383	9685.59
887.7	9670.9
888.017	9648.08
888.334	9639.94
888.651	9684.01
888.967	9559.49
889.284	9573.05
889.6	9473.62
889.917	9418.93
890.233	9492.38
890.55	9402.66
890.866	9409.22
891.182	9410.12
891.498	9318.14
891.815	9272.95
892.131	9256.23
892.447	9275.89
892.763	9295.77
893.079	9199.28
893.395	9208.09
893.71	9170.58
894.026	9148.21
894.342	9083.57
894.657	9028.21
894.973	9069.79
895.289	9050.58
895.604	9044.71
895.92	8961.54
896.235	8938.49
896.55	8921.55
896.865	8863.47
897.181	8818.95
897.496	8846.29
897.811	8783.7
898.126	8767.65
898.441	8783.02
898.756	8750.7
899.071	8662.57
899.386	8656.69
899.7	8611.95
900.015	8510.03
900.33	8559.75
900.644	8463.93
900.959	8508.67
901.273	8475.46
901.588	8410.6
901.902	8357.94
902.216	8345.06
902.531	8366.08
902.845	8326.76
903.159	8322.46
903.473	8188.01
903.787	8196.37
904.101	8194.33
904.415	8159.53
904.729	8112.07
905.042	8067.78
905.356	8029.14
905.67	8006.99
905.984	8010.38
906.297	7964.73
906.611	7973.1
906.924	7910.95
907.237	7895.58
907.551	7873.89
907.864	7854.68
908.177	7844.96
908.491	7772.42
908.804	7641.13
909.117	7626.66
909.43	7608.59
909.743	7575.82
910.056	7618.75
910.368	7591.18
910.681	7538.08
910.994	7491.98
911.307	7526.1
911.619	7399.78
911.932	7426.67
912.244	7363.17
912.557	7357.29
912.869	7316.39
913.181	7273.68
913.494	7290.63
913.806	7242.72
914.118	7261.7
914.43	7190.07
914.742	7158.43
915.054	7141.93
915.366	7091.08
915.678	7044.98
915.99	7012.22
916.302	6970.41
916.613	6998.43
916.925	6922.05
917.236	6941.94
917.548	6908.04
917.859	6879.11
918.171	6882.05
918.482	6811.09
918.794	6801.83
919.105	6782.39
919.416	6674.15
919.727	6695.84
920.038	6657.42
920.349	6632.79
920.66	6568.39
920.971	6546.47
921.282	6535.17
921.593	6509.86
921.903	6478.9
922.214	6489.29
922.525	6397.54
922.835	6399.35
923.146	6401.61
923.456	6389.86
923.767	6383.76
924.077	6325.68
924.387	6325.23
924.697	6212.69
925.008	6248.62
925.318	6238.68
925.628	6210.43
925.938	6168.17
926.248	6134.05
926.558	6112.58
926.867	6061.06
927.177	6084.56
927.487	6004.79
927.796	5990.1
928.106	5988.97
928.416	5938.12
928.725	5903.77
929.034	5928.63
929.344	5892.02
929.653	5863.32
929.962	5797.79
930.271	5795.53
930.581	5826.94
930.89	5732.7
931.199	5672.14
931.508	5717.56
931.817	5680.05
932.125	5638.92
932.434	5630.56
932.743	5599.82
933.051	5579.71
933.36	5597.34
933.669	5496.78
933.977	5493.39
934.286	5498.36
934.594	5460.17
934.902	5397.12
935.21	5387.17
935.519	5425.82
935.827	5356.89
936.135	5373.39
936.443	5284.58
936.751	5333.84
937.059	5275.09
937.367	5238.93
937.674	5242.77
937.982	5209.78
938.29	5221.08
938.597	5155.77
938.905	5091.14
939.213	5119.61
939.52	5013.85
939.827	5087.75
940.135	5025.6
940.442	5046.17
940.749	4993.29
941.056	5036.68
941.363	4958.03
941.67	4936.34
941.977	4909.22
942.284	4845.95
942.591	4904.25
942.898	4812.73
943.205	4866.51
943.511	4810.69
943.818	4795.55
944.125	4773.18
944.431	4808.66
944.738	4747.19
945.044	4706.51
945.35	4679.4
945.657	4670.81
945.963	4706.51
946.269	4666.52
946.575	4639.17
946.881	4610.92
947.187	4561.89
947.493	4535.9
947.799	4543.81
948.105	4521.89
948.41	4514.2
948.716	4494.77
949.022	4464.49
949.327	4492.06
949.633	4410.48
949.938	4435.34
950.244	4402.57
950.549	4343.36
950.854	4317.37
951.16	4321.89
951.465	4290.93
951.77	4291.61
952.075	4266.53
952.38	4218.62
952.685	4211.84
952.99	4225.62
953.294	4243.02
953.599	4170.94
953.904	4160.99
954.209	4123.03
954.513	4141.56
954.818	4098.62
955.122	4032.41
955.426	4109.02
955.731	4037.83
956.035	4037.38
956.339	4008.23
956.643	4003.26
956.948	3964.16
957.252	3935.46
957.556	3944.27
957.86	3934.56
958.163	3917.61
958.467	3881.45
958.771	3873.99
959.075	3866.99
959.378	3824.73
959.682	3825.18
959.985	3838.97
960.289	3782.25
960.592	3766.2
960.896	3723.49
961.199	3747.22
961.502	3745.41
961.805	3698.63
962.108	3698.86
962.411	3653.89
962.714	3659.54
963.017	3641.91
963.32	3655.69
963.623	3597.17
963.926	3585.87
964.228	3556.26
964.531	3561.23
964.833	3543.16
965.136	3546.55
965.438	3510.39
965.741	3490.95
966.043	3471.74
966.345	3502.7
966.648	3435.36
966.95	3467.45
967.252	3422.93
967.554	3434.68
967.856	3398.07
968.158	3407.79
968.46	3362.6
968.761	3341.35
969.063	3336.16
969.365	3362.82
969.666	3338.64
969.968	3300.68
970.269	3265.87
970.571	3299.77
970.872	3299.77
971.174	3243.05
971.475	3268.36
971.776	3239.89
972.077	3215.48
972.378	3202.83
972.679	3194.69
972.98	3177.29
973.281	3135.71
973.582	3153.56
973.883	3151.3
974.183	3140
974.484	3101.59
974.785	3101.13
975.085	3092.09
975.386	3084.41
975.686	3075.82
975.986	3039.21
976.287	3008.25
976.587	3025.2
976.887	2989.05
977.187	2937.75
977.487	2983.85
977.787	2974.58
978.087	2929.84
978.387	2917.18
978.687	2924.19
978.987	2910.18
979.286	2864.53
979.586	2864.3
979.885	2850.29
980.185	2805.32
980.484	2859.78
980.784	2838.99
981.083	2831.08
981.382	2776.4
981.682	2774.59
981.981	2756.06
982.28	2769.16
982.579	2759.67
982.878	2744.08
983.177	2708.6
983.475	2751.54
983.774	2663.4
984.073	2648.72
984.372	2681.94
984.67	2708.38
984.969	2632.44
985.267	2636.51
985.566	2600.36
985.864	2584.08
986.162	2641.03
986.461	2598.1
986.759	2587.02
987.057	2549.51
987.355	2538.21
987.653	2529.62
987.951	2522.17
988.249	2509.06
988.547	2502.96
988.844	2514.71
989.142	2469.51
989.44	2485.56
989.737	2430.19
990.035	2417.99
990.332	2453.47
990.63	2448.95
990.927	2396.29
991.224	2417.76
991.521	2386.8
991.819	2401.04
992.116	2384.99
992.413	2349.74
992.71	2332.57
993.006	2333.92
993.303	2369.4
993.6	2333.7
993.897	2301.61
994.193	2286.47
994.49	2305.67
994.787	2305.67
995.083	2261.16
995.379	2278.1
995.676	2227.03
995.972	2217.54
996.268	2191.55
996.565	2233.13
996.861	2195.17
997.157	2199.91
997.453	2175.73
997.749	2190.2
998.044	2138.9
998.34	2141.16
998.636	2128.96
998.932	2170.76
999.227	2144.77
999.523	2099.35
999.818	2093.7
1000.114	2044.89
1000.409	2076.53
1000.704	2072.46
1001	2054.16
1001.295	2027.94
1001.59	2036.53
1001.885	2008.96
1002.18	1999.92
1002.475	2018.68
1002.77	1996.53
1003.065	1990.2
1003.359	1982.52
1003.654	1999.69
1003.949	1949.75
1004.243	1939.81
1004.538	1905.46
1004.832	1921.96
1005.127	1900.71
1005.421	1907.94
1005.715	1890.09
1006.009	1883.09
1006.304	1866.82
1006.598	1837.21
1006.892	1847.83
1007.186	1815.52
1007.48	1803.54
1007.773	1806.7
1008.067	1795.4
1008.361	1749.98
1008.655	1753.6
1008.948	1749.76
1009.242	1759.25
1009.535	1762.41
1009.829	1758.12
1010.122	1731.9
1010.415	1726.71
1010.708	1696.88
1011.001	1692.36
1011.295	1707.72
1011.588	1661.62
1011.881	1659.36
1012.173	1654.39
1012.466	1660.04
1012.759	1645.58
1013.052	1652.81
1013.344	1631.57
1013.637	1639.02
1013.93	1615.52
1014.222	1598.12
1014.514	1588.4
1014.807	1576.2
1015.099	1559.93
1015.391	1557.44
1015.683	1584.79
1015.976	1563.09
1016.268	1539.14
1016.56	1551.34
1016.851	1509.54
1017.143	1496.66
1017.435	1531.46
1017.727	1501.85
1018.018	1458.92
1018.31	1493.27
1018.602	1459.37
1018.893	1449.2
1019.185	1451.46
1019.476	1446.49
1019.767	1425.47
1020.058	1409.43
1020.35	1413.95
1020.641	1429.54
1020.932	1382.99
1021.223	1373.95
1021.514	1367.85
1021.804	1381.4
1022.095	1331.46
1022.386	1323.78
1022.677	1335.76
1022.967	1294.4
1023.258	1300.05
1023.548	1326.04
1023.839	1307.06
1024.129	1309.32
1024.419	1289.66
1024.709	1288.75
1025	1268.19
1025.29	1268.86
1025.58	1251.69
1025.87	1244.46
1026.16	1233.61
1026.449	1247.85
1026.739	1212.6
1027.029	1209.88
1027.319	1192.03
1027.608	1209.21
1027.898	1191.58
1028.187	1158.59
1028.477	1180.05
1028.766	1177.57
1029.055	1149.77
1029.344	1133.5
1029.634	1149.09
1029.923	1149.09
1030.212	1141.18
1030.501	1132.37
1030.79	1090.79
1031.078	1107.97
1031.367	1099.15
1031.656	1081.53
1031.945	1090.56
1032.233	1094.41
1032.522	1074.29
1032.81	1077.23
1033.099	1059.15
1033.387	1067.74
1033.675	1046.95
1033.963	1037.01
1034.251	1040.17
1034.54	1031.36
1034.828	1001.75
1035.116	1011.92
1035.403	1008.98
1035.691	1033.62
1035.979	991.58
1036.267	994.07
1036.554	984.35
1036.842	956.33
1037.129	995.65
1037.417	964.24
1037.704	945.71
1037.992	944.35
1038.279	928.53
1038.566	944.35
1038.853	944.35
1039.14	944.35
