Data from hue_20_FLMS001491_64.txt Node
Date: Mon Feb 06 15:34:27 GMT 2017
User: dcchb
Spectrometer: FLMS00149
Trigger mode: 0
Integration Time (sec): 2.000000E-2
Scans to average: 10
Electric dark correction enabled: true
Nonlinearity correction enabled: false
Boxcar width: 0
XAxis mode: Wavelengths
Number of Pixels in Spectrum: 2048
>>>>>Begin Spectral Data<<<<<
341.393	-19.99
341.776	-19.99
342.16	-19.99
342.543	-57.5
342.927	-57.5
343.31	-68.12
343.693	-78.74
344.077	-66.76
344.46	-64.5
344.843	-45.07
345.226	-31.74
345.61	-26.31
345.993	-17.95
346.376	-6.2
346.759	-8.23
347.142	24.99
347.525	54.14
347.908	74.25
348.291	64.76
348.674	95.27
349.057	100.24
349.44	136.17
349.823	121.48
350.206	142.72
350.588	194.92
350.971	201.48
351.354	212.1
351.737	236.96
352.119	249.39
352.502	243.74
352.884	267.46
353.267	261.36
353.65	287.13
354.032	298.88
354.414	290.97
354.797	311.98
355.179	308.59
355.562	320.34
355.944	339.1
356.326	343.62
356.709	344.75
357.091	318.08
357.473	321.02
357.855	313.57
358.238	337.97
358.62	329.84
359.002	326.22
359.384	346.56
359.766	351.3
360.148	342.49
360.53	314.47
360.912	337.97
361.294	336.39
361.676	330.97
362.057	333
362.439	323.28
362.821	308.82
363.203	331.64
363.584	316.5
363.966	337.07
364.348	331.19
364.729	325.54
365.111	311.31
365.493	342.72
365.874	307.24
366.256	304.53
366.637	309.05
367.019	305.66
367.4	330.29
367.781	303.62
368.163	302.49
368.544	310.85
368.925	285.54
369.306	316.05
369.688	297.52
370.069	299.33
370.45	330.74
370.831	321.7
371.212	320.8
371.593	323.51
371.974	289.16
372.355	288.93
372.736	317.18
373.117	319.44
373.498	330.74
373.879	309.72
374.26	309.72
374.641	320.8
375.021	322.83
375.402	302.04
375.783	307.69
376.163	303.17
376.544	320.8
376.925	301.81
377.305	309.05
377.686	300.91
378.066	319.21
378.447	321.02
378.827	309.72
379.208	337.29
379.588	320.57
379.968	332.1
380.349	322.15
380.729	321.02
381.109	322.6
381.489	337.52
381.87	334.58
382.25	335.49
382.63	319.67
383.01	315.37
383.39	332.55
383.77	351.53
384.15	333.9
384.53	364.41
384.91	349.5
385.29	324.86
385.67	344.75
386.049	343.39
386.429	369.38
386.809	343.17
387.189	345.88
387.568	347.01
387.948	340.23
388.328	356.28
388.707	334.13
389.087	341.59
389.466	372.77
389.846	351.98
390.225	346.56
390.605	354.47
390.984	350.4
391.363	382.49
391.743	378.87
392.122	356.73
392.501	362.38
392.881	326.45
393.26	364.86
393.639	361.93
394.018	351.3
394.397	371.64
394.776	360.8
395.155	370.29
395.534	375.26
395.913	364.41
396.292	379.33
396.671	377.29
397.05	368.93
397.429	385.88
397.808	400.12
398.186	366.67
398.565	380
398.944	364.41
399.323	379.33
399.701	399.66
400.08	411.64
400.458	384.98
400.837	383.39
401.215	382.72
401.594	395.82
401.972	374.13
402.351	380
402.729	406.22
403.107	398.76
403.486	409.38
403.864	403.51
404.242	409.83
404.62	410.29
404.999	397.4
405.377	393.56
405.755	388.37
406.133	408.25
406.511	403.51
406.889	422.04
407.267	416.61
407.645	422.04
408.023	423.17
408.401	411.42
408.779	423.17
409.156	415.26
409.534	406.22
409.912	425.65
410.29	434.47
410.667	447.8
411.045	441.92
411.422	442.15
411.8	451.41
412.178	445.54
412.555	443.51
412.933	428.82
413.31	460.68
413.687	465.88
414.065	452.54
414.442	455.48
414.819	464.07
415.197	469.72
415.574	460.68
415.951	470.4
416.328	447.57
416.705	457.97
417.082	494.13
417.46	493.22
417.837	475.14
418.214	474.24
418.591	480.57
418.967	483.96
419.344	488.02
419.721	488.48
420.098	481.7
420.475	476.27
420.852	488.02
421.228	489.83
421.605	498.19
421.982	499.1
422.358	499.1
422.735	517.18
423.111	501.58
423.488	524.18
423.864	499.55
424.241	523.28
424.617	514.69
424.994	521.92
425.37	544.29
425.746	520.57
426.123	541.81
426.499	540
426.875	545.88
427.251	541.58
427.627	570.51
428.003	552.43
428.379	559.43
428.756	572.99
429.132	545.88
429.507	565.31
429.883	568.25
430.259	579.09
430.635	575.93
431.011	579.77
431.387	586.33
431.763	594.01
432.138	584.29
432.514	611.86
432.89	604.18
433.265	598.98
433.641	622.94
434.016	604.18
434.392	612.77
434.767	640.11
435.143	619.09
435.518	632.43
435.894	641.92
436.269	646.44
436.644	653.67
437.02	675.82
437.395	658.19
437.77	649.38
438.145	686.21
438.52	656.38
438.895	688.47
439.271	674.01
439.646	697.28
440.021	686.44
440.395	697.74
440.77	695.7
441.145	695.25
441.52	718.75
441.895	700.22
442.27	726.66
442.645	690.28
443.019	708.58
443.394	712.65
443.769	721.92
444.143	733.44
444.518	727.79
444.892	746.1
445.267	725.76
445.641	735.7
446.016	769.82
446.39	730.28
446.764	748.36
447.139	737.28
447.513	740.67
447.887	780.22
448.262	768.92
448.636	778.86
449.01	772.08
449.384	780.67
449.758	791.52
450.132	781.8
450.506	803.27
450.88	799.88
451.254	790.16
451.628	788.58
452.002	798.98
452.376	822.48
452.75	835.81
453.123	824.06
453.497	833.78
453.871	850.73
454.244	855.7
454.618	878.97
454.992	846.88
455.365	852.31
455.739	876.71
456.112	869.26
456.486	906.54
456.859	906.32
457.232	914.23
457.606	916.04
457.979	919.65
458.352	951.06
458.725	951.29
459.099	967.33
459.472	973.66
459.845	956.94
460.218	1004.17
460.591	992.64
460.964	1001.68
461.337	1017.95
461.71	1028.12
462.083	1063.83
462.456	1021.8
462.829	1025.86
463.201	1045.98
463.574	1045.98
463.947	1079.65
464.32	1068.12
464.692	1103.15
465.065	1109.25
465.438	1113.32
465.81	1119.87
466.183	1128.69
466.555	1142.7
466.928	1194.45
467.3	1176.59
467.672	1186.76
468.045	1194.22
468.417	1213.2
468.789	1225.18
469.161	1245.07
469.534	1252.52
469.906	1279.19
470.278	1303.14
470.65	1286.87
471.022	1323.26
471.394	1336.59
471.766	1352.41
472.138	1362.13
472.51	1375.68
472.882	1413.42
473.253	1428.79
473.625	1454.33
473.997	1454.78
474.369	1485.51
474.74	1475.57
475.112	1506.75
475.484	1540.2
475.855	1601.89
476.227	1611.84
476.598	1651.38
476.97	1650.93
477.341	1664.72
477.713	1711.95
478.084	1714.43
478.455	1807.99
478.827	1789.23
479.198	1824.71
479.569	1872.85
479.94	1900.87
480.311	1918.49
480.682	1976.12
481.053	2003.46
481.424	2038.04
481.795	2072.61
482.166	2102.22
482.537	2164.14
482.908	2160.3
483.279	2215.44
483.65	2247.07
484.021	2313.74
484.391	2352.16
484.762	2348.77
485.133	2382.89
485.503	2397.13
485.874	2463.57
486.244	2510.8
486.615	2524.58
486.985	2567.97
487.356	2657.01
487.726	2636.89
488.097	2713.95
488.467	2755.76
488.837	2795.08
489.207	2831.01
489.578	2842.54
489.948	2868.3
490.318	2930.67
490.688	2991.01
491.058	2999.6
491.428	3063.1
491.798	3096.54
492.168	3162.53
492.538	3192.36
492.908	3203.43
493.278	3278.46
493.648	3278.23
494.017	3327.72
494.387	3306.03
494.757	3335.86
495.126	3398.68
495.496	3437.78
495.866	3460.38
496.235	3511.67
496.605	3553.93
496.974	3566.36
497.344	3615.17
497.713	3629.18
498.082	3649.07
498.452	3708.96
498.821	3752.34
499.19	3691.33
499.559	3793.25
499.928	3807.48
500.298	3786.69
500.667	3870.99
501.036	3876.64
501.405	3880.7
501.774	3927.03
502.143	3928.39
502.512	3969.97
502.88	3984.66
503.249	4015.16
503.618	4033.02
503.987	4070.98
504.356	4069.85
504.724	4090.19
505.093	4128.83
505.462	4153.01
505.83	4123.86
506.199	4180.58
506.567	4285.21
506.936	4218.77
507.304	4303.74
507.672	4279.79
508.041	4289.51
508.409	4294.93
508.777	4386.23
509.145	4378.09
509.514	4392.1
509.882	4407.92
510.25	4475.49
510.618	4470.97
510.986	4458.31
511.354	4524.53
511.722	4558.65
512.09	4531.31
512.458	4579.22
512.826	4602.04
513.193	4625.77
513.561	4584.64
513.929	4663.96
514.297	4687.01
514.664	4735.37
515.032	4746.44
515.4	4772.88
515.767	4788.48
516.135	4766.1
516.502	4779.21
516.869	4847.91
517.237	4868.93
517.604	4828.7
517.972	4859.43
518.339	4914.35
518.706	4892.2
519.073	4897.17
519.44	4916.16
519.808	4990.96
520.175	4994.8
520.542	5044.74
520.909	5046.55
521.276	4977.85
521.643	5059.2
522.009	5161.35
522.376	5148.47
522.743	5209.48
523.11	5242.48
523.477	5260.78
523.843	5235.24
524.21	5346.43
524.577	5332.19
524.943	5350.95
525.31	5379.87
525.676	5421
526.043	5495.58
526.409	5488.8
526.776	5497.38
527.142	5532.19
527.508	5523.37
527.874	5619.87
528.241	5608.79
528.607	5674.1
528.973	5701.45
529.339	5697.6
529.705	5779.64
530.071	5804.04
530.437	5760.43
530.803	5823.7
531.169	5884.72
531.535	5859.41
531.901	5936.02
532.267	5956.35
532.632	5940.99
532.998	5992.96
533.364	5999.29
533.73	6032.06
534.095	6036.8
534.461	6121.77
534.826	6139.4
535.192	6125.84
535.557	6183.02
535.923	6200.42
536.288	6236.8
536.653	6257.14
537.019	6254.88
537.384	6287.87
537.749	6287.87
538.114	6273.18
538.479	6332.39
538.845	6372.84
539.21	6364.71
539.575	6389.79
539.94	6406.74
540.305	6489.9
540.67	6491.26
541.034	6535.77
541.399	6560.63
541.764	6583.91
542.129	6584.13
542.494	6629.33
542.858	6623.23
543.223	6625.26
543.587	6771.02
543.952	6684.92
544.316	6701.42
544.681	6713.85
545.045	6769.21
545.41	6843.56
545.774	6834.52
546.138	6886.73
546.503	6866.84
546.867	6907.74
547.231	6959.04
547.595	6948.42
547.959	6994.52
548.324	6970.57
548.688	7078.36
549.052	7004.69
549.416	7037.68
549.779	7094.86
550.143	7114.29
550.507	7129.21
550.871	7172.59
551.235	7211.01
551.599	7289.88
551.962	7248.3
552.326	7280.84
552.689	7368.52
553.053	7261.86
553.417	7345.47
553.78	7396.32
554.143	7330.78
554.507	7441.29
554.87	7422.98
555.234	7487.16
555.597	7460.27
555.96	7533.71
556.323	7557.44
556.686	7513.6
557.05	7684.44
557.413	7589.08
557.776	7612.13
558.139	7686.7
558.502	7636.99
558.865	7708.17
559.228	7803.09
559.59	7808.28
559.953	7726.48
560.316	7845.34
560.679	7897.09
561.041	7881.73
561.404	7955.4
561.767	8009.41
562.129	7887.83
562.492	8110.42
562.854	8048.96
563.217	8046.24
563.579	8084.66
563.941	8140.25
564.304	8188.39
564.666	8197.2
565.028	8252.11
565.39	8249.63
565.753	8245.11
566.115	8291.21
566.477	8392
566.839	8422.05
567.201	8451.43
567.563	8400.13
567.925	8452.79
568.287	8472.22
568.648	8551.31
569.01	8526.46
569.372	8582.5
569.734	8665.66
570.095	8669.28
570.457	8695.27
570.819	8709.95
571.18	8733.46
571.542	8833.12
571.903	8889.61
572.265	8903.4
572.626	8880.57
572.987	8940.46
573.349	8960.34
573.71	9042.83
574.071	9053.9
574.432	9081.7
574.794	9219.32
575.155	9209.83
575.516	9256.61
575.877	9280.11
576.238	9352.88
576.599	9398.3
576.96	9504.74
577.32	9591.06
577.681	9588.35
578.042	9699.08
578.403	9729.59
578.763	9828.34
579.124	9878.96
579.485	10000.09
579.845	10092.97
580.206	10189.92
580.566	10272.63
580.927	10288.22
581.287	10433.98
581.648	10453.41
582.008	10665.38
582.368	10713.97
582.728	10949.9
583.089	11054.98
583.449	11173.84
583.809	11303.33
584.169	11505.36
584.529	11591.23
584.889	11863.09
585.249	11929.53
585.609	12012.92
585.969	12283.42
586.329	12440.48
586.688	12643.18
587.048	12878.66
587.408	13009.5
587.768	13133.79
588.127	13397.97
588.487	13590.96
588.846	13928.57
589.206	14004.96
589.565	14241.79
589.925	14524.94
590.284	14765.39
590.643	14916.35
591.003	15219.84
591.362	15534.18
591.721	15653.27
592.08	15929.2
592.44	16182.75
592.799	16435.4
593.158	16719.24
593.517	17005.56
593.876	17264.53
594.235	17441.48
594.593	17742.03
594.952	18122.36
595.311	18394.45
595.67	18606.64
596.029	18980.64
596.387	19291.82
596.746	19560.74
597.104	19824.92
597.463	20075.76
597.822	20362.08
598.18	20522.07
598.538	20815.4
598.897	21228.04
599.255	21486.34
599.613	22038.87
599.972	22062.82
600.33	22524.51
600.688	22595.24
601.046	22902.35
601.404	23292.62
601.762	23525.38
602.12	23843.79
602.478	24198.81
602.836	24525.81
603.194	24597.9
603.552	24894.61
603.91	25069.07
604.268	25418.22
604.625	25593.35
604.983	25933.68
605.341	26147.24
605.698	26573.21
606.056	26777.73
606.413	27002.81
606.771	27196.02
607.128	27484.15
607.485	27647.54
607.843	27831.94
608.2	28137.01
608.557	28641.41
608.914	28590.56
609.272	28899.25
609.629	29262.86
609.986	29526.81
610.343	29501.05
610.7	30006.12
611.057	30098.32
611.414	30333.34
611.771	30431.19
612.127	30800.45
612.484	30947.79
612.841	31218.52
613.198	31287.21
613.554	31349.13
613.911	31694.21
614.267	31919.97
614.624	32081.32
614.98	32238.6
615.337	32447.64
615.693	32569.89
616.05	32708.42
616.406	32941.41
616.762	33009.88
617.118	33133.27
617.475	33416.88
617.831	33500.26
618.187	33789.52
618.543	33907.48
618.899	34090.53
619.255	34130.3
619.611	34267.7
619.967	34604.41
620.323	34720.57
620.678	34690.97
621.034	34800.79
621.39	34946.78
621.746	34926.67
622.101	35346.32
622.457	35211.18
622.812	35330.72
623.168	35502.02
623.523	35673.99
623.879	35745.18
624.234	35600.55
624.589	35793.99
624.945	36011.61
625.3	36108.33
625.655	36223.13
626.01	36246.18
626.365	36294.31
626.72	36295.44
627.075	36330.25
627.43	36397.14
627.785	36497.92
628.14	36617.7
628.495	36582.67
628.85	36651.37
629.205	36598.49
629.559	36914.41
629.914	36811.59
630.269	36930
630.623	36726.17
630.978	36813.17
631.332	36981.08
631.687	37201.63
632.041	36910.57
632.396	37095.2
632.75	36993.96
633.104	37039.61
633.459	36973.17
633.813	36873.06
634.167	36949.21
634.521	37049.77
634.875	37147.85
635.229	37212.71
635.583	37057.46
635.937	37134.29
636.291	37063.11
636.645	37150.34
636.999	37050.9
637.352	37268.53
637.706	36971.81
638.06	37146.27
638.413	37093.39
638.767	37134.97
639.121	37141.98
639.474	37026.27
639.828	37036.89
640.181	37098.81
640.534	37098.36
640.888	37101.07
641.241	36868.54
641.594	37037.8
641.947	37130.68
642.301	37003
642.654	37028.98
643.007	37046.16
643.36	36977.46
643.713	36991.92
644.066	36955.77
644.419	36717.81
644.771	36526.17
645.124	36349.91
645.477	36266.97
645.83	36139.06
646.182	35936.36
646.535	35894.1
646.888	36027.65
647.24	35770.03
647.593	35975
647.945	35941.33
648.298	35840.09
648.65	35706.53
649.002	35562.13
649.355	35774.33
649.707	35865.85
650.059	35777.27
650.411	36264.94
650.763	36329.34
651.115	36712.83
651.467	36627.19
651.819	36674.19
652.171	36565.49
652.523	36450.24
652.875	36518.49
653.227	36339.06
653.578	36586.74
653.93	36601.42
654.282	36412.5
654.633	36273.52
654.985	36401.66
655.337	36432.84
655.688	36400.3
656.039	36571.14
656.391	36254.32
656.742	36368.21
657.094	36282.56
657.445	36490.02
657.796	36297.7
658.147	36244.15
658.498	36230.59
658.849	36384.03
659.2	36198.05
659.551	36142.68
659.902	36358.27
660.253	36260.42
660.604	36359.85
660.955	36153.53
661.306	36300.42
661.656	36223.81
662.007	36231.04
662.358	36275.11
662.708	36240.3
663.059	36264.26
663.409	36053.87
663.76	36277.82
664.11	36161.66
664.461	36268.33
664.811	36127.09
665.161	36203.47
665.511	36210.47
665.862	36149.01
666.212	36257.03
666.562	36208.67
666.912	36116.01
667.262	36185.84
667.612	36130.93
667.962	36276.91
668.312	36095.45
668.662	36252.96
669.011	36168.22
669.361	36215.9
669.711	35999.18
670.06	36097.94
670.41	35942.23
670.76	35899.3
671.109	36237.82
671.459	35982.68
671.808	35898.62
672.157	36061.55
672.507	35783.14
672.856	35897.04
673.205	35829.02
673.554	36004.6
673.904	35832.86
674.253	36048.22
674.602	35815.46
674.951	35295.02
675.3	35217.51
675.649	35815.91
675.998	35595.8
676.346	35694.78
676.695	35817.94
677.044	35616.37
677.393	35720.32
677.741	35744.72
678.09	35686.42
678.438	35544.73
678.787	35588.34
679.135	35621.79
679.484	35466.77
679.832	35611.62
680.181	35333.44
680.529	35441.46
680.877	35205.98
681.225	35280.78
681.573	35472.41
681.922	35363.94
682.27	35094.35
682.618	35102.71
682.966	35091.41
683.314	35139.32
683.661	35041.47
684.009	34779.1
684.357	34866.55
684.705	34864.75
685.053	34847.57
685.4	34790.4
685.748	34665.2
686.095	34578.2
686.443	34449.16
686.79	34478.09
687.138	34538.43
687.485	34466.11
687.832	34354.7
688.18	34480.35
688.527	34225.22
688.874	34227.02
689.221	34227.02
689.568	34095.05
689.915	34035.84
690.262	33925.79
690.609	33791.1
690.956	33785.45
691.303	33760.14
691.65	33534.84
691.997	33605.57
692.344	33374.39
692.69	33359.7
693.037	33371
693.383	33040.16
693.73	33226.15
694.077	33070.22
694.423	32950.45
694.769	32949.09
695.116	32853.95
695.462	32805.82
695.808	32767.63
696.155	32656.67
696.501	32494.19
696.847	32446.73
697.193	32220.97
697.539	32442.89
697.885	32168.77
698.231	32067.53
698.577	32056.46
698.923	31955.45
699.269	31830.48
699.614	31610.82
699.96	31733.98
700.306	31757.03
700.651	31582.8
700.997	31535.57
701.342	31501.22
701.688	31448.79
702.033	31330.83
702.379	31294.45
702.724	31232.75
703.069	31277.27
703.415	30959.31
703.76	31030.72
704.105	30888.35
704.45	30881.8
704.795	30700.56
705.14	30568.81
705.485	30600.68
705.83	30457.18
706.175	30490.4
706.52	30437.97
706.865	30200.01
707.209	30147.36
707.554	30181.71
707.899	30217.64
708.243	29979.68
708.588	29896.06
708.932	29774.94
709.277	29724.54
709.621	29807.03
709.966	29639.12
710.31	29640.7
710.654	29406.36
710.998	29435.74
711.342	29445
711.687	29365.23
712.031	29238.23
712.375	29132.02
712.719	29290.88
713.063	29096.09
713.407	29198.46
713.75	29030.32
714.094	28870.1
714.438	28912.14
714.782	28942.87
715.125	28701.07
715.469	28849.76
715.812	28762.99
716.156	28532.48
716.499	28511.47
716.843	28584.23
717.186	28380.17
717.53	28521.86
717.873	28505.14
718.216	28370.91
718.559	28330
718.902	28186.28
719.246	28197.58
719.589	28018.15
719.932	28029.67
720.275	27885.04
720.617	27914.42
720.96	27968.43
721.303	27869.68
721.646	27817.47
721.989	27696.57
722.331	27746.74
722.674	27752.39
723.016	27778.61
723.359	27666.52
723.701	27680.53
724.044	27469.69
724.386	27354.89
724.729	27515.11
725.071	27491.16
725.413	27394.89
725.755	27477.37
726.097	27264.95
726.439	27148.79
726.782	27123.03
727.124	27302.69
727.465	27097.27
727.807	27073.77
728.149	26964.39
728.491	26971.17
728.833	27078.06
729.175	26859.53
729.516	26726.2
729.858	26777.95
730.199	26835.81
730.541	26655.7
730.882	26598.75
731.224	26685.75
731.565	26605.08
731.906	26614.12
732.248	26666.77
732.589	26593.78
732.93	26373.22
733.271	26441.92
733.612	26416.16
733.953	26306.78
734.294	26285.76
734.635	26156.73
734.976	26202.15
735.317	26087.35
735.658	26236.27
735.999	26090.97
736.339	26121.02
736.68	26062.04
737.021	25954.02
737.361	25964.42
737.702	26077.63
738.042	25909.28
738.383	25985.43
738.723	25868.15
739.063	25830.63
739.404	25862.72
739.744	25798.54
740.084	25667.02
740.424	25639
740.764	25696.17
741.104	25639.45
741.444	25506.58
741.784	25468.84
742.124	25569.4
742.464	25506.35
742.804	25442.85
743.143	25409.4
743.483	25437.88
743.823	25363.08
744.162	25314.26
744.502	25401.72
744.841	25277.2
745.181	25323.76
745.52	25200.59
745.86	25234.72
746.199	25225.68
746.538	25094.83
746.877	25168.73
747.216	25252.57
747.556	25032.46
747.895	25010.32
748.234	24950.88
748.573	24875.63
748.911	24829.53
749.25	24872.47
749.589	24684.45
749.928	24765.13
750.267	24667.5
750.605	24657.78
750.944	24599.25
751.283	24526.04
751.621	24540.05
751.96	24439.03
752.298	24421.86
752.636	24482.42
752.975	24321.07
753.313	24289.88
753.651	24355.87
753.989	24215.31
754.327	24290.79
754.666	24125.59
755.004	24050.79
755.342	24136.89
755.679	24074.97
756.017	23868.2
756.355	23957.24
756.693	23946.16
757.031	23928.31
757.368	23802.89
757.706	23843.12
758.044	23677.47
758.381	23683.8
758.719	23641.31
759.056	23708.43
759.394	23527.64
759.731	23403.35
760.068	23428.21
760.405	23164.49
760.743	23228.22
761.08	23249.91
761.417	23084.94
761.754	23149.12
762.091	23061.22
762.428	22973.76
762.765	22775.57
763.102	22861.67
763.438	22656.48
763.775	22691.51
764.112	22690.38
764.449	22610.38
764.785	22644.5
765.122	22393.89
765.458	22328.35
765.795	22289.26
766.131	22321.8
766.467	22238.19
766.804	22018.98
767.14	22023.5
767.476	21959.55
767.812	21864.41
768.148	21997.74
768.485	21837.29
768.821	21717.75
769.157	21555.49
769.492	21507.81
769.828	21525.66
770.164	21370.86
770.5	21297.65
770.836	21282.96
771.171	21148.72
771.507	21141.04
771.842	21006.35
772.178	21033.92
772.513	20821.95
772.849	20888.39
773.184	20767.72
773.519	20727.27
773.855	20617.44
774.19	20623.54
774.525	20520.49
774.86	20473.71
775.195	20285.92
775.53	20320.72
775.865	20206.15
776.2	20154.63
776.535	19965.7
776.87	19955.08
777.205	19935.2
777.539	19898.36
777.874	19881.86
778.209	19675.77
778.543	19574.3
778.878	19504.7
779.212	19542.89
779.547	19416.34
779.881	19503.12
780.215	19307.42
780.55	19405.49
780.884	19246.17
781.218	19085.28
781.552	19039.85
781.886	18992.17
782.22	18991.94
782.554	18836.02
782.888	18660.65
783.222	18636.7
783.556	18611.16
783.889	18505.86
784.223	18429.02
784.557	18368.46
784.89	18349.7
785.224	18271.51
785.557	18144.06
785.891	18108.8
786.224	18099.54
786.558	17998.52
786.891	17876.72
787.224	17886.66
787.557	17786.55
787.891	17801.47
788.224	17772.32
788.557	17692.77
788.89	17551.98
789.223	17567.35
789.556	17388.6
789.888	17412.32
790.221	17431.53
790.554	17185.44
790.887	17243.52
791.219	17123.74
791.552	17143.63
791.884	17008.72
792.217	16990.87
792.549	16945.22
792.882	16804.66
793.214	16794.94
793.546	16791.1
793.879	16697.32
794.211	16574.15
794.543	16600.59
794.875	16573.02
795.207	16580.93
795.539	16542.74
795.871	16449.41
796.203	16358.79
796.535	16148.4
796.867	16203.77
797.198	16135.07
797.53	16093.72
797.862	16005.13
798.193	16136.65
798.525	15981.4
798.856	15915.19
799.188	15735.76
799.519	15720.62
799.85	15593.16
800.182	15755.19
800.513	15723.1
800.844	15505.93
801.175	15552.71
801.506	15601.98
801.837	15476.33
802.168	15469.32
802.499	15423.22
802.83	15267.75
803.161	15291.48
803.491	15288.31
803.822	15208.31
804.153	15226.85
804.483	14930.58
804.814	14954.08
805.145	15044.7
805.475	14954.76
805.805	14914.54
806.136	14893.97
806.466	14839.74
806.796	14850.13
807.126	14729.23
807.457	14674.77
807.787	14738.72
808.117	14589.35
808.447	14603.36
808.777	14622.79
809.107	14489.69
809.436	14507.32
809.766	14472.06
810.096	14423.7
810.426	14363.59
810.755	14280.88
811.085	14304.38
811.414	14267.55
811.744	14166.08
812.073	14105.07
812.403	14069.14
812.732	14033.2
813.061	14072.53
813.39	13893.1
813.719	13927.9
814.049	13985.75
814.378	13877.73
814.707	13861.68
815.036	13814
815.365	13791.85
815.693	13682.71
816.022	13614.23
816.351	13607.45
816.68	13475.03
817.008	13628.24
817.337	13454.46
817.665	13478.87
817.994	13505.99
818.322	13466.67
818.651	13368.36
818.979	13329.27
819.307	13416.5
819.636	13352.32
819.964	13188.71
820.292	13307.12
820.62	13304.18
820.948	13224.41
821.276	13300.34
821.604	13242.49
821.932	13217.41
822.259	13185.09
822.587	13246.11
822.915	13186.9
823.243	13232.1
823.57	13172.89
823.898	13234.58
824.225	13187.8
824.553	13156.84
824.88	13192.55
825.207	13231.87
825.535	13202.27
825.862	13288.37
826.189	13088.37
826.516	13272.32
826.843	13183.96
827.17	13247.46
827.497	13207.24
827.824	13187.13
828.151	13210.4
828.478	13194.13
828.805	13239.55
829.131	13074.13
829.458	13225.32
829.785	13011.99
830.111	13067.35
830.438	13093.34
830.764	13111.42
831.09	13133.79
831.417	13140.35
831.743	13155.04
832.069	13104.19
832.395	13002.27
832.722	13087.24
833.048	13084.75
833.374	13023.97
833.7	12930.63
834.026	13057.18
834.351	13065.32
834.677	13030.97
835.003	13046.79
835.329	12993.46
835.654	12979.9
835.98	12991.65
836.306	12986.9
836.631	12831.2
836.956	12932.67
837.282	12882.27
837.607	12776.51
837.932	12760.7
838.258	12743.97
838.583	12804.54
838.908	12708.95
839.233	12732.9
839.558	12649.74
839.883	12678.44
840.208	12685.22
840.533	12656.74
840.858	12603.19
841.182	12573.58
841.507	12539.01
841.832	12467.82
842.156	12546.46
842.481	12492.23
842.805	12423.98
843.13	12412.68
843.454	12394.38
843.778	12345.79
844.103	12350.99
844.427	12376.3
844.751	12372.46
845.075	12283.19
845.399	12201.61
845.723	12190.77
846.047	12168.85
846.371	12053.14
846.695	11993.48
847.019	12013.37
847.343	11947.38
847.666	11907.16
847.99	11846.6
848.313	11729.31
848.637	11764.34
848.96	11741.29
849.284	11659.71
849.607	11579.94
849.931	11559.82
850.254	11423.78
850.577	11397.79
850.9	11384.91
851.223	11344.01
851.546	11276.44
851.869	11200.51
852.192	11288.64
852.515	11193.51
852.838	11100.63
853.161	11127.74
853.483	11001.87
853.806	10982.44
854.129	11020.18
854.451	10960.97
854.774	10879.62
855.096	10820.86
855.419	10807.98
855.741	10809.11
856.063	10781.09
856.385	10732.27
856.708	10695.67
857.03	10713.97
857.352	10712.84
857.674	10612.96
857.996	10588.1
858.318	10586.06
858.64	10490.7
858.961	10400.08
859.283	10440.08
859.605	10322.57
859.926	10416.35
860.248	10362.57
860.57	10362.57
860.891	10378.16
861.212	10308.78
861.534	10283.7
861.855	10203.25
862.176	10231.5
862.498	10231.72
862.819	10228.33
863.14	10228.78
863.461	10142.69
863.782	10125.74
864.103	10047.32
864.424	10083.25
864.745	10102.23
865.065	10070.82
865.386	10038.28
865.707	10019.75
866.027	10027.21
866.348	9941.33
866.668	9984.27
866.989	9987.89
867.309	9895.01
867.63	9866.53
867.95	9911.28
868.27	9847.78
868.59	9847.55
868.91	9882.58
869.23	9831.96
869.55	9822.92
869.87	9818.63
870.19	9795.35
870.51	9816.14
870.83	9789.93
871.15	9718.74
871.469	9756.25
871.789	9717.61
872.109	9732.07
872.428	9675.8
872.748	9693.43
873.067	9701.11
873.386	9678.52
873.706	9617.5
874.025	9609.14
874.344	9504.06
874.663	9572.76
874.982	9579.08
875.301	9504.96
875.62	9542.25
875.939	9509.03
876.258	9430.61
876.577	9463.83
876.896	9463.83
877.214	9464.96
877.533	9421.12
877.852	9377.96
878.17	9336.83
878.489	9394.68
878.807	9342.48
879.125	9316.94
879.444	9323.95
879.762	9342.71
880.08	9271.75
880.398	9262.03
880.716	9280.11
881.034	9235.59
881.352	9157.63
881.67	9175.25
881.988	9172.77
882.306	9143.62
882.624	9128.02
882.941	9058.19
883.259	9081.02
883.577	9030.85
883.894	9027.01
884.212	9043.73
884.529	9076.5
884.846	9045.09
885.164	8958.99
885.481	8898.88
885.798	8944.98
886.115	8843.51
886.432	8860.46
886.75	8803.96
887.067	8831.31
887.383	8828.14
887.7	8847.35
888.017	8711.54
888.334	8756.73
888.651	8714.7
888.967	8733.23
889.284	8688.94
889.6	8644.87
889.917	8589.73
890.233	8559
890.55	8596.29
890.866	8618.88
891.182	8567.13
891.498	8559.68
891.815	8519.45
892.131	8470.86
892.447	8469.73
892.763	8430.64
893.079	8441.94
893.395	8420.47
893.71	8353.13
894.026	8303.86
894.342	8257.99
894.657	8250.53
894.973	8264.99
895.289	8251.89
895.604	8229.06
895.92	8156.52
896.235	8138.9
896.55	8067.26
896.865	8095.73
897.181	8089.86
897.496	8071.33
897.811	8069.97
898.126	8040.37
898.441	7951.78
898.756	7943.65
899.071	7841.95
899.386	7928.73
899.7	7842.18
900.015	7826.59
900.33	7748.4
900.644	7720.6
900.959	7685.35
901.273	7668.63
901.588	7610.55
901.902	7578.46
902.216	7544.79
902.531	7590.89
902.845	7507.5
903.159	7441.97
903.473	7439.25
903.787	7436.77
904.101	7444.45
904.415	7399.03
904.729	7395.86
905.042	7356.77
905.356	7340.5
905.67	7284
905.984	7345.24
906.297	7267.05
906.611	7210.78
906.924	7229.09
907.237	7191.58
907.551	7112.93
907.864	7098.7
908.177	7122.2
908.491	7063.44
908.804	7022.32
909.117	7034.74
909.43	6964.92
909.743	6941.64
910.056	6957.68
910.368	6870
910.681	6862.77
910.994	6813.06
911.307	6777.12
911.619	6763.79
911.932	6740.97
912.244	6711.36
912.557	6719.5
912.869	6677.92
913.181	6616.9
913.494	6671.36
913.806	6590.91
914.118	6603.57
914.43	6557.69
914.742	6521.54
915.054	6484.93
915.366	6432.05
915.678	6472.95
915.99	6381.88
916.302	6360.86
916.613	6340.75
916.925	6266.63
917.236	6298.49
917.548	6307.76
917.859	6288.55
918.171	6233.64
918.482	6209.46
918.794	6169.91
919.105	6216.91
919.416	6108.22
919.727	6092.62
920.038	6091.94
920.349	6015.34
920.66	6003.13
920.971	6035.22
921.282	6009.01
921.593	5917.71
921.903	5930.37
922.214	5865.51
922.525	5895.57
922.835	5853.76
923.146	5787.55
923.456	5833.65
923.767	5782.8
924.077	5728.11
924.387	5728.11
924.697	5694.89
925.008	5672.75
925.318	5604.05
925.628	5626.65
925.938	5581.22
926.248	5613.76
926.558	5585.74
926.867	5517.72
927.177	5503.71
927.487	5464.16
927.796	5433.66
928.106	5404.5
928.416	5434.33
928.725	5413.54
929.034	5412.87
929.344	5354.34
929.653	5327.44
929.962	5305.75
930.271	5304.62
930.581	5296.94
930.89	5222.14
931.199	5174.68
931.508	5256.94
931.817	5171.97
932.125	5128.58
932.434	5146.43
932.743	5140.78
933.051	5078.41
933.36	5050.39
933.669	5016.94
933.977	5017.4
934.286	5014.46
934.594	4995.48
934.902	4975.82
935.21	4935.82
935.519	4952.77
935.827	4866.89
936.135	4903.73
936.443	4851.98
936.751	4854.91
937.059	4865.31
937.367	4826.67
937.674	4795.71
937.982	4768.36
938.29	4743.96
938.597	4722.94
938.905	4702.6
939.213	4658.54
939.52	4656.05
939.827	4623.51
940.135	4613.34
940.442	4574.24
940.749	4551.19
941.056	4583.51
941.363	4522.49
941.67	4574.7
941.977	4465.77
942.284	4453.8
942.591	4433.23
942.898	4481.14
943.205	4495.6
943.511	4421.25
943.818	4407.92
944.125	4373.12
944.431	4350.52
944.738	4309.17
945.044	4303.97
945.35	4279.11
945.657	4206.12
945.963	4215.38
946.269	4267.81
946.575	4238.89
946.881	4230.75
947.187	4229.39
947.493	4153.92
947.799	4200.47
948.105	4111.21
948.41	4139.91
948.716	4123.41
949.022	4075.73
949.327	4067.59
949.633	4038.66
949.938	4042.96
950.244	4004.09
950.549	3984.43
950.854	3995.73
951.16	3956.18
951.465	3983.3
951.77	3956.86
952.075	3927.93
952.38	3883.19
952.685	3867.82
952.99	3872.79
953.294	3848.61
953.599	3815.39
953.904	3833.47
954.209	3777.43
954.513	3768.84
954.818	3759.12
955.122	3776.52
955.426	3762.74
955.731	3694.04
956.035	3680.26
956.339	3654.72
956.643	3650.2
956.948	3649.75
957.252	3641.39
957.556	3645.68
957.86	3607.94
958.163	3594.61
958.467	3565.46
958.771	3570.2
959.075	3576.08
959.378	3543.31
959.682	3503.54
959.985	3511
960.289	3489.07
960.592	3463.76
960.896	3455.86
961.199	3434.84
961.502	3445.01
961.805	3409.53
962.108	3413.37
962.411	3367.04
962.714	3356.65
963.017	3335.86
963.32	3321.4
963.623	3352.81
963.926	3330.66
964.228	3249.53
964.531	3301.28
964.833	3231.68
965.136	3257.44
965.438	3246.6
965.741	3218.8
966.043	3228.29
966.345	3174.73
966.648	3205.69
966.95	3188.97
967.252	3165.92
967.554	3127.5
967.856	3140.61
968.158	3114.17
968.46	3084.34
968.761	3051.35
969.063	3039.14
969.365	3057.45
969.666	3061.29
969.968	3013.16
970.269	3026.04
970.571	3010.22
970.872	3006.38
971.174	3016.32
971.475	2958.02
971.776	2964.12
972.077	2954.85
972.378	2922.08
972.679	2896.77
972.98	2887.06
973.281	2903.78
973.582	2861.75
973.883	2869.2
974.183	2845.02
974.484	2844.57
974.785	2813.61
975.085	2820.84
975.386	2781.07
975.686	2781.3
975.986	2801.86
976.287	2772.71
976.587	2725.03
976.887	2750.34
977.187	2723.45
977.487	2741.98
977.787	2734.07
978.087	2682.99
978.387	2691.58
978.687	2706.27
978.987	2662.66
979.286	2654.75
979.586	2645.26
979.885	2612.49
980.185	2585.82
980.484	2586.73
980.784	2574.75
981.083	2558.93
981.382	2549.44
981.682	2581.75
981.981	2530.68
982.28	2517.12
982.579	2519.61
982.878	2499.5
983.177	2490.46
983.475	2491.14
983.774	2481.19
984.073	2486.39
984.372	2468.08
984.67	2409.56
984.969	2448.88
985.267	2429.89
985.566	2419.72
985.864	2434.87
986.162	2396.67
986.461	2363.23
986.759	2373.85
987.057	2386.96
987.355	2337.24
987.653	2350.35
987.951	2310.12
988.249	2307.41
988.547	2311.48
988.844	2312.38
989.142	2276.23
989.44	2304.93
989.737	2239.39
990.035	2263.34
990.332	2256.79
990.63	2241.65
990.927	2243.01
991.224	2184.02
991.521	2217.24
991.819	2215.66
992.116	2200.3
992.413	2192.39
992.71	2178.15
993.006	2153.06
993.303	2154.42
993.6	2144.7
993.897	2152.84
994.193	2139.05
994.49	2107.87
994.787	2077.13
995.083	2056.34
995.379	2084.37
995.676	2064.48
995.972	2081.43
996.268	2042.56
996.565	2036.23
996.861	2045.27
997.157	2033.29
997.453	2027.42
997.749	2016.12
998.044	1965.5
998.34	2007.31
998.636	2014.76
998.932	1947.42
999.227	1947.87
999.523	1973.86
999.818	1908.1
1000.114	1921.21
1000.409	1893.86
1000.704	1895.9
1001	1911.04
1001.295	1889.79
1001.59	1893.64
1001.885	1892.73
1002.18	1877.37
1002.475	1851.38
1002.77	1816.12
1003.065	1811.6
1003.359	1833.53
1003.654	1817.03
1003.949	1771.38
1004.243	1803.47
1004.538	1785.62
1004.832	1791.27
1005.127	1776.13
1005.421	1756.69
1005.715	1721.21
1006.009	1735.67
1006.304	1723.7
1006.598	1726.86
1006.892	1711.04
1007.186	1700.65
1007.48	1686.86
1007.773	1694.77
1008.067	1654.09
1008.361	1671.5
1008.655	1660.2
1008.948	1646.64
1009.242	1627.2
1009.535	1627.65
1009.829	1621.33
1010.122	1603.02
1010.415	1583.14
1010.708	1598.28
1011.001	1574.32
1011.295	1579.52
1011.588	1540.88
1011.881	1546.53
1012.173	1556.92
1012.466	1516.92
1012.759	1517.6
1013.052	1515.12
1013.344	1494.33
1013.637	1517.15
1013.93	1502.01
1014.222	1467.43
1014.514	1459.3
1014.807	1428.56
1015.099	1453.65
1015.391	1426.98
1015.683	1433.54
1015.976	1459.75
1016.268	1427.21
1016.56	1418.39
1016.851	1445.06
1017.143	1368.45
1017.435	1394.89
1017.727	1441.67
1018.018	1391.05
1018.31	1356.02
1018.602	1361.67
1018.893	1368.45
1019.185	1354.89
1019.476	1346.98
1019.767	1347.66
1020.058	1331.84
1020.35	1318.28
1020.641	1300.43
1020.932	1276.7
1021.223	1297.27
1021.514	1276.03
1021.804	1280.09
1022.095	1253.65
1022.386	1224.05
1022.677	1244.39
1022.967	1219.53
1023.258	1214.11
1023.548	1237.38
1023.839	1210.72
1024.129	1215.91
1024.419	1202.13
1024.709	1184.95
1025	1180.89
1025.29	1169.59
1025.58	1182.02
1025.87	1178.4
1026.16	1150.61
1026.449	1176.82
1026.739	1154
1027.029	1117.39
1027.319	1147.44
1027.608	1130.04
1027.898	1115.35
1028.187	1110.61
1028.477	1111.06
1028.766	1099.99
1029.055	1074.68
1029.344	1079.42
1029.634	1060.21
1029.923	1072.64
1030.212	1071.74
1030.501	1036.71
1030.79	1043.04
1031.078	1017.28
1031.367	1015.24
1031.656	1004.17
1031.945	1025.64
1032.233	1008.01
1032.522	991.51
1032.81	1012.08
1033.099	1005.52
1033.387	997.62
1033.675	981.12
1033.963	983.38
1034.251	967.79
1034.54	950.16
1034.828	940.89
1035.116	944.96
1035.403	954.23
1035.691	940.44
1035.979	925.07
1036.267	956.49
1036.554	927.79
1036.842	936.37
1037.129	912.19
1037.417	908.13
1037.704	898.63
1037.992	888.92
1038.279	909.03
1038.566	884.85
1038.853	884.85
1039.14	884.85
