Data from hue_260_FLMS001491_00010.txt Node
Date: Tue Feb 07 15:58:30 GMT 2017
User: dcchb
Spectrometer: FLMS00149
Trigger mode: 0
Integration Time (sec): 2.000000E-2
Scans to average: 10
Electric dark correction enabled: true
Nonlinearity correction enabled: false
Boxcar width: 0
XAxis mode: Wavelengths
Number of Pixels in Spectrum: 2048
>>>>>Begin Spectral Data<<<<<
341.393	-22.46
341.776	-22.46
342.16	-22.46
342.543	-67.88
342.927	-86.18
343.31	-70.82
343.693	-54.77
344.077	-73.98
344.46	-65.62
344.843	-42.57
345.226	-40.76
345.61	-24.72
345.993	-24.49
346.376	0.37
346.759	13.47
347.142	24.32
347.525	51.44
347.908	45.79
348.291	62.29
348.674	82.4
349.057	117.65
349.44	123.08
349.823	151.55
350.206	166.24
350.588	193.36
350.971	192.9
351.354	226.12
351.737	223.86
352.119	258.21
352.502	261.83
352.884	267.93
353.267	269.06
353.65	270.64
354.032	263.41
354.414	294.37
354.797	315.61
355.179	301.83
355.562	316.07
355.944	318.78
356.326	313.58
356.709	300.25
357.091	314.94
357.473	320.58
357.855	330.75
358.238	331.88
358.62	346.12
359.002	332.56
359.384	345.22
359.766	317.65
360.148	325.78
360.53	294.6
360.912	310.19
361.294	305.9
361.676	330.53
362.057	350.64
362.439	318.32
362.821	316.97
363.203	314.03
363.584	295.27
363.966	316.07
364.348	302.05
364.729	334.6
365.111	298.89
365.493	312.68
365.874	313.13
366.256	332.56
366.637	296.4
367.019	307.25
367.4	307.48
367.781	304.54
368.163	300.7
368.544	300.7
368.925	305.22
369.306	304.09
369.688	316.97
370.069	299.57
370.45	299.57
370.831	300.92
371.212	312
371.593	274.03
371.974	304.31
372.355	309.74
372.736	310.87
373.117	315.61
373.498	297.08
373.879	299.12
374.26	312.22
374.641	290.98
375.021	325.56
375.402	278.55
375.783	315.39
376.163	321.94
376.544	321.26
376.925	327.36
377.305	307.25
377.686	330.75
378.066	316.97
378.447	328.95
378.827	335.95
379.208	324.88
379.588	333.01
379.968	351.54
380.349	341.6
380.729	314.26
381.109	331.66
381.489	331.43
381.87	325.1
382.25	341.38
382.63	322.62
383.01	341.15
383.39	332.56
383.77	335.27
384.15	339.12
384.53	354.03
384.91	342.05
385.29	346.57
385.67	318.1
386.049	343.18
386.429	352.67
386.809	338.21
387.189	354.71
387.568	353.35
387.948	356.74
388.328	347.48
388.707	354.93
389.087	330.75
389.466	348.15
389.846	347.48
390.225	349.51
390.605	384.54
390.984	373.24
391.363	374.14
391.743	372.33
392.122	361.71
392.501	364.65
392.881	366.01
393.26	349.51
393.639	383.63
394.018	377.76
394.397	371.43
394.776	387.25
395.155	373.24
395.534	395.84
395.913	388.61
396.292	411.43
396.671	378.89
397.05	379.57
397.429	403.97
397.808	414.82
398.186	405.33
398.565	412.11
398.944	382.28
399.323	396.06
399.701	403.97
400.08	395.61
400.458	411.2
400.837	424.99
401.215	410.53
401.594	411.43
401.972	418.66
402.351	443.97
402.729	419.79
403.107	424.99
403.486	434.93
403.864	414.59
404.242	449.39
404.62	440.58
404.999	419.79
405.377	457.53
405.755	450.98
406.133	471.77
406.511	464.31
406.889	475.16
407.267	474.25
407.645	474.03
408.023	485.55
408.401	493.01
408.779	493.91
409.156	509.73
409.534	487.36
409.912	510.18
410.29	513.57
410.667	523.07
411.045	536.85
411.422	540.69
411.8	553.8
412.178	549.96
412.555	553.35
412.933	563.06
413.31	579.34
413.687	577.3
414.065	578.66
414.442	586.79
414.819	596.28
415.197	615.04
415.574	599.67
415.951	612.33
416.328	616.62
416.705	611.42
417.082	621.14
417.46	658.88
417.837	647.58
418.214	691.2
418.591	667.47
418.967	696.62
419.344	691.2
419.721	680.35
420.098	698.43
420.475	687.58
420.852	734.13
421.228	736.17
421.605	739.1
421.982	758.09
422.358	762.38
422.735	781.36
423.111	787.92
423.488	798.54
423.864	782.72
424.241	813
424.617	836.05
424.994	829.5
425.37	831.98
425.746	828.37
426.123	849.84
426.499	872.43
426.875	869.72
427.251	902.04
427.627	870.63
428.003	928.7
428.379	915.82
428.756	925.31
429.132	928.93
429.507	968.93
429.883	994.47
430.259	970.96
430.635	975.93
431.011	1009.15
431.387	999.44
431.763	1025.2
432.138	1047.8
432.514	1057.51
432.89	1071.75
433.265	1084.63
433.641	1093.45
434.016	1088.02
434.392	1126.89
434.767	1155.14
435.143	1128.47
435.518	1196.72
435.894	1218.19
436.269	1240.11
436.644	1235.59
437.02	1251.63
437.395	1287.11
437.77	1247.79
438.145	1322.14
438.52	1318.98
438.895	1357.17
439.271	1323.72
439.646	1394.91
440.021	1411.63
440.395	1401.46
440.77	1405.08
441.145	1452.76
441.52	1464.74
441.895	1471.51
442.27	1476.26
442.645	1457.05
443.019	1544.73
443.394	1503.15
443.769	1550.16
444.143	1514.9
444.518	1563.94
444.892	1528.24
445.267	1544.96
445.641	1577.5
446.016	1559.42
446.39	1590.61
446.764	1612.08
447.139	1619.08
447.513	1635.58
447.887	1619.99
448.262	1664.05
448.636	1661.57
449.01	1681.23
449.384	1671.96
449.758	1670.15
450.132	1709.93
450.506	1746.08
450.88	1742.02
451.254	1770.04
451.628	1786.53
452.002	1798.06
452.376	1795.8
452.75	1831.73
453.123	1841.22
453.497	1898.17
453.871	1861.79
454.244	1899.75
454.618	1930.49
454.992	1919.86
455.365	1955.34
455.739	1992.63
456.112	1998.96
456.486	2018.85
456.859	2009.35
457.232	2059.97
457.606	2090.71
457.979	2092.29
458.352	2095.68
458.725	2118.96
459.099	2210.7
459.472	2190.37
459.845	2218.61
460.218	2234.21
460.591	2271.27
460.964	2279.4
461.337	2278.73
461.71	2284.6
462.083	2357.82
462.456	2355.11
462.829	2357.82
463.201	2415.67
463.574	2428.55
463.947	2456.35
464.32	2507.65
464.692	2535.89
465.065	2492.28
465.438	2570.02
465.81	2601.65
466.183	2613.18
466.555	2684.82
466.928	2695.44
467.3	2696.12
467.672	2699.51
468.045	2803.91
468.417	2802.78
468.789	2840.29
469.161	2836.45
469.534	2901.08
469.906	2938.6
470.278	2945.37
470.65	2988.99
471.022	3050.46
471.394	3087.07
471.766	3113.96
472.138	3106.05
472.51	3158.7
472.882	3244.12
473.253	3231.47
473.625	3312.6
473.997	3372.48
474.369	3374.29
474.74	3405.25
475.112	3412.71
475.484	3526.6
475.855	3549.2
476.227	3610.89
476.598	3664.68
476.97	3721.4
477.341	3763.21
477.713	3852.92
478.084	3869.64
478.455	3913.71
478.827	3973.6
479.198	4101.05
479.569	4052.24
479.94	4126.36
480.311	4172.23
480.682	4296.75
481.053	4328.16
481.424	4422.4
481.795	4449.52
482.166	4535.16
482.537	4561.83
482.908	4616.07
483.279	4658.1
483.65	4695.61
484.021	4806.57
484.391	4849.05
484.762	4866.68
485.133	4962.27
485.503	4971.76
485.874	5073.23
486.244	5102.83
486.615	5230.74
486.985	5218.54
487.356	5322.49
487.726	5395.48
488.097	5442.71
488.467	5465.99
488.837	5563.84
489.207	5638.19
489.578	5668.47
489.948	5722.93
490.318	5785.75
490.688	5788.24
491.058	5829.82
491.428	5968.35
491.798	6016.25
492.168	6102.35
492.538	6093.31
492.908	6169.24
493.278	6240.2
493.648	6209.47
494.017	6288.34
494.387	6303.25
494.757	6399.97
495.126	6399.3
495.496	6503.93
495.866	6464.83
496.235	6589.35
496.605	6570.14
496.974	6622.11
497.344	6656.01
497.713	6655.33
498.082	6757.93
498.452	6818.72
498.821	6767.87
499.19	6880.19
499.559	6848.77
499.928	6849
500.298	6930.13
500.667	6968.32
501.036	6947.98
501.405	7073.4
501.774	7052.16
502.143	7113.4
502.512	7137.35
502.88	7130.12
503.249	7156.79
503.618	7208.09
503.987	7244.92
504.356	7244.47
504.724	7336.22
505.093	7250.57
505.462	7296.9
505.83	7361.53
506.199	7395.88
506.567	7492.37
506.936	7414.64
507.304	7466.39
507.672	7511.13
508.041	7625.93
508.409	7509.32
508.777	7584.35
509.145	7646.04
509.514	7655.99
509.882	7697.34
510.25	7676.78
510.618	7725.36
510.986	7691.01
511.354	7775.76
511.722	7841.07
512.09	7850.33
512.458	7821.86
512.826	7832.93
513.193	7821.63
513.561	7941.18
513.929	7921.74
514.297	7939.59
514.664	7999.7
515.032	8001.96
515.4	8083.54
515.767	8052.13
516.135	8043.55
516.502	7991.34
516.869	8078.57
517.237	8079.7
517.604	8100.04
517.972	8103.88
518.339	8196.99
518.706	8254.16
519.073	8195.18
519.44	8259.81
519.808	8240.83
520.175	8235.63
520.542	8336.65
520.909	8337.1
521.276	8311.11
521.643	8366.93
522.009	8389.3
522.376	8454.61
522.743	8442.63
523.11	8495.51
523.477	8523.53
523.843	8505.68
524.21	8563.08
524.577	8584.77
524.943	8636.52
525.31	8587.49
525.676	8675.39
526.043	8660.7
526.409	8735.05
526.776	8789.06
527.142	8751.55
527.508	8743.87
527.874	8810.98
528.241	8772.11
528.607	8796.75
528.973	8828.38
529.339	8775.5
529.705	8860.47
530.071	8925.33
530.437	8925.33
530.803	8875.16
531.169	8945.44
531.535	8890.08
531.901	8899.12
532.267	8942.96
532.632	8967.82
532.998	8956.06
533.364	8948.61
533.73	8994.48
534.095	9064.54
534.461	9067.7
534.826	9017.53
535.192	9057.08
535.557	9097.08
535.923	9025.67
536.288	9033.8
536.653	9089.17
537.019	8998.55
537.384	9033.35
537.749	9052.56
538.114	9041.49
538.479	9026.57
538.845	9017.98
539.21	9009.4
539.575	9020.92
539.94	9010.53
540.305	9077.64
540.67	9022.28
541.034	9067.93
541.399	8921.71
541.764	9042.62
542.129	9007.36
542.494	9011.66
542.858	9069.28
543.223	9059.56
543.587	8977.98
543.952	8965.33
544.316	9064.99
544.681	8980.92
545.045	9053.46
545.41	9010.53
545.774	9043.97
546.138	9020.47
546.503	9023.63
546.867	9006.68
547.231	9057.98
547.595	9025.21
547.959	9005.78
548.324	8999.23
548.688	8947.7
549.052	8987.48
549.416	8924.65
549.779	8981.15
550.143	8963.07
550.507	9014.59
550.871	8954.48
551.235	8942.96
551.599	9004.42
551.962	8929.17
552.326	9004.65
552.689	8959.23
553.053	8965.78
553.417	8944.31
553.78	9070.41
554.143	8930.98
554.507	8985.67
554.87	8992.67
555.234	9136.62
555.597	8980.47
555.96	8987.93
556.323	9008.27
556.686	9049.62
557.05	9046.46
557.413	9064.31
557.776	9073.8
558.139	9129.39
558.502	9075.61
558.865	9100.01
559.228	9133.23
559.59	9116.51
559.953	9153.8
560.316	9223.63
560.679	9174.59
561.041	9204.42
561.404	9219.56
561.767	9261.37
562.129	9153.8
562.492	9277.86
562.854	9237.86
563.217	9318.77
563.579	9298.65
563.941	9321.25
564.304	9328.26
564.666	9405.54
565.028	9368.71
565.39	9380.69
565.753	9426.11
566.115	9445.54
566.477	9432.21
566.839	9483.28
567.201	9484.86
567.563	9498.42
567.925	9516.28
568.287	9537.97
568.648	9559.89
569.01	9597.63
569.372	9673.56
569.734	9590.85
570.095	9707
570.457	9762.6
570.819	9752.2
571.18	9680.34
571.542	9859.32
571.903	9745.65
572.265	9856.15
572.626	9824.29
572.987	9843.05
573.349	9845.31
573.71	9909.71
574.071	9970.5
574.432	9937.06
574.794	9984.74
575.155	10044.62
575.516	10004.62
575.877	10053.66
576.238	10038.07
576.599	10045.53
576.96	10062.7
577.32	10030.16
577.681	10114.9
578.042	10248.91
578.403	10176.14
578.763	10193.77
579.124	10220.44
579.485	10335.69
579.845	10341.79
580.206	10326.2
580.566	10300.66
580.927	10272.19
581.287	10367.78
581.648	10361
582.008	10448.23
582.368	10391.28
582.728	10431.05
583.089	10406.65
583.449	10421.34
583.809	10412.75
584.169	10535.23
584.529	10512.63
584.889	10589.24
585.249	10504.05
585.609	10460.21
585.969	10511.05
586.329	10604.16
586.688	10565.51
587.048	10546.3
587.408	10579.75
587.768	10624.72
588.127	10662.46
588.487	10692.06
588.846	10636.7
589.206	10674.66
589.565	10627.88
589.925	10735
590.284	10705.85
590.643	10751.95
591.003	10746.53
591.362	10764.38
591.721	10824.04
592.08	10832.62
592.44	10796.69
592.799	10805.96
593.158	10818.39
593.517	10802.12
593.876	10901.1
594.235	10821.33
594.593	10868.56
594.952	10914.66
595.311	10872.62
595.67	10919.18
596.029	10926.41
596.387	10958.27
596.746	10975.45
597.104	10993.3
597.463	10918.72
597.822	11035.56
598.18	10919.18
598.538	10951.04
598.897	11060.42
599.255	10947.42
599.613	11048.21
599.972	10987.65
600.33	11031.04
600.688	10963.02
601.046	11000.3
601.404	11092.28
601.762	11116.46
602.12	11106.97
602.478	11100.87
602.836	11082.34
603.194	11004.82
603.552	11137.02
603.91	11016.8
604.268	11116.46
604.625	11123.24
604.983	11200.3
605.341	11098.83
605.698	11139.28
606.056	11227.87
606.413	11090.7
606.771	11192.62
607.128	11256.12
607.485	11111.71
607.843	11189
608.2	11239.17
608.557	11194.2
608.914	11196.68
609.272	11266.06
609.629	11304.93
609.986	11307.87
610.343	11292.95
610.7	11327.53
611.057	11320.52
611.414	11423.12
611.771	11404.14
612.127	11407.75
612.484	11355.55
612.841	11351.71
613.198	11344.48
613.554	11389.45
613.911	11377.02
614.267	11443
614.624	11425.38
614.98	11429.67
615.337	11467.18
615.693	11482.33
616.05	11432.38
616.406	11503.79
616.762	11452.5
617.118	11445.49
617.475	11472.83
617.831	11482.78
618.187	11477.13
618.543	11523
618.899	11519.39
619.255	11515.77
619.611	11544.47
619.967	11572.27
620.323	11607.29
620.678	11469.67
621.034	11573.62
621.39	11499.05
621.746	11458.37
622.101	11574.53
622.457	11521.42
622.812	11496.56
623.168	11609.55
623.523	11538.37
623.879	11604.81
624.234	11527.52
624.589	11560.06
624.945	11649.1
625.3	11561.65
625.655	11521.19
626.01	11554.19
626.365	11559.16
626.72	11568.2
627.075	11495.21
627.43	11582.44
627.785	11539.72
628.14	11535.43
628.495	11544.92
628.85	11499.95
629.205	11512.83
629.559	11567.75
629.914	11518.48
630.269	11499.73
630.623	11396.68
630.978	11393.97
631.332	11407.52
631.687	11461.31
632.041	11425.6
632.396	11447.52
632.75	11376.57
633.104	11390.35
633.459	11333.63
633.813	11307.87
634.167	11349.22
634.521	11297.47
634.875	11337.47
635.229	11330.24
635.583	11287.98
635.937	11259.51
636.291	11275.32
636.645	11278.04
636.999	11232.84
637.352	11288.21
637.706	11242.78
638.06	11257.25
638.413	11168.89
638.767	11192.84
639.121	11175.44
639.474	11142
639.828	11103.13
640.181	11162.56
640.534	11110.58
640.888	11134.76
641.241	11065.61
641.594	11034.43
641.947	11100.87
642.301	11154.65
642.654	11102.9
643.007	11100.41
643.36	11102.22
643.713	10995.78
644.066	11032.85
644.419	10982.45
644.771	10917.37
645.124	10812.74
645.477	10839.18
645.83	10758.73
646.182	10718.5
646.535	10663.59
646.888	10705.85
647.24	10746.3
647.593	10717.37
647.945	10646.41
648.298	10640.99
648.65	10631.27
649.002	10555.57
649.355	10636.02
649.707	10689.58
650.059	10719.86
650.411	10869.23
650.763	10849.57
651.115	10986.52
651.467	10829.24
651.819	10957.82
652.171	10882.11
652.523	10836.24
652.875	10807.54
653.227	10759.63
653.578	10918.72
653.93	10885.96
654.282	10730.03
654.633	10791.27
654.985	10872.85
655.337	10920.08
655.688	10838.5
656.039	10931.83
656.391	10754.43
656.742	10825.17
657.094	10825.17
657.445	10888.44
657.796	10856.58
658.147	10839.18
658.498	10826.07
658.849	10826.98
659.2	10815.9
659.551	10816.35
659.902	10917.37
660.253	10792.85
660.604	10882.34
660.955	10727.09
661.306	10827.2
661.656	10862.91
662.007	10814.55
662.358	10867.2
662.708	10816.58
663.059	10817.71
663.409	10791.04
663.76	10806.86
664.11	10811.83
664.461	10842.57
664.811	10883.02
665.161	10844.83
665.511	10774.77
665.862	10812.51
666.212	10841.89
666.562	10857.48
666.912	10829.46
667.262	10812.74
667.612	10879.4
667.962	10881.66
668.312	10873.98
668.662	10858.16
669.011	10808.44
669.361	10839.63
669.711	10793.76
670.06	10747.66
670.41	10749.92
670.76	10761.89
671.109	10788.33
671.459	10792.85
671.808	10771.84
672.157	10755.11
672.507	10659.97
672.856	10733.42
673.205	10756.47
673.554	10671.5
673.904	10692.52
674.253	10824.26
674.602	10771.61
674.951	10616.59
675.3	10504.5
675.649	10674.89
675.998	10667.21
676.346	10657.94
676.695	10690.48
677.044	10622.23
677.393	10626.98
677.741	10659.97
678.09	10569.58
678.438	10603.48
678.787	10606.87
679.135	10573.87
679.484	10508.34
679.832	10537.94
680.181	10478.96
680.529	10521.45
680.877	10487.55
681.225	10433.99
681.573	10501.79
681.922	10365.97
682.27	10422.24
682.618	10419.3
682.966	10359.42
683.314	10390.38
683.661	10310.38
684.009	10321.9
684.357	10198.97
684.705	10273.54
685.053	10283.94
685.4	10232.41
685.748	10155.13
686.095	10175.24
686.443	10133.43
686.79	10077.84
687.138	10159.65
687.485	10114.9
687.832	10041.46
688.18	10079.42
688.527	10090.5
688.874	9971.63
689.221	9974.79
689.568	9923.5
689.915	9874.68
690.262	9942.7
690.609	9891.18
690.956	9845.53
691.303	9761.69
691.65	9678.08
691.997	9685.99
692.344	9662.03
692.69	9740.45
693.037	9700.68
693.383	9516.73
693.73	9670.17
694.077	9616.61
694.423	9527.57
694.769	9464.98
695.116	9475.15
695.462	9495.71
695.808	9409.39
696.155	9472.89
696.501	9360.57
696.847	9379.1
697.193	9274.25
697.539	9361.48
697.885	9217.07
698.231	9246.23
698.577	9184.76
698.923	9210.97
699.269	9178.88
699.614	9077.42
699.96	9088.49
700.306	9056.17
700.651	9012.56
700.997	8954.71
701.342	8948.38
701.688	8918.78
702.033	8915.61
702.379	8914.26
702.724	8897.99
703.069	8889.17
703.415	8774.15
703.76	8748.39
704.105	8749.74
704.45	8729.4
704.795	8645.11
705.14	8652.12
705.485	8589.97
705.83	8562.63
706.175	8630.42
706.52	8502.29
706.865	8484.89
707.209	8486.02
707.554	8495.29
707.899	8447.15
708.243	8354.95
708.588	8376.87
708.932	8313.37
709.277	8349.07
709.621	8368.96
709.966	8284.44
710.31	8314.95
710.654	8195.41
710.998	8255.29
711.342	8218.23
711.687	8186.82
712.031	8204.67
712.375	8124
712.719	8123.32
713.063	8083.32
713.407	8157.89
713.75	8119.25
714.094	8102.98
714.438	8111.57
714.782	8145.24
715.125	8065.69
715.469	8002.87
715.812	7951.57
716.156	8046.48
716.499	8006.71
716.843	7995.86
717.186	7958.58
717.53	7997.22
717.873	7972.59
718.216	7950.67
718.559	7924.68
718.902	7899.59
719.246	7920.38
719.589	7847.17
719.932	7783.21
720.275	7841.52
720.617	7831.57
720.96	7793.38
721.303	7746.38
721.646	7838.35
721.989	7762.42
722.331	7769.65
722.674	7733.5
723.016	7803.1
723.359	7759.26
723.701	7790.9
724.044	7714.06
724.386	7756.32
724.729	7744.8
725.071	7700.28
725.413	7710.9
725.755	7692.82
726.097	7722.65
726.439	7592.48
726.782	7677.68
727.124	7709.54
727.465	7631.8
727.807	7631.35
728.149	7600.17
728.491	7625.48
728.833	7640.84
729.175	7595.42
729.516	7628.19
729.858	7611.92
730.199	7661.86
730.541	7574.63
730.882	7541.19
731.224	7631.13
731.565	7561.98
731.906	7555.87
732.248	7567.85
732.589	7494.41
732.93	7532.82
733.271	7470.23
733.612	7559.94
733.953	7505.03
734.294	7538.25
734.635	7566.04
734.976	7538.02
735.317	7482.2
735.658	7500.06
735.999	7521.3
736.339	7503.67
736.68	7568.98
737.021	7540.73
737.361	7477.46
737.702	7547.06
738.042	7520.17
738.383	7559.49
738.723	7561.07
739.063	7505.48
739.404	7558.13
739.744	7549.32
740.084	7517.91
740.424	7629.32
740.764	7563.33
741.104	7552.49
741.444	7604.24
741.784	7550.45
742.124	7593.84
742.464	7684.46
742.804	7669.09
743.143	7585.48
743.483	7632.48
743.823	7650.79
744.162	7665.25
744.502	7700.73
744.841	7689.88
745.181	7749.77
745.52	7793.61
745.86	7805.36
746.199	7794.29
746.538	7851.46
746.877	7860.27
747.216	7851.69
747.556	7957.22
747.895	7985.69
748.234	7991.8
748.573	7985.69
748.911	8041.29
749.25	8141.62
749.589	8133.94
749.928	8188.63
750.267	8276.76
750.605	8328.28
750.944	8349.3
751.283	8453.48
751.621	8435.85
751.96	8541.39
752.298	8634.26
752.636	8678.78
752.975	8693.47
753.313	8746.35
753.651	8928.04
753.989	8914.26
754.327	9108.38
754.666	9129.84
755.004	9285.32
755.342	9339.78
755.679	9422.27
756.017	9505.88
756.355	9666.33
756.693	9760.11
757.031	9854.35
757.368	9925.3
757.706	10023.38
758.044	10130.04
758.381	10352.64
758.719	10374.56
759.056	10558.51
759.394	10618.62
759.731	10704.49
760.068	10827.2
760.405	10932.96
760.743	11105.84
761.08	11277.36
761.417	11313.52
761.754	11443.46
762.091	11544.02
762.428	11726.39
762.765	11771.58
763.102	11937.45
763.438	12036.43
763.775	12207.5
764.112	12266.26
764.449	12507.83
764.785	12616.76
765.122	12625.57
765.458	12883.87
765.795	12925.68
766.131	13059.68
766.467	13121.6
766.804	13190.08
767.14	13266.69
767.476	13406.57
767.812	13470.75
768.148	13681.59
768.485	13676.62
768.821	13734.02
769.157	13920.23
769.492	13978.08
769.828	14138.75
770.164	14171.07
770.5	14223.27
770.836	14317.96
771.171	14273.44
771.507	14453.32
771.842	14401.12
772.178	14578.97
772.513	14594.11
772.849	14633.43
773.184	14654.9
773.519	14668
773.855	14750.94
774.19	14832.75
774.525	14825.97
774.86	14942.35
775.195	15016.24
775.53	15056.02
775.865	15064.38
776.2	15043.14
776.535	15006.75
776.87	15074.55
777.205	15047.66
777.539	15112.51
777.874	15161.55
778.209	15062.12
778.543	15094.66
778.878	15089.91
779.212	15166.3
779.547	15099.86
779.881	15229.8
780.215	15196.13
780.55	15264.37
780.884	15176.92
781.218	15290.59
781.552	15242.45
781.886	15297.14
782.22	15147.54
782.554	15122.91
782.888	15071.38
783.222	15095.79
783.556	15049.92
783.889	15128.33
784.223	15007.43
784.557	15048.79
784.89	15111.61
785.224	15040.42
785.557	15103.47
785.891	14998.39
786.224	14984.38
786.558	15070.71
786.891	14923.82
787.224	14897.6
787.557	14948.9
787.891	14915
788.224	14894.66
788.557	14841.78
788.89	14919.75
789.223	14860.32
789.556	14844.72
789.888	14814.44
790.221	14743.48
790.554	14733.99
790.887	14727.21
791.219	14736.48
791.552	14709.13
791.884	14586.2
792.217	14568.8
792.549	14629.81
792.882	14503.71
793.214	14399.08
793.546	14489.7
793.879	14363.38
794.211	14369.93
794.543	14373.55
794.875	14380.55
795.207	14386.88
795.539	14357.5
795.871	14299.88
796.203	14182.14
796.535	14245.19
796.867	14136.49
797.198	14206.77
797.53	14181.24
797.862	14047.68
798.193	14025.08
798.525	13990.96
798.856	14093.33
799.188	13872.77
799.519	13917.52
799.85	13787.58
800.182	13807.91
800.513	13848.59
800.844	13720.91
801.175	13844.52
801.506	13731.08
801.837	13705.09
802.168	13586.22
802.499	13671.87
802.83	13522.27
803.161	13525.44
803.491	13596.17
803.822	13538.54
804.153	13467.13
804.483	13402.05
804.814	13411.54
805.145	13277.31
805.475	13342.16
805.805	13260.36
806.136	13253.58
806.466	13334.93
806.796	13290.87
807.126	13171.55
807.457	13092
807.787	13173.81
808.117	13117.76
808.447	13104.43
808.777	13151.89
809.107	13066.46
809.436	12983.53
809.766	12915.96
810.096	12890.88
810.426	12887.26
810.755	12881.84
811.085	12835.06
811.414	12823.76
811.744	12721.84
812.073	12766.36
812.403	12740.6
812.732	12682.52
813.061	12691.11
813.39	12546.93
813.719	12673.71
814.049	12651.33
814.378	12624.67
814.707	12503.99
815.036	12487.04
815.365	12433.26
815.693	12366.14
816.022	12446.59
816.351	12410.89
816.68	12275.75
817.008	12397.1
817.337	12227.39
817.665	12230.78
817.994	12262.19
818.322	12268.52
818.651	12233.72
818.979	12139.03
819.307	12222.64
819.636	12211.35
819.964	12134.06
820.292	12142.42
820.62	12168.63
820.948	12152.82
821.276	12097
821.604	12137.22
821.932	12113.95
822.259	12151.91
822.587	12107.17
822.915	12082.08
823.243	12091.8
823.57	12125.25
823.898	12082.08
824.225	12017.23
824.553	12101.97
824.88	12074.63
825.207	12075.98
825.535	11991.69
825.862	12032.14
826.189	12097.22
826.516	12071.46
826.843	12101.74
827.17	12129.09
827.497	12103.1
827.824	12179.93
828.151	12099.48
828.478	12058.36
828.805	12078.69
829.131	12127.28
829.458	12027.62
829.785	11939.49
830.111	12082.76
830.438	12134.06
830.764	12097
831.09	12086.15
831.417	11969.09
831.743	12136.55
832.069	12120.73
832.395	12003.89
832.722	12035.98
833.048	12035.08
833.374	12025.59
833.7	11968.87
834.026	12042.76
834.351	12004.12
834.677	12049.99
835.003	12007.96
835.329	12008.19
835.654	11990.33
835.98	11839.38
836.306	11973.84
836.631	11795.99
836.956	11932.93
837.282	11932.71
837.607	11862.2
837.932	11771.36
838.258	11881.18
838.583	11870.56
838.908	11781.3
839.233	11724.8
839.558	11755.76
839.883	11674.64
840.208	11685.94
840.533	11645.48
840.858	11713.51
841.182	11687.52
841.507	11661.08
841.832	11573.4
842.156	11584.02
842.481	11589.89
842.805	11513.06
843.13	11574.53
843.454	11473.74
843.778	11457.02
844.103	11451.59
844.427	11443
844.751	11334.31
845.075	11395.32
845.399	11361.2
845.723	11294.99
846.047	11302.89
846.371	11165.5
846.695	11188.1
847.019	11027.65
847.343	11076.01
847.666	10998.27
847.99	10916.92
848.313	11005.28
848.637	10838.95
848.96	10957.14
849.284	10800.76
849.607	10747.66
849.931	10811.83
850.254	10729.35
850.577	10683.25
850.9	10538.62
851.223	10526.42
851.546	10550.37
851.869	10485.52
852.192	10469.7
852.515	10400.32
852.838	10380.89
853.161	10405.52
853.483	10299.98
853.806	10228.35
854.129	10183.83
854.451	10201.45
854.774	10182.02
855.096	10166.65
855.419	10142.47
855.741	10055.24
856.063	10023.83
856.385	9988.35
856.708	9975.92
857.03	9992.42
857.352	9933.89
857.674	9916.04
857.996	9888.92
858.318	9791.52
858.64	9827.68
858.961	9823.84
859.283	9757.85
859.605	9763.05
859.926	9695.48
860.248	9694.8
860.57	9632.43
860.891	9702.26
861.212	9587.91
861.534	9549.27
861.855	9549.95
862.176	9591.75
862.498	9561.25
862.819	9538.2
863.14	9556.05
863.461	9420.46
863.782	9449.16
864.103	9462.72
864.424	9389.05
864.745	9418.42
865.065	9360.8
865.386	9321.48
865.707	9351.53
866.027	9365.77
866.348	9312.66
866.668	9306.56
866.989	9314.25
867.309	9227.7
867.63	9262.72
867.95	9144.76
868.27	9224.53
868.59	9267.69
868.91	9170.07
869.23	9184.31
869.55	9151.31
869.87	9199.45
870.19	9099.11
870.51	9189.28
870.83	9126.23
871.15	9047.36
871.469	9136.4
871.789	9106.34
872.109	9074.03
872.428	9013.46
872.748	9029.06
873.067	9076.51
873.386	8984.09
873.706	9000.36
874.025	9004.2
874.344	8941.38
874.663	8921.94
874.982	8921.49
875.301	8935.05
875.62	8853.69
875.939	8864.54
876.258	8886.69
876.577	8834.94
876.896	8845.11
877.214	8834.03
877.533	8729.4
877.852	8738.89
878.17	8821.83
878.489	8749.29
878.807	8781.83
879.125	8770.98
879.444	8753.81
879.762	8663.42
880.08	8670.42
880.398	8688.27
880.716	8667.26
881.034	8610.99
881.352	8669.52
881.67	8630.65
881.988	8603.3
882.306	8505.23
882.624	8466.36
882.941	8500.71
883.259	8461.39
883.577	8474.72
883.894	8484.44
884.212	8497.77
884.529	8418.22
884.846	8422.97
885.164	8440.6
885.481	8341.62
885.798	8375.97
886.115	8284.44
886.432	8260.26
886.75	8289.19
887.067	8329.64
887.383	8262.52
887.7	8255.07
888.017	8247.83
888.334	8256.42
888.651	8199.7
888.967	8180.72
889.284	8124.9
889.6	8172.36
889.917	8085.8
890.233	8110.66
890.55	8089.65
890.866	8045.13
891.182	8016.88
891.498	7984.11
891.815	7980.5
892.131	7906.6
892.447	7893.04
892.763	7916.32
893.079	7889.88
893.395	7853.95
893.71	7812.82
894.026	7817.34
894.342	7774.85
894.657	7720.39
894.973	7684.46
895.289	7730.79
895.604	7673.84
895.92	7621.86
896.235	7589.55
896.55	7596.55
896.865	7530.79
897.181	7549.1
897.496	7576.89
897.811	7561.52
898.126	7500.28
898.441	7482.2
898.756	7362.66
899.071	7370.34
899.386	7362.43
899.7	7318.82
900.015	7263.23
900.33	7263
900.644	7194.53
900.959	7188.43
901.273	7232.95
901.588	7122.89
901.902	7175.55
902.216	7088.99
902.531	7064.81
902.845	7084.02
903.159	7012.16
903.473	6986.17
903.787	6918.15
904.101	6972.39
904.415	6908.66
904.729	6895.33
905.042	6850.13
905.356	6803.35
905.67	6785.05
905.984	6865.27
906.297	6814.88
906.611	6780.08
906.924	6767.42
907.237	6758.38
907.551	6651.27
907.864	6675.9
908.177	6639.29
908.491	6603.58
908.804	6566.07
909.117	6585.96
909.43	6524.94
909.743	6506.41
910.056	6493.53
910.368	6450.14
910.681	6437.03
910.994	6413.08
911.307	6375.34
911.619	6357.71
911.932	6328.79
912.244	6263.48
912.557	6253.54
912.869	6258.28
913.181	6200.43
913.494	6179.41
913.806	6156.14
914.118	6164.5
914.43	6117.04
914.742	6087.89
915.054	6015.58
915.366	6047.21
915.678	6026.65
915.99	6033.43
916.302	5939.42
916.613	5958.4
916.925	5922.92
917.236	5878.63
917.548	5887.22
917.859	5900.1
918.171	5835.24
918.482	5740.78
918.794	5795.92
919.105	5779.65
919.416	5782.36
919.727	5708.92
920.038	5689.71
920.349	5637.51
920.66	5637.96
920.971	5636.83
921.282	5593.21
921.593	5566.55
921.903	5569.49
922.214	5568.58
922.525	5486.32
922.835	5460.11
923.146	5421.69
923.456	5410.62
923.767	5393.22
924.077	5420.79
924.387	5395.03
924.697	5294.24
925.008	5322.04
925.318	5296.27
925.628	5292.88
925.938	5250.62
926.248	5209.95
926.558	5243.17
926.867	5237.07
927.177	5195.71
927.487	5186.9
927.796	5122.27
928.106	5151.64
928.416	5102.38
928.725	5056.28
929.034	5053.34
929.344	5041.59
929.653	5007.02
929.962	4963.17
930.271	4951.2
930.581	4941.93
930.89	4918.43
931.199	4927.7
931.508	4885.44
931.817	4917.75
932.125	4885.21
932.434	4837.98
932.743	4786
933.051	4767.02
933.36	4775.61
933.669	4754.82
933.977	4771.77
934.286	4722.95
934.594	4717.76
934.902	4687.25
935.21	4674.37
935.519	4644.99
935.827	4663.75
936.135	4655.16
936.443	4618.78
936.751	4584.65
937.059	4567.7
937.367	4531.1
937.674	4516.63
937.982	4505.79
938.29	4478.67
938.597	4470.31
938.905	4405.9
939.213	4388.27
939.52	4360.93
939.827	4422.4
940.135	4366.58
940.442	4368.39
940.749	4321.61
941.056	4360.48
941.363	4291.1
941.67	4282.97
941.977	4273.25
942.284	4259.01
942.591	4218.79
942.898	4179.24
943.205	4169.98
943.511	4163.65
943.818	4127.26
944.125	4101.28
944.431	4106.02
944.738	4108.06
945.044	4098.11
945.35	4087.04
945.657	4024.89
945.963	4008.17
946.269	3962.97
946.575	4006.14
946.881	3973.82
947.187	3973.6
947.493	3963.43
947.799	3974.5
948.105	3949.87
948.41	3885.91
948.716	3905.12
949.022	3845.46
949.327	3848.18
949.633	3812.47
949.938	3802.08
950.244	3798.01
950.549	3793.04
950.854	3751
951.16	3766.6
951.465	3731.79
951.77	3708.52
952.075	3735.18
952.38	3716.65
952.685	3711.23
952.99	3666.71
953.294	3666.26
953.599	3656.54
953.904	3601.18
954.209	3585.36
954.513	3552.82
954.818	3571.35
955.122	3551.46
955.426	3545.58
955.731	3512.82
956.035	3538.35
956.339	3472.59
956.643	3468.98
956.948	3427.4
957.252	3425.59
957.556	3462.65
957.86	3414.06
958.163	3397.79
958.467	3425.14
958.771	3386.94
959.075	3343.56
959.378	3327.96
959.682	3344.91
959.985	3360.28
960.289	3297.68
960.592	3297.23
960.896	3242.99
961.199	3251.81
961.502	3249.32
961.805	3266.04
962.108	3266.95
962.411	3221.53
962.714	3203.67
963.017	3198.93
963.32	3181.53
963.623	3140.62
963.926	3165.26
964.228	3139.95
964.531	3090.91
964.833	3115.31
965.136	3093.39
965.438	3062.66
965.741	3040.51
966.043	3027.41
966.345	3052.26
966.648	2998.93
966.95	2993.96
967.252	2962.1
967.554	2959.84
967.856	2981.98
968.158	2958.26
968.46	2938.37
968.761	2928.2
969.063	2942.66
969.365	2899.05
969.666	2892.49
969.968	2864.02
970.269	2839.61
970.571	2890.69
970.872	2860.18
971.174	2862.44
971.475	2794.42
971.776	2832.61
972.077	2794.87
972.378	2795.77
972.679	2764.36
972.98	2739.05
973.281	2768.88
973.582	2739.96
973.883	2764.59
974.183	2713.06
974.484	2746.96
974.785	2713.97
975.085	2706.74
975.386	2707.87
975.686	2645.72
975.986	2613.41
976.287	2648.66
976.587	2638.26
976.887	2622.22
977.187	2579.51
977.487	2581.99
977.787	2602.33
978.087	2560.07
978.387	2551.49
978.687	2563.01
978.987	2543.8
979.286	2488.21
979.586	2512.39
979.885	2492.05
980.185	2493.63
980.484	2484.82
980.784	2481.21
981.083	2464.03
981.382	2447.53
981.682	2451.15
981.981	2443.24
982.28	2429
982.579	2392.62
982.878	2385.62
983.177	2379.51
983.475	2378.61
983.774	2342.23
984.073	2341.55
984.372	2351.27
984.67	2328.67
984.969	2349.23
985.267	2301.1
985.566	2325.96
985.864	2311.94
986.162	2259.52
986.461	2286.86
986.759	2261.78
987.057	2232.4
987.355	2240.99
987.653	2235.34
987.951	2206.86
988.249	2236.69
988.547	2177.71
988.844	2174.55
989.142	2141.33
989.44	2211.83
989.737	2171.61
990.035	2149.69
990.332	2143.81
990.63	2146.07
990.927	2132.74
991.224	2141.55
991.521	2105.85
991.819	2090.93
992.116	2112.18
992.413	2081.22
992.71	2071.05
993.006	2033.31
993.303	2052.97
993.6	2065.17
993.897	2015.23
994.193	2017.94
994.49	1994.89
994.787	1977.72
995.083	1951.95
995.379	2026.53
995.676	1972.52
995.972	1949.24
996.268	1965.97
996.565	1910.37
996.861	1957.38
997.157	1946.08
997.453	1928.45
997.749	1909.7
998.044	1925.06
998.34	1904.5
998.636	1862.24
998.932	1855.69
999.227	1856.36
999.523	1826.76
999.818	1836.7
1000.114	1845.52
1000.409	1839.19
1000.704	1832.18
1001	1821.34
1001.295	1803.94
1001.59	1798.51
1001.885	1749.7
1002.18	1775.69
1002.475	1746.99
1002.77	1743.82
1003.065	1709.25
1003.359	1728.46
1003.654	1709.93
1003.949	1721.68
1004.243	1711.06
1004.538	1697.5
1004.832	1671.96
1005.127	1700.44
1005.421	1663.6
1005.715	1658.63
1006.009	1657.27
1006.304	1658.4
1006.598	1599.65
1006.892	1661.79
1007.186	1625.41
1007.48	1602.13
1007.773	1579.76
1008.067	1570.04
1008.361	1597.16
1008.655	1555.58
1008.948	1584.73
1009.242	1552.19
1009.535	1547.22
1009.829	1519.65
1010.122	1515.13
1010.415	1520.78
1010.708	1516.26
1011.001	1516.26
1011.295	1487.11
1011.588	1491.85
1011.881	1477.16
1012.173	1457.96
1012.466	1446.66
1012.759	1469.71
1013.052	1419.54
1013.344	1426.54
1013.637	1405.3
1013.93	1420.44
1014.222	1394.23
1014.514	1387.9
1014.807	1393.1
1015.099	1385.64
1015.391	1358.07
1015.683	1382.93
1015.976	1372.08
1016.268	1345.19
1016.56	1348.81
1016.851	1328.69
1017.143	1338.64
1017.435	1323.27
1017.727	1296.6
1018.018	1328.47
1018.31	1306.55
1018.602	1285.31
1018.893	1318.07
1019.185	1264.06
1019.476	1281.92
1019.767	1247.79
1020.058	1231.07
1020.35	1238.98
1020.641	1249.6
1020.932	1217.06
1021.223	1201.24
1021.514	1205.53
1021.804	1210.05
1022.095	1199.88
1022.386	1186.55
1022.677	1198.08
1022.967	1199.88
1023.258	1194.69
1023.548	1143.39
1023.839	1158.75
1024.129	1176.61
1024.419	1157.85
1024.709	1125.99
1025	1136.38
1025.29	1151.3
1025.58	1119.66
1025.87	1114.91
1026.16	1106.78
1026.449	1080.79
1026.739	1054.12
1027.029	1107
1027.319	1053.22
1027.608	1063.84
1027.898	1069.27
1028.187	1051.19
1028.477	1077.63
1028.766	1038.76
1029.055	1052.99
1029.344	1025.65
1029.634	998.53
1029.923	1020.68
1030.212	997.18
1030.501	997.63
1030.79	984.07
1031.078	977.06
1031.367	956.5
1031.656	963.05
1031.945	958.76
1032.233	957.63
1032.522	949.95
1032.81	956.05
1033.099	950.4
1033.387	944.98
1033.675	922.15
1033.963	944.07
1034.251	898.87
1034.54	912.43
1034.828	903.85
1035.116	897.52
1035.403	892.32
1035.691	904.07
1035.979	900.46
1036.267	886.22
1036.554	884.64
1036.842	877.86
1037.129	871.08
1037.417	863.62
1037.704	848.93
1037.992	850.06
1038.279	834.24
1038.566	864.98
1038.853	864.98
1039.14	864.98
