Data from hue_32_FLMS001491_00022.txt Node
Date: Tue Feb 07 17:23:06 GMT 2017
User: dcchb
Spectrometer: FLMS00149
Trigger mode: 0
Integration Time (sec): 2.000000E-2
Scans to average: 10
Electric dark correction enabled: true
Nonlinearity correction enabled: false
Boxcar width: 0
XAxis mode: Wavelengths
Number of Pixels in Spectrum: 2048
>>>>>Begin Spectral Data<<<<<
341.393	-20.25
341.776	-20.25
342.16	-20.25
342.543	-66.13
342.927	-71.55
343.31	-77.88
343.693	-65.9
344.077	-59.57
344.46	-62.74
344.843	-56.86
345.226	-18.9
345.61	-20.93
345.993	-27.49
346.376	-3.76
346.759	2.34
347.142	19.75
347.525	30.37
347.908	50.7
348.291	102.45
348.674	102.23
349.057	86.18
349.44	120.99
349.823	150.82
350.206	170.48
350.588	178.84
350.971	210.02
351.354	219.97
351.737	232.4
352.119	233.98
352.502	264.71
352.884	251.6
353.267	282.11
353.65	311.49
354.032	298.16
354.414	322.34
354.797	310.36
355.179	309.46
355.562	333.41
355.944	325.27
356.326	330.02
356.709	334.99
357.091	340.87
357.473	356.01
357.855	351.26
358.238	323.47
358.62	344.71
359.002	325.5
359.384	358.04
359.766	360.08
360.148	339.74
360.53	344.03
360.912	339.06
361.294	327.99
361.676	330.7
362.057	328.44
362.439	329.12
362.821	334.09
363.203	316.69
363.584	334.99
363.966	327.99
364.348	331.38
364.729	329.34
365.111	325.73
365.493	324.37
365.874	304.94
366.256	318.27
366.637	314.43
367.019	326.86
367.4	318.72
367.781	297.7
368.163	322.79
368.544	313.97
368.925	325.5
369.306	327.99
369.688	320.53
370.069	309.91
370.45	323.47
370.831	302.68
371.212	319.4
371.593	304.26
371.974	324.14
372.355	313.07
372.736	340.19
373.117	342
373.498	333.18
373.879	305.39
374.26	326.86
374.641	331.15
375.021	333.64
375.402	319.85
375.783	328.21
376.163	339.06
376.544	311.94
376.925	329.79
377.305	326.63
377.686	318.04
378.066	331.6
378.447	329.79
378.827	339.06
379.208	336.12
379.588	337.25
379.968	335.67
380.349	340.64
380.729	339.96
381.109	336.12
381.489	333.41
381.87	352.39
382.25	335.44
382.63	338.38
383.01	354.2
383.39	335.67
383.77	330.7
384.15	346.06
384.53	359.4
384.91	335.67
385.29	353.3
385.67	334.31
386.049	346.52
386.429	355.33
386.809	356.69
387.189	373.18
387.568	372.96
387.948	355.1
388.328	353.75
388.707	360.75
389.087	361.21
389.466	349
389.846	359.85
390.225	377.7
390.605	375.89
390.984	357.14
391.363	359.85
391.743	350.58
392.122	372.5
392.501	373.41
392.881	393.52
393.26	376.57
393.639	382.9
394.018	385.84
394.397	377.02
394.776	384.48
395.155	368.21
395.534	391.94
395.913	411.37
396.292	390.81
396.671	400.07
397.05	383.8
397.429	393.07
397.808	403.01
398.186	424.48
398.565	389.91
398.944	413.41
399.323	384.26
399.701	391.71
400.08	421.77
400.458	391.49
400.837	403.69
401.215	389.23
401.594	419.51
401.972	420.41
402.351	413.63
402.729	409.57
403.107	423.8
403.486	424.48
403.864	395.55
404.242	448.21
404.62	411.37
404.999	429.9
405.377	424.03
405.755	434.88
406.133	445.04
406.511	443.91
406.889	436.23
407.267	457.47
407.645	429.45
408.023	451.15
408.401	459.96
408.779	456.12
409.156	444.59
409.534	451.6
409.912	470.13
410.29	467.42
410.667	488.66
411.045	456.12
411.422	462.22
411.8	480.07
412.178	482.33
412.555	482.33
412.933	463.8
413.31	504.03
413.687	478.94
414.065	475.55
414.442	507.42
414.819	495.44
415.197	499.51
415.574	521.88
415.951	517.13
416.328	522.1
416.705	526.85
417.082	505.38
417.46	505.61
417.837	517.81
418.214	513.07
418.591	534.08
418.967	513.07
419.344	527.08
419.721	554.87
420.098	540.64
420.475	551.03
420.852	545.38
421.228	536.57
421.605	539.73
421.982	554.42
422.358	559.17
422.735	578.37
423.111	554.42
423.488	548.77
423.864	574.08
424.241	597.13
424.617	579.5
424.994	600.75
425.37	600.29
425.746	578.37
426.123	597.13
426.499	577.7
426.875	581.76
427.251	611.82
427.627	605.72
428.003	606.62
428.379	621.99
428.756	629.67
429.132	627.86
429.507	639.16
429.883	661.76
430.259	646.85
430.635	650.01
431.011	652.5
431.387	653.63
431.763	652.72
432.138	663.34
432.514	665.15
432.89	666.73
433.265	692.95
433.641	664.93
434.016	704.02
434.392	706.05
434.767	692.5
435.143	726.17
435.518	718.03
435.894	725.49
436.269	744.92
436.644	727.98
437.02	729.11
437.395	740.4
437.77	722.78
438.145	747.64
438.52	734.08
438.895	752.61
439.271	763.23
439.646	775.66
440.021	769.78
440.395	773.4
440.77	787.63
441.145	798.71
441.52	774.53
441.895	792.15
442.27	799.84
442.645	819.5
443.019	806.39
443.394	835.32
443.769	830.57
444.143	831.25
444.518	843.68
444.892	838.03
445.267	821.76
445.641	852.94
446.016	869.44
446.39	889.1
446.764	874.19
447.139	861.98
447.513	876.22
447.887	861.08
448.262	856.56
448.636	893.85
449.01	909.67
449.384	908.54
449.758	903.34
450.132	901.76
450.506	914.64
450.88	910.57
451.254	957.57
451.628	928.2
452.002	951.7
452.376	945.14
452.75	964.35
453.123	973.84
453.497	965.48
453.871	975.2
454.244	990.57
454.618	989.89
454.992	997.57
455.365	995.99
455.739	1035.76
456.112	1035.54
456.486	1032.37
456.859	1036.89
457.232	1074.18
457.606	1095.65
457.979	1112.37
458.352	1125.25
458.725	1133.39
459.099	1108.3
459.472	1142.88
459.845	1148.53
460.218	1184.23
460.591	1189.43
460.964	1166.61
461.337	1215.87
461.71	1220.39
462.083	1247.06
462.456	1242.54
462.829	1243.89
463.201	1255.87
463.574	1263.33
463.947	1278.02
464.32	1306.72
464.692	1320.95
465.065	1326.83
465.438	1337.22
465.81	1380.84
466.183	1351.91
466.555	1426.04
466.928	1422.65
467.3	1419.71
467.672	1461.74
468.045	1461.52
468.417	1486.15
468.789	1520.95
469.161	1525.92
469.534	1540.38
469.906	1574.96
470.278	1577.9
470.65	1605.92
471.022	1646.6
471.394	1629.65
471.766	1695.86
472.138	1679.81
472.51	1747.16
472.882	1775.18
473.253	1788.51
473.625	1829.87
473.997	1866.48
474.369	1920.26
474.74	1928.4
475.112	1951.45
475.484	2002.74
475.855	2019.47
476.227	2070.54
476.598	2148.73
476.97	2171.78
477.341	2212.23
477.713	2249.07
478.084	2291.32
478.455	2370.19
478.827	2401.38
479.198	2496.52
479.569	2510.08
479.94	2535.61
480.311	2609.51
480.682	2701.48
481.053	2715.72
481.424	2808.37
481.795	2865.55
482.166	2902.61
482.537	3007.24
482.908	3090.17
483.279	3124.52
483.65	3193.9
484.021	3278.42
484.391	3360.67
484.762	3425.53
485.133	3495.13
485.503	3562.7
485.874	3639.31
486.244	3683.83
486.615	3818.06
486.985	3874.33
487.356	3981.9
487.726	4000.66
488.097	4098.96
488.467	4203.82
488.837	4307.54
489.207	4405.17
489.578	4491.72
489.948	4532.85
490.318	4611.71
490.688	4701.43
491.058	4752.5
491.428	4879.05
491.798	4968.54
492.168	5031.14
492.538	5136.45
492.908	5228.65
493.278	5306.39
493.648	5357.23
494.017	5496.44
494.387	5571.24
494.757	5618.92
495.126	5703.44
495.496	5798.12
495.866	5812.81
496.235	5905.92
496.605	5947.05
496.974	6084.44
497.344	6163.76
497.713	6203.31
498.082	6267.72
498.452	6354.72
498.821	6434.27
499.19	6408.05
499.559	6571.89
499.928	6611.44
500.298	6695.28
500.667	6735.95
501.036	6748.16
501.405	6891.65
501.774	6904.54
502.143	6963.29
502.512	7067.47
502.88	7147.92
503.249	7124.87
503.618	7239.67
503.987	7274.92
504.356	7318.76
504.724	7390.85
505.093	7438.53
505.462	7495.25
505.83	7524.86
506.199	7662.93
506.567	7753.33
506.936	7763.95
507.304	7839.65
507.672	7862.25
508.041	7931.63
508.409	7958.97
508.777	8021.57
509.145	8105.41
509.514	8142.47
509.882	8169.36
510.25	8209.13
510.618	8329.81
510.986	8318.74
511.354	8464.27
511.722	8505.17
512.09	8534.55
512.458	8513.76
512.826	8587.66
513.193	8699.52
513.561	8714.21
513.929	8743.13
514.297	8855.22
514.664	8874.88
515.032	8845.5
515.4	9013.18
515.767	9042.56
516.135	9087.76
516.502	9104.03
516.869	9156.23
517.237	9181.54
517.604	9216.57
517.972	9273.06
518.339	9363.23
518.706	9379.5
519.073	9365.49
519.44	9496.11
519.808	9486.84
520.175	9477.12
520.542	9681.41
520.909	9703.11
521.276	9694.75
521.643	9784.91
522.009	9841.63
522.376	9951.24
522.743	9953.5
523.11	10047.96
523.477	10116.2
523.843	10142.19
524.21	10275.52
524.577	10350.55
524.943	10340.38
525.31	10360.72
525.676	10477.1
526.043	10529.75
526.409	10519.13
526.776	10731.33
527.142	10709.63
527.508	10692.23
527.874	10868.27
528.241	10885.67
528.607	10919.12
528.973	11042.28
529.339	10988.5
529.705	11153.69
530.071	11212.67
530.437	11278.21
530.803	11346.23
531.169	11401.59
531.535	11387.81
531.901	11464.42
532.267	11475.72
532.632	11542.15
532.998	11588.25
533.364	11751.87
533.73	11727.23
534.095	11813.11
534.461	11849.04
534.826	11957.96
535.192	11919.32
535.557	12027.34
535.923	12062.59
536.288	12137.39
536.653	12144.4
537.019	12101.46
537.384	12140.1
537.749	12302.13
538.114	12299.42
538.479	12278.18
538.845	12374.9
539.21	12454.45
539.575	12500.77
539.94	12485.41
540.305	12624.39
540.67	12553.2
541.034	12661.9
541.399	12763.14
541.764	12705.97
542.129	12795.91
542.494	12847.2
542.858	12863.25
543.223	12830.48
543.587	13060.31
543.952	12988.9
544.316	13115.9
544.681	13162.68
545.045	13268.44
545.41	13210.13
545.774	13231.38
546.138	13356.57
546.503	13375.78
546.867	13432.95
547.231	13538.71
547.595	13604.92
547.959	13598.6
548.324	13673.4
548.688	13681.08
549.052	13666.84
549.416	13733.51
549.779	13771.93
550.143	13805.6
550.507	14002.88
550.871	13978.02
551.235	13928.98
551.599	14075.87
551.962	14056.21
552.326	14153.61
552.689	14266.15
553.053	14216.43
553.417	14279.26
553.78	14445.35
554.143	14298.01
554.507	14416.65
554.87	14452.13
555.234	14617.55
555.597	14504.11
555.96	14589.31
556.323	14614.84
556.686	14656.65
557.05	14710.21
557.413	14780.71
557.776	14855.74
558.139	14966.02
558.502	14929.41
558.865	15031.55
559.228	15109.29
559.59	15054.83
559.953	15107.03
560.316	15274.26
560.679	15316.74
561.041	15323.3
561.404	15459.57
561.767	15525.33
562.129	15512.67
562.492	15659.33
562.854	15554.03
563.217	15653.01
563.579	15743.63
563.941	15807.8
564.304	15837.86
564.666	15933.45
565.028	15943.39
565.39	15950.85
565.753	16052.32
566.115	16094.12
566.477	16151.52
566.839	16127.57
567.201	16413.21
567.563	16411.18
567.925	16531.63
568.287	16490.95
568.648	16445.98
569.01	16657.95
569.372	16740.44
569.734	16727.55
570.095	16857.49
570.457	16875.12
570.819	16998.73
571.18	16945.4
571.542	17093.65
571.903	17163.7
572.265	17200.54
572.626	17246.18
572.987	17352.85
573.349	17360.53
573.71	17527.31
574.071	17626.97
574.432	17642.56
574.794	17930.69
575.155	17823.34
575.516	17889.11
575.877	18102.66
576.238	18148.31
576.599	18096.33
576.96	18428.75
577.32	18505.36
577.681	18613.38
578.042	18750.55
578.403	18779.25
578.763	19043.2
579.124	19099.92
579.485	19347.6
579.845	19532.23
580.206	19551.89
580.566	19741.26
580.927	19910.3
581.287	20063.29
581.648	20150.06
582.008	20384.86
582.368	20473.22
582.728	20661.46
583.089	20792.98
583.449	21115.24
583.809	21265.74
584.169	21528.11
584.529	21630.48
584.889	21824.82
585.249	22152.27
585.609	22168.99
585.969	22537.8
586.329	22856.88
586.688	22982.08
587.048	23276.31
587.408	23422.52
587.768	23568.73
588.127	23854.82
588.487	24051.43
588.846	24354.92
589.206	24529.84
589.565	24741.36
589.925	25094.11
590.284	25325.97
590.643	25529.58
591.003	25878.73
591.362	26170.02
591.721	26478.48
592.08	26633.73
592.44	27059.71
592.799	27225.58
593.158	27440.27
593.517	27747.83
593.876	28070.99
594.235	28203.18
594.593	28537.19
594.952	28790.74
595.311	29003.39
595.67	29360.67
596.029	29640.89
596.387	29894.21
596.746	30132.85
597.104	30365.16
597.463	30578.94
597.822	30933.73
598.18	31075.65
598.538	31245.82
598.897	31704.11
599.255	31697.56
599.613	32370.08
599.972	32373.24
600.33	32714.93
600.688	32698.89
601.046	33075.6
601.404	33510.39
601.762	33636.49
602.12	33939.08
602.478	34064.95
602.836	34351.05
603.194	34328.45
603.552	34657.7
603.91	34590.36
604.268	35153.06
604.625	35217.46
604.983	35386.95
605.341	35503.78
605.698	35865.81
606.056	36022.19
606.413	36277.77
606.771	36555.73
607.128	36621.04
607.485	36729.29
607.843	36830.98
608.2	37223.96
608.557	37556.39
608.914	37571.53
609.272	37973.78
609.629	37989.82
609.986	38372.64
610.343	38280.21
610.7	38714.55
611.057	38653.76
611.414	38802
611.771	39044.26
612.127	39228.21
612.484	39376.45
612.841	39648.99
613.198	39560.63
613.554	39640.4
613.911	39899.37
614.267	40051.69
614.624	40206.26
614.98	40300.95
615.337	40445.57
615.693	40595.18
616.05	40584.78
616.406	40892.12
616.762	40914.49
617.118	40996.52
617.475	41152.45
617.831	41330.75
618.187	41447.13
618.543	41613.68
618.899	41655.94
619.255	41803.05
619.611	41798.53
619.967	42149.03
620.323	42281.91
620.678	42287.79
621.034	42187.22
621.39	42255.7
621.746	42279.65
622.101	42841.22
622.457	42602.35
622.812	42619.76
623.168	42737.72
623.523	42900.88
623.879	43064.72
624.234	42733.42
624.589	42964.6
624.945	43107.65
625.3	43179.97
625.655	43175.9
626.01	43328.21
626.365	43379.96
626.72	43336.57
627.075	43331.6
627.43	43486.85
627.785	43278.95
628.14	43387.64
628.495	43553.52
628.85	43526.85
629.205	43494.08
629.559	43776.11
629.914	43569.56
630.269	43747.64
630.623	43633.97
630.978	43567.3
631.332	43777.69
631.687	43839.16
632.041	43673.29
632.396	43793.28
632.75	43714.19
633.104	43772.04
633.459	43623.12
633.813	43603.46
634.167	43640.29
634.521	43571.14
634.875	43740.63
635.229	43621.76
635.583	43512.39
635.937	43611.59
636.291	43734.75
636.645	43691.82
636.999	43559.84
637.352	43742.89
637.706	43458.6
638.06	43745.83
638.413	43565.27
638.767	43491.37
639.121	43521.88
639.474	43504.93
639.828	43468.09
640.181	43494.31
640.534	43499.28
640.888	43324.82
641.241	43188.33
641.594	43236.91
641.947	43380.41
642.301	43204.37
642.654	43292.28
643.007	43304.71
643.36	43179.97
643.713	43144.04
644.066	43320.98
644.419	43056.13
644.771	43049.12
645.124	42559.42
645.477	42605.07
645.83	42232.42
646.182	42210.05
646.535	42033.1
646.888	42218.86
647.24	42032.65
647.593	42383.38
647.945	42070.39
648.298	41963.05
648.65	41932.99
649.002	41751.3
649.355	42005.53
649.707	41966.44
650.059	42210.27
650.411	42631.51
650.763	42566.88
651.115	43063.81
651.467	42809.81
651.819	42882.12
652.171	42854.55
652.523	42718.06
652.875	42698.17
653.227	42514.22
653.578	42885.28
653.93	42713.09
654.282	42585.86
654.633	42506.54
654.985	42561.9
655.337	42648
655.688	42472.87
656.039	42753.76
656.391	42390.61
656.742	42527.78
657.094	42625.86
657.445	42671.96
657.796	42534.79
658.147	42392.19
658.498	42642.35
658.849	42540.66
659.2	42504.05
659.551	42316.03
659.902	42528.23
660.253	42455.47
660.604	42561.68
660.955	42305.87
661.306	42432.87
661.656	42415.24
662.007	42329.59
662.358	42422.92
662.708	42311.97
663.059	42404.62
663.409	42036.27
663.76	42385.18
664.11	42310.16
664.461	42442.58
664.811	42434.22
665.161	42301.12
665.511	42307.9
665.862	42291.85
666.212	42380.21
666.562	42487.56
666.912	42343.15
667.262	42308.12
667.612	42135.7
667.962	42399.65
668.312	42177.73
668.662	42441
669.011	42292.76
669.361	42202.36
669.711	42182.25
670.06	42212.31
670.41	42253.66
670.76	42078.07
671.109	42332.76
671.459	42100.22
671.808	42089.37
672.157	42138.64
672.507	41854.58
672.856	41903.62
673.205	42031.52
673.554	42216.38
673.904	41851.64
674.253	42198.07
674.602	42198.52
674.951	41450.07
675.3	41287.81
675.649	41869.72
675.998	41950.39
676.346	41911.53
676.695	41983.84
677.044	41739.78
677.393	41829.72
677.741	41916.72
678.09	41711.3
678.438	41679.67
678.787	41740.23
679.135	41785.88
679.484	41505.43
679.832	41717.63
680.181	41511.08
680.529	41579.56
680.877	41396.96
681.225	41323.97
681.573	41589.5
681.922	41263.86
682.27	41294.59
682.618	41227.7
682.966	41163.75
683.314	41237.19
683.661	41103.64
684.009	40901.16
684.357	40849.86
684.705	40820.25
685.053	40953.13
685.4	40756.75
685.748	40561.73
686.095	40698.22
686.443	40476.53
686.79	40478.57
687.138	40493.71
687.485	40328.06
687.832	40346.14
688.18	40328.97
688.527	40185.92
688.874	40111.12
689.221	40038.81
689.568	39982.08
689.915	39908.64
690.262	39775.99
690.609	39644.92
690.956	39647.86
691.303	39474.08
691.65	39524.92
691.997	39403.34
692.344	39267.75
692.69	39272.27
693.037	39153.86
693.383	38885.84
693.73	39048.55
694.077	38764.72
694.423	38730.82
694.769	38604.95
695.116	38620.31
695.462	38753.87
695.808	38575.57
696.155	38426.87
696.501	38190.72
696.847	38299.19
697.193	38046.09
697.539	38123.83
697.885	38004.28
698.231	37742.82
698.577	37796.15
698.923	37739.66
699.269	37566.78
699.614	37439.55
699.96	37332.21
700.306	37340.12
700.651	37165.21
700.997	37153.91
701.342	36983.52
701.688	36950.07
702.033	36766.58
702.379	36723.41
702.724	36788.04
703.069	36809.51
703.415	36410.43
703.76	36332.69
704.105	36427.6
704.45	36170.21
704.795	36168.4
705.14	36022.19
705.485	35897.22
705.83	35832.36
706.175	35872.14
706.52	35782.87
706.865	35630.11
707.209	35548.98
707.554	35417.23
707.899	35457.46
708.243	35337.46
708.588	35334.07
708.932	35064.93
709.277	35175.21
709.621	35190.57
709.966	34895.66
710.31	34968.43
710.654	34749.91
710.998	34781.77
711.342	34684.14
711.687	34665.84
712.031	34538.61
712.375	34369.12
712.719	34485.05
713.063	34316.47
713.407	34456.35
713.75	34156.93
714.094	34130.26
714.438	34067.66
714.782	34125.29
715.125	33881.68
715.469	34048
715.812	33912.87
716.156	33703.15
716.499	33773.89
716.843	33724.4
717.186	33489.6
717.53	33764.85
717.873	33797.39
718.216	33433.78
718.559	33368.7
718.902	33120.57
719.246	33215.93
719.589	33180.23
719.932	32949.27
720.275	33093.45
720.617	33021.82
720.96	32967.81
721.303	32812.78
721.646	32996.73
721.989	32599.45
722.331	32849.84
722.674	32812.78
723.016	32704.08
723.359	32595.39
723.701	32728.72
724.044	32442.4
724.386	32312.91
724.729	32469.06
725.071	32408.27
725.413	32366.92
725.755	32274.72
726.097	32171.67
726.439	31893.71
726.782	32053.03
727.124	32143.87
727.465	31970.77
727.807	31967.15
728.149	31917.21
728.491	31852.35
728.833	31778.23
729.175	31752.24
729.516	31654.39
729.858	31653.04
730.199	31544.57
730.541	31694.39
730.882	31492.59
731.224	31593.83
731.565	31378.69
731.906	31435.64
732.248	31449.88
732.589	31317.91
732.93	31037.23
733.271	31164.92
733.612	31219.38
733.953	31252.6
734.294	31024.13
734.635	30971.25
734.976	31026.84
735.317	30872.95
735.658	30909.33
735.999	30880.63
736.339	30739.62
736.68	30828.65
737.021	30639.28
737.361	30652.39
737.702	30804.92
738.042	30747.98
738.383	30568.32
738.723	30683.12
739.063	30456.01
739.404	30582.33
739.744	30445.16
740.084	30404.03
740.424	30435.67
740.764	30355.67
741.104	30611.26
741.444	30189.8
741.784	30199.74
742.124	30270.02
742.464	30047.43
742.804	30037.94
743.143	29943.7
743.483	30004.04
743.823	29920.65
744.162	29947.55
744.502	29914.78
744.841	29760.66
745.181	29739.19
745.52	29824.16
745.86	29831.62
746.199	29719.76
746.538	29669.81
746.877	29721.79
747.216	29616.26
747.556	29667.55
747.895	29536.26
748.234	29482.25
748.573	29461.23
748.911	29374.68
749.25	29285.64
749.589	29207
749.928	29298.3
750.267	29266.21
750.605	29120.22
750.944	29209.71
751.283	29003.84
751.621	29041.36
751.96	28848.82
752.298	28934.01
752.636	28804.3
752.975	28657.18
753.313	28506
753.651	28820.57
753.989	28518.43
754.327	28472.1
754.666	28383.97
755.004	28488.38
755.342	28537.87
755.679	28362.5
756.017	28315.05
756.355	28265.33
756.693	28233.47
757.031	28261.26
757.368	28063.53
757.706	28069.86
758.044	27859.24
758.381	27988.95
758.719	27906.02
759.056	27804.33
759.394	27761.84
759.731	27579.25
760.068	27600.49
760.405	27487.27
760.743	27421.74
761.08	27444.33
761.417	27381.96
761.754	27316.43
762.091	27271.23
762.428	26989.88
762.765	26916.21
763.102	27052.71
763.438	26857.01
763.775	26794.86
764.112	26776.56
764.449	26736.56
764.785	26645.49
765.122	26501.53
765.458	26306.96
765.795	26350.58
766.131	26234.2
766.467	26261.32
766.804	26063.81
767.14	25894.55
767.476	25944.26
767.812	25887.09
768.148	25956.24
768.485	25685.51
768.821	25628.34
769.157	25536.14
769.492	25492.3
769.828	25374.11
770.164	25276.03
770.5	25246.2
770.836	25046.21
771.171	24993.55
771.507	24892.09
771.842	24839.43
772.178	24736.38
772.513	24731.86
772.849	24608.03
773.184	24402.38
773.519	24505.43
773.855	24446
774.19	24252.33
774.525	24187.25
774.86	24179.56
775.195	24123.29
775.53	23933.24
775.865	23895.28
776.2	23742.51
776.535	23590.65
776.87	23576.64
777.205	23457.77
777.539	23285.12
777.874	23416.64
778.209	23260.72
778.543	23176.42
778.878	23075.41
779.212	23070.44
779.547	22860.5
779.881	22988.18
780.215	22750.22
780.55	22817.56
780.884	22704.12
781.218	22610.79
781.552	22626.38
781.886	22362.43
782.22	22382.1
782.554	22253.28
782.888	22130.12
783.222	22023.01
783.556	21952.73
783.889	21914.54
784.223	21738.72
784.557	21749.12
784.89	21768.55
785.224	21594.55
785.557	21502.34
785.891	21336.7
786.224	21383.48
786.558	21300.32
786.891	21088.8
787.224	21078.85
787.557	21100.77
787.891	20926.54
788.224	20879.31
788.557	20879.31
788.89	20962.25
789.223	20797.73
789.556	20597.51
789.888	20493.78
790.221	20537.4
790.554	20312.55
790.887	20362.04
791.219	20385.54
791.552	20129.27
791.884	20156.16
792.217	20107.58
792.549	19926.79
792.882	19835.5
793.214	19698.32
793.546	19816.06
793.879	19596.41
794.211	19558.21
794.543	19626.24
794.875	19546.46
795.207	19561.6
795.539	19421.72
795.871	19449.06
796.203	19205.46
796.535	19165
796.867	19071.9
797.198	18990.55
797.53	19078.91
797.862	18864.9
798.193	18982.86
798.525	18870.55
798.856	18895.63
799.188	18682.76
799.519	18611.57
799.85	18579.94
800.182	18477.11
800.513	18550.78
800.844	18316.44
801.175	18522.99
801.506	18416.32
801.837	18302.43
802.168	18252.49
802.499	18206.84
802.83	18166.61
803.161	18099.27
803.491	18065.6
803.822	17996.45
804.153	17954.19
804.483	17790.58
804.814	17670.81
805.145	17685.95
805.475	17610.47
805.805	17624.48
806.136	17645.72
806.466	17536.35
806.796	17466.29
807.126	17410.93
807.457	17344.71
807.787	17376.58
808.117	17229.01
808.447	17167.32
808.777	17170.48
809.107	17122.8
809.436	17000.09
809.766	17084.16
810.096	16935.91
810.426	16990.37
810.755	16967.1
811.085	16820.66
811.414	16816.37
811.744	16737.05
812.073	16680.55
812.403	16682.81
812.732	16542.25
813.061	16565.75
813.39	16478.75
813.719	16520.33
814.049	16545.19
814.378	16399.43
814.707	16385.19
815.036	16308.13
815.365	16253.89
815.693	16168.93
816.022	16127.57
816.351	16233.78
816.68	16044.86
817.008	15996.5
817.337	15928.48
817.665	15813.23
817.994	15978.42
818.322	15918.76
818.651	15846.9
818.979	15651.65
819.307	15791.76
819.636	15745.43
819.964	15636.28
820.292	15706.34
820.62	15701.59
820.948	15584.08
821.276	15744.53
821.604	15659.56
821.932	15567.13
822.259	15647.36
822.587	15613.69
822.915	15603.06
823.243	15595.83
823.57	15551.54
823.898	15556.96
824.225	15535.04
824.553	15534.37
824.88	15461.15
825.207	15551.77
825.535	15569.62
825.862	15484.2
826.189	15471.32
826.516	15465.44
826.843	15614.36
827.17	15588.83
827.497	15563.52
827.824	15525.55
828.151	15477.87
828.478	15454.82
828.805	15563.52
829.131	15552.9
829.458	15511.99
829.785	15486.46
830.111	15555.61
830.438	15522.39
830.764	15444.88
831.09	15538.66
831.417	15411.88
831.743	15493.91
832.069	15481.71
832.395	15375.05
832.722	15533.69
833.048	15347.48
833.374	15387.25
833.7	15356.74
834.026	15353.35
834.351	15401.26
834.677	15368.72
835.003	15347.7
835.329	15315.16
835.654	15250.53
835.98	15246.24
836.306	15241.27
836.631	15156.97
836.956	15218.44
837.282	15279.23
837.607	15125.11
837.932	15150.87
838.258	15089.63
838.583	15072.46
838.908	15023.19
839.233	15020.25
839.558	15026.36
839.883	14888.73
840.208	14944.78
840.533	14909.98
840.858	14829.75
841.182	14877.43
841.507	14852.58
841.832	14759.24
842.156	14773.26
842.481	14697.78
842.805	14691.9
843.13	14693.26
843.454	14629.53
843.778	14601.73
844.103	14655.29
844.427	14571
844.751	14553.6
845.075	14480.38
845.399	14452.36
845.723	14291.46
846.047	14356.54
846.371	14286.04
846.695	14304.34
847.019	14136.44
847.343	13981.64
847.666	14054.18
847.99	13981.86
848.313	13983.9
848.637	13914.75
848.96	13803.11
849.284	13785.71
849.607	13721.98
849.931	13597.92
850.254	13589.33
850.577	13456.45
850.9	13440.41
851.223	13353.41
851.546	13252.39
851.869	13293.07
852.192	13345.27
852.515	13251.49
852.838	13129.68
853.161	13110.7
853.483	13010.82
853.806	12995.22
854.129	12998.16
854.451	12968.11
854.774	12801.33
855.096	12780.77
855.419	12761.78
855.741	12797.71
856.063	12677.04
856.385	12653.99
856.708	12621.45
857.03	12651.96
857.352	12596.14
857.674	12502.58
857.996	12498.51
858.318	12398.4
858.64	12402.7
858.961	12354.56
859.283	12366.77
859.605	12277.73
859.926	12356.6
860.248	12311.63
860.57	12233.66
860.891	12213.32
861.212	12093.78
861.534	12086.77
861.855	12060.33
862.176	12090.16
862.498	11985.08
862.819	11964.52
863.14	12026.21
863.461	11946.21
863.782	11967.23
864.103	11922.71
864.424	11880.45
864.745	11917.51
865.065	11865.31
865.386	11797.06
865.707	11747.12
866.027	11799.77
866.348	11803.16
866.668	11710.29
866.989	11760.45
867.309	11659.44
867.63	11587.35
867.95	11621.93
868.27	11556.39
868.59	11543.28
868.91	11531.76
869.23	11599.33
869.55	11462.83
869.87	11546.45
870.19	11516.84
870.51	11511.19
870.83	11505.32
871.15	11437.07
871.469	11413.8
871.789	11395.94
872.109	11480.91
872.428	11351.42
872.748	11387.81
873.067	11367.92
873.386	11360.01
873.706	11270.97
874.025	11277.53
874.344	11299.22
874.663	11296.51
874.982	11265.1
875.301	11143.75
875.62	11240.69
875.939	11143.97
876.258	11140.13
876.577	11118.89
876.896	11161.15
877.214	11055.84
877.533	11110.3
877.852	11069.62
878.17	11055.84
878.489	11056.74
878.807	11048.83
879.125	11050.19
879.444	10964.77
879.762	10932.68
880.08	11022.62
880.398	10918.22
880.716	10908.5
881.034	10879.8
881.352	10822.17
881.67	10746.69
881.988	10837.09
882.306	10786.24
882.624	10742.18
882.941	10708.96
883.259	10703.08
883.577	10687.49
883.894	10589.64
884.212	10640.48
884.529	10624.89
884.846	10538.34
885.164	10522.29
885.481	10539.24
885.798	10464.89
886.115	10461.5
886.432	10459.7
886.75	10397.1
887.067	10403.88
887.383	10370.43
887.7	10347.16
888.017	10324.33
888.334	10287.05
888.651	10300.38
888.967	10189.42
889.284	10195.75
889.6	10197.78
889.917	10131.57
890.233	10151.23
890.55	10138.58
890.866	10091.12
891.182	10045.24
891.498	10038.46
891.815	9950.78
892.131	10028.07
892.447	9918.69
892.763	9940.84
893.079	9823.33
893.395	9876.89
893.71	9800.96
894.026	9804.35
894.342	9756.89
894.657	9639.83
894.973	9678.93
895.289	9705.37
895.604	9647.97
895.92	9608.19
896.235	9552.38
896.55	9574.52
896.865	9519.38
897.181	9499.72
897.496	9516.67
897.811	9454.53
898.126	9345.6
898.441	9367.3
898.756	9333.85
899.071	9243.68
899.386	9301.08
899.7	9220.63
900.015	9186.74
900.33	9044.59
900.644	9095.21
900.959	9105.83
901.273	9077.13
901.588	9003.01
901.902	8954.2
902.216	8943.13
902.531	8937.25
902.845	8814.09
903.159	8840.76
903.473	8813.19
903.787	8814.09
904.101	8733.64
904.415	8736.58
904.729	8696.13
905.042	8681.44
905.356	8615.23
905.67	8592.85
905.984	8618.39
906.297	8598.05
906.611	8473.31
906.924	8474.44
907.237	8466.53
907.551	8453.42
907.864	8364.61
908.177	8354.22
908.491	8243.03
908.804	8240.09
909.117	8258.17
909.43	8204.84
909.743	8139.53
910.056	8123.49
910.368	8188.57
910.681	8055.92
910.994	8047.33
911.307	7944.06
911.619	7962.81
911.932	8034.9
912.244	7971.63
912.557	7904.28
912.869	7830.61
913.181	7821.8
913.494	7809.37
913.806	7760.11
914.118	7668.58
914.43	7680.79
914.742	7600.79
915.054	7628.13
915.366	7572.54
915.678	7566.21
915.99	7518.31
916.302	7525.08
916.613	7448.7
916.925	7412.32
917.236	7407.35
917.548	7357.18
917.859	7359.21
918.171	7301.14
918.482	7281.25
918.794	7259.78
919.105	7243.28
919.416	7150.86
919.727	7191.76
920.038	7177.07
920.349	7104.53
920.66	7066.11
920.971	7059.79
921.282	6980.47
921.593	6957.87
921.903	6986.79
922.214	6910.41
922.525	6848.94
922.835	6890.3
923.146	6757.87
923.456	6784.99
923.767	6812.79
924.077	6721.49
924.387	6689.85
924.697	6693.92
925.008	6701.83
925.318	6610.08
925.628	6628.16
925.938	6605.11
926.248	6535.73
926.558	6508.61
926.867	6519.91
927.177	6427.71
927.487	6394.04
927.796	6355.85
928.106	6375.74
928.416	6313.82
928.725	6285.8
929.034	6300.03
929.344	6289.18
929.653	6269.07
929.962	6194.5
930.271	6195.4
930.581	6107.27
930.89	6133.93
931.199	6095.52
931.508	6096.2
931.817	6033.6
932.125	6024.56
932.434	6026.82
932.743	5968.29
933.051	5917.44
933.36	5921.06
933.669	5879.48
933.977	5840.84
934.286	5880.83
934.594	5862.08
934.902	5749.09
935.21	5833.83
935.519	5739.14
935.827	5744.79
936.135	5689.65
936.443	5651.46
936.751	5621.41
937.059	5644.46
937.367	5576.44
937.674	5596.77
937.982	5566.04
938.29	5552.26
938.597	5539.83
938.905	5519.94
939.213	5432.48
939.52	5395.42
939.827	5397.46
940.135	5424.57
940.442	5369.66
940.749	5333.5
941.056	5312.49
941.363	5275.2
941.67	5276.78
941.977	5236.56
942.284	5192.26
942.591	5201.98
942.898	5168.31
943.205	5210.8
943.511	5096.9
943.818	5163.34
944.125	5067.07
944.431	5057.8
944.738	5095.32
945.044	5039.73
945.35	5011.03
945.657	4969.9
945.963	4945.94
946.269	4882.44
946.575	4975.32
946.881	4872.5
947.187	4863.69
947.493	4886.96
947.799	4854.65
948.105	4818.49
948.41	4795.21
948.716	4836.57
949.022	4758.15
949.327	4770.81
949.633	4695.1
949.938	4693.75
950.244	4683.58
950.549	4659.85
950.854	4648.1
951.16	4646.97
951.465	4599.96
951.77	4548.44
952.075	4531.27
952.38	4547.99
952.685	4540.76
952.99	4489.68
953.294	4484.94
953.599	4464.37
953.904	4405.17
954.209	4365.39
954.513	4410.59
954.818	4390.48
955.122	4366.98
955.426	4329.01
955.731	4268.67
956.035	4291.05
956.339	4262.12
956.643	4261.44
956.948	4286.53
957.252	4197.04
957.556	4238.62
957.86	4186.64
958.163	4156.59
958.467	4166.08
958.771	4154.55
959.075	4156.36
959.378	4088.11
959.682	4101.67
959.985	4040.43
960.289	4056.93
960.592	4056.02
960.896	4000.66
961.199	3980.09
961.502	4005.63
961.805	3932.86
962.108	3946.42
962.411	3936.03
962.714	3917.27
963.017	3916.37
963.32	3877.5
963.623	3837.27
963.926	3854.45
964.228	3817.16
964.531	3821.91
964.833	3780.55
965.136	3781.91
965.438	3753.66
965.741	3737.16
966.043	3764.28
966.345	3694.45
966.648	3686.09
966.95	3684.06
967.252	3649.25
967.554	3637.05
967.856	3634.34
968.158	3614.68
968.46	3622.59
968.761	3586.21
969.063	3566.09
969.365	3517.51
969.666	3546.43
969.968	3509.82
970.269	3487.9
970.571	3467.11
970.872	3475.47
971.174	3491.97
971.475	3432.99
971.776	3411.97
972.077	3408.36
972.378	3411.52
972.679	3403.39
972.98	3377.17
973.281	3359.09
973.582	3364.74
973.883	3342.37
974.183	3288.81
974.484	3282.71
974.785	3270.73
975.085	3290.39
975.386	3277.06
975.686	3207.01
975.986	3244.07
976.287	3210.4
976.587	3180.79
976.887	3153.67
977.187	3208.36
977.487	3192.77
977.787	3121.81
978.087	3160
978.387	3114.81
978.687	3090.62
978.987	3103.05
979.286	3068.03
979.586	3069.38
979.885	3070.74
980.185	3080
980.484	3001.59
980.784	3002.72
981.083	3003.62
981.382	2981.93
981.682	2972.89
981.981	2989.16
982.28	2909.39
982.579	2926.34
982.878	2910.06
983.177	2917.07
983.475	2902.16
983.774	2880.69
984.073	2883.4
984.372	2815.6
984.67	2813.12
984.969	2844.98
985.267	2811.31
985.566	2842.5
985.864	2769.96
986.162	2808.15
986.461	2764.98
986.759	2726.11
987.057	2745.78
987.355	2678.66
987.653	2730.41
987.951	2694.48
988.249	2702.39
988.547	2676.62
988.844	2683.18
989.142	2642.28
989.44	2626.46
989.737	2611.99
990.035	2628.04
990.332	2589.85
990.63	2605.44
990.927	2613.12
991.224	2546.23
991.521	2568.15
991.819	2520.92
992.116	2546.91
992.413	2527.48
992.71	2498.55
993.006	2506.46
993.303	2489.96
993.6	2464.65
993.897	2448.38
994.193	2464.43
994.49	2401.6
994.787	2421.94
995.083	2430.76
995.379	2378.33
995.676	2362.06
995.972	2365.67
996.268	2386.69
996.565	2348.27
996.861	2309.63
997.157	2352.34
997.453	2306.01
997.749	2305.33
998.044	2286.35
998.34	2296.97
998.636	2303.98
998.932	2294.71
999.227	2245.68
999.523	2226.24
999.818	2205.22
1000.114	2198.45
1000.409	2197.32
1000.704	2167.49
1001	2165.68
1001.295	2150.31
1001.59	2189.63
1001.885	2129.07
1002.18	2131.78
1002.475	2130.65
1002.77	2131.33
1003.065	2097.88
1003.359	2075.96
1003.654	2075.96
1003.949	2085.68
1004.243	2046.36
1004.538	2044.32
1004.832	2051.56
1005.127	2038
1005.421	2003.87
1005.715	2013.37
1006.009	2008.62
1006.304	1960.71
1006.598	1973.14
1006.892	1968.85
1007.186	1955.06
1007.48	1901.73
1007.773	1936.76
1008.067	1910.54
1008.361	1886.14
1008.655	1915.06
1008.948	1900.37
1009.242	1837.78
1009.535	1873.03
1009.829	1872.13
1010.122	1893.14
1010.415	1811.11
1010.708	1819.02
1011.001	1805.24
1011.295	1781.05
1011.588	1776.99
1011.881	1778.8
1012.173	1784.22
1012.466	1759.13
1012.759	1746.71
1013.052	1725.24
1013.344	1727.95
1013.637	1717.33
1013.93	1694.5
1014.222	1725.69
1014.514	1693.37
1014.807	1692.47
1015.099	1663.77
1015.391	1674.39
1015.683	1645.69
1015.976	1617.22
1016.268	1637.78
1016.56	1626.03
1016.851	1609.08
1017.143	1590.33
1017.435	1575.41
1017.727	1582.19
1018.018	1541.29
1018.31	1547.39
1018.602	1573.83
1018.893	1561.4
1019.185	1519.14
1019.476	1537.45
1019.767	1512.81
1020.058	1503.32
1020.35	1466.71
1020.641	1469.88
1020.932	1482.53
1021.223	1466.03
1021.514	1451.8
1021.804	1428.75
1022.095	1431.69
1022.386	1402.08
1022.677	1456.32
1022.967	1385.59
1023.258	1411.57
1023.548	1375.87
1023.839	1377.68
1024.129	1379.26
1024.419	1386.94
1024.709	1338.81
1025	1353.95
1025.29	1346.72
1025.58	1317.34
1025.87	1301.52
1026.16	1304.68
1026.449	1305.81
1026.739	1307.4
1027.029	1266.49
1027.319	1280.5
1027.608	1281.63
1027.898	1269.2
1028.187	1218.58
1028.477	1225.82
1028.766	1217.68
1029.055	1219.04
1029.344	1216.32
1029.634	1219.94
1029.923	1207.28
1030.212	1208.41
1030.501	1192.6
1030.79	1188.53
1031.078	1160.73
1031.367	1155.31
1031.656	1115.99
1031.945	1170
1032.233	1148.08
1032.522	1130.9
1032.81	1123.9
1033.099	1123.67
1033.387	1151.01
1033.675	1079.38
1033.963	1082.54
1034.251	1100.17
1034.54	1070.34
1034.828	1067.4
1035.116	1049.55
1035.403	1064.01
1035.691	1041.41
1035.979	1043.67
1036.267	1046.84
1036.554	1052.94
1036.842	1054.75
1037.129	1025.37
1037.417	1003.22
1037.704	991.47
1037.992	1029.44
1038.279	992.38
1038.566	970.91
1038.853	970.91
1039.14	970.91
