Data from hue_330_FLMS001491_72.txt Node
Date: Mon Feb 06 15:45:52 GMT 2017
User: dcchb
Spectrometer: FLMS00149
Trigger mode: 0
Integration Time (sec): 2.000000E-2
Scans to average: 10
Electric dark correction enabled: true
Nonlinearity correction enabled: false
Boxcar width: 0
XAxis mode: Wavelengths
Number of Pixels in Spectrum: 2048
>>>>>Begin Spectral Data<<<<<
341.393	-28.18
341.776	-28.18
342.16	-28.18
342.543	-62.75
342.927	-80.83
343.31	-62.53
343.693	-81.74
344.077	-76.54
344.46	-69.53
344.843	-57.33
345.226	-30.44
345.61	-28.18
345.993	-31.12
346.376	-8.06
346.759	12.5
347.142	39.39
347.525	37.81
347.908	51.37
348.291	90.46
348.674	95.21
349.057	118.71
349.44	114.42
349.823	158.26
350.206	152.16
350.588	187.64
350.971	206.84
351.354	205.49
351.737	225.15
352.119	254.53
352.502	247.07
352.884	258.37
353.267	273.96
353.65	266.28
354.032	297.24
354.414	305.15
354.797	303.11
355.179	325.03
355.562	327.29
355.944	317.12
356.326	309.67
356.709	305.6
357.091	338.14
357.473	339.5
357.855	331.36
358.238	333.4
358.62	326.39
359.002	316.9
359.384	316.67
359.766	322.32
360.148	308.76
360.53	346.5
360.912	314.64
361.294	330.68
361.676	329.55
362.057	349.67
362.439	331.36
362.821	320.97
363.203	330.23
363.584	311.7
363.966	320.06
364.348	316.45
364.729	322.32
365.111	334.07
365.493	323.9
365.874	311.93
366.256	318.71
366.637	328.42
367.019	303.34
367.4	290.23
367.781	301.53
368.163	307.41
368.544	323.68
368.925	300.18
369.306	322.77
369.688	308.09
370.069	314.41
370.45	290.01
370.831	305.37
371.212	314.64
371.593	312.83
371.974	303.11
372.355	311.47
372.736	315.32
373.117	299.5
373.498	283.9
373.879	303.57
374.26	305.6
374.641	295.66
375.021	309.22
375.402	319.61
375.783	310.12
376.163	327.52
376.544	333.62
376.925	310.12
377.305	316.45
377.686	319.16
378.066	329.33
378.447	312.6
378.827	316.22
379.208	301.08
379.588	326.62
379.968	341.53
380.349	306.05
380.729	318.71
381.109	324.81
381.489	313.28
381.87	342.21
382.25	337.69
382.63	317.58
383.01	324.13
383.39	332.94
383.77	353.51
384.15	334.53
384.53	339.27
384.91	347.63
385.29	346.73
385.67	319.84
386.049	338.14
386.429	345.6
386.809	353.73
387.189	363.22
387.568	343.34
387.948	352.15
388.328	376.56
388.707	359.38
389.087	366.39
389.466	343.56
389.846	349.89
390.225	363.9
390.605	360.97
390.984	362.32
391.363	357.58
391.743	355.54
392.122	354.64
392.501	368.87
392.881	353.06
393.26	386.95
393.639	358.03
394.018	360.29
394.397	381.53
394.776	374.98
395.155	368.87
395.534	389.89
395.913	396.44
396.292	393.96
396.671	399.38
397.05	380.85
397.429	382.21
397.808	361.19
398.186	374.75
398.565	374.07
398.944	388.08
399.323	374.52
399.701	361.64
400.08	392.38
400.458	407.29
400.837	389.21
401.215	394.41
401.594	386.28
401.972	405.94
402.351	393.28
402.729	404.58
403.107	424.69
403.486	425.37
403.864	440.06
404.242	411.13
404.62	424.69
404.999	405.03
405.377	426.95
405.755	439.83
406.133	409.78
406.511	442.77
406.889	439.83
407.267	431.92
407.645	432.38
408.023	424.24
408.401	452.26
408.779	458.59
409.156	462.88
409.534	448.19
409.912	442.77
410.29	479.15
410.667	481.19
411.045	478.93
411.422	498.81
411.8	477.8
412.178	499.27
412.555	504.46
412.933	516.89
413.31	534.52
413.687	527.97
414.065	547.63
414.442	532.26
414.819	537.91
415.197	535.2
415.574	551.47
415.951	560.06
416.328	563.45
416.705	564.58
417.082	553.73
417.46	568.87
417.837	584.01
418.214	574.07
418.591	601.18
418.967	590.34
419.344	591.69
419.721	621.75
420.098	619.94
420.475	649.09
420.852	622.65
421.228	615.42
421.605	617.46
421.982	633.27
422.358	649.55
422.735	635.53
423.111	651.35
423.488	667.4
423.864	666.04
424.241	689.77
424.617	693.16
424.994	685.25
425.37	702.43
425.746	701.07
426.123	711.46
426.499	696.55
426.875	716.66
427.251	727.74
427.627	758.92
428.003	754.63
428.379	759.15
428.756	749.43
429.132	771.58
429.507	785.59
429.883	773.84
430.259	814.29
430.635	787.62
431.011	802.31
431.387	812.25
431.763	801.18
432.138	829.65
432.514	815.42
432.89	853.38
433.265	868.97
433.641	868.3
434.016	892.02
434.392	893.61
434.767	916.66
435.143	903.78
435.518	922.08
435.894	916.2
436.269	930.22
436.644	938.58
437.02	938.35
437.395	976.99
437.77	984.23
438.145	968.18
438.52	980.16
438.895	977.45
439.271	982.64
439.646	1008.63
440.021	1007.5
440.395	1024.9
440.77	1024.68
441.145	1045.69
441.52	1019.7
441.895	1052.25
442.27	1082.75
442.645	1054.28
443.019	1069.42
443.394	1054.05
443.769	1065.35
444.143	1074.39
444.518	1075.97
444.892	1071.45
445.267	1096.54
445.641	1098.12
446.016	1095.64
446.39	1108.29
446.764	1114.62
447.139	1114.62
447.513	1137.67
447.887	1102.87
448.262	1142.41
448.636	1154.16
449.01	1144.22
449.384	1164.56
449.758	1138.35
450.132	1175.18
450.506	1172.47
450.88	1184.9
451.254	1187.38
451.628	1205.24
452.002	1189.87
452.376	1195.97
452.75	1211.11
453.123	1181.73
453.497	1215.41
453.871	1252.02
454.244	1268.96
454.618	1226.71
454.992	1263.99
455.365	1251.56
455.739	1299.92
456.112	1320.71
456.486	1282.97
456.859	1311
457.232	1304.67
457.606	1333.37
457.979	1332.46
458.352	1347.61
458.725	1390.54
459.099	1402.07
459.472	1413.82
459.845	1405.01
460.218	1390.32
460.591	1424.21
460.964	1446.81
461.337	1434.61
461.71	1441.39
462.083	1492.23
462.456	1479.81
462.829	1475.74
463.201	1485.91
463.574	1509.86
463.947	1508.28
464.32	1539.69
464.692	1573.14
465.065	1561.39
465.438	1570.42
465.81	1561.39
466.183	1633.25
466.555	1638.9
466.928	1619.69
467.3	1623.53
467.672	1642.29
468.045	1692.23
468.417	1666.92
468.789	1718.44
469.161	1749.4
469.534	1747.82
469.906	1778.1
470.278	1815.84
470.65	1794.83
471.022	1841.38
471.394	1853.13
471.766	1920.25
472.138	1877.08
472.51	1908.27
472.882	1929.06
473.253	1955.05
473.625	1980.58
473.997	1990.07
474.369	2001.37
474.74	2012
475.112	2058.77
475.484	2073.46
475.855	2124.08
476.227	2111.43
476.598	2166.79
476.97	2176.51
477.341	2233.01
477.713	2258.54
478.084	2303.29
478.455	2326.34
478.827	2320.46
479.198	2423.96
479.569	2398.43
479.94	2474.36
480.311	2483.17
480.682	2531.08
481.053	2548.93
481.424	2542.15
481.795	2571.75
482.166	2638.65
482.537	2652.88
482.908	2688.59
483.279	2752.99
483.65	2735.59
484.021	2816.27
484.391	2855.81
484.762	2887
485.133	2896.72
485.503	2928.36
485.874	2978.07
486.244	3017.62
486.615	3044.74
486.985	3044.96
487.356	3127.67
487.726	3138.29
488.097	3155.92
488.467	3184.62
488.837	3284.28
489.207	3293.09
489.578	3329.93
489.948	3381.22
490.318	3411.28
490.688	3397.04
491.058	3437.49
491.428	3514.55
491.798	3538.96
492.168	3583.93
492.538	3580.32
492.908	3623.93
493.278	3704.38
493.648	3679.3
494.017	3710.93
494.387	3726.3
494.757	3768.33
495.126	3814.21
495.496	3787.32
495.866	3850.82
496.235	3881.78
496.605	3860.76
496.974	3904.15
497.344	3910.7
497.713	3957.25
498.082	3989.34
498.452	4013.75
498.821	4034.09
499.19	4040.87
499.559	4074.31
499.928	4060.98
500.298	4128.78
500.667	4119.51
501.036	4114.76
501.405	4194.08
501.774	4186.18
502.143	4216.23
502.512	4241.99
502.88	4249.45
503.249	4230.24
503.618	4282.44
503.987	4315.21
504.356	4325.15
504.724	4325.61
505.093	4353.85
505.462	4334.42
505.83	4410.58
506.199	4402.89
506.567	4394.53
506.936	4446.51
507.304	4492.16
507.672	4498.48
508.041	4451.25
508.409	4543.45
508.777	4503.46
509.145	4577.58
509.514	4538.03
509.882	4596.33
510.25	4620.29
510.618	4610.57
510.986	4667.07
511.354	4672.04
511.722	4712.04
512.09	4706.61
512.458	4694.64
512.826	4758.14
513.193	4756.78
513.561	4732.38
513.929	4822.54
514.297	4791.13
514.664	4823.9
515.032	4831.36
515.4	4825.03
515.767	4899.83
516.135	4884.69
516.502	4875.65
516.869	4926.49
517.237	4925.82
517.604	4845.14
517.972	4945.25
518.339	4926.72
518.706	5009.88
519.073	4990.9
519.44	5015.31
519.808	4999.49
520.175	5043.33
520.542	5033.61
520.909	5058.02
521.276	5024.57
521.643	5116.55
522.009	5137.34
522.376	5120.39
522.743	5173.49
523.11	5227.73
523.477	5253.72
523.843	5214.85
524.21	5265.47
524.577	5305.69
524.943	5326.48
525.31	5327.39
525.676	5418.46
526.043	5403.09
526.409	5415.07
526.776	5446.48
527.142	5428.63
527.508	5498.23
527.874	5542.98
528.241	5575.52
528.607	5559.92
528.973	5592.01
529.339	5642.63
529.705	5660.26
530.071	5696.87
530.437	5758.11
530.803	5740.03
531.169	5852.57
531.535	5782.97
531.901	5790.43
532.267	5813.93
532.632	5874.72
532.998	5886.92
533.364	5909.97
533.73	5891.22
534.095	5957.2
534.461	5995.39
534.826	6015.28
535.192	6047.14
535.557	6104.77
535.923	6064.77
536.288	6112.45
536.653	6149.29
537.019	6118.55
537.384	6174.6
537.749	6241.26
538.114	6196.97
538.479	6251.88
538.845	6245.56
539.21	6298.89
539.575	6293.69
539.94	6321.03
540.305	6321.49
540.67	6368.72
541.034	6426.34
541.399	6460.24
541.764	6425.44
542.129	6502.27
542.494	6508.37
542.858	6522.16
543.223	6541.37
543.587	6620.01
543.952	6615.72
544.316	6663.17
544.681	6692.55
545.045	6700.91
545.41	6777.97
545.774	6757.63
546.138	6791.53
546.503	6845.54
546.867	6861.59
547.231	6876.5
547.595	6876.05
547.959	6901.13
548.324	6919.66
548.688	6941.36
549.052	6970.73
549.416	6981.13
549.779	6995.37
550.143	7010.51
550.507	7082.6
550.871	7084.18
551.235	7088.02
551.599	7157.4
551.962	7114.91
552.326	7169.83
552.689	7264.29
553.053	7180.67
553.417	7231.52
553.78	7260.44
554.143	7236.26
554.507	7314.91
554.87	7281.24
555.234	7408.24
555.597	7343.38
555.96	7368.24
556.323	7362.81
556.686	7403.04
557.05	7448.91
557.413	7513.09
557.776	7461.8
558.139	7502.7
558.502	7567.1
558.865	7554
559.228	7576.59
559.59	7635.8
559.953	7648.23
560.316	7740.88
560.679	7721.68
561.041	7768.23
561.404	7800.77
561.767	7783.14
562.129	7740.88
562.492	7832.86
562.854	7892.74
563.217	7864.04
563.579	7905.85
563.941	7945.4
564.304	7969.8
564.666	7981.78
565.028	8023.14
565.39	7994.66
565.753	8090.71
566.115	8059.97
566.477	8118.5
566.839	8186.52
567.201	8212.96
567.563	8195.56
567.925	8216.13
568.287	8277.59
568.648	8317.14
569.01	8376.57
569.372	8423.58
569.734	8353.75
570.095	8466.51
570.457	8528.66
570.819	8562.33
571.18	8582.67
571.542	8569.11
571.903	8579.96
572.265	8698.6
572.626	8750.57
572.987	8763.23
573.349	8769.11
573.71	8803
574.071	8877.35
574.432	8947.18
574.794	9046.16
575.155	9108.31
575.516	9142.66
575.877	9178.81
576.238	9256.32
576.599	9315.98
576.96	9332.25
577.32	9470.1
577.681	9593.04
578.042	9636.43
578.403	9681.4
578.763	9873.48
579.124	9973.14
579.485	10125.23
579.845	10173.36
580.206	10196.19
580.566	10312.34
580.927	10447.48
581.287	10562.05
581.648	10755.04
582.008	10906.22
582.368	11063.28
582.728	11249.94
583.089	11389.6
583.449	11542.14
583.809	11651.52
584.169	11859.87
584.529	12046.99
584.889	12289.24
585.249	12417.82
585.609	12548.89
585.969	12891.48
586.329	13107.75
586.688	13277.69
587.048	13528.3
587.408	13744.79
587.768	13958.35
588.127	14225.01
588.487	14422.29
588.846	14703.19
589.206	14839.68
589.565	15105.89
589.925	15396.73
590.284	15714.91
590.643	15904.29
591.003	16227.21
591.362	16559.86
591.721	16798.5
592.08	17057.48
592.44	17238.94
592.799	17619.95
593.158	17901.29
593.517	18262.87
593.876	18420.15
594.235	18769.07
594.593	18936.3
594.952	19332.44
595.311	19588.93
595.67	19843.62
596.029	20351.85
596.387	20619.64
596.746	20937.83
597.104	21070.25
597.463	21274.31
597.822	21655.32
598.18	21891.7
598.538	22214.4
598.897	22588.63
599.255	22673.6
599.613	23272.91
599.972	23379.34
600.33	23644.42
600.688	23843.29
601.046	24232.65
601.404	24619.76
601.762	24756.71
602.12	25114.44
602.478	25446.63
602.836	25611.37
603.194	25791.48
603.552	26061.98
603.91	26222.88
604.268	26572.25
604.625	26692.25
604.983	27127.72
605.341	27138.57
605.698	27570.19
606.056	27796.18
606.413	28116.85
606.771	28423.28
607.128	28576.49
607.485	28868.46
607.843	28886.32
608.2	29242.69
608.557	29534.66
608.914	29564.49
609.272	29990.24
609.629	30057.13
609.986	30349.56
610.343	30500.74
610.7	30890.11
611.057	31022.98
611.414	31238.35
611.771	31366.48
612.127	31679.46
612.484	31715.62
612.841	32092.33
613.198	32093.69
613.554	32337.98
613.911	32376.62
614.267	32686.89
614.624	32899.32
614.98	33032.65
615.337	33250.27
615.693	33346.76
616.05	33549.47
616.406	33788.11
616.762	33784.27
617.118	34085.5
617.475	34149.23
617.831	34342.22
618.187	34479.84
618.543	34588.99
618.899	34725.94
619.255	34725.03
619.611	35015.65
619.967	35245.92
620.323	35360.04
620.678	35172.03
621.034	35247.73
621.39	35458.12
621.746	35601.85
622.101	36020.14
622.457	35784.89
622.812	35791.9
623.168	36130.42
623.523	36075.96
623.879	36388.04
624.234	36072.79
624.589	36413.12
624.945	36564.98
625.3	36600.69
625.655	36735.15
626.01	36782.15
626.365	36969.04
626.72	36909.83
627.075	36952.55
627.43	37082.49
627.785	36946.22
628.14	37141.69
628.495	37241.13
628.85	37306.66
629.205	37162.03
629.559	37394.34
629.914	37318.41
630.269	37425.53
630.623	37443.38
630.978	37277.28
631.332	37567.9
631.687	37538.52
632.041	37498.97
632.396	37755.01
632.75	37451.06
633.104	37623.49
633.459	37435.24
633.813	37501.68
634.167	37555.24
634.521	37564.05
634.875	37661
635.229	37582.36
635.583	37485.86
635.937	37499.42
636.291	37607.22
636.645	37602.47
636.999	37488.8
637.352	37597.73
637.706	37453.1
638.06	37723.82
638.413	37581.68
638.767	37588.69
639.121	37542.59
639.474	37372.42
639.828	37491.29
640.181	37608.57
640.534	37530.61
640.888	37427.11
641.241	37402.7
641.594	37454.9
641.947	37475.7
642.301	37446.77
642.654	37485.86
643.007	37514.11
643.36	37451.74
643.713	37310.95
644.066	37515.47
644.419	37391.18
644.771	37136.5
645.124	36880.91
645.477	36795.71
645.83	36640.01
646.182	36488.83
646.535	36361.6
646.888	36490.86
647.24	36250.42
647.593	36380.81
647.945	36423.07
648.298	36235.05
648.65	36229.63
649.002	36185.11
649.355	36202.73
649.707	36237.99
650.059	36386.23
650.411	36763.17
650.763	36862.83
651.115	37318.41
651.467	36984.86
651.819	37105.54
652.171	37126.78
652.523	37020.11
652.875	37028.7
653.227	36808.82
653.578	37048.36
653.93	37045.2
654.282	36946.22
654.633	36727.69
654.985	37002.26
655.337	36855.37
655.688	36969.49
656.039	37095.14
656.391	36683.63
656.742	36797.52
657.094	36732.44
657.445	36960.68
657.796	36812.66
658.147	36825.32
658.498	36852.21
658.849	36863.96
659.2	36726.56
659.551	36751.19
659.902	36978.53
660.253	36778.31
660.604	36820.8
660.955	36718.88
661.306	36850.4
661.656	36750.52
662.007	36677.07
662.358	36783.51
662.708	36688.82
663.059	36684.3
663.409	36579
663.76	36798.88
664.11	36747.13
664.461	36801.14
664.811	36802.49
665.161	36757.97
665.511	36649.73
665.862	36793
666.212	36772.89
666.562	36769.95
666.912	36806.56
667.262	36708.03
667.612	36559.79
667.962	36663.29
668.312	36568.15
668.662	36742.38
669.011	36637.53
669.361	36613.12
669.711	36647.92
670.06	36494.03
670.41	36399.34
670.76	36450.64
671.109	36548.49
671.459	36741.93
671.808	36447.02
672.157	36622.16
672.507	36359.34
672.856	36413.12
673.205	36494.93
673.554	36568.6
673.904	36442.95
674.253	36558.66
674.602	36312.34
674.951	35992.12
675.3	35836.87
675.649	36388.27
675.998	36308.04
676.346	36286.12
676.695	36421.26
677.044	36172
677.393	36357.53
677.741	36319.79
678.09	36227.37
678.438	36075.73
678.787	36183.75
679.135	36239.12
679.484	35938.11
679.832	36080.93
680.181	35817.21
680.529	35973.36
680.877	35963.19
681.225	35854.5
681.573	36113.92
681.922	35879.35
682.27	35677.32
682.618	35784.21
682.966	35639.81
683.314	35854.04
683.661	35641.62
684.009	35409.76
684.357	35477.56
684.705	35449.08
685.053	35379.03
685.4	35232.82
685.748	35140.16
686.095	35198.02
686.443	35097.45
686.79	35012.94
687.138	35122.08
687.485	35151.46
687.832	35033.95
688.18	34984.01
688.527	34794.86
688.874	34798.93
689.221	34662.66
689.568	34561.2
689.915	34546.51
690.262	34378.6
690.609	34376.12
690.956	34394.65
691.303	34338.83
691.65	34082.79
691.997	34181.77
692.344	33899.29
692.69	33869.46
693.037	33947.43
693.383	33539.3
693.73	33973.64
694.077	33635.57
694.423	33476.03
694.769	33455.46
695.116	33446.2
695.462	33357.16
695.808	33237.84
696.155	33477.16
696.501	33003.5
696.847	33128.69
697.193	32915.36
697.539	33075.13
697.885	32765.99
698.231	32814.8
698.577	32667.69
698.923	32620.68
699.269	32490.52
699.614	32417.3
699.96	32316.28
700.306	32380.24
700.651	32195.61
700.997	32144.08
701.342	32103.86
701.688	31985.67
702.033	31949.06
702.379	31806.01
702.724	31858.67
703.069	31842.4
703.415	31409.64
703.76	31519.02
704.105	31565.12
704.45	31476.98
704.795	31244.45
705.14	31256.88
705.485	31100.04
705.83	31079.25
706.175	31167.84
706.52	30924.23
706.865	30783.67
707.209	30836.32
707.554	30634.07
707.899	30767.62
708.243	30606.05
708.588	30538.48
708.932	30361.08
709.277	30391.81
709.621	30456.44
709.966	30160.18
710.31	30354.07
710.654	30059.85
710.998	30136.23
711.342	30055.1
711.687	29876.12
712.031	29883.13
712.375	29731.94
712.719	29858.27
713.063	29800.42
713.407	29919.96
713.75	29656.24
714.094	29709.12
714.438	29518.84
714.782	29600.42
715.125	29280.2
715.469	29403.82
715.812	29329.69
716.156	29151.62
716.499	29163.82
716.843	29116.59
717.186	28945.07
717.53	29158.85
717.873	29004.73
718.216	29022.81
718.559	28944.39
718.902	28649.03
719.246	28832.98
719.589	28684.51
719.932	28587.79
720.275	28557.29
720.617	28538.08
720.96	28522.26
721.303	28533.11
721.646	28525.87
721.989	28231.87
722.331	28353
722.674	28376.73
723.016	28310.51
723.359	28230.29
723.701	28155.94
724.044	28066.68
724.386	27929.96
724.729	28032.78
725.071	28001.59
725.413	27987.81
725.755	27946.91
726.097	27851.77
726.439	27675.73
726.782	27669.4
727.124	27772.9
727.465	27664.2
727.807	27658.1
728.149	27599.34
728.491	27535.17
728.833	27561.61
729.175	27419.91
729.516	27383.53
729.858	27305.79
730.199	27249.98
730.541	27333.14
730.882	27237.09
731.224	27371.33
731.565	27109.64
731.906	27237.09
732.248	26995.74
732.589	26894.28
732.93	26875.75
733.271	26844.56
733.612	26976.76
733.953	26907.61
734.294	26792.59
734.635	26817.67
734.976	26890.89
735.317	26609.99
735.658	26649.77
735.999	26620.61
736.339	26701.97
736.68	26774.51
737.021	26564.12
737.361	26466.72
737.702	26676.43
738.042	26545.14
738.383	26407.96
738.723	26531.12
739.063	26255.88
739.404	26402.09
739.744	26235.31
740.084	26241.87
740.424	26196.67
740.764	26170
741.104	26256.33
741.444	26056.56
741.784	26026.05
742.124	26107.41
742.464	25872.84
742.804	25967.75
743.143	25834.19
743.483	25857.92
743.823	25827.87
744.162	25861.99
744.502	25837.58
744.841	25680.07
745.181	25701.54
745.52	25633.75
745.86	25578.16
746.199	25590.13
746.538	25543.81
746.877	25587.65
747.216	25543.58
747.556	25443.47
747.895	25430.59
748.234	25240.76
748.573	25240.99
748.911	25151.05
749.25	25228.56
749.589	25126.42
749.928	25177.94
750.267	25086.87
750.605	25001.67
750.944	25011.84
751.283	24922.58
751.621	24954.22
751.96	24799.87
752.298	24814.79
752.636	24798.51
752.975	24646.65
753.313	24640.1
753.651	24622.93
753.989	24504.29
754.327	24596.49
754.666	24440.11
755.004	24394.01
755.342	24432.65
755.679	24366.89
756.017	24204.18
756.355	24343.61
756.693	24179.32
757.031	24210.28
757.368	24033.11
757.706	24001.93
758.044	23954.69
758.381	24007.8
758.719	23872.21
759.056	23848.03
759.394	23742.27
759.731	23566.23
760.068	23577.53
760.405	23559.23
760.743	23431.54
761.08	23425.67
761.417	23441.71
761.754	23310.87
762.091	23100.71
762.428	23122.17
762.765	23019.8
763.102	23054.38
763.438	22902.97
763.775	22770.55
764.112	22870.43
764.449	22861.16
764.785	22754.73
765.122	22568.29
765.458	22454.85
765.795	22446.94
766.131	22365.58
766.467	22348.86
766.804	22165.14
767.14	22094.4
767.476	22135.76
767.812	22047.85
768.148	22126.95
768.485	21883.34
768.821	21757.69
769.157	21801.08
769.492	21665.49
769.828	21710.69
770.164	21420.52
770.5	21518.83
770.836	21404.71
771.171	21194.32
771.507	21251.49
771.842	21067.77
772.178	21114.54
772.513	21020.76
772.849	20988.9
773.184	20887.66
773.519	20789.81
773.855	20717.04
774.19	20756.81
774.525	20675.69
774.86	20578.29
775.195	20493.77
775.53	20490.83
775.865	20254.68
776.2	20300.55
776.535	20007.68
776.87	20147.79
777.205	19971.52
777.539	19918.19
777.874	19875.48
778.209	19712.55
778.543	19729.04
778.878	19599.33
779.212	19487.69
779.547	19518.43
779.881	19508.48
780.215	19339
780.55	19416.51
780.884	19203.63
781.218	19207.02
781.552	19228.72
781.886	19015.39
782.22	18953.7
782.554	18882.29
782.888	18801.38
783.222	18708.28
783.556	18609.98
783.889	18593.03
784.223	18454.05
784.557	18384.22
784.89	18445.24
785.224	18380.83
785.557	18270.32
785.891	18176.99
786.224	18221.96
786.558	18177.45
786.891	18009.99
787.224	17929.99
787.557	17867.17
787.891	17817.23
788.224	17845.7
788.557	17804.35
788.89	17626.5
789.223	17764.8
789.556	17570.46
789.888	17523.9
790.221	17350.35
790.554	17372.72
790.887	17423.57
791.219	17219.96
791.552	17254.53
791.884	17147.87
792.217	17039.62
792.549	16979.06
792.882	16891.83
793.214	16887.99
793.546	16837.37
793.879	16751.49
794.211	16618.16
794.543	16776.58
794.875	16519.64
795.207	16711.27
795.539	16498.85
795.871	16514.44
796.203	16452.52
796.535	16320.09
796.867	16269.25
797.198	16216.14
797.53	16139.76
797.862	16073.55
798.193	16165.97
798.525	15916.71
798.856	16064.51
799.188	15891.63
799.519	15843.72
799.85	15689.38
800.182	15685.31
800.513	15688.92
800.844	15582.26
801.175	15627
801.506	15674.23
801.837	15555.14
802.168	15419.33
802.499	15358.76
802.83	15309.27
803.161	15348.59
803.491	15323.74
803.822	15291.19
804.153	15221.59
804.483	15051.88
804.814	15012.11
805.145	14937.98
805.475	15007.13
805.805	14870.87
806.136	14890.53
806.466	14944.76
806.796	14847.82
807.126	14806.91
807.457	14772.79
807.787	14709.06
808.117	14619.8
808.447	14614.38
808.777	14522.85
809.107	14511.78
809.436	14513.81
809.766	14545.22
810.096	14438.11
810.426	14433.82
810.755	14325.34
811.085	14316.53
811.414	14311.56
811.744	14160.38
812.073	14183.88
812.403	14142.3
812.732	14149.76
813.061	14094.39
813.39	14081.96
813.719	14033.6
814.049	14021.85
814.378	14026.82
814.707	13933.49
815.036	13839.25
815.365	13770.1
815.693	13710.67
816.022	13767.39
816.351	13696.43
816.68	13596.78
817.008	13704.34
817.337	13527.4
817.665	13491.24
817.994	13570.11
818.322	13537.34
818.651	13425.93
818.979	13407.18
819.307	13508.64
819.636	13431.81
819.964	13247.86
820.292	13414.86
820.62	13377.12
820.948	13306.39
821.276	13273.62
821.604	13235.88
821.932	13308.42
822.259	13310.91
822.587	13245.82
822.915	13235.43
823.243	13322.66
823.57	13236.78
823.898	13258.93
824.225	13215.77
824.553	13216.45
824.88	13306.61
825.207	13265.71
825.535	13204.7
825.862	13290.79
826.189	13111.36
826.516	13264.13
826.843	13188.88
827.17	13251.02
827.497	13264.58
827.824	13332.6
828.151	13237.91
828.478	13231.14
828.805	13218.03
829.131	13215.32
829.458	13133.96
829.785	13089.9
830.111	13154.75
830.438	13231.36
830.764	13168.54
831.09	13249.44
831.417	13141.19
831.743	13171.7
832.069	13225.71
832.395	13090.12
832.722	13188.88
833.048	13124.7
833.374	13035.89
833.7	12993.85
834.026	13079.73
834.351	13062.78
834.677	13094.42
835.003	13091.7
835.329	13037.92
835.654	12976.9
835.98	12936
836.306	12910.47
836.631	12961.54
836.956	12926.51
837.282	12947.53
837.607	12885.83
837.932	12867.08
838.258	12807.64
838.583	12759.74
838.908	12762.22
839.233	12761.54
839.558	12687.19
839.883	12690.81
840.208	12661.21
840.533	12674.54
840.858	12668.44
841.182	12699.62
841.507	12629.12
841.832	12594.77
842.156	12535.56
842.481	12545.28
842.805	12469.8
843.13	12541.89
843.454	12422.79
843.778	12368.56
844.103	12367.2
844.427	12315.68
844.751	12347.54
845.075	12330.37
845.399	12219.18
845.723	12159.75
846.047	12208.11
846.371	12132.63
846.695	12064.16
847.019	12014.22
847.343	11983.94
847.666	11911.17
847.99	11850.83
848.313	11793.21
848.637	11713.43
848.96	11761.12
849.284	11777.39
849.607	11612.65
849.931	11508.69
850.254	11526.1
850.577	11473.22
850.9	11364.29
851.223	11347.79
851.546	11295.14
851.869	11267.34
852.192	11275.48
852.515	11188.7
852.838	11130.4
853.161	11198.65
853.483	11056.28
853.806	11054.47
854.129	11010.4
854.451	10970.63
854.774	10971.31
855.096	10915.72
855.419	10866.68
855.741	10795.04
856.063	10762.05
856.385	10748.71
856.708	10729.73
857.03	10735.83
857.352	10714.37
857.674	10675.72
857.996	10557.31
858.318	10600.7
858.64	10500.13
858.961	10539.68
859.283	10513.24
859.605	10358.44
859.926	10516.4
860.248	10386.24
860.57	10372.23
860.891	10404.32
861.212	10356.63
861.534	10310.53
861.855	10244.77
862.176	10282.96
862.498	10300.82
862.819	10313.02
863.14	10118.67
863.461	10169.29
863.782	10202.06
864.103	10135.4
864.424	10107.38
864.745	10097.21
865.065	10076.19
865.386	10074.61
865.707	10056.08
866.027	10035.96
866.348	9988.28
866.668	9987.38
866.989	9971.56
867.309	9857.89
867.63	9904.67
867.95	9932.01
868.27	9893.37
868.59	9826.03
868.91	9855.63
869.23	9790.1
869.55	9771.34
869.87	9824.9
870.19	9791.68
870.51	9819.02
870.83	9818.34
871.15	9737.67
871.469	9698.8
871.789	9778.34
872.109	9751.23
872.428	9644.34
872.748	9712.81
873.067	9647.73
873.386	9687.95
873.706	9638.24
874.025	9611.8
874.344	9560.27
874.663	9541.97
874.982	9583.32
875.301	9563.89
875.62	9525.24
875.939	9516.2
876.258	9480.73
876.577	9433.49
876.896	9443.44
877.214	9453.61
877.533	9443.66
877.852	9360.5
878.17	9396.21
878.489	9402.31
878.807	9446.83
879.125	9370.67
879.444	9418.81
879.762	9344.91
880.08	9356.66
880.398	9259.71
880.716	9283.44
881.034	9257.91
881.352	9197.34
881.67	9230.56
881.988	9226.49
882.306	9189.89
882.624	9153.73
882.941	9137.23
883.259	9147.85
883.577	9145.59
883.894	9083.22
884.212	9059.27
884.529	8994.86
884.846	9051.36
885.164	8986.5
885.481	9009.78
885.798	8971.13
886.115	8850.69
886.432	8869.67
886.75	8870.12
887.067	8911.02
887.383	8859.95
887.7	8791.25
888.017	8794.19
888.334	8784.02
888.651	8761.87
888.967	8750.35
889.284	8712.84
889.6	8613.63
889.917	8606.62
890.233	8609.11
890.55	8599.62
890.866	8596.68
891.182	8543.57
891.498	8527.08
891.815	8557.36
892.131	8452.28
892.447	8489.79
892.763	8442.56
893.079	8476.01
893.395	8376.35
893.71	8343.13
894.026	8410.02
894.342	8365.73
894.657	8339.96
894.973	8327.31
895.289	8264.71
895.604	8290.47
895.92	8214.54
896.235	8147.43
896.55	8186.07
896.865	8139.97
897.181	8160.08
897.496	8097.03
897.811	8078.95
898.126	7981.78
898.441	7934.55
898.756	7974.1
899.071	7911.73
899.386	7883.03
899.7	7857.04
900.015	7771.84
900.33	7769.81
900.644	7747.21
900.959	7732.75
901.273	7723.48
901.588	7689.36
901.902	7597.61
902.216	7637.61
902.531	7607.33
902.845	7632.19
903.159	7541.34
903.473	7509.03
903.787	7496.37
904.101	7471.51
904.415	7424.06
904.729	7391.06
905.042	7399.88
905.356	7352.42
905.67	7296.6
905.984	7357.17
906.297	7265.87
906.611	7242.82
906.924	7220.45
907.237	7214.12
907.551	7215.7
907.864	7096.16
908.177	7145.87
908.491	7099.54
908.804	7069.72
909.117	6986.1
909.43	6980.9
909.743	6994.01
910.056	6954.92
910.368	6937.97
910.681	6840.79
910.994	6871.98
911.307	6858.65
911.619	6767.35
911.932	6829.95
912.244	6710.63
912.557	6742.49
912.869	6691.65
913.181	6662.72
913.494	6604.64
913.806	6589.05
914.118	6571.42
914.43	6568.03
914.742	6568.03
915.054	6513.35
915.366	6479.45
915.678	6451.65
915.99	6424.08
916.302	6358.55
916.613	6318.32
916.925	6348.38
917.236	6355.61
917.548	6296.4
917.859	6283.07
918.171	6231.55
918.482	6220.25
918.794	6199.23
919.105	6181.38
919.416	6109.74
919.727	6179.34
920.038	6113.81
920.349	6027.93
920.66	6051.89
920.971	6068.61
921.282	5983.64
921.593	5985.68
921.903	5932.8
922.214	5922.63
922.525	5893.02
922.835	5898.9
923.146	5873.14
923.456	5849.41
923.767	5827.94
924.077	5742.07
924.387	5817.54
924.697	5774.61
925.008	5683.31
925.318	5719.92
925.628	5702.75
925.938	5627.95
926.248	5593.37
926.558	5560.15
926.867	5540.94
927.177	5495.52
927.487	5500.04
927.796	5450.77
928.106	5471.57
928.416	5392.7
928.725	5455.97
929.034	5386.6
929.344	5407.84
929.653	5396.54
929.962	5341.17
930.271	5267.95
930.581	5265.47
930.89	5274.51
931.199	5270.67
931.508	5212.14
931.817	5230.22
932.125	5176.43
932.434	5149.31
932.743	5136.43
933.051	5085.59
933.36	5093.95
933.669	5082.2
933.977	5027.96
934.286	4989.32
934.594	5004.91
934.902	4953.61
935.21	4955.19
935.519	4954.74
935.827	4953.16
936.135	4869.32
936.443	4873.84
936.751	4873.84
937.059	4859.83
937.367	4851.47
937.674	4757.23
937.982	4786.84
938.29	4727.63
938.597	4739.83
938.905	4679.04
939.213	4672.04
939.52	4604.47
939.827	4665.71
940.135	4599.05
940.442	4596.56
940.749	4620.74
941.056	4617.12
941.363	4541.42
941.67	4557.92
941.977	4528.09
942.284	4521.08
942.591	4491.25
942.898	4482.21
943.205	4398.15
943.511	4410.12
943.818	4374.64
944.125	4350.01
944.431	4378.26
944.738	4353.18
945.044	4303.69
945.35	4317.47
945.657	4301.2
945.963	4286.96
946.269	4260.07
946.575	4210.36
946.881	4219.85
947.187	4192.73
947.493	4150.7
947.799	4211.94
948.105	4099.85
948.41	4144.14
948.716	4105.27
949.022	4094.88
949.327	4093.75
949.633	4049.91
949.938	4042.45
950.244	4022.79
950.549	4011.72
950.854	3991.15
951.16	3992.06
951.465	3964.94
951.77	3898.05
952.075	3909.35
952.38	3860.76
952.685	3867.99
952.99	3867.54
953.294	3820.08
953.599	3835.68
953.904	3810.59
954.209	3783.93
954.513	3790.03
954.818	3757.49
955.122	3743.02
955.426	3765.4
955.731	3734.66
956.035	3718.62
956.339	3706.87
956.643	3689.92
956.948	3646.98
957.252	3640.43
957.556	3627.77
957.86	3651.05
958.163	3595.23
958.467	3603.14
958.771	3562.01
959.075	3582.12
959.378	3493.99
959.682	3543.25
959.985	3483.82
960.289	3466.42
960.592	3472.07
960.896	3486.53
961.199	3436.82
961.502	3440.66
961.805	3426.2
962.108	3375.12
962.411	3396.82
962.714	3384.84
963.017	3348.91
963.32	3346.88
963.623	3353.88
963.926	3304.39
964.228	3319.98
964.531	3270.95
964.833	3283.6
965.136	3264.39
965.438	3223.04
965.741	3235.69
966.043	3190.27
966.345	3248.12
966.648	3168.12
966.95	3189.14
967.252	3164.06
967.554	3115.02
967.856	3118.41
968.158	3105.75
968.46	3124.28
968.761	3063.27
969.063	3090.16
969.365	3069.59
969.666	3047.22
969.968	3029.37
970.269	3003.61
970.571	2997.73
970.872	3011.29
971.174	2972.87
971.475	2993.89
971.776	2944.63
972.077	2957.73
972.378	2909.82
972.679	2909.37
972.98	2894.68
973.281	2895.14
973.582	2876.15
973.883	2870.96
974.183	2855.81
974.484	2835.02
974.785	2850.62
975.085	2834.57
975.386	2814.46
975.686	2802.93
975.986	2795.03
976.287	2726.55
976.587	2751.41
976.887	2750.28
977.187	2759.55
977.487	2718.64
977.787	2712.77
978.087	2685.42
978.387	2675.48
978.687	2671.86
978.987	2640
979.286	2664.86
979.586	2635.71
979.885	2648.36
980.185	2625.31
980.484	2572.43
980.784	2599.32
981.083	2627.35
981.382	2558.2
981.682	2577.18
981.981	2567.01
982.28	2553.45
982.579	2525.88
982.878	2537.63
983.177	2526.11
983.475	2474.58
983.774	2491.3
984.073	2488.82
984.372	2499.89
984.67	2433.9
984.969	2454.47
985.267	2444.98
985.566	2449.05
985.864	2421.48
986.162	2390.97
986.461	2406.11
986.759	2351.87
987.057	2365.66
987.355	2379.9
987.653	2357.3
987.951	2341.48
988.249	2349.39
988.547	2315.26
988.844	2311.2
989.142	2287.69
989.44	2274.81
989.737	2276.39
990.035	2306.68
990.332	2255.6
990.63	2244.31
990.927	2236.85
991.224	2223.74
991.521	2227.81
991.819	2195.49
992.116	2191.43
992.413	2180.8
992.71	2180.13
993.006	2201.14
993.303	2144.65
993.6	2143.29
993.897	2115.72
994.193	2112.11
994.49	2114.59
994.787	2101.48
995.083	2099.45
995.379	2117.53
995.676	2065.78
995.972	2073.91
996.268	2056.97
996.565	2030.75
996.861	2034.14
997.157	2031.2
997.453	1999.79
997.749	2021.03
998.044	1980.36
998.34	1975.39
998.636	1986.23
998.932	1942.62
999.227	1928.16
999.523	1956.4
999.818	1958.89
1000.114	1953.24
1000.409	1912.79
1000.704	1930.87
1001	1898.1
1001.295	1874.15
1001.59	1884.77
1001.885	1863.3
1002.18	1852.68
1002.475	1846.12
1002.77	1851.77
1003.065	1817.2
1003.359	1836.86
1003.654	1789.85
1003.949	1807.71
1004.243	1790.31
1004.538	1742.62
1004.832	1761.83
1005.127	1762.74
1005.421	1754.37
1005.715	1739.91
1006.009	1757.76
1006.304	1743.3
1006.598	1709.18
1006.892	1731.32
1007.186	1695.39
1007.48	1696.75
1007.773	1671.67
1008.067	1671.44
1008.361	1646.58
1008.655	1660.37
1008.948	1620.59
1009.242	1624.21
1009.535	1633.7
1009.829	1629.18
1010.122	1590.09
1010.415	1591.89
1010.708	1574.27
1011.001	1572.23
1011.295	1573.59
1011.588	1561.61
1011.881	1567.04
1012.173	1546.47
1012.466	1535.4
1012.759	1515.74
1013.052	1545.79
1013.344	1482.29
1013.637	1503.31
1013.93	1513.93
1014.222	1489.3
1014.514	1469.86
1014.807	1456.3
1015.099	1469.41
1015.391	1455.17
1015.683	1450.2
1015.976	1432.35
1016.268	1418.34
1016.56	1427.6
1016.851	1412.69
1017.143	1419.02
1017.435	1366.14
1017.727	1391.9
1018.018	1357.78
1018.31	1372.92
1018.602	1384.44
1018.893	1360.03
1019.185	1335.4
1019.476	1348.06
1019.767	1363.88
1020.058	1315.06
1020.35	1334.95
1020.641	1302.86
1020.932	1293.6
1021.223	1260.83
1021.514	1308.06
1021.804	1265.8
1022.095	1288.85
1022.386	1251.11
1022.677	1244.56
1022.967	1230.32
1023.258	1194.84
1023.548	1228.74
1023.839	1219.02
1024.129	1216.31
1024.419	1204.33
1024.709	1189.64
1025	1208.4
1025.29	1163.43
1025.58	1181.51
1025.87	1173.15
1026.16	1156.42
1026.449	1146.71
1026.739	1170.21
1027.029	1141.28
1027.319	1130.66
1027.608	1112.81
1027.898	1114.84
1028.187	1129.76
1028.477	1090.66
1028.766	1106.03
1029.055	1064.9
1029.344	1083.66
1029.634	1071.91
1029.923	1046.37
1030.212	1047.27
1030.501	1038.01
1030.79	1034.17
1031.078	1042.3
1031.367	1024.9
1031.656	1032.59
1031.945	1038.69
1032.233	1013.38
1032.522	1016.77
1032.81	995.75
1033.099	1000.95
1033.387	968.41
1033.675	989.2
1033.963	994.39
1034.251	963.89
1034.54	977.67
1034.828	956.88
1035.116	942.64
1035.403	916.88
1035.691	920.5
1035.979	939.03
1036.267	941.51
1036.554	915.53
1036.842	929.31
1037.129	888.18
1037.417	912.14
1037.704	891.35
1037.992	891.12
1038.279	896.77
1038.566	887.96
1038.853	887.96
1039.14	887.96
