Data from hue_34_FLMS001491_00096.txt Node
Date: Tue Feb 07 17:26:28 GMT 2017
User: dcchb
Spectrometer: FLMS00149
Trigger mode: 0
Integration Time (sec): 2.000000E-2
Scans to average: 10
Electric dark correction enabled: true
Nonlinearity correction enabled: false
Boxcar width: 0
XAxis mode: Wavelengths
Number of Pixels in Spectrum: 2048
>>>>>Begin Spectral Data<<<<<
341.393	-15.62
341.776	-15.62
342.16	-15.62
342.543	-59.69
342.927	-61.5
343.31	-78.9
343.693	-74.15
344.077	-67.15
344.46	-70.53
344.843	-57.65
345.226	-56.75
345.61	-43.42
345.993	-14.27
346.376	-7.71
346.759	15.56
347.142	34.1
347.525	39.97
347.908	71.38
348.291	77.94
348.674	105.96
349.057	125.62
349.44	131.95
349.823	144.37
350.206	166.97
350.588	210.81
350.971	215.56
351.354	226.41
351.737	222.11
352.119	272.28
352.502	273.86
352.884	291.04
353.267	274.31
353.65	298.95
354.032	297.14
354.414	311.15
354.797	320.87
355.179	312.73
355.562	322.45
355.944	339.85
356.326	325.39
356.709	332.84
357.091	323.35
357.473	322.9
357.855	331.71
358.238	354.09
358.62	354.31
359.002	352.05
359.384	338.04
359.766	357.93
360.148	342.79
360.53	329
360.912	318.83
361.294	327.19
361.676	338.49
362.057	322.22
362.439	315.44
362.821	307.76
363.203	316.8
363.584	342.11
363.966	340.53
364.348	332.39
364.729	320.19
365.111	302.56
365.493	338.49
365.874	343.01
366.256	333.97
366.637	315.22
367.019	314.99
367.4	317.48
367.781	300.08
368.163	320.64
368.544	302.79
368.925	309.79
369.306	297.37
369.688	326.29
370.069	309.79
370.45	305.05
370.831	308.89
371.212	340.53
371.593	303.01
371.974	328.78
372.355	326.29
372.736	314.54
373.117	341.21
373.498	312.05
373.879	300.08
374.26	323.13
374.641	319.51
375.021	312.73
375.402	310.7
375.783	330.36
376.163	326.29
376.544	328.55
376.925	311.38
377.305	324.03
377.686	333.97
378.066	322.9
378.447	354.99
378.827	329.23
379.208	336.23
379.588	327.42
379.968	342.56
380.349	331.04
380.729	324.48
381.109	331.26
381.489	329.45
381.87	322.68
382.25	355.44
382.63	344.6
383.01	341.21
383.39	352.28
383.77	337.59
384.15	337.36
384.53	375.33
384.91	362.9
385.29	351.37
385.67	338.72
386.049	357.25
386.429	334.43
386.809	353.41
387.189	362.45
387.568	347.08
387.948	347.31
388.328	366.97
388.707	363.8
389.087	346.63
389.466	348.21
389.846	363.35
390.225	362.67
390.605	359.74
390.984	402.67
391.363	364.48
391.743	362.22
392.122	361.54
392.501	359.74
392.881	394.76
393.26	395.22
393.639	372.17
394.018	367.65
394.397	375.56
394.776	364.71
395.155	378.72
395.534	391.83
395.913	368.1
396.292	383.24
396.671	392.05
397.05	385.27
397.429	389.11
397.808	381.88
398.186	386.63
398.565	391.83
398.944	392.28
399.323	388.44
399.701	390.7
400.08	372.39
400.458	406.97
400.837	397.7
401.215	394.76
401.594	412.62
401.972	407.19
402.351	389.79
402.729	404.93
403.107	394.54
403.486	409.45
403.864	413.75
404.242	422.56
404.62	410.58
404.999	428.44
405.377	406.06
405.755	420.07
406.133	404.48
406.511	418.27
406.889	425.5
407.267	389.34
407.645	422.33
408.023	409.9
408.401	427.31
408.779	438.6
409.156	436.57
409.534	427.53
409.912	437.47
410.29	441.77
410.667	431.37
411.045	444.48
411.422	453.97
411.8	458.26
412.178	464.14
412.555	471.15
412.933	477.25
413.31	463.69
413.687	468.21
414.065	463.46
414.442	470.24
414.819	472.95
415.197	467.98
415.574	474.08
415.951	500.52
416.328	474.99
416.705	489.68
417.082	498.26
417.46	507.3
417.837	480.86
418.214	506.17
418.591	500.75
418.967	499.39
419.344	492.16
419.721	496.91
420.098	510.24
420.475	489
420.852	531.71
421.228	520.41
421.605	518.6
421.982	508.43
422.358	543.69
422.735	540.07
423.111	544.59
423.488	541.65
423.864	542.33
424.241	555.66
424.617	544.14
424.994	534.19
425.37	527.64
425.746	531.94
426.123	557.25
426.499	559.51
426.875	563.12
427.251	560.63
427.627	562.89
428.003	560.41
428.379	588.66
428.756	585.95
429.132	584.14
429.507	591.59
429.883	600.63
430.259	585.72
430.635	602.44
431.011	606.51
431.387	582.78
431.763	600.63
432.138	602.67
432.514	630.01
432.89	634.08
433.265	636.57
433.641	643.8
434.016	647.86
434.392	631.59
434.767	678.82
435.143	648.32
435.518	663.91
435.894	667.52
436.269	694.42
436.644	670.01
437.02	676.34
437.395	683.8
437.77	703.23
438.145	701.42
438.52	700.97
438.895	715.66
439.271	712.5
439.646	707.3
440.021	743.68
440.395	714.98
440.77	710.01
441.145	733.29
441.52	731.48
441.895	746.62
442.27	741.65
442.645	735.55
443.019	763.79
443.394	756.34
443.769	754.3
444.143	739.61
444.518	776.67
444.892	755.66
445.267	774.64
445.641	789.56
446.016	765.15
446.39	771.02
446.764	804.7
447.139	809.44
447.513	787.75
447.887	811.02
448.262	800.18
448.636	787.75
449.01	825.49
449.384	825.94
449.758	827.52
450.132	833.62
450.506	822.1
450.88	844.92
451.254	844.02
451.628	851.47
452.002	850.12
452.376	837.46
452.75	861.64
453.123	866.16
453.497	902.55
453.871	884.02
454.244	903.22
454.618	906.39
454.992	931.47
455.365	906.39
455.739	936.22
456.112	928.08
456.486	928.31
456.859	968.76
457.232	952.94
457.606	989.55
457.979	978.25
458.352	1004.92
458.725	996.56
459.099	1015.09
459.472	1025.26
459.845	1038.81
460.218	1041.3
460.591	1067.97
460.964	1079.27
461.337	1062.54
461.71	1096.21
462.083	1102.32
462.456	1118.81
462.829	1123.11
463.201	1134.18
463.574	1157.68
463.947	1146.83
464.32	1174.18
464.692	1177.79
465.065	1195.19
465.438	1190.22
465.81	1221.18
466.183	1238.58
466.555	1246.72
466.928	1253.27
467.3	1297.56
467.672	1305.47
468.045	1337.79
468.417	1327.62
468.789	1364.46
469.161	1382.53
469.534	1392.7
469.906	1409.65
470.278	1410.33
470.65	1462.98
471.022	1476.54
471.394	1514.96
471.766	1511.12
472.138	1540.72
472.51	1559.7
472.882	1585.92
473.253	1625.47
473.625	1679.02
473.997	1688.29
474.369	1721.28
474.74	1758.8
475.112	1772.81
475.484	1814.61
475.855	1856.87
476.227	1898
476.598	1953.82
476.97	1982.29
477.341	2022.74
477.713	2067.04
478.084	2085.11
478.455	2177.54
478.827	2184.77
479.198	2274.04
479.569	2306.8
479.94	2354.71
480.311	2420.02
480.682	2461.15
481.053	2536.4
481.424	2622.28
481.795	2630.64
482.166	2709.05
482.537	2768.49
482.908	2854.59
483.279	2903.17
483.65	3000.57
484.021	3067.69
484.391	3155.82
484.762	3229.04
485.133	3251.86
485.503	3325.76
485.874	3416.38
486.244	3494.12
486.615	3566.88
486.985	3651.4
487.356	3772.3
487.726	3824.73
488.097	3905.18
488.467	3970.71
488.837	4059.98
489.207	4166.87
489.578	4248
489.948	4353.53
490.318	4447.99
490.688	4458.16
491.058	4566.63
491.428	4694.09
491.798	4761.88
492.168	4875.32
492.538	4915.77
492.908	5061.53
493.278	5153.28
493.648	5177.91
494.017	5245.94
494.387	5360.06
494.757	5402.32
495.126	5511.01
495.496	5574.97
495.866	5643.21
496.235	5748.07
496.605	5854.51
496.974	5902.64
497.344	5937.22
497.713	6052.24
498.082	6114.16
498.452	6240.94
498.821	6265.8
499.19	6336.08
499.559	6396.19
499.928	6492.23
500.298	6543.75
500.667	6602.74
501.036	6658.55
501.405	6781.04
501.774	6823.97
502.143	6911.2
502.512	6966.12
502.88	7019.45
503.249	7034.36
503.618	7114.81
503.987	7150.74
504.356	7224.64
504.724	7350.74
505.093	7386.67
505.462	7395.94
505.83	7427.12
506.199	7567.91
506.567	7617.62
506.936	7696.04
507.304	7802.48
507.672	7820.78
508.041	7815.59
508.409	7929.71
508.777	8001.34
509.145	8046.54
509.514	8103.04
509.882	8155.69
510.25	8188.46
510.618	8193.65
510.986	8242.92
511.354	8368.57
511.722	8403.14
512.09	8472.52
512.458	8519.3
512.826	8567.66
513.193	8584.38
513.561	8676.13
513.929	8703.25
514.297	8848.78
514.664	8844.94
515.032	8859.63
515.4	8985.27
515.767	8998.15
516.135	9037.02
516.502	9035.21
516.869	9099.85
517.237	9202.22
517.604	9146.85
517.972	9231.82
518.339	9255.55
518.706	9322.66
519.073	9367.64
519.44	9362.89
519.808	9571.25
520.175	9475.2
520.542	9592.94
520.909	9641.53
521.276	9657.12
521.643	9755.42
522.009	9810.11
522.376	9848.53
522.743	9866.83
523.11	10071.8
523.477	10021.63
523.843	10156.77
524.21	10211.23
524.577	10247.39
524.943	10260.27
525.31	10407.38
525.676	10370.09
526.043	10486.25
526.409	10524.21
526.776	10698.67
527.142	10727.37
527.508	10736.86
527.874	10736.64
528.241	10905.67
528.607	10866.35
528.973	11007.14
529.339	11029.29
529.705	11153.58
530.071	11180.47
530.437	11192.9
530.803	11273.35
531.169	11409.16
531.535	11297.08
531.901	11410.75
532.267	11438.32
532.632	11553.11
532.998	11571.87
533.364	11607.12
533.73	11633.56
534.095	11825.42
534.461	11755.14
534.826	11851.19
535.192	11884.41
535.557	11985.19
535.923	11916.72
536.288	12063.38
536.653	12080.56
537.019	12072.87
537.384	12121.69
537.749	12205.3
538.114	12228.35
538.479	12284.17
538.845	12303.15
539.21	12308.12
539.575	12415.46
539.94	12521.45
540.305	12549.7
540.67	12533.88
541.034	12712.41
541.399	12633.31
541.764	12687.77
542.129	12787.21
542.494	12748.56
542.858	12905.4
543.223	12939.29
543.587	12998.73
543.952	12959.86
544.316	13058.84
544.681	13103.13
545.045	13114.2
545.41	13130.25
545.774	13232.84
546.138	13251.37
546.503	13375.44
546.867	13311.26
547.231	13440.52
547.595	13521.42
547.959	13508.09
548.324	13511.93
548.688	13607.52
549.052	13664.7
549.416	13684.81
549.779	13702.21
550.143	13745.15
550.507	13832.6
550.871	13858.59
551.235	13884.35
551.599	14053.39
551.962	14050.22
552.326	14072.82
552.689	14195.98
553.053	14058.36
553.417	14105.59
553.78	14298.58
554.143	14284.79
554.507	14348.97
554.87	14433.04
555.234	14549.19
555.597	14429.65
555.96	14448.86
556.323	14555.3
556.686	14560.94
557.05	14709.64
557.413	14771.56
557.776	14773.37
558.139	14814.72
558.502	14887.49
558.865	14848.17
559.228	14953.48
559.59	15007.03
559.953	15098.11
560.316	15142.85
560.679	15151.21
561.041	15297.42
561.404	15370.87
561.767	15480.02
562.129	15398.21
562.492	15501.49
562.854	15582.39
563.217	15543.29
563.579	15569.73
563.941	15674.81
564.304	15701.71
564.666	15812.44
565.028	15807.69
565.39	15883.4
565.753	15907.58
566.115	15999.55
566.477	16087.23
566.839	16082.26
567.201	16309.37
567.563	16302.82
567.925	16477.5
568.287	16429.14
568.648	16444.96
569.01	16598.63
569.372	16617.84
569.734	16651.29
570.095	16705.75
570.457	16854.44
570.819	16761.56
571.18	16965.18
571.542	17013.54
571.903	17017.83
572.265	17083.36
572.626	17179.41
572.987	17235.9
573.349	17358.84
573.71	17395.22
574.071	17502.79
574.432	17675.21
574.794	17815.1
575.155	17778.04
575.516	17741.65
575.877	18038.82
576.238	18154.3
576.599	18221.87
576.96	18281.75
577.32	18364.69
577.681	18607.39
578.042	18676.32
578.403	18721.29
578.763	18865.69
579.124	19058.68
579.485	19243.99
579.845	19423.42
580.206	19538.89
580.566	19643.07
580.927	19754.03
581.287	20066.79
581.648	20053.68
582.008	20386.33
582.368	20397.4
582.728	20683.5
583.089	20798.29
583.449	20950.16
583.809	21197.38
584.169	21501.33
584.529	21484.6
584.889	21858.83
585.249	21896.8
585.609	22185.38
585.969	22408.2
586.329	22555.08
586.688	22820.61
587.048	23039.59
587.408	23218.8
587.768	23498.79
588.127	23785.11
588.487	23887.48
588.846	24386.22
589.206	24468.71
589.565	24699.44
589.925	24934.23
590.284	25089.48
590.643	25422.13
591.003	25783.7
591.362	26044.71
591.721	26171.71
592.08	26433.18
592.44	26739.61
592.799	27049.2
593.158	27251.91
593.517	27415.75
593.876	27792.24
594.235	27896.64
594.593	28333.24
594.952	28536.85
595.311	28619.33
595.67	29113.33
596.029	29365.53
596.387	29521.91
596.746	29818.4
597.104	29966.64
597.463	30254.09
597.822	30625.16
598.18	30691.14
598.538	30890.68
598.897	31349.66
599.255	31308.08
599.613	31976.08
599.972	31923.43
600.33	32257.2
600.688	32184.89
601.046	32532
601.404	33034.36
601.762	33073.23
602.12	33403.84
602.478	33463.27
602.836	33691.29
603.194	33777.84
603.552	33946.42
603.91	33995.01
604.268	34436.81
604.625	34621.21
604.983	34802.9
605.341	34759.51
605.698	35117.47
606.056	35429.32
606.413	35448.53
606.771	35830.67
607.128	35976.2
607.485	35993.6
607.843	36096.65
608.2	36570.08
608.557	36645.11
608.914	36702.74
609.272	37076.51
609.629	37114.93
609.986	37448.25
610.343	37333.45
610.7	37757.62
611.057	37829.94
611.414	37776.83
611.771	37977.05
612.127	38292.07
612.484	38515.8
612.841	38662.46
613.198	38563.7
613.554	38579.52
613.911	38963.24
614.267	39107.64
614.624	39247.98
614.98	39392.16
615.337	39668.76
615.693	39675.31
616.05	39680.96
616.406	40006.6
616.762	39865.36
617.118	40025.59
617.475	39990.78
617.831	40123.66
618.187	40422.41
618.543	40541.5
618.899	40668.28
619.255	40675.74
619.611	40779.46
619.967	40980.59
620.323	41187.36
620.678	41024.43
621.034	40981.72
621.39	40957.31
621.746	41151.43
622.101	41541.93
622.457	41271.43
622.812	41451.31
623.168	41596.62
623.523	41625.54
623.879	41726.11
624.234	41608.37
624.589	41715.94
624.945	41800.45
625.3	42023.95
625.655	42045.42
626.01	42014.91
626.365	42021.01
626.72	42138.3
627.075	42014.69
627.43	42171.52
627.785	42195.7
628.14	42183.5
628.495	42358.86
628.85	42165.19
629.205	41987.34
629.559	42371.06
629.914	42214.91
630.269	42242.25
630.623	42178.75
630.978	42210.61
631.332	42320.21
631.687	42486.31
632.041	42334.9
632.396	42404.05
632.75	42289.03
633.104	42419.2
633.459	42238.18
633.813	42297.16
634.167	42228.01
634.521	42360.44
634.875	42382.59
635.229	42424.39
635.583	42324.06
635.937	42222.59
636.291	42206.77
636.645	42344.62
636.999	42160.45
637.352	42319.09
637.706	42116.6
638.06	42366.09
638.413	42363.15
638.767	42157.96
639.121	42191.4
639.474	41982.14
639.828	42050.17
640.181	42134.46
640.534	42089.71
640.888	41948.7
641.241	41800.23
641.594	41891.98
641.947	42114.34
642.301	41903.95
642.654	41974.24
643.007	41899.44
643.36	41899.44
643.713	41890.17
644.066	41998.42
644.419	41875.03
644.771	41540.57
645.124	41317.3
645.477	41155.5
645.83	40949.18
646.182	40823.76
646.535	40749.18
646.888	40804.32
647.24	40496.31
647.593	40725.23
647.945	40673.03
648.298	40475.97
648.65	40581.96
649.002	40377.22
649.355	40587.83
649.707	40377.22
650.059	40603.2
650.411	41115.5
650.763	41215.16
651.115	41435.49
651.467	41468.49
651.819	41443.63
652.171	41474.81
652.523	41374.7
652.875	41226.68
653.227	41072.56
653.578	41440.24
653.93	41251.54
654.282	41130.42
654.633	41132.9
654.985	41314.59
655.337	41227.59
655.688	41218.32
656.039	41470.29
656.391	41071.66
656.742	41198.44
657.094	41211.09
657.445	41233.01
657.796	41077.99
658.147	41047.03
658.498	40938.78
658.849	41034.82
659.2	41018.78
659.551	40844.55
659.902	41153.01
660.253	40991.89
660.604	41028.27
660.955	40842.97
661.306	40935.62
661.656	40813.14
662.007	40865.11
662.358	40951.89
662.708	40863.98
663.059	40866.92
663.409	40774.27
663.76	40954.38
664.11	40979.91
664.461	40941.49
664.811	40958.89
665.161	40883.19
665.511	40729.3
665.862	40845.68
666.212	40896.3
666.562	40932.23
666.912	40674.16
667.262	40787.6
667.612	40786.24
667.962	40802.51
668.312	40825.11
668.662	40866.02
669.011	40879.35
669.361	40560.94
669.711	40707.83
670.06	40716.42
670.41	40738.79
670.76	40555.97
671.109	40777.88
671.459	40675.29
671.808	40641.84
672.157	40647.26
672.507	40489.08
672.856	40415.86
673.205	40586.02
673.554	40642.07
673.904	40448.85
674.253	40712.8
674.602	40605.91
674.951	39959.15
675.3	39854.07
675.649	40489.53
675.998	40320.04
676.346	40475.74
676.695	40480.49
677.044	40197.78
677.393	40292.02
677.741	40357.78
678.09	40256.54
678.438	40240.95
678.787	40204.34
679.135	40287.27
679.484	40047.96
679.832	40178.58
680.181	39886.61
680.529	40190.33
680.877	39885.48
681.225	39949.66
681.573	40202.08
681.922	39805.93
682.27	39699.49
682.618	39744.92
682.966	39553.51
683.314	39707.4
683.661	39645.03
684.009	39432.61
684.357	39413.4
684.705	39373.85
685.053	39351.25
685.4	39332.27
685.748	39121.88
686.095	39107.42
686.443	39009.12
686.79	38956.46
687.138	39062.67
687.485	38988.55
687.832	38956.69
688.18	38884.6
688.527	38613.19
688.874	38624.04
689.221	38638.73
689.568	38518.06
689.915	38495.68
690.262	38572.97
690.609	38265.63
690.956	38217.27
691.303	38147.9
691.65	37888.24
691.997	37881.46
692.344	37732.09
692.69	37688.7
693.037	37686.66
693.383	37396.5
693.73	37588.59
694.077	37494.81
694.423	37455.94
694.769	37315.37
695.116	37170.52
695.462	37097.3
695.808	37069.05
696.155	37043.07
696.501	36827.25
696.847	36889.17
697.193	36670.19
697.539	36673.13
697.885	36482.18
698.231	36496.19
698.577	36445.79
698.923	36353.37
699.269	36169.64
699.614	36009.65
699.96	36038.12
700.306	35964.22
700.651	35840.16
700.997	35689.43
701.342	35718.35
701.688	35515.87
702.033	35354.52
702.379	35395.2
702.724	35403.79
703.069	35286.73
703.415	35055.55
703.76	34985.94
704.105	34920.18
704.45	34923.12
704.795	34679.51
705.14	34504.15
705.485	34697.36
705.83	34453.08
706.175	34521.32
706.52	34324.72
706.865	34298.28
707.209	34219.86
707.554	34044.27
707.899	34182.12
708.243	34005.63
708.588	33821.91
708.932	33820.33
709.277	33780.33
709.621	33865.97
709.966	33658.07
710.31	33744.4
710.654	33347.12
710.998	33479.77
711.342	33398.42
711.687	33275.71
712.031	33055.6
712.375	33109.84
712.719	33097.41
713.063	33010.18
713.407	33115.71
713.75	32879.79
714.094	32873.23
714.438	32711.88
714.782	32784.87
715.125	32700.13
715.469	32703.97
715.812	32547.14
716.156	32346.47
716.499	32326.81
716.843	32489.96
717.186	32227.37
717.53	32475.28
717.873	32396.41
718.216	32290.42
718.559	32106.7
718.902	31888.4
719.246	31946.48
719.589	31768.63
719.932	31698.57
720.275	31811.11
720.617	31733.37
720.96	31579.03
721.303	31605.92
721.646	31496.32
721.989	31413.38
722.331	31616.99
722.674	31504
723.016	31403.44
723.359	31346.72
723.701	31436.89
724.044	31158.47
724.386	31045.03
724.729	31092.94
725.071	31166.16
725.413	31119.38
725.755	31113.73
726.097	30899.5
726.439	30795.77
726.782	30828.77
727.124	30955.77
727.465	30716.23
727.807	30689.33
728.149	30578.38
728.491	30577.7
728.833	30729.33
729.175	30559.62
729.516	30470.58
729.858	30363.02
730.199	30370.92
730.541	30385.39
730.882	30258.84
731.224	30526.17
731.565	30205.51
731.906	30176.35
732.248	30217.71
732.589	30040.54
732.93	29952.63
733.271	30030.59
733.612	29943.82
733.953	29939.75
734.294	29801.22
734.635	29755.12
734.976	29889.58
735.317	29650.72
735.658	29600.32
735.999	29762.8
736.339	29656.14
736.68	29694.56
737.021	29546.09
737.361	29498.41
737.702	29617.72
738.042	29479.42
738.383	29405.3
738.723	29453.21
739.063	29318.75
739.404	29451.85
739.744	29306.32
740.084	29101.35
740.424	29161.92
740.764	29144.29
741.104	29154.23
741.444	29013.9
741.784	28892.77
742.124	28970.96
742.464	28944.97
742.804	28863.17
743.143	28838.54
743.483	28832.66
743.823	28666.56
744.162	28673.12
744.502	28673.12
744.841	28574.36
745.181	28667.47
745.52	28644.19
745.86	28507.47
746.199	28504.31
746.538	28485.55
746.877	28460.47
747.216	28516.96
747.556	28360.58
747.895	28459.34
748.234	28346.8
748.573	28157.2
748.911	28106.8
749.25	28118.1
749.589	28026.35
749.928	28046.24
750.267	28072.45
750.605	27865.23
750.944	27846.47
751.283	27778
751.621	27836.75
751.96	27675.85
752.298	27698.45
752.636	27727.6
752.975	27527.61
753.313	27502.75
753.651	27581.39
753.989	27369.87
754.327	27377.11
754.666	27133.95
755.004	27220.95
755.342	27316.32
755.679	27195.19
756.017	27104.57
756.355	27088.3
756.693	26976.21
757.031	27035.19
757.368	26893.95
757.706	26663
758.044	26840.4
758.381	26801.3
758.719	26783
759.056	26648.54
759.394	26541.65
759.731	26308.66
760.068	26482.44
760.405	26287.87
760.743	26155.89
761.08	26325.61
761.417	26003.58
761.754	25993.64
762.091	26007.65
762.428	25890.36
762.765	25676.13
763.102	25845.17
763.438	25601.56
763.775	25531.05
764.112	25550.94
764.449	25557.27
764.785	25441.79
765.122	25248.35
765.458	25324.28
765.795	25066.66
766.131	25070.95
766.467	24999.54
766.804	24869.83
767.14	24816.49
767.476	24762.26
767.812	24654.24
768.148	24756.61
768.485	24496.73
768.821	24348.03
769.157	24386
769.492	24340.12
769.828	24316.17
770.164	24074.37
770.5	24036.85
770.836	24067.81
771.171	23827.37
771.507	23844.09
771.842	23664.21
772.178	23641.84
772.513	23607.94
772.849	23420.82
773.184	23439.58
773.519	23420.82
773.855	23234.62
774.19	23198.01
774.525	23061.74
774.86	23067.61
775.195	22992.14
775.53	22895.19
775.865	22831.01
776.2	22634.4
776.535	22512.6
776.87	22463.56
777.205	22450
777.539	22310.35
777.874	22326.39
778.209	22189.22
778.543	22025.61
778.878	22059.5
779.212	22024.48
779.547	21844.82
779.881	21956.46
780.215	21797.82
780.55	21863.8
780.884	21572.51
781.218	21619.06
781.552	21514.89
781.886	21312.41
782.22	21280.32
782.554	21169.58
782.888	21010.94
783.222	20937.27
783.556	20925.52
783.889	20831.97
784.223	20684.85
784.557	20843.49
784.89	20617.28
785.224	20696.83
785.557	20473.78
785.891	20428.59
786.224	20359.21
786.558	20283.73
786.891	20141.59
787.224	20135.26
787.557	20055.49
787.891	20081.93
788.224	19957.87
788.557	19955.61
788.89	19899.34
789.223	19842.61
789.556	19566.01
789.888	19662.96
790.221	19588.84
790.554	19337.09
790.887	19373.25
791.219	19290.54
791.552	19256.87
791.884	19247.38
792.217	19135.06
792.549	18982.07
792.882	18942.52
793.214	18787.73
793.546	18764
793.879	18780.04
794.211	18597.67
794.543	18744.34
794.875	18544.34
795.207	18627.05
795.539	18444.68
795.871	18432.71
796.203	18269.55
796.535	18342.77
796.867	18303.9
797.198	18107.29
797.53	18177.12
797.862	18047.86
798.193	18102.32
798.525	17969.89
798.856	17959.27
799.188	17816
799.519	17697.81
799.85	17685.61
800.182	17686.74
800.513	17637.02
800.844	17453.52
801.175	17621.2
801.506	17497.36
801.837	17458.04
802.168	17463.47
802.499	17351.61
802.83	17229.12
803.161	17243.59
803.491	17170.37
803.822	17156.58
804.153	17073.65
804.483	16942.58
804.814	16991.62
805.145	16930.15
805.475	16919.98
805.805	16859.19
806.136	16702.58
806.466	16752.07
806.796	16640.21
807.126	16596.15
807.457	16501.01
807.787	16534.68
808.117	16490.39
808.447	16397.05
808.777	16418.75
809.107	16430.95
809.436	16288.13
809.766	16187.12
810.096	16251.3
810.426	16126.1
810.755	16191.86
811.085	16104.86
811.414	16024.64
811.744	15907.12
812.073	15897.18
812.403	15925.43
812.732	15833
813.061	15743.96
813.39	15717.98
813.719	15615.83
814.049	15719.33
814.378	15695.38
814.707	15588.26
815.036	15595.49
815.365	15550.52
815.693	15392.34
816.022	15317.54
816.351	15332
816.68	15247.71
817.008	15303.98
817.337	15217.65
817.665	15183.3
817.994	15146.69
818.322	15122.51
818.651	15059.91
818.979	15075.96
819.307	15160.25
819.636	14948.28
819.964	14985.57
820.292	14883.42
820.62	14948.51
820.948	14907.15
821.276	14953.25
821.604	14894.72
821.932	14924.55
822.259	14973.82
822.587	14872.8
822.915	14880.94
823.243	14912.35
823.57	14741.28
823.898	14857.21
824.225	14794.84
824.553	14751
824.88	14759.36
825.207	14845.91
825.535	14845.23
825.862	14868.06
826.189	14767.95
826.516	14847.04
826.843	14798.45
827.17	14842.75
827.497	14823.08
827.824	14773.37
828.151	14903.99
828.478	14757.55
828.805	14875.29
829.131	14706.93
829.458	14814.5
829.785	14678.91
830.111	14702.86
830.438	14769.07
830.764	14835.06
831.09	14735.86
831.417	14666.93
831.743	14687.5
832.069	14795.51
832.395	14684.11
832.722	14724.1
833.048	14633.71
833.374	14720.04
833.7	14688.63
834.026	14656.99
834.351	14594.84
834.677	14578.35
835.003	14639.13
835.329	14578.57
835.654	14468.52
835.98	14481.85
836.306	14522.3
836.631	14462.19
836.956	14579.48
837.282	14510.55
837.607	14372.48
837.932	14348.52
838.258	14339.26
838.583	14349.2
838.908	14295.19
839.233	14221.29
839.558	14300.84
839.883	14202.31
840.208	14181.52
840.533	14225.13
840.858	14249.54
841.182	14153.27
841.507	14158.02
841.832	14092.93
842.156	13982.88
842.481	13986.72
842.805	14029.66
843.13	13942.43
843.454	13920.51
843.778	13870.12
844.103	13820.4
844.427	13851.13
844.751	13852.71
845.075	13772.04
845.399	13727.75
845.723	13685.94
846.047	13629.22
846.371	13504.93
846.695	13579.95
847.019	13503.35
847.343	13391.03
847.666	13385.83
847.99	13263.8
848.313	13259.28
848.637	13225.39
848.96	13209.12
849.284	13126.18
849.607	13093.64
849.931	13057.93
850.254	12950.59
850.577	12891.84
850.9	12808
851.223	12798.96
851.546	12694.33
851.869	12695.23
852.192	12707.66
852.515	12510.15
852.838	12495.69
853.161	12496.59
853.483	12482.58
853.806	12303.83
854.129	12344.96
854.451	12273.77
854.774	12255.47
855.096	12249.37
855.419	12200.33
855.741	12139.54
856.063	12121.91
856.385	12106.32
856.708	12038.07
857.03	12033.55
857.352	12029.03
857.674	11939.54
857.996	11916.72
858.318	11892.99
858.64	11806.44
858.961	11768.25
859.283	11777.06
859.605	11700.46
859.926	11730.28
860.248	11699.33
860.57	11648.71
860.891	11685.54
861.212	11538.65
861.534	11505.88
861.855	11528.48
862.176	11514.7
862.498	11533.23
862.819	11465.88
863.14	11380.24
863.461	11397.86
863.782	11391.76
864.103	11409.84
864.424	11271.31
864.745	11345.44
865.065	11290.07
865.386	11278.09
865.707	11231.77
866.027	11234.03
866.348	11237.64
866.668	11241.26
866.989	11177.76
867.309	11054.37
867.63	11143.63
867.95	11079.68
868.27	11007.14
868.59	11064.31
868.91	10999.91
869.23	10993.81
869.55	10995.84
869.87	11079
870.19	10949.29
870.51	11017.99
870.83	11023.18
871.15	10959.68
871.469	10897.54
871.789	10919.91
872.109	10884.43
872.428	10798.11
872.748	10768.05
873.067	10906.13
873.386	10825
873.706	10789.97
874.025	10713.81
874.344	10649.18
874.663	10728.05
874.982	10678.79
875.301	10738.22
875.62	10567.83
875.939	10623.42
876.258	10716.07
876.577	10590.88
876.896	10589.75
877.214	10568.73
877.533	10575.29
877.852	10518.57
878.17	10524.21
878.489	10542.07
878.807	10495.97
879.125	10487.38
879.444	10525.57
879.762	10477.66
880.08	10422.07
880.398	10321.51
880.716	10457.1
881.034	10336.88
881.352	10388.63
881.67	10347.95
881.988	10363.99
882.306	10243.09
882.624	10259.14
882.941	10213.04
883.259	10189.31
883.577	10181.62
883.894	10143.89
884.212	10105.24
884.529	10149.76
884.846	10077.45
885.164	10102.76
885.481	10058.92
885.798	10052.36
886.115	9996.55
886.432	10047.17
886.75	9913.84
887.067	9985.7
887.383	9917
887.7	9931.91
888.017	9851.01
888.334	9851.46
888.651	9873.61
888.967	9798.81
889.284	9779.83
889.6	9730.34
889.917	9666.84
890.233	9632.49
890.55	9669.77
890.866	9603.11
891.182	9605.82
891.498	9566.73
891.815	9527.18
892.131	9531.47
892.447	9547.07
892.763	9404.92
893.079	9453.06
893.395	9402.89
893.71	9367.41
894.026	9321.99
894.342	9352.27
894.657	9306.17
894.973	9275.43
895.289	9265.49
895.604	9301.2
895.92	9160.86
896.235	9129.68
896.55	9122.22
896.865	9054.42
897.181	9069.79
897.496	9088.32
897.811	9004.25
898.126	8952.73
898.441	8917.48
898.756	8908.89
899.071	8836.8
899.386	8857.59
899.7	8794.77
900.015	8819.17
900.33	8729.01
900.644	8627.32
900.959	8707.31
901.273	8667.99
901.588	8677.71
901.902	8539.63
902.216	8593.42
902.531	8503.93
902.845	8458.05
903.159	8402.46
903.473	8404.04
903.787	8388
904.101	8322.92
904.415	8341.22
904.729	8309.58
905.042	8311.84
905.356	8279.3
905.67	8199.3
905.984	8152.53
906.297	8199.98
906.611	8121.79
906.924	8102.58
907.237	8080.66
907.551	8013.77
907.864	7997.5
908.177	8000.89
908.491	7919.76
908.804	7892.42
909.117	7832.76
909.43	7840.22
909.743	7814.91
910.056	7832.08
910.368	7754.57
910.681	7689.49
910.994	7609.49
911.307	7654.69
911.619	7592.54
911.932	7592.09
912.244	7524.97
912.557	7543.05
912.869	7478.19
913.181	7457.85
913.494	7464.63
913.806	7381.92
914.118	7341.93
914.43	7322.94
914.742	7351.19
915.054	7271.19
915.366	7261.48
915.678	7239.1
915.99	7244.3
916.302	7077.53
916.613	7092.21
916.925	7099.9
917.236	7093.57
917.548	7034.36
917.859	7028.49
918.171	6985.32
918.482	6934.03
918.794	6898.77
919.105	6917.98
919.416	6825.1
919.727	6860.13
920.038	6790.3
920.349	6724.77
920.66	6720.47
920.971	6749.17
921.282	6708.04
921.593	6612.91
921.903	6649.29
922.214	6620.14
922.525	6574.49
922.835	6576.07
923.146	6487.71
923.456	6489.97
923.767	6465.34
924.077	6487.94
924.387	6378.79
924.697	6350.77
925.008	6350.09
925.318	6329.07
925.628	6357.09
925.938	6274.38
926.248	6171.79
926.558	6223.08
926.867	6214.95
927.177	6249.07
927.487	6137.44
927.796	6022.64
928.106	6134.73
928.416	6056.54
928.725	6019.02
929.034	6041.85
929.344	6030.32
929.653	5945.8
929.962	5926.37
930.271	5920.95
930.581	5887.05
930.89	5839.37
931.199	5797.56
931.508	5838.46
931.817	5831.91
932.125	5782.64
932.434	5764.11
932.743	5687.51
933.051	5706.26
933.36	5627.39
933.669	5610.22
933.977	5639.82
934.286	5604.34
934.594	5616.55
934.902	5525.48
935.21	5568.86
935.519	5493.39
935.827	5476.44
936.135	5446.38
936.443	5413.39
936.751	5412.26
937.059	5445.03
937.367	5339.72
937.674	5372.94
937.982	5345.14
938.29	5321.87
938.597	5309.21
938.905	5233.05
939.213	5210.68
939.52	5212.49
939.827	5217.24
940.135	5156.9
940.442	5123.23
940.749	5125.49
941.056	5133.17
941.363	5066.73
941.67	5046.39
941.977	5022.66
942.284	4968.88
942.591	4993.29
942.898	4950.12
943.205	4986.73
943.511	4951.03
943.818	4918.94
944.125	4882.33
944.431	4852.95
944.738	4819.05
945.044	4837.81
945.35	4794.65
945.657	4706.06
945.963	4710.58
946.269	4714.65
946.575	4718.27
946.881	4679.4
947.187	4682.33
947.493	4645.95
947.799	4619.96
948.105	4563.69
948.41	4542
948.716	4589.23
949.022	4542.23
949.327	4561.21
949.633	4474.43
949.938	4551.72
950.244	4438.73
950.549	4455.67
950.854	4414.54
951.16	4396.92
951.465	4388.78
951.77	4353.3
952.075	4306.53
952.38	4358.05
952.685	4332.06
952.99	4292.97
953.294	4274.44
953.599	4203.03
953.904	4192.4
954.209	4211.16
954.513	4217.26
954.818	4159.86
955.122	4127.55
955.426	4133.42
955.731	4111.05
956.035	4123.71
956.339	4104.04
956.643	4086.42
956.948	4035.8
957.252	4050.49
957.556	4023.82
957.86	4017.04
958.163	3961.68
958.467	4007.55
958.771	3963.48
959.075	3944.05
959.378	3974.78
959.682	3992.41
959.985	3888.46
960.289	3871.96
960.592	3868.34
960.896	3859.08
961.199	3810.04
961.502	3830.61
961.805	3833.32
962.108	3762.58
962.411	3748.35
962.714	3772.53
963.017	3744.28
963.32	3745.41
963.623	3706.54
963.926	3733.66
964.228	3636.49
964.531	3667.67
964.833	3685.75
965.136	3606.43
965.438	3612.53
965.741	3593.78
966.043	3553.32
966.345	3538.64
966.648	3542.25
966.95	3547
967.252	3493.67
967.554	3481.24
967.856	3494.8
968.158	3461.12
968.46	3472.2
968.761	3444.17
969.063	3415.25
969.365	3387
969.666	3403.72
969.968	3363.05
970.269	3365.98
970.571	3388.81
970.872	3339.32
971.174	3281.92
971.475	3282.37
971.776	3310.17
972.077	3263.39
972.378	3277.17
972.679	3265.42
972.98	3242.82
973.281	3228.59
973.582	3192.88
973.883	3189.94
974.183	3187.91
974.484	3186.33
974.785	3155.37
975.085	3132.77
975.386	3125.54
975.686	3099.55
975.986	3087.8
976.287	3053
976.587	3074.24
976.887	3042.15
977.187	3086.22
977.487	3043.96
977.787	2994.92
978.087	3020.46
978.387	2965.77
978.687	2979.1
978.987	2964.41
979.286	2912.66
979.586	2930.06
979.885	2926.9
980.185	2892.55
980.484	2890.97
980.784	2863.85
981.083	2899.33
981.382	2856.85
981.682	2835.83
981.981	2855.94
982.28	2836.06
982.579	2789.95
982.878	2787.7
983.177	2759.45
983.475	2779.33
983.774	2758.77
984.073	2730.52
984.372	2735.27
984.67	2704.99
984.969	2723.29
985.267	2689.84
985.566	2682.61
985.864	2695.04
986.162	2665.66
986.461	2656.85
986.759	2601.03
987.057	2601.03
987.355	2570.75
987.653	2580.02
987.951	2568.04
988.249	2601.71
988.547	2586.34
988.844	2554.71
989.142	2559.45
989.44	2514.03
989.737	2487.14
990.035	2530.07
990.332	2501.83
990.63	2505.44
990.927	2444.65
991.224	2444.43
991.521	2445.33
991.819	2449.17
992.116	2416.63
992.413	2438.33
992.71	2394.49
993.006	2387.48
993.303	2365.33
993.6	2365.79
993.897	2391.77
994.193	2365.56
994.49	2356.75
994.787	2319.46
995.083	2332.79
995.379	2310.42
995.676	2268.84
995.972	2272.23
996.268	2273.36
996.565	2276.75
996.861	2247.37
997.157	2246.24
997.453	2240.14
997.749	2177.77
998.044	2191.33
998.34	2174.15
998.636	2182.97
998.932	2168.5
999.227	2183.64
999.523	2150.88
999.818	2147.71
1000.114	2100.71
1000.409	2112.91
1000.704	2143.64
1001	2115.85
1001.295	2100.03
1001.59	2102.06
1001.885	2079.01
1002.18	2008.73
1002.475	2018.22
1002.77	2034.04
1003.065	2001.73
1003.359	2025
1003.654	1982.97
1003.949	1954.04
1004.243	1947.27
1004.538	1955.63
1004.832	1945.46
1005.127	1909.53
1005.421	1917.21
1005.715	1934.16
1006.009	1898
1006.304	1912.46
1006.598	1885.12
1006.892	1877.66
1007.186	1862.75
1007.48	1850.77
1007.773	1843.99
1008.067	1824.33
1008.361	1806.93
1008.655	1813.94
1008.948	1800.6
1009.242	1788.4
1009.535	1784.78
1009.829	1751.11
1010.122	1755.63
1010.415	1771.68
1010.708	1732.13
1011.001	1730.55
1011.295	1710.89
1011.588	1720.6
1011.881	1687.84
1012.173	1700.94
1012.466	1698.46
1012.759	1689.87
1013.052	1689.87
1013.344	1666.59
1013.637	1670.21
1013.93	1633.15
1014.222	1636.09
1014.514	1607.84
1014.807	1606.03
1015.099	1614.84
1015.391	1627.05
1015.683	1598.8
1015.976	1588.63
1016.268	1568.74
1016.56	1553.38
1016.851	1542.3
1017.143	1547.73
1017.435	1548.86
1017.727	1482.87
1018.018	1506.37
1018.31	1501.85
1018.602	1501.18
1018.893	1493.04
1019.185	1459.37
1019.476	1466.6
1019.767	1484.68
1020.058	1428.63
1020.35	1440.39
1020.641	1446.26
1020.932	1418.01
1021.223	1422.53
1021.514	1411.69
1021.804	1360.39
1022.095	1405.36
1022.386	1374.17
1022.677	1370.11
1022.967	1361.74
1023.258	1327.85
1023.548	1326.49
1023.839	1314.51
1024.129	1341.41
1024.419	1292.59
1024.709	1312.71
1025	1329.2
1025.29	1272.71
1025.58	1296.89
1025.87	1269.54
1026.16	1270.45
1026.449	1248.07
1026.739	1235.87
1027.029	1229.09
1027.319	1242.88
1027.608	1225.25
1027.898	1189.09
1028.187	1207.62
1028.477	1208.75
1028.766	1192.03
1029.055	1183.67
1029.344	1189.09
1029.634	1171.92
1029.923	1190.45
1030.212	1149.32
1030.501	1151.35
1030.79	1148.64
1031.078	1149.09
1031.367	1117
1031.656	1133.28
1031.945	1107.97
1032.233	1115.65
1032.522	1121.52
1032.81	1082.2
1033.099	1055.76
1033.387	1095.54
1033.675	1077.01
1033.963	1087.4
1034.251	1052.6
1034.54	1079.04
1034.828	1046.72
1035.116	1048.98
1035.403	1041.98
1035.691	1009.66
1035.979	997.46
1036.267	1017.57
1036.554	1004.92
1036.842	1006.05
1037.129	969.89
1037.417	986.61
1037.704	971.92
1037.992	991.81
1038.279	978.25
1038.566	945.71
1038.853	945.71
1039.14	945.71
