Data from hue_70_FLMS001491_83.txt Node
Date: Mon Feb 06 15:21:33 GMT 2017
User: dcchb
Spectrometer: FLMS00149
Trigger mode: 0
Integration Time (sec): 2.000000E-2
Scans to average: 10
Electric dark correction enabled: true
Nonlinearity correction enabled: false
Boxcar width: 0
XAxis mode: Wavelengths
Number of Pixels in Spectrum: 2048
>>>>>Begin Spectral Data<<<<<
341.393	-23.7
341.776	-23.7
342.16	-23.7
342.543	-47.2
342.927	-55.79
343.31	-68.44
343.693	-85.85
344.077	-66.86
344.46	-44.94
344.843	-68.9
345.226	-65.51
345.61	-41.78
345.993	-7.66
346.376	17.2
346.759	19.69
347.142	25.34
347.525	44.32
347.908	65.56
348.291	65.56
348.674	83.87
349.057	128.39
349.44	136.52
349.823	149.4
350.206	165.22
350.588	198.67
350.971	186.01
351.354	227.82
351.737	246.12
352.119	230.53
352.502	267.14
352.884	255.16
353.267	268.95
353.65	276.41
354.032	297.2
354.414	310.08
354.797	301.26
355.179	310.75
355.562	326.57
355.944	330.19
356.326	333.13
356.709	344.65
357.091	336.74
357.473	331.54
357.855	335.61
358.238	363.18
358.62	326.8
359.002	350.3
359.384	335.16
359.766	347.14
360.148	333.35
360.53	329.96
360.912	341.04
361.294	343.3
361.676	324.31
362.057	321.38
362.439	317.99
362.821	308.49
363.203	333.35
363.584	314.82
363.966	318.66
364.348	336.52
364.729	326.35
365.111	330.19
365.493	302.39
365.874	307.82
366.256	291.32
366.637	312.79
367.019	291.09
367.4	320.92
367.781	307.14
368.163	320.7
368.544	302.85
368.925	347.59
369.306	330.87
369.688	315.27
370.069	299.23
370.45	307.82
370.831	290.42
371.212	321.6
371.593	312.34
371.974	317.08
372.355	324.09
372.736	323.86
373.117	311.43
373.498	299.23
373.879	315.05
374.26	303.52
374.641	288.16
375.021	303.07
375.402	304.43
375.783	323.18
376.163	328.16
376.544	325.9
376.925	325.22
377.305	334.93
377.686	332.22
378.066	335.39
378.447	323.86
378.827	344.65
379.208	307.14
379.588	320.92
379.968	338.32
380.349	332
380.729	336.74
381.109	329.51
381.489	334.03
381.87	323.41
382.25	332.67
382.63	318.66
383.01	331.77
383.39	311.43
383.77	332.45
384.15	353.92
384.53	326.35
384.91	343.97
385.29	347.14
385.67	334.71
386.049	348.72
386.429	329.51
386.809	335.39
387.189	362.5
387.568	347.59
387.948	357.98
388.328	366.35
388.707	343.75
389.087	365.89
389.466	347.14
389.846	350.3
390.225	368.83
390.605	355.95
390.984	343.3
391.363	355.73
391.743	360.92
392.122	375.16
392.501	345.56
392.881	355.05
393.26	353.01
393.639	380.36
394.018	381.49
394.397	373.35
394.776	370.41
395.155	360.24
395.534	380.58
395.913	367.25
396.292	378.1
396.671	374.71
397.05	377.42
397.429	390.53
397.808	398.66
398.186	385.55
398.565	384.2
398.944	377.42
399.323	374.71
399.701	375.39
400.08	406.12
400.458	421.26
400.837	373.35
401.215	382.17
401.594	386.23
401.972	389.4
402.351	395.5
402.729	396.63
403.107	386.68
403.486	388.94
403.864	402.5
404.242	395.72
404.62	395.5
404.999	409.28
405.377	413.58
405.755	406.8
406.133	413.8
406.511	400.7
406.889	418.32
407.267	416.97
407.645	417.87
408.023	429.85
408.401	450.19
408.779	435.05
409.156	414.48
409.534	438.21
409.912	429.85
410.29	438.89
410.667	428.49
411.045	448.6
411.422	432.79
411.8	423.52
412.178	448.15
412.555	468.49
412.933	441.6
413.31	473.01
413.687	452.45
414.065	451.77
414.442	498.32
414.819	465.1
415.197	473.69
415.574	470.3
415.951	474.37
416.328	479.56
416.705	464.65
417.082	487.47
417.46	486.12
417.837	480.92
418.214	494.93
418.591	496.51
418.967	491.31
419.344	493.57
419.721	481.37
420.098	502.39
420.475	499.22
420.852	502.84
421.228	522.27
421.605	511.88
421.982	522.95
422.358	525.66
422.735	542.61
423.111	516.85
423.488	518.88
423.864	543.97
424.241	527.92
424.617	527.25
424.994	536.96
425.37	534.48
425.746	526.12
426.123	554.36
426.499	539.22
426.875	539.9
427.251	557.98
427.627	546.23
428.003	557.3
428.379	559.11
428.756	569.96
429.132	580.35
429.507	590.52
429.883	584.19
430.259	570.86
430.635	588.04
431.011	603.18
431.387	588.94
431.763	614.02
432.138	613.12
432.514	644.53
432.89	630.52
433.265	616.96
433.641	622.38
434.016	655.38
434.392	634.59
434.767	663.06
435.143	658.99
435.518	654.25
435.894	658.09
436.269	669.84
436.644	693.8
437.02	660.35
437.395	682.72
437.77	699.22
438.145	695.6
438.52	672.33
438.895	686.11
439.271	695.38
439.646	688.6
440.021	715.94
440.395	730.63
440.77	706.22
441.145	715.94
441.52	726.79
441.895	740.12
442.27	742.38
442.645	754.13
443.019	747.81
443.394	759.1
443.769	759.78
444.143	758.2
444.518	763.62
444.892	763.85
445.267	783.96
445.641	771.99
446.016	748.71
446.39	790.29
446.764	791.19
447.139	778.99
447.513	799.1
447.887	809.72
448.262	797.07
448.636	802.94
449.01	803.4
449.384	788.48
449.758	800.91
450.132	828.71
450.506	831.19
450.88	843.4
451.254	830.97
451.628	858.54
452.002	838.88
452.376	873
452.75	847.24
453.123	862.15
453.497	888.37
453.871	892.66
454.244	886.78
454.618	918.2
454.992	931.98
455.365	899.67
455.739	939.21
456.112	950.74
456.486	941.25
456.859	971.3
457.232	943.96
457.606	969.72
457.979	1011.53
458.352	999.55
458.725	1010.17
459.099	1016.72
459.472	1020.79
459.845	1065.31
460.218	1039.77
460.591	1061.92
460.964	1075.03
461.337	1068.93
461.71	1104.41
462.083	1130.39
462.456	1114.12
462.829	1140.11
463.201	1161.35
463.574	1150.28
463.947	1178.75
464.32	1192.77
464.692	1198.87
465.065	1206.1
465.438	1240.9
465.81	1223.27
466.183	1261.24
466.555	1305.53
466.928	1319.32
467.3	1340.56
467.672	1351.63
468.045	1370.61
468.417	1382.36
468.789	1358.41
469.161	1416.04
469.534	1458.07
469.906	1484.96
470.278	1502.36
470.65	1524.73
471.022	1545.98
471.394	1593.66
471.766	1613.32
472.138	1626.2
472.51	1701.23
472.882	1700.32
473.253	1771.28
473.625	1792.98
473.997	1834.33
474.369	1845.18
474.74	1914.33
475.112	1933.54
475.484	1955.23
475.855	2044.04
476.227	2076.81
476.598	2141.89
476.97	2171.04
477.341	2242.68
477.713	2300.98
478.084	2322.91
478.455	2457.14
478.827	2486.74
479.198	2561.54
479.569	2638.38
479.94	2701.65
480.311	2752.05
480.682	2840.41
481.053	2990.23
481.424	3060.06
481.795	3091.7
482.166	3194.97
482.537	3306.16
482.908	3381.63
483.279	3461.18
483.65	3610.78
484.021	3676.54
484.391	3766.48
484.762	3874.05
485.133	4004.67
485.503	4096.87
485.874	4222.06
486.244	4337.32
486.615	4527.82
486.985	4589.06
487.356	4690.3
487.726	4857.08
488.097	4984.3
488.467	5089.16
488.837	5216.84
489.207	5348.14
489.578	5560.11
489.948	5643.5
490.318	5828.35
490.688	5874.68
491.058	6077.61
491.428	6198.96
491.798	6339.97
492.168	6553.53
492.538	6627.2
492.908	6853.18
493.278	7012.95
493.648	7069.45
494.017	7276.45
494.387	7387.63
494.757	7628.75
495.126	7753.72
495.496	7840.5
495.866	7995.3
496.235	8129.08
496.605	8346.48
496.974	8399.58
497.344	8557.32
497.713	8689.74
498.082	8848.84
498.452	9083.63
498.821	9154.82
499.19	9291.99
499.559	9449.05
499.928	9597.52
500.298	9744.63
500.667	9917.96
501.036	9948.24
501.405	10141.68
501.774	10269.59
502.143	10351.85
502.512	10446.99
502.88	10628.45
503.249	10767.88
503.618	10901.66
503.987	11042.68
504.356	11128.78
504.724	11207.42
505.093	11389.11
505.462	11379.16
505.83	11576.22
506.199	11754.07
506.567	11908.42
506.936	12017.11
507.304	12150.22
507.672	12274.96
508.041	12359.48
508.409	12549.3
508.777	12642.41
509.145	12741.61
509.514	12803.31
509.882	12960.82
510.25	13101.38
510.618	13170.76
510.986	13267.7
511.354	13505.21
511.722	13561.93
512.09	13671.53
512.458	13668.82
512.826	13795.82
513.193	13934.58
513.561	13917.18
513.929	14224.96
514.297	14289.82
514.664	14379.09
515.032	14462.92
515.4	14599.87
515.767	14625.86
516.135	14822.24
516.502	14734.33
516.869	15047.09
517.237	15006.19
517.604	15138.39
517.972	15196.01
518.339	15388.32
518.706	15427.65
519.073	15463.8
519.44	15582.44
519.808	15809.33
520.175	15788.99
520.542	15944.24
520.909	16089.55
521.276	15991.7
521.643	16226.95
522.009	16280.28
522.376	16430.56
522.743	16558.91
523.11	16670.78
523.477	16846.36
523.843	16847.72
524.21	17050.2
524.577	17099.69
524.943	17266.24
525.31	17270.76
525.676	17469.17
526.043	17531.32
526.409	17625.78
526.776	17625.1
527.142	17791.65
527.508	17899.22
527.874	17905.55
528.241	18039.78
528.607	18095.82
528.973	18277.29
529.339	18233.22
529.705	18322.26
530.071	18581.46
530.437	18519.54
530.803	18570.84
531.169	18726.09
531.535	18637.05
531.901	18624.4
532.267	18887.67
532.632	18889.48
532.998	18870.27
533.364	19037.49
533.73	19042.24
534.095	19142.12
534.461	19195
534.826	19293.31
535.192	19331.72
535.557	19449.23
535.923	19378.95
536.288	19425.73
536.653	19495.79
537.019	19425.51
537.384	19502.57
537.749	19633.64
538.114	19606.07
538.479	19562.45
538.845	19635.9
539.21	19603.35
539.575	19715.44
539.94	19662.34
540.305	19814.65
540.67	19697.59
541.034	19747.53
541.399	19817.36
541.764	19777.81
542.129	19871.14
542.494	19909.56
542.858	19948.43
543.223	19917.24
543.587	19966.06
543.952	19975.1
544.316	20044.92
544.681	19937.36
545.045	20072.49
545.41	20208.99
545.774	20156.56
546.138	20081.76
546.503	20192.94
546.867	20200.85
547.231	20358.59
547.595	20371.47
547.959	20290.12
548.324	20374.18
548.688	20313.17
549.052	20374.63
549.416	20353.62
549.779	20441.07
550.143	20384.58
550.507	20469.77
550.871	20549.09
551.235	20509.09
551.599	20710.22
551.962	20576.89
552.326	20587.06
552.689	20682.87
553.053	20558.13
553.417	20588.19
553.78	20891.91
554.143	20725.36
554.507	20709.54
554.87	20736.43
555.234	20920.16
555.597	20848.07
555.96	20869.08
556.323	20965.8
556.686	20962.41
557.05	21084.9
557.413	21019.14
557.776	21102.07
558.139	21248.51
558.502	21217.32
558.865	21146.36
559.228	21335.51
559.59	21440.14
559.953	21451.67
560.316	21635.17
560.679	21542.96
561.041	21519.01
561.404	21701.6
561.767	21783.86
562.129	21672.9
562.492	22011.2
562.854	21875.84
563.217	21954.48
563.579	21942.95
563.941	22121.48
564.304	22171.87
564.666	22269.05
565.028	22292.78
565.39	22295.71
565.753	22460.68
566.115	22449.83
566.477	22550.85
566.839	22558.76
567.201	22714.91
567.563	22697.51
567.925	22890.27
568.287	22831.74
568.648	22859.54
569.01	22984.51
569.372	23010.72
569.734	23021.12
570.095	23210.72
570.457	23235.35
570.819	23197.61
571.18	23197.84
571.542	23316.7
571.903	23321.9
572.265	23379.53
572.626	23536.58
572.987	23524.16
573.349	23533.65
573.71	23638.05
574.071	23608.45
574.432	23737.26
574.794	23900.64
575.155	23754.88
575.516	23785.62
575.877	23879.17
576.238	23844.83
576.599	24041.88
576.96	23951.94
577.32	23972.51
577.681	24045.5
578.042	24176.57
578.403	24139.73
578.763	24066.29
579.124	24166.62
579.485	24262.67
579.845	24319.61
580.206	24170.92
580.566	24191.48
580.927	24185.16
581.287	24305.15
581.648	24240.75
582.008	24340.18
582.368	24397.58
582.728	24269.9
583.089	24254.53
583.449	24330.91
583.809	24388.54
584.169	24324.59
584.529	24244.14
584.889	24448.42
585.249	24283.23
585.609	24172.73
585.969	24447.07
586.329	24366.62
586.688	24372.04
587.048	24347.18
587.408	24297.92
587.768	24254.31
588.127	24222.67
588.487	24113.29
588.846	24500.18
589.206	24236
589.565	24165.04
589.925	24423.57
590.284	24192.84
590.643	24347.86
591.003	24492.04
591.362	24361.42
591.721	24354.19
592.08	24426.73
592.44	24439.39
592.799	24323
593.158	24375.43
593.517	24309.67
593.876	24348.09
594.235	24410.69
594.593	24430.35
594.952	24337.24
595.311	24402.78
595.67	24415.21
596.029	24447.3
596.387	24609.1
596.746	24504.02
597.104	24494.75
597.463	24377.24
597.822	24558.48
598.18	24365.94
598.538	24338.82
598.897	24437.8
599.255	24278.49
599.613	24619.72
599.972	24390.35
600.33	24502.89
600.688	24501.3
601.046	24545.82
601.404	24570.46
601.762	24565.71
602.12	24718.25
602.478	24680.74
602.836	24631.92
603.194	24563.45
603.552	24637.57
603.91	24526.39
604.268	24693.16
604.625	24644.35
604.983	24825.36
605.341	24553.28
605.698	24653.39
606.056	24785.59
606.413	24815.87
606.771	24826.27
607.128	24845.93
607.485	24799.38
607.843	24877.79
608.2	24966.6
608.557	24979.48
608.914	25072.14
609.272	25027.17
609.629	25061.97
609.986	25233.26
610.343	25029.2
610.7	25202.98
611.057	25315.97
611.414	25208.4
611.771	25146.03
612.127	25261.96
612.484	25320.27
612.841	25398.23
613.198	25326.37
613.554	25329.31
613.911	25398.91
614.267	25503.76
614.624	25312.36
614.98	25458.79
615.337	25665.79
615.693	25498.79
616.05	25508.28
616.406	25721.39
616.762	25677.32
617.118	25623.54
617.475	25655.4
617.831	25792.8
618.187	25715.51
618.543	25841.83
618.899	25971.55
619.255	25917.54
619.611	25933.58
619.967	26031.43
620.323	26025.11
620.678	25914.15
621.034	25927.03
621.39	25793.02
621.746	25969.51
622.101	26182.39
622.457	25936.07
622.812	26008.84
623.168	26166.12
623.523	26111.43
623.879	26124.09
624.234	26028.5
624.589	26115.73
624.945	26134.26
625.3	26168.61
625.655	26163.41
626.01	26232.11
626.365	26183.75
626.72	26133.58
627.075	26071.89
627.43	26066.01
627.785	26072.56
628.14	26073.24
628.495	26111.66
628.85	26027.59
629.205	26063.52
629.559	26126.8
629.914	26029.4
630.269	26147.14
630.623	26041.15
630.978	26011.32
631.332	26121.6
631.687	26167.25
632.041	25980.36
632.396	26106.01
632.75	25958.67
633.104	26112.56
633.459	25963.64
633.813	25892.23
634.167	25947.37
634.521	25932.23
634.875	25859.24
635.229	25881.83
635.583	25724.32
635.937	25856.3
636.291	25759.12
636.645	25790.54
636.999	25710.09
637.352	25724.55
637.706	25649.3
638.06	25849.07
638.413	25631.44
638.767	25565.23
639.121	25742.18
639.474	25473.48
639.828	25567.27
640.181	25478.68
640.534	25499.47
640.888	25467.83
641.241	25351.9
641.594	25373.6
641.947	25450.66
642.301	25483.2
642.654	25412.92
643.007	25366.82
643.36	25324.33
643.713	25315.97
644.066	25307.84
644.419	25238.69
644.771	25065.13
645.124	24854.06
645.477	24895.64
645.83	24632.15
646.182	24633.73
646.535	24629.66
646.888	24616.78
647.24	24488.42
647.593	24585.6
647.945	24496.33
648.298	24409.33
648.65	24349.44
649.002	24447.75
649.355	24483.45
649.707	24408.65
650.059	24494.3
650.411	24866.49
650.763	24837.79
651.115	25009.99
651.467	24908.3
651.819	25019.03
652.171	25038.92
652.523	25033.27
652.875	25059.93
653.227	24761.19
653.578	24999.82
653.93	24957.56
654.282	24857.23
654.633	24859.71
654.985	24845.02
655.337	24922.31
655.688	24960.28
656.039	24958.69
656.391	24791.24
656.742	24762.32
657.094	24762.54
657.445	24917.57
657.796	24895.42
658.147	24804.35
658.498	24807.96
658.849	24845.25
659.2	24806.16
659.551	24825.82
659.902	24843.44
660.253	24756.89
660.604	24871.69
660.955	24810.22
661.306	24867.85
661.656	24816.1
662.007	24839.6
662.358	24849.32
662.708	24781.52
663.059	24749.43
663.409	24733.84
663.76	24954.85
664.11	24909.43
664.461	24899.03
664.811	24920.73
665.161	24784.46
665.511	24833.73
665.862	24853.61
666.212	24965.7
666.562	24920.73
666.912	24818.13
667.262	24838.7
667.612	24795.08
667.962	24955.08
668.312	24840.51
668.662	24999.6
669.011	24828.3
669.361	24839.83
669.711	24659.94
670.06	24750.79
670.41	24725.25
670.76	24763.67
671.109	24804.35
671.459	24758.7
671.808	24706.05
672.157	24788.08
672.507	24622.21
672.856	24643
673.205	24598.7
673.554	24711.24
673.904	24615.2
674.253	24708.08
674.602	24581.98
674.951	24283.46
675.3	24184.03
675.649	24549.67
675.998	24551.93
676.346	24537.69
676.695	24481.64
677.044	24379.5
677.393	24492.04
677.741	24495.66
678.09	24475.77
678.438	24362.78
678.787	24455.43
679.135	24392.38
679.484	24147.64
679.832	24306.51
680.181	24220.18
680.529	24292.72
680.877	24171.37
681.225	24066.06
681.573	24265.6
681.922	24043.01
682.27	23893.41
682.618	24047.08
682.966	23979.51
683.314	23976.8
683.661	23967.53
684.009	23730.93
684.357	23776.13
684.705	23644.15
685.053	23814.77
685.4	23681.44
685.748	23549.92
686.095	23659.75
686.443	23532.29
686.79	23467.43
687.138	23605.96
687.485	23421.33
687.832	23326.65
688.18	23420.66
688.527	23348.34
688.874	23245.74
689.221	23254.78
689.568	23141.34
689.915	23097.95
690.262	23067.44
690.609	22980.21
690.956	22896.15
691.303	22942.48
691.65	22730.96
691.997	22770.28
692.344	22600.56
692.69	22559.89
693.037	22573.9
693.383	22307.69
693.73	22524.86
694.077	22296.62
694.423	22194.25
694.769	22202.61
695.116	22172.55
695.462	22120.58
695.808	22015.49
696.155	22022.05
696.501	21793.13
696.847	21907.47
697.193	21705.45
697.539	21814.82
697.885	21551.1
698.231	21443.53
698.577	21556.52
698.923	21462.97
699.269	21386.13
699.614	21296.19
699.96	21252.35
700.306	21189.98
700.651	21088.29
700.997	21055.52
701.342	21008.29
701.688	20987.05
702.033	20826.37
702.379	20901.4
702.724	20848.75
703.069	20800.61
703.415	20579.15
703.76	20643.33
704.105	20613.27
704.45	20505.48
704.795	20390.45
705.14	20274.52
705.485	20234.98
705.83	20183.45
706.175	20248.08
706.52	20021.87
706.865	20086.96
707.209	20069.33
707.554	19991.59
707.899	20036.34
708.243	19802.67
708.588	19887.87
708.932	19649
709.277	19653.52
709.621	19703.24
709.966	19602.68
710.31	19614.2
710.654	19510.25
710.998	19407.65
711.342	19492.4
711.687	19444.94
712.031	19339.41
712.375	19329.24
712.719	19353.19
713.063	19294.44
713.407	19292.4
713.75	19232.06
714.094	19199.52
714.438	18905.29
714.782	19065.74
715.125	18925.86
715.469	18876.14
715.812	18825.52
716.156	18824.84
716.499	18779.87
716.843	18852.64
717.186	18739.42
717.53	18693.77
717.873	18810.16
718.216	18712.98
718.559	18605.19
718.902	18498.98
719.246	18543.27
719.589	18454.46
719.932	18419.66
720.275	18507.79
720.617	18433.89
720.96	18335.82
721.303	18339.66
721.646	18367.68
721.989	18222.83
722.331	18363.61
722.674	18262.15
723.016	18169.04
723.359	18171.75
723.701	18310.51
724.044	18164.75
724.386	18075.71
724.729	18123.62
725.071	18095.82
725.413	18035.49
725.755	18096.28
726.097	17961.82
726.439	17882.04
726.782	17889.73
727.124	18018.09
727.465	18024.87
727.807	17941.25
728.149	17842.27
728.491	17836.85
728.833	17895.38
729.175	17849.5
729.516	17742.16
729.858	17741.26
730.199	17908.71
730.541	17790.07
730.882	17728.83
731.224	17828.94
731.565	17627.14
731.906	17700.35
732.248	17745.55
732.589	17596.85
732.93	17564.54
733.271	17576.97
733.612	17661.94
733.953	17719.79
734.294	17561.37
734.635	17530.87
734.976	17555.05
735.317	17521.15
735.658	17568.61
735.999	17572.67
736.339	17465.78
736.68	17493.13
737.021	17433.69
737.361	17533.35
737.702	17461.49
738.042	17484.99
738.383	17474.82
738.723	17508.27
739.063	17423.3
739.404	17526.12
739.744	17433.69
740.084	17318.67
740.424	17477.53
740.764	17360.7
741.104	17508.49
741.444	17409.29
741.784	17376.29
742.124	17461.49
742.464	17416.07
742.804	17365.22
743.143	17438.67
743.483	17493.13
743.823	17418.78
744.162	17425.33
744.502	17461.26
744.841	17414.71
745.181	17628.27
745.52	17420.59
745.86	17582.84
746.199	17581.49
746.538	17513.24
746.877	17683.18
747.216	17703.74
747.556	17654.71
747.895	17692.22
748.234	17650.64
748.573	17751.2
748.911	17857.86
749.25	17752.78
749.589	17768.37
749.928	17891.31
750.267	17935.38
750.605	17921.36
750.944	18005.88
751.283	17943.06
751.621	18119.78
751.96	18107.57
752.298	18137.63
752.636	18294.46
752.975	18242.49
753.313	18243.84
753.651	18464.18
753.989	18364.97
754.327	18537.17
754.666	18477.28
755.004	18537.62
755.342	18656.03
755.679	18689.71
756.017	18712.76
756.355	18945.07
756.693	18770.83
757.031	18951.62
757.368	18903.26
757.706	18976.93
758.044	19134.44
758.381	19217.15
758.719	19136.93
759.056	19240.88
759.394	19269.35
759.731	19360.88
760.068	19420.99
760.405	19442.68
760.743	19431.61
761.08	19665.05
761.417	19546.41
761.754	19652.62
762.091	19764.71
762.428	19771.94
762.765	19808.55
763.102	19905.72
763.438	19839.51
763.775	19850.81
764.112	19927.64
764.449	20104.36
764.785	19948.43
765.122	20047.18
765.458	20066.85
765.795	20090.8
766.131	20197.24
766.467	20099.84
766.804	20143.68
767.14	20029.78
767.476	20263.45
767.812	20168.99
768.148	20297.8
768.485	20170.57
768.821	20093.96
769.157	20194.53
769.492	20220.97
769.828	20179.16
770.164	20061.65
770.5	20115.43
770.836	20165.37
771.171	20051.48
771.507	20109.78
771.842	19945.49
772.178	20068.43
772.513	19957.92
772.849	19959.96
773.184	19828.43
773.519	19920.18
773.855	19747.08
774.19	19950.46
774.525	19810.13
774.86	19748.44
775.195	19830.24
775.53	19714.99
775.865	19712.5
776.2	19550.93
776.535	19446.75
776.87	19472.96
777.205	19401.1
777.539	19405.39
777.874	19496.46
778.209	19222.12
778.543	19346.41
778.878	19245.17
779.212	19176.93
779.547	19086.08
779.881	19145.97
780.215	19072.3
780.55	19112.07
780.884	18965.86
781.218	18835.47
781.552	18989.13
781.886	18932.41
782.22	18730.16
782.554	18696.71
782.888	18621.01
783.222	18563.16
783.556	18477.06
783.889	18470.5
784.223	18392.99
784.557	18323.16
784.89	18281.58
785.224	18267.8
785.557	18241.58
785.891	18101.25
786.224	18153.45
786.558	18029.61
786.891	17974.02
787.224	17816.51
787.557	17787.58
787.891	17840.92
788.224	17773.57
788.557	17788.26
788.89	17839.33
789.223	17751.2
789.556	17536.97
789.888	17522.96
790.221	17475.95
790.554	17402.51
790.887	17377.42
791.219	17320.93
791.552	17315.28
791.884	17283.19
792.217	17162.74
792.549	17181.72
792.882	17028.73
793.214	16992.8
793.546	17018.11
793.879	17020.37
794.211	16736.31
794.543	16828.51
794.875	16729.08
795.207	16799.59
795.539	16777.67
795.871	16701.06
796.203	16505.81
796.535	16484.11
796.867	16408.86
797.198	16341.97
797.53	16325.7
797.862	16349.43
798.193	16285.02
798.525	16170.22
798.856	16182.88
799.188	16079.61
799.519	16038.25
799.85	16006.39
800.182	15945.15
800.513	15926.62
800.844	15786.51
801.175	15930.46
801.506	15856.33
801.837	15794.87
802.168	15658.83
802.499	15623.8
802.83	15561.2
803.161	15508.1
803.491	15544.7
803.822	15511.48
804.153	15533.63
804.483	15314.43
804.814	15267.42
805.145	15237.14
805.475	15146.97
805.805	15107.2
806.136	15139.97
806.466	15140.87
806.796	15120.31
807.126	15031.05
807.457	14943.36
807.787	14992.4
808.117	14880.99
808.447	14929.35
808.777	14910.82
809.107	14852.52
809.436	14777.72
809.766	14704.27
810.096	14652.52
810.426	14660.89
810.755	14597.84
811.085	14619.53
811.414	14531.17
811.744	14450.27
812.073	14477.16
812.403	14385.41
812.732	14398.75
813.061	14267.22
813.39	14301.8
813.719	14274
814.049	14274.68
814.378	14229.48
814.707	14191.52
815.036	14058.19
815.365	14102.93
815.693	13900.45
816.022	14005.08
816.351	13929.83
816.68	13895.26
817.008	13816.39
817.337	13760.57
817.665	13798.08
817.994	13859.55
818.322	13763.51
818.651	13662.27
818.979	13590.18
819.307	13799.67
819.636	13671.53
819.964	13549.73
820.292	13677.86
820.62	13509.05
820.948	13572.33
821.276	13602.38
821.604	13533.01
821.932	13586.11
822.259	13634.25
822.587	13548.82
822.915	13532.55
823.243	13525.55
823.57	13501.82
823.898	13501.14
824.225	13488.04
824.553	13367.36
824.88	13482.39
825.207	13547.69
825.535	13461.82
825.862	13523.29
826.189	13429.51
826.516	13621.59
826.843	13563.06
827.17	13494.81
827.497	13578.88
827.824	13507.92
828.151	13560.12
828.478	13466.57
828.805	13546.11
829.131	13481.71
829.458	13485.32
829.785	13391.54
830.111	13452.33
830.438	13505.66
830.764	13448.49
831.09	13528.26
831.417	13434.48
831.743	13397.64
832.069	13460.47
832.395	13377.08
832.722	13436.74
833.048	13379.11
833.374	13432.44
833.7	13333.46
834.026	13371.2
834.351	13371.88
834.677	13300.47
835.003	13363.07
835.329	13318.55
835.654	13256.63
835.98	13265.67
836.306	13211.88
836.631	13085.33
836.956	13275.39
837.282	13250.08
837.607	13197.2
837.932	13119.91
838.258	13118.1
838.583	13003.98
838.908	13025.22
839.233	13063.41
839.558	13039.91
839.883	13047.37
840.208	12916.07
840.533	12984.55
840.858	12975.96
841.182	12934.38
841.507	12992.91
841.832	12818.9
842.156	12811.67
842.481	12862.74
842.805	12759.24
843.13	12737.77
843.454	12784.1
843.778	12644.89
844.103	12674.95
844.427	12702.07
844.751	12660.03
845.075	12545.46
845.399	12573.48
845.723	12475.63
846.047	12452.58
846.371	12371.45
846.695	12407.39
847.019	12286.48
847.343	12220.05
847.666	12096.89
847.99	12094.4
848.313	12157.9
848.637	12091.46
848.96	12034.06
849.284	12059.37
849.607	11861.19
849.931	11871.13
850.254	11737.57
850.577	11773.96
850.9	11576.9
851.223	11658.7
851.546	11603.79
851.869	11523.79
852.192	11551.36
852.515	11421.2
852.838	11392.5
853.161	11400.41
853.483	11352.27
853.806	11318.37
854.129	11321.76
854.451	11292.16
854.774	11105.5
855.096	11145.27
855.419	11159.51
855.741	11122.67
856.063	11056.91
856.385	11015.56
856.708	10965.62
857.03	10957.03
857.352	10992.51
857.674	10982.56
857.996	10921.55
858.318	10853.08
858.64	10884.26
858.961	10795.22
859.283	10670.48
859.605	10648.56
859.926	10616.7
860.248	10696.02
860.57	10628
860.891	10677.04
861.212	10623.25
861.534	10553.65
861.855	10493.99
862.176	10519.53
862.498	10524.95
862.819	10506.64
863.14	10411.05
863.461	10433.2
863.782	10381.68
864.103	10386.87
864.424	10345.74
864.745	10387.55
865.065	10326.99
865.386	10331.96
865.707	10256.03
866.027	10314.33
866.348	10210.16
866.668	10251.06
866.989	10175.81
867.309	10095.13
867.63	10191.85
867.95	10192.3
868.27	10099.88
868.59	10110.5
868.91	10135.13
869.23	10021.91
869.55	9995.25
869.87	10090.84
870.19	10034.79
870.51	10016.71
870.83	10024.17
871.15	9944.17
871.469	9977.62
871.789	10014.45
872.109	9955.92
872.428	9840.22
872.748	9959.77
873.067	9928.13
873.386	9950.95
873.706	9872.09
874.025	9840.22
874.344	9821.69
874.663	9811.97
874.982	9735.37
875.301	9790.05
875.62	9759.09
875.939	9691.52
876.258	9732.65
876.577	9697.17
876.896	9717.06
877.214	9665.31
877.533	9579.89
877.852	9648.14
878.17	9634.58
878.489	9597.52
878.807	9663.95
879.125	9581.47
879.444	9599.1
879.762	9520.91
880.08	9575.37
880.398	9471.19
880.716	9496.05
881.034	9523.85
881.352	9432.32
881.67	9466.67
881.988	9465.32
882.306	9407.01
882.624	9391.65
882.941	9348.71
883.259	9330.18
883.577	9299.44
883.894	9246.34
884.212	9275.04
884.529	9240.92
884.846	9254.93
885.164	9258.77
885.481	9139
885.798	9154.82
886.115	9152.78
886.432	9112.56
886.75	9131.54
887.067	9080.02
887.383	9015.16
887.7	9049.96
888.017	8993.46
888.334	9021.03
888.651	8997.08
888.967	8943.97
889.284	8891.77
889.6	8888.61
889.917	8834.82
890.233	8825.78
890.55	8768.39
890.866	8776.75
891.182	8778.78
891.498	8735.17
891.815	8686.13
892.131	8710.08
892.447	8662.4
892.763	8623.08
893.079	8587.83
893.395	8503.31
893.71	8567.03
894.026	8487.26
894.342	8550.76
894.657	8430.09
894.973	8447.72
895.289	8443.87
895.604	8317.78
895.92	8333.82
896.235	8348.96
896.55	8312.8
896.865	8306.25
897.181	8284.33
897.496	8295.63
897.811	8248.85
898.126	8183.99
898.441	8143.09
898.756	8150.77
899.071	8123.88
899.386	8120.27
899.7	8046.82
900.015	8043.21
900.33	7986.94
900.644	7934.96
900.959	7876.43
901.273	7849.99
901.588	7859.93
901.902	7786.49
902.216	7786.94
902.531	7789.2
902.845	7735.19
903.159	7716.21
903.473	7700.39
903.787	7610.9
904.101	7596.89
904.415	7526.84
904.729	7618.13
905.042	7519.15
905.356	7577.68
905.67	7553.95
905.984	7490.68
906.297	7446.16
906.611	7394.86
906.924	7437.57
907.237	7355.99
907.551	7326.84
907.864	7307.18
908.177	7294.07
908.491	7290.91
908.804	7219.5
909.117	7190.35
909.43	7093.63
909.743	7095.89
910.056	7086.85
910.368	7047.98
910.681	7020.18
910.994	7030.58
911.307	6978.6
911.619	6956
911.932	6879.17
912.244	6876.23
912.557	6884.14
912.869	6828.1
913.181	6824.03
913.494	6760.3
913.806	6746.07
914.118	6784.03
914.43	6705.39
914.742	6700.87
915.054	6650.02
915.366	6614.09
915.678	6621.55
915.99	6561.66
916.302	6544.49
916.613	6504.72
916.925	6467.88
917.236	6421.33
917.548	6409.8
917.859	6403.02
918.171	6387.66
918.482	6353.99
918.794	6319.64
919.105	6283.7
919.416	6280.77
919.727	6288.45
920.038	6205.06
920.349	6178.62
920.66	6163.93
920.971	6129.58
921.282	6104.73
921.593	6063.82
921.903	6071.73
922.214	6057.95
922.525	6041
922.835	6001.68
923.146	5928.69
923.456	5999.42
923.767	5890.49
924.077	5890.95
924.387	5926.43
924.697	5843.94
925.008	5830.38
925.318	5789.71
925.628	5757.62
925.938	5771.85
926.248	5717.62
926.558	5701.8
926.867	5710.84
927.177	5627.68
927.487	5673.55
927.796	5630.84
928.106	5559.66
928.416	5553.33
928.725	5582.93
929.034	5485.53
929.344	5477.85
929.653	5523.72
929.962	5446.44
930.271	5378.19
930.581	5392.65
930.89	5351.3
931.199	5323.28
931.508	5287.35
931.817	5307.69
932.125	5262.71
932.434	5273.79
932.743	5218.87
933.051	5198.08
933.36	5225.2
933.669	5182.94
933.977	5136.84
934.286	5161.93
934.594	5117.86
934.902	5048.94
935.21	5061.82
935.519	5094.81
935.827	5039.22
936.135	4978.65
936.443	4951.99
936.751	4964.42
937.059	4953.57
937.367	4898.66
937.674	4891.2
937.982	4875.83
938.29	4850.3
938.597	4844.65
938.905	4813.69
939.213	4806
939.52	4728.49
939.827	4772.11
940.135	4721.71
940.442	4755.16
940.749	4714.03
941.056	4668.61
941.363	4604.43
941.67	4599.68
941.977	4578.44
942.284	4558.33
942.591	4604.65
942.898	4536.18
943.205	4531.66
943.511	4552.68
943.818	4521.49
944.125	4461.61
944.431	4440.82
944.738	4429.52
945.044	4424.54
945.35	4385.68
945.657	4377.77
945.963	4326.02
946.269	4395.17
946.575	4357.2
946.881	4312.68
947.187	4294.38
947.493	4254.83
947.799	4262.52
948.105	4234.49
948.41	4188.17
948.716	4169.86
949.022	4190.43
949.327	4182.29
949.633	4077.66
949.938	4142.52
950.244	4102.75
950.549	4078.57
950.854	4076.98
951.16	4068.17
951.465	4036.98
951.77	4003.31
952.075	4006.93
952.38	3974.16
952.685	3953.6
952.99	3937.33
953.294	3951.56
953.599	3911.34
953.904	3878.12
954.209	3842.64
954.513	3836.54
954.818	3884.22
955.122	3829.98
955.426	3829.31
955.731	3786.6
956.035	3808.06
956.339	3777.33
956.643	3778.23
956.948	3702.76
957.252	3724.45
957.556	3700.5
957.86	3687.16
958.163	3713.6
958.467	3668.41
958.771	3658.69
959.075	3632.25
959.378	3614.62
959.682	3589.76
959.985	3589.31
960.289	3582.76
960.592	3494.4
960.896	3543.66
961.199	3523.55
961.502	3509.99
961.805	3477.68
962.108	3478.13
962.411	3478.58
962.714	3429.54
963.017	3451.46
963.32	3467.96
963.623	3380.96
963.926	3413.95
964.228	3365.59
964.531	3382.54
964.833	3319.04
965.136	3341.64
965.438	3338.92
965.741	3309.55
966.043	3294.18
966.345	3287.63
966.648	3274.29
966.95	3249.21
967.252	3224.58
967.554	3194.29
967.856	3191.58
968.158	3170.57
968.46	3211.02
968.761	3166.05
969.063	3150.68
969.365	3128.99
969.666	3123.34
969.968	3106.84
970.269	3077.01
970.571	3087.63
970.872	3096.44
971.174	3033.17
971.475	3049.67
971.776	3024.36
972.077	3028.65
972.378	3006.28
972.679	3021.19
972.98	2995.66
973.281	2965.6
973.582	2939.61
973.883	2958.14
974.183	2936.67
974.484	2893.96
974.785	2881.31
975.085	2871.59
975.386	2903
975.686	2847.19
975.986	2867.75
976.287	2829.33
976.587	2832.72
976.887	2785.27
977.187	2820.07
977.487	2780.75
977.787	2779.84
978.087	2735.1
978.387	2747.98
978.687	2738.26
978.987	2722.89
979.286	2731.48
979.586	2725.15
979.885	2690.8
980.185	2643.57
980.484	2683.57
980.784	2646.51
981.083	2627.53
981.382	2613.52
981.682	2623.91
981.981	2607.64
982.28	2588.43
982.579	2592.05
982.878	2552.5
983.177	2538.94
983.475	2554.09
983.774	2539.62
984.073	2508.66
984.372	2521.32
984.67	2476.12
984.969	2539.62
985.267	2474.77
985.566	2484.71
985.864	2497.14
986.162	2469.34
986.461	2430.92
986.759	2441.55
987.057	2386.18
987.355	2384.37
987.653	2403.58
987.951	2373.98
988.249	2359.97
988.547	2345.96
988.844	2360.19
989.142	2362.45
989.44	2338.72
989.737	2297.82
990.035	2330.14
990.332	2297.37
990.63	2259.18
990.927	2273.87
991.224	2244.49
991.521	2249.46
991.819	2213.08
992.116	2244.71
992.413	2221.66
992.71	2193.64
993.006	2208.56
993.303	2242.46
993.6	2167.43
993.897	2193.64
994.193	2176.47
994.49	2142.12
994.787	2137.6
995.083	2173.98
995.379	2120.65
995.676	2119.75
995.972	2125.4
996.268	2083.82
996.565	2067.77
996.861	2101.22
997.157	2094.89
997.453	2053.31
997.749	2052.63
998.044	2049.69
998.34	2018.05
998.636	2013.53
998.932	2013.99
999.227	1990.71
999.523	2025.51
999.818	1967.66
1000.114	1978.06
1000.409	1953.2
1000.704	1942.8
1001	1931.5
1001.295	1923.37
1001.59	1927.21
1001.885	1915.46
1002.18	1898.74
1002.475	1904.61
1002.77	1853.54
1003.065	1873.65
1003.359	1868.91
1003.654	1853.09
1003.949	1856.02
1004.243	1838.17
1004.538	1796.82
1004.832	1813.99
1005.127	1820.09
1005.421	1789.59
1005.715	1773.09
1006.009	1762.24
1006.304	1762.24
1006.598	1737.61
1006.892	1724.95
1007.186	1751.17
1007.48	1700.1
1007.773	1697.38
1008.067	1721.11
1008.361	1673.2
1008.655	1678.18
1008.948	1692.41
1009.242	1654.9
1009.535	1671.4
1009.829	1643.15
1010.122	1642.24
1010.415	1631.4
1010.708	1604.73
1011.001	1594.11
1011.295	1604.28
1011.588	1607.44
1011.881	1597.95
1012.173	1590.49
1012.466	1551.85
1012.759	1544.39
1013.052	1547.56
1013.344	1532.64
1013.637	1555.69
1013.93	1531.06
1014.222	1482.7
1014.514	1474.34
1014.807	1488.8
1015.099	1503.72
1015.391	1489.25
1015.683	1430.05
1015.976	1467.79
1016.268	1460.1
1016.56	1456.94
1016.851	1432.76
1017.143	1438.86
1017.435	1439.09
1017.727	1418.97
1018.018	1401.35
1018.31	1391.18
1018.602	1416.04
1018.893	1392.31
1019.185	1395.25
1019.476	1335.81
1019.767	1349.6
1020.058	1331.29
1020.35	1344.17
1020.641	1339.65
1020.932	1330.84
1021.223	1324.74
1021.514	1296.72
1021.804	1309.15
1022.095	1281.12
1022.386	1267.79
1022.677	1255.14
1022.967	1261.92
1023.258	1256.04
1023.548	1225.08
1023.839	1260.11
1024.129	1243.39
1024.419	1245.87
1024.709	1226.44
1025	1189.15
1025.29	1188.47
1025.58	1221.92
1025.87	1169.72
1026.16	1185.08
1026.449	1160.22
1026.739	1158.87
1027.029	1125.2
1027.319	1113.9
1027.608	1145.53
1027.898	1151.41
1028.187	1123.84
1028.477	1157.96
1028.766	1095.82
1029.055	1109.6
1029.344	1103.73
1029.634	1089.49
1029.923	1091.52
1030.212	1060.11
1030.501	1094.01
1030.79	1059.66
1031.078	1055.37
1031.367	1059.66
1031.656	1060.57
1031.945	1020.79
1032.233	1024.86
1032.522	1016.95
1032.81	1019.21
1033.099	990.06
1033.387	1002.04
1033.675	995.71
1033.963	1009.27
1034.251	1000
1034.54	953.45
1034.828	973.11
1035.116	945.77
1035.403	979.89
1035.691	971.08
1035.979	954.35
1036.267	946.22
1036.554	949.61
1036.842	941.7
1037.129	904.86
1037.417	922.94
1037.704	922.26
1037.992	913.68
1038.279	917.52
1038.566	895.15
1038.853	895.15
1039.14	895.15
