Data from hue_350_FLMS001491_71.txt Node
Date: Mon Feb 06 15:38:29 GMT 2017
User: dcchb
Spectrometer: FLMS00149
Trigger mode: 0
Integration Time (sec): 2.000000E-2
Scans to average: 10
Electric dark correction enabled: true
Nonlinearity correction enabled: false
Boxcar width: 0
XAxis mode: Wavelengths
Number of Pixels in Spectrum: 2048
>>>>>Begin Spectral Data<<<<<
341.393	-9.08
341.776	-9.08
342.16	-9.08
342.543	-55.86
342.927	-79.14
343.31	-50.44
343.693	-73.94
344.077	-75.75
344.46	-62.41
344.843	-54.05
345.226	-44.33
345.61	-50.89
345.993	-16.31
346.376	-11.79
346.759	-5.01
347.142	45.61
347.525	44.02
347.908	77.02
348.291	72.27
348.674	91.71
349.057	114.3
349.44	114.08
349.823	148.43
350.206	136.9
350.588	183.68
350.971	199.05
351.354	217.35
351.737	234.98
352.119	250.35
352.502	248.76
352.884	270.01
353.267	255.32
353.65	268.65
354.032	305.71
354.414	280.4
354.797	286.5
355.179	299.38
355.562	325.37
355.944	323.79
356.326	307.07
356.709	327.18
357.091	330.12
357.473	307.07
357.855	326.5
358.238	335.99
358.62	321.76
359.002	338.93
359.384	330.34
359.766	323.56
360.148	326.95
360.53	344.58
360.912	335.99
361.294	338.25
361.676	318.59
362.057	332.6
362.439	319.05
362.821	325.6
363.203	303.45
363.584	325.37
363.966	307.52
364.348	302.55
364.729	332.6
365.111	301.42
365.493	306.39
365.874	324.92
366.256	299.38
366.637	275.2
367.019	331.47
367.4	306.62
367.781	302.1
368.163	280.63
368.544	304.36
368.925	313.4
369.306	291.25
369.688	305.03
370.069	308.88
370.45	307.97
370.831	284.92
371.212	301.64
371.593	301.64
371.974	300.06
372.355	304.58
372.736	301.87
373.117	299.16
373.498	311.14
373.879	296.67
374.26	304.13
374.641	305.26
375.021	299.16
375.402	315.66
375.783	296
376.163	318.82
376.544	325.6
376.925	331.7
377.305	314.98
377.686	276.33
378.066	305.71
378.447	310.46
378.827	338.93
379.208	326.05
379.588	309.55
379.968	319.5
380.349	328.76
380.729	321.53
381.109	310.23
381.489	338.03
381.87	338.25
382.25	343.68
382.63	348.42
383.01	328.99
383.39	329.21
383.77	313.4
384.15	326.5
384.53	317.92
384.91	334.41
385.29	328.08
385.67	345.49
386.049	325.82
386.429	329.21
386.809	345.26
387.189	339.16
387.568	335.32
387.948	314.98
388.328	347.07
388.707	326.73
389.087	325.6
389.466	357.69
389.846	334.19
390.225	352.49
390.605	340.74
390.984	350.68
391.363	350.46
391.743	375.99
392.122	345.94
392.501	341.87
392.881	368.76
393.26	348.65
393.639	370.34
394.018	356.11
394.397	368.31
394.776	370.34
395.155	362.66
395.534	352.72
395.913	358.14
396.292	353.39
396.671	380.29
397.05	352.94
397.429	368.54
397.808	362.66
398.186	360.4
398.565	359.95
398.944	373.06
399.323	367.63
399.701	389.33
400.08	385.03
400.458	385.71
400.837	380.06
401.215	382.77
401.594	367.86
401.972	383.68
402.351	374.64
402.729	380.74
403.107	393.62
403.486	373.96
403.864	399.27
404.242	390
404.62	362.21
404.999	397.24
405.377	406.5
405.755	417.8
406.133	406.73
406.511	393.39
406.889	394.52
407.267	414.41
407.645	388.2
408.023	410.34
408.401	405.14
408.779	415.77
409.156	425.03
409.534	416.22
409.912	411.47
410.29	410.34
410.667	424.35
411.045	429.1
411.422	432.49
411.8	417.8
412.178	433.39
412.555	446.5
412.933	442.88
413.31	456.22
413.687	436.33
414.065	446.95
414.442	457.8
414.819	458.25
415.197	466.61
415.574	460.96
415.951	472.49
416.328	475.88
416.705	465.71
417.082	489.44
417.46	470.68
417.837	476.1
418.214	474.3
418.591	485.59
418.967	484.46
419.344	499.38
419.721	506.16
420.098	501.41
420.475	502.32
420.852	511.58
421.228	497.35
421.605	510.45
421.982	520.4
422.358	518.81
422.735	514.97
423.111	510
423.488	529.44
423.864	537.34
424.241	502.77
424.617	519.04
424.994	523.11
425.37	521.75
425.746	547.06
426.123	551.36
426.499	547.97
426.875	550.9
427.251	566.95
427.627	558.36
428.003	572.37
428.379	574.18
428.756	564.24
429.132	593.39
429.507	586.16
429.883	570.79
430.259	604.01
430.635	597.23
431.011	617.34
431.387	626.38
431.763	611.24
432.138	622.54
432.514	629.09
432.89	618.7
433.265	639.26
433.641	634.07
434.016	643.1
434.392	660.51
434.767	646.27
435.143	656.89
435.518	678.13
435.894	681.52
436.269	686.72
436.644	678.36
437.02	685.14
437.395	726.49
437.77	692.59
438.145	681.75
438.52	698.02
438.895	717
439.271	702.31
439.646	718.36
440.021	737.11
440.395	726.04
440.77	740.28
441.145	715.19
441.52	748.86
441.895	760.16
442.27	743.44
442.645	737.57
443.019	742.54
443.394	753.61
443.769	757.45
444.143	756.1
444.518	752.93
444.892	763.1
445.267	771.91
445.641	798.13
446.016	778.47
446.39	770.33
446.764	776.43
447.139	798.58
447.513	800.61
447.887	794.96
448.262	812.37
448.636	797.9
449.01	817.34
449.384	794.74
449.758	797
450.132	841.97
450.506	833.16
450.88	827.51
451.254	850.1
451.628	834.51
452.002	845.59
452.376	851.01
452.75	831.35
453.123	863.44
453.497	859.14
453.871	845.13
454.244	863.21
454.618	879.71
454.992	931.46
455.365	903.66
455.739	917.9
456.112	926.03
456.486	895.53
456.859	959.03
457.232	956.09
457.606	941.85
457.979	981.17
458.352	962.42
458.725	974.85
459.099	961.97
459.472	992.02
459.845	1013.26
460.218	1015.07
460.591	1011.46
460.964	1010.1
461.337	1018.91
461.71	1054.39
462.083	1052.81
462.456	1060.49
462.829	1069.08
463.201	1086.93
463.574	1113.37
463.947	1113.37
464.32	1157.89
464.692	1098.69
465.065	1139.81
465.438	1161.28
465.81	1159.93
466.183	1172.81
466.555	1167.84
466.928	1197.21
467.3	1187.95
467.672	1209.64
468.045	1217.1
468.417	1218.23
468.789	1232.02
469.161	1244.22
469.534	1291.9
469.906	1303.88
470.278	1312.69
470.65	1304.33
471.022	1310.43
471.394	1386.81
471.766	1366.7
472.138	1377.55
472.51	1429.07
472.882	1449.19
473.253	1476.3
473.625	1491.67
473.997	1515.62
474.369	1501.39
474.74	1519.69
475.112	1544.1
475.484	1567.6
475.855	1607.37
476.227	1594.94
476.598	1678.56
476.97	1686.47
477.341	1698.9
477.713	1709.74
478.084	1738.67
478.455	1776.86
478.827	1804.43
479.198	1849.63
479.569	1848.95
479.94	1925.78
480.311	1913.81
480.682	1942.73
481.053	2013.69
481.424	2025.44
481.795	2074.25
482.166	2055.04
482.537	2093.69
482.908	2162.61
483.279	2161.26
483.65	2205.78
484.021	2249.84
484.391	2221.14
484.762	2298.43
485.133	2329.84
485.503	2337.98
485.874	2397.18
486.244	2413.68
486.615	2469.27
486.985	2498.2
487.356	2557.4
487.726	2575.03
488.097	2603.5
488.467	2657.06
488.837	2692.99
489.207	2710.62
489.578	2742.94
489.948	2767.34
490.318	2832.2
490.688	2800.34
491.058	2867
491.428	2883.95
491.798	2950.84
492.168	3040.78
492.538	3040.1
492.908	3032.19
493.278	3096.37
493.648	3083.94
494.017	3140.44
494.387	3171.63
494.757	3197.84
495.126	3259.76
495.496	3245.52
495.866	3259.98
496.235	3300.21
496.605	3310.83
496.974	3325.07
497.344	3358.97
497.713	3377.5
498.082	3408.46
498.452	3484.61
498.821	3471.96
499.19	3504.27
499.559	3492.07
499.928	3485.52
500.298	3567.55
500.667	3614.55
501.036	3572.29
501.405	3623.37
501.774	3656.36
502.143	3660.2
502.512	3648.9
502.88	3695.68
503.249	3722.35
503.618	3667.43
503.987	3723.93
504.356	3712.63
504.724	3749.24
505.093	3791.5
505.462	3784.26
505.83	3813.87
506.199	3823.81
506.567	3899.52
506.936	3871.49
507.304	3896.35
507.672	3897.03
508.041	3921.21
508.409	3987.65
508.777	3952.85
509.145	4014.32
509.514	4008.21
509.882	4008.21
510.25	4029.91
510.618	4049.34
510.986	4053.64
511.354	4076.91
511.722	4141.77
512.09	4137.02
512.458	4131.15
512.826	4193.75
513.193	4180.41
513.561	4215.21
513.929	4166.63
514.297	4221.09
514.664	4216.34
515.032	4286.17
515.4	4307.41
515.767	4293.4
516.135	4330.24
516.502	4276.91
516.869	4377.92
517.237	4323.91
517.604	4325.95
517.972	4372.5
518.339	4402.78
518.706	4404.81
519.073	4381.09
519.44	4401.65
519.808	4447.98
520.175	4476
520.542	4555.32
520.909	4532.27
521.276	4530.46
521.643	4502.89
522.009	4559.84
522.376	4560.74
522.743	4564.13
523.11	4626.5
523.477	4616.79
523.843	4678.03
524.21	4694.3
524.577	4740.85
524.943	4735.65
525.31	4803.9
525.676	4813.16
526.043	4795.31
526.409	4864.69
526.776	4916.66
527.142	4930.45
527.508	4881.41
527.874	4945.14
528.241	4972.93
528.607	4977.91
528.973	5048.19
529.339	5009.77
529.705	5084.57
530.071	5047.06
530.437	5133.38
530.803	5097.45
531.169	5163.89
531.535	5225.58
531.901	5183.55
532.267	5211.12
532.632	5228.07
532.998	5261.51
533.364	5316.65
533.73	5326.37
534.095	5326.37
534.461	5329.76
534.826	5356.2
535.192	5395.97
535.557	5435.75
535.923	5420.83
536.288	5435.75
536.653	5508.29
537.019	5494.05
537.384	5495.63
537.749	5538.34
538.114	5568.85
538.479	5535.86
538.845	5587.38
539.21	5602.3
539.575	5621.5
539.94	5653.82
540.305	5680.03
540.67	5702.18
541.034	5690.43
541.399	5715.74
541.764	5767.26
542.129	5757.32
542.494	5834.38
542.858	5823.08
543.223	5871.44
543.587	5880.71
543.952	5884.1
544.316	5921.61
544.681	5948.95
545.045	5955.06
545.41	5991.44
545.774	6007.26
546.138	6032.12
546.503	6031.44
546.867	5983.76
547.231	6106.01
547.595	6118.89
547.959	6146.24
548.324	6170.19
548.688	6189.4
549.052	6177.87
549.416	6244.77
549.779	6277.76
550.143	6259.23
550.507	6310.53
550.871	6372.9
551.235	6306.01
551.599	6345.33
551.962	6379.9
552.326	6404.31
552.689	6380.35
553.053	6370.86
553.417	6412.67
553.78	6493.35
554.143	6499.9
554.507	6475.49
554.87	6515.94
555.234	6548.26
555.597	6555.04
555.96	6572.67
556.323	6594.59
556.686	6592.78
557.05	6655.15
557.413	6655.6
557.776	6681.14
558.139	6722.04
558.502	6785.99
558.865	6755.26
559.228	6799.1
559.59	6817.41
559.953	6830.29
560.316	6860.57
560.679	6846.56
561.041	6896.05
561.404	6882.26
561.767	6945.76
562.129	6894.47
562.492	7003.62
562.854	7050.17
563.217	7042.94
563.579	7086.78
563.941	7066.21
564.304	7091.52
564.666	7145.76
565.028	7153.89
565.39	7123.84
565.753	7228.47
566.115	7218.3
566.477	7239.77
566.839	7317.73
567.201	7330.16
567.563	7341.01
567.925	7359.31
568.287	7382.81
568.648	7403.83
569.01	7450.84
569.372	7498.07
569.734	7479.76
570.095	7522.7
570.457	7518.63
570.819	7534.22
571.18	7642.92
571.542	7678.85
571.903	7665.52
572.265	7661.9
572.626	7789.81
572.987	7779.19
573.349	7846.76
573.71	7879.07
574.071	7912.29
574.432	7962.46
574.794	8073.19
575.155	8051.95
575.516	8077.49
575.877	8178.27
576.238	8224.6
576.599	8326.52
576.96	8354.31
577.32	8413.75
577.681	8467.08
578.042	8623.46
578.403	8646.28
578.763	8686.06
579.124	8858.93
579.485	8892.15
579.845	8951.81
580.206	9038.36
580.566	9156.55
580.927	9319.26
581.287	9464.57
581.648	9494.62
582.008	9632.47
582.368	9739.81
582.728	9902.75
583.089	9941.84
583.449	10183.87
583.809	10249.41
584.169	10448.95
584.529	10545.67
584.889	10740.24
585.249	10891.65
585.609	11018.88
585.969	11293.9
586.329	11394.23
586.688	11700.67
587.048	11856.82
587.408	11989.25
587.768	12235.12
588.127	12472.85
588.487	12595.33
588.846	13015.66
589.206	13071.25
589.565	13314.86
589.925	13658.81
590.284	13832.81
590.643	14136.54
591.003	14350.09
591.362	14667.82
591.721	14868.27
592.08	15047.7
592.44	15339.89
592.799	15646.1
593.158	15904.85
593.517	16130.61
593.876	16461.9
594.235	16667.54
594.593	16949.79
594.952	17248.54
595.311	17471.36
595.67	17924.68
596.029	18233.6
596.387	18376.42
596.746	18820.25
597.104	18913.81
597.463	19340.01
597.822	19642.38
598.18	19822.26
598.538	20091.63
598.897	20515.35
599.255	20678.51
599.613	21130.25
599.972	21225.84
600.33	21585.38
600.688	21813.17
601.046	22141.97
601.404	22452.02
601.762	22698.57
602.12	23061.72
602.478	23281.83
602.836	23554.82
603.194	23835.04
603.552	24134.01
603.91	24276.61
604.268	24613.32
604.625	24765.63
604.983	25189.8
605.341	25191.16
605.698	25632.73
606.056	25927.86
606.413	26097.35
606.771	26426.61
607.128	26696.88
607.485	26741.85
607.843	27092.58
608.2	27508.61
608.557	27702.73
608.914	27763.3
609.272	28192.89
609.629	28322.38
609.986	28690.28
610.343	28585.87
610.7	29137.04
611.057	29271.05
611.414	29455.23
611.771	29615
612.127	29931.37
612.484	30126.4
612.841	30371.36
613.198	30325.26
613.554	30594.18
613.911	31072.59
614.267	30995.3
614.624	31184.45
614.98	31482.75
615.337	31691.78
615.693	31720.03
616.05	31965.22
616.406	32269.84
616.762	32240.47
617.118	32352.55
617.475	32428.48
617.831	32738.98
618.187	32947.57
618.543	33159.54
618.899	33317.05
619.255	33428.91
619.611	33518.85
619.967	33813.76
620.323	33941.21
620.678	33870.48
621.034	33870.48
621.39	34068.21
621.746	34117.25
622.101	34675.88
622.457	34355.21
622.812	34546.17
623.168	34610.57
623.523	34865.93
623.879	34990
624.234	34883.11
624.589	35098.47
624.945	35260.95
625.3	35324.23
625.655	35286.26
626.01	35485.8
626.365	35546.82
626.72	35512.7
627.075	35669.98
627.43	35716.08
627.785	35683.99
628.14	35911.56
628.495	35989.07
628.85	35984.32
629.205	35965.57
629.559	36310.42
629.914	35961.95
630.269	36169.85
630.623	35946.58
630.978	36068.39
631.332	36143.64
631.687	36396.74
632.041	36195.62
632.396	36472.9
632.75	36250.08
633.104	36375.95
633.459	36269.96
633.813	36193.13
634.167	36465.21
634.521	36393.13
634.875	36410.07
635.229	36514.03
635.583	36175.28
635.937	36335.05
636.291	36363.3
636.645	36380.7
636.999	36359
637.352	36561.26
637.706	36339.12
638.06	36426.12
638.413	36378.66
638.767	36325.1
639.121	36399.45
639.474	36309.96
639.828	36425.44
640.181	36412.33
640.534	36328.27
640.888	36392.22
641.241	36223.64
641.594	36295.95
641.947	36603.06
642.301	36372.56
642.654	36431.09
643.007	36374.59
643.36	36326.23
643.713	36201.49
644.066	36320.13
644.419	36185.9
644.771	36017.54
645.124	35724.22
645.477	35552.02
645.83	35388.18
646.182	35423.66
646.535	35214.4
646.888	35393.83
647.24	35121.29
647.593	35452.13
647.945	35234.96
648.298	35267.5
648.65	35086.72
649.002	35086.27
649.355	35246.26
649.707	35091.24
650.059	35310.44
650.411	35641.96
650.763	35726.7
651.115	36064.32
651.467	35928.5
651.819	35897.54
652.171	35997.88
652.523	35900.48
652.875	35968.05
653.227	35653.94
653.578	36061.61
653.93	36030.65
654.282	35778
654.633	35860.03
654.985	35847.15
655.337	35847.15
655.688	35904.32
656.039	35983.87
656.391	35685.57
656.742	35770.32
657.094	35826.36
657.445	35716.53
657.796	35794.72
658.147	35651.22
658.498	35740.49
658.849	35815.97
659.2	35806.02
659.551	35552.02
659.902	35683.54
660.253	35542.98
660.604	35615.29
660.955	35606.25
661.306	35756.98
661.656	35653.48
662.007	35620.49
662.358	35689.41
662.708	35717.89
663.059	35608.51
663.409	35423.66
663.76	35695.06
664.11	35574.39
664.461	35564.45
664.811	35563.99
665.161	35622.75
665.511	35599.93
665.862	35558.57
666.212	35695.74
666.562	35669.98
666.912	35493.49
667.262	35591.34
667.612	35480.61
667.962	35494.17
668.312	35444.9
668.662	35556.54
669.011	35588.4
669.361	35589.76
669.711	35497.1
670.06	35481.28
670.41	35426.6
670.76	35469.99
671.109	35439.93
671.459	35333.94
671.808	35365.58
672.157	35511.11
672.507	35247.84
672.856	35230.22
673.205	35314.51
673.554	35429.08
673.904	35285.58
674.253	35605.8
674.602	35274.96
674.951	34804.47
675.3	34685.6
675.649	35219.6
675.998	35147.51
676.346	35050.79
676.695	35374.62
677.044	34966.95
677.393	35203.78
677.741	35217.11
678.09	35039.49
678.438	34928.76
678.787	34945.71
679.135	35108.19
679.484	34874.52
679.832	34964.24
680.181	34820.51
680.529	34949.77
680.877	34829.32
681.225	34732.15
681.573	35071.35
681.922	34720.17
682.27	34627.75
682.618	34671.36
682.966	34598.82
683.314	34781.64
683.661	34539.61
684.009	34370.13
684.357	34324.48
684.705	34301.2
685.053	34477.92
685.4	34281.77
685.748	34006.52
686.095	34224.37
686.443	34177.82
686.79	33868.9
687.138	34009.91
687.485	33962.45
687.832	33846.07
688.18	33896.69
688.527	33681.11
688.874	33627.77
689.221	33692.63
689.568	33474.56
689.915	33486.53
690.262	33383.49
690.609	33376.48
690.956	33259.42
691.303	33324.05
691.65	33084.29
691.997	32986.43
692.344	32904.18
692.69	32718.87
693.037	32877.06
693.383	32634.58
693.73	32759.77
694.077	32602.04
694.423	32616.28
694.769	32495.6
695.116	32488.37
695.462	32314.81
695.808	32301.71
696.155	32375.83
696.501	32012.68
696.847	32032.79
697.193	31797.99
697.539	31999.34
697.885	31663.76
698.231	31566.59
698.577	31611.1
698.923	31539.24
699.269	31536.98
699.614	31324.33
699.96	31296.31
700.306	31349.87
700.651	31171.12
700.997	31159.14
701.342	31021.74
701.688	31027.62
702.033	30816.1
702.379	30794.4
702.724	30699.94
703.069	30774.29
703.415	30474.18
703.76	30369.33
704.105	30443.68
704.45	30384.24
704.795	30244.36
705.14	30106.96
705.485	30049.11
705.83	30024.48
706.175	30132.95
706.52	29934.76
706.865	29871.49
707.209	29811.83
707.554	29664.04
707.899	29709.91
708.243	29581.55
708.588	29567.77
708.932	29469.01
709.277	29295.68
709.621	29340.2
709.966	29190.15
710.31	29227.21
710.654	28942.7
710.998	29002.81
711.342	29101.34
711.687	29086.88
712.031	28770.73
712.375	28744.74
712.719	28832.19
713.063	28609.15
713.407	28739.77
713.75	28602.82
714.094	28652.76
714.438	28547.68
714.782	28485.31
715.125	28377.06
715.469	28401.7
715.812	28297.74
716.156	28134.81
716.499	28104.53
716.843	28265.66
717.186	28078.54
717.53	28155.15
717.873	28093
718.216	28020.69
718.559	27943.4
718.902	27683.07
719.246	27799.9
719.589	27666.8
719.932	27580.25
720.275	27585
720.617	27549.29
720.96	27521.95
721.303	27495.51
721.646	27548.84
721.989	27331.67
722.331	27417.54
722.674	27377.77
723.016	27324.44
723.359	27332.57
723.701	27300.48
724.044	27058.91
724.386	26908.18
724.729	27136.65
725.071	27119.7
725.413	27088.51
725.755	26940.72
726.097	26982.07
726.439	26792.93
726.782	26788.63
727.124	26891.91
727.465	26774.17
727.807	26654.85
728.149	26612.59
728.491	26462.54
728.833	26727.84
729.175	26350.45
729.516	26355.87
729.858	26412.6
730.199	26309.1
730.541	26332.82
730.882	26404.69
731.224	26387.96
731.565	26287.4
731.906	26280.85
732.248	26137.35
732.589	25955.21
732.93	25870.01
733.271	25952.95
733.612	26083.57
733.953	25921.54
734.294	26004.02
734.635	25794.31
734.976	25880.63
735.317	25694.2
735.658	25757.02
735.999	25720.64
736.339	25778.04
736.68	25679.73
737.021	25702.78
737.361	25589.57
737.702	25712.95
738.042	25578.95
738.383	25518.61
738.723	25608.55
739.063	25555.22
739.404	25489
739.744	25419.18
740.084	25347.09
740.424	25374.21
740.764	25284.26
741.104	25344.83
741.444	25174.44
741.784	25122.01
742.124	25175.34
742.464	25184.61
742.804	25072.97
743.143	25116.36
743.483	25115.68
743.823	24909.36
744.162	24910.49
744.502	24953.65
744.841	24804.73
745.181	24925.63
745.52	24782.58
745.86	24716.14
746.199	24614.45
746.538	24692.42
746.877	24693.32
747.216	24769.93
747.556	24648.58
747.895	24709.82
748.234	24439.32
748.573	24522.7
748.911	24481.12
749.25	24430.5
749.589	24327.91
749.928	24383.72
750.267	24381.46
750.605	24310.5
750.944	24249.94
751.283	24212.65
751.621	24127.91
751.96	24095.82
752.298	24062.38
752.636	24085.43
752.975	23903.74
753.313	23892.66
753.651	23950.29
753.989	23899.67
754.327	23835.94
754.666	23641.37
755.004	23737.64
755.342	23778.99
755.679	23672.33
756.017	23575.16
756.355	23528.38
756.693	23521.37
757.031	23480.47
757.368	23362.73
757.706	23322.06
758.044	23270.98
758.381	23326.8
758.719	23129.52
759.056	23152.8
759.394	23140.59
759.731	22920.26
760.068	22891.11
760.405	22895.17
760.743	22772.01
761.08	22768.62
761.417	22662.86
761.754	22557.78
762.091	22641.4
762.428	22490.44
762.765	22350.56
763.102	22452.02
763.438	22317.79
763.775	22253.16
764.112	22190.11
764.449	22200.73
764.785	22129.32
765.122	22016.55
765.458	21981.98
765.795	21918.7
766.131	21868.31
766.467	21769.1
766.804	21736.34
767.14	21497.7
767.476	21672.16
767.812	21521.65
768.148	21510.8
768.485	21330.47
768.821	21212.51
769.157	21236.91
769.492	21172.06
769.828	21213.19
770.164	20975.9
770.5	20881.22
770.836	20844.61
771.171	20780.2
771.507	20750.37
771.842	20568
772.178	20632.18
772.513	20508.8
772.849	20532.3
773.184	20305.41
773.519	20429.7
773.855	20283.72
774.19	20180.44
774.525	20128.69
774.86	20138.41
775.195	20037.85
775.53	20028.36
775.865	19823.17
776.2	19704.3
776.535	19624.75
776.87	19561.7
777.205	19482.16
777.539	19428.83
777.874	19482.61
778.209	19322.16
778.543	19319.22
778.878	19129.62
779.212	19147.02
779.547	19054.6
779.881	19101.6
780.215	18949.06
780.55	18957.2
780.884	18794.94
781.218	18706.36
781.552	18666.81
781.886	18615.97
782.22	18604.89
782.554	18467.04
782.888	18339.81
783.222	18304.34
783.556	18234.51
783.889	18154.06
784.223	17978.47
784.557	17962.65
784.89	17997.45
785.224	17951.58
785.557	17874.74
785.891	17784.12
786.224	17771.24
786.558	17768.3
786.891	17641.75
787.224	17530.34
787.557	17471.59
787.891	17374.64
788.224	17330.35
788.557	17376.22
788.89	17305.94
789.223	17354.08
789.556	17061.88
789.888	17064.82
790.221	17021.88
790.554	16928.78
790.887	16883.36
791.219	16884.49
791.552	16796.8
791.884	16801.55
792.217	16698.05
792.549	16656.47
792.882	16533.53
793.214	16354.78
793.546	16514.78
793.879	16342.8
794.211	16258.97
794.543	16264.84
794.875	16169.7
795.207	16222.36
795.539	16138.97
795.871	16125.18
796.203	15926.77
796.535	15934.23
796.867	15836.6
797.198	15873.66
797.53	15781.69
797.862	15688.36
798.193	15668.02
798.525	15714.35
798.856	15614.46
799.188	15391.64
799.519	15508.02
799.85	15378.76
800.182	15371.3
800.513	15416.73
800.844	15223.74
801.175	15327.01
801.506	15249.27
801.837	15137.19
802.168	15099.22
802.499	15079.34
802.83	15005.89
803.161	14927.25
803.491	14903.52
803.822	14997.98
804.153	14823.3
804.483	14764.09
804.814	14732.9
805.145	14633.25
805.475	14685.22
805.805	14615.62
806.136	14602.74
806.466	14548.05
806.796	14509.18
807.126	14421.05
807.457	14368.85
807.787	14420.37
808.117	14350.31
808.447	14336.76
808.777	14277.77
809.107	14213.6
809.436	14142.86
809.766	14278.45
810.096	14120.49
810.426	14107.38
810.755	14073.71
811.085	14026.93
811.414	14014.5
811.744	13868.29
812.073	13813.61
812.403	13855.19
812.732	13794.62
813.061	13808.18
813.39	13646.38
813.719	13640.05
814.049	13693.83
814.378	13603.67
814.707	13656.32
815.036	13571.35
815.365	13462.88
815.693	13375.43
816.022	13428.53
816.351	13370.68
816.68	13265.6
817.008	13369.78
817.337	13224.92
817.665	13174.53
817.994	13223.56
818.322	13168.42
818.651	13228.31
818.979	13078.71
819.307	13089.33
819.636	13138.37
819.964	13010.69
820.292	13119.16
820.62	12977.7
820.948	12945.15
821.276	13066.28
821.604	12997.36
821.932	12960.97
822.259	12991.71
822.587	12965.27
822.915	12944.93
823.243	13017.47
823.57	12948.32
823.898	12892.73
824.225	12911.71
824.553	12943.12
824.88	12914.19
825.207	12968.88
825.535	12929.34
825.862	12911.26
826.189	12900.64
826.516	12997.58
826.843	12924.82
827.17	12930.92
827.497	12946.96
827.824	12950.35
828.151	12918.94
828.478	12899.05
828.805	12909.22
829.131	12859.73
829.458	12827.19
829.785	12783.35
830.111	12819.28
830.438	12942.89
830.764	12888.43
831.09	12899.28
831.417	12810.02
831.743	12815.67
832.069	12868.09
832.395	12777.25
832.722	12818.38
833.048	12795.33
833.374	12735.44
833.7	12735.44
834.026	12768.44
834.351	12717.82
834.677	12783.8
835.003	12802.56
835.329	12696.8
835.654	12609.8
835.98	12695.67
836.306	12672.17
836.631	12619.74
836.956	12618.61
837.282	12651.6
837.607	12617.03
837.932	12480.31
838.258	12609.8
838.583	12523.92
838.908	12467.43
839.233	12489.12
839.558	12476.69
839.883	12387.43
840.208	12392.85
840.533	12375.9
840.858	12431.5
841.182	12349.69
841.507	12357.15
841.832	12223.37
842.156	12234.44
842.481	12257.94
842.805	12301.56
843.13	12172.97
843.454	12193.31
843.778	12085.06
844.103	12109.7
844.427	12038.29
844.751	11998.74
845.075	11944.95
845.399	11991.73
845.723	11878.06
846.047	12022.01
846.371	11766.88
846.695	11863.83
847.019	11762.36
847.343	11651.18
847.666	11655.24
847.99	11533.89
848.313	11535.25
848.637	11512.65
848.96	11434.46
849.284	11440.56
849.607	11409.6
849.931	11287.34
850.254	11279.66
850.577	11313.11
850.9	11126.9
851.223	11148.59
851.546	11096.62
851.869	11052.77
852.192	11038.54
852.515	10994.47
852.838	10918.99
853.161	10940.91
853.483	10899.78
853.806	10780.01
854.129	10766.45
854.451	10734.14
854.774	10752.9
855.096	10639.45
855.419	10596.97
855.741	10624.09
856.063	10494.14
856.385	10535.95
856.708	10440.36
857.03	10412.57
857.352	10469.29
857.674	10384.54
857.996	10397.88
858.318	10287.14
858.64	10312
858.961	10314.26
859.283	10222.74
859.605	10165.11
859.926	10151.1
860.248	10194.49
860.57	10174.38
860.891	10207.37
861.212	10109.07
861.534	10094.83
861.855	10034.04
862.176	10010.09
862.498	10043.76
862.819	10050.77
863.14	9905.01
863.461	9991.11
863.782	9914.05
864.103	9903.65
864.424	9913.6
864.745	9875.18
865.065	9910.43
865.386	9812.13
865.707	9713.83
866.027	9765.12
866.348	9787.04
866.668	9803.99
866.989	9742.53
867.309	9708.4
867.63	9719.7
867.95	9689.42
868.27	9594.73
868.59	9693.26
868.91	9672.7
869.23	9552.7
869.55	9583.43
869.87	9648.52
870.19	9610.33
870.51	9555.64
870.83	9609.42
871.15	9540.05
871.469	9440.84
871.789	9561.29
872.109	9524.68
872.428	9411.91
872.748	9521.97
873.067	9481.52
873.386	9508.63
873.706	9415.53
874.025	9430.22
874.344	9409.88
874.663	9352.25
874.982	9385.25
875.301	9369.88
875.62	9263.22
875.939	9269.77
876.258	9249.88
876.577	9174.86
876.896	9314.74
877.214	9252.82
877.533	9255.08
877.852	9199.94
878.17	9152.03
878.489	9196.55
878.807	9211.69
879.125	9116.1
879.444	9177.12
879.762	9098.48
880.08	9167.85
880.398	9097.57
880.716	9057.57
881.034	9039.04
881.352	9076.56
881.67	9072.71
881.988	9001.53
882.306	9038.14
882.624	8954.3
882.941	8976.22
883.259	8956.33
883.577	8850.57
883.894	8878.14
884.212	8821.19
884.529	8824.36
884.846	8827.75
885.164	8808.77
885.481	8796.79
885.798	8757.24
886.115	8684.25
886.432	8685.38
886.75	8703.23
887.067	8675.21
887.383	8657.81
887.7	8700.52
888.017	8654.65
888.334	8613.74
888.651	8526.97
888.967	8515.44
889.284	8469.34
889.6	8540.75
889.917	8400.64
890.233	8481.99
890.55	8418.95
890.866	8437.25
891.182	8426.4
891.498	8290.81
891.815	8323.13
892.131	8318.16
892.447	8305.28
892.763	8221.66
893.079	8221.44
893.395	8198.39
893.71	8194.32
894.026	8222.57
894.342	8115
894.657	8059.86
894.973	8021.22
895.289	8108.44
895.604	8048.56
895.92	7973.99
896.235	7993.65
896.55	7967.88
896.865	7900.77
897.181	7889.92
897.496	7918.17
897.811	7849.69
898.126	7810.37
898.441	7780.32
898.756	7820.99
899.071	7741
899.386	7710.04
899.7	7631.17
900.015	7679.76
900.33	7604.05
900.644	7634.79
900.959	7639.3
901.273	7532.64
901.588	7487.9
901.902	7446.77
902.216	7458.07
902.531	7445.19
902.845	7380.78
903.159	7361.12
903.473	7346.43
903.787	7314.12
904.101	7308.01
904.415	7268.92
904.729	7217.85
905.042	7168.58
905.356	7204.29
905.67	7150.28
905.984	7184.63
906.297	7163.84
906.611	7077.74
906.924	7039.55
907.237	7026.89
907.551	7017.17
907.864	7083.84
908.177	6972.43
908.491	6901.92
908.804	6924.97
909.117	6853.11
909.43	6913.45
909.743	6800.68
910.056	6821.7
910.368	6793.68
910.681	6756.62
910.994	6721.81
911.307	6690.18
911.619	6628.03
911.932	6616.96
912.244	6562.5
912.557	6597.98
912.869	6573.57
913.181	6490.41
913.494	6544.64
913.806	6456.29
914.118	6477.98
914.43	6415.16
914.742	6358.21
915.054	6379.68
915.366	6303.52
915.678	6297.87
915.99	6366.34
916.302	6229.62
916.613	6164.77
916.925	6270.3
917.236	6209.51
917.548	6197.08
917.859	6154.37
918.171	6147.14
918.482	6080.48
918.794	6036.41
919.105	6037.99
919.416	5992.79
919.727	5967.26
920.038	5970.65
920.349	5911.67
920.66	5919.12
920.971	5908.28
921.282	5882.97
921.593	5857.43
921.903	5831.89
922.214	5811.78
922.525	5765.91
922.835	5760.03
923.146	5727.04
923.456	5682.29
923.767	5726.13
924.077	5677.32
924.387	5634.84
924.697	5620.83
925.008	5626.02
925.318	5546.93
925.628	5555.52
925.938	5467.61
926.248	5485.92
926.558	5471.9
926.867	5453.37
927.177	5390.78
927.487	5353.26
927.796	5327.28
928.106	5311.68
928.416	5326.6
928.725	5325.47
929.034	5295.86
929.344	5265.58
929.653	5238.69
929.962	5207.73
930.271	5194.4
930.581	5164.57
930.89	5157.34
931.199	5112.14
931.508	5125.25
931.817	5073.95
932.125	5076.66
932.434	5092.48
932.743	5014.29
933.051	5003.22
933.36	4986.95
933.669	4960.51
933.977	4949.66
934.286	4955.99
934.594	4920.05
934.902	4863.11
935.21	4898.81
935.519	4868.53
935.827	4809.32
936.135	4798.02
936.443	4773.17
936.751	4790.34
937.059	4705.14
937.367	4651.13
937.674	4695.65
937.982	4699.5
938.29	4674.64
938.597	4666.73
938.905	4570.91
939.213	4603.9
939.52	4578.82
939.827	4570.46
940.135	4569.55
940.442	4499.27
940.749	4526.17
941.056	4526.62
941.363	4483.68
941.67	4456.56
941.977	4452.5
942.284	4392.16
942.591	4334.76
942.898	4326.62
943.205	4332.05
943.511	4281.88
943.818	4273.52
944.125	4304.03
944.431	4286.17
944.738	4244.59
945.044	4218.6
945.35	4202.78
945.657	4217.47
945.963	4170.47
946.269	4197.14
946.575	4133.18
946.881	4124.14
947.187	4105.16
947.493	4037.37
947.799	4062.22
948.105	4083.24
948.41	4046.4
948.716	4045.05
949.022	4015.9
949.327	3994.65
949.633	3958.95
949.938	3972.28
950.244	3963.24
950.549	3937.26
950.854	3884.15
951.16	3926.41
951.465	3857.03
951.77	3830.37
952.075	3864.49
952.38	3819.52
952.685	3810.25
952.99	3771.84
953.294	3789.46
953.599	3741.1
953.904	3733.87
954.209	3695.23
954.513	3707.43
954.818	3675.12
955.122	3631.95
955.426	3664.04
955.731	3646.42
956.035	3601.9
956.339	3586.98
956.643	3611.39
956.948	3529.13
957.252	3566.87
957.556	3541.11
957.86	3524.16
958.163	3524.16
958.467	3491.84
958.771	3452.52
959.075	3485.52
959.378	3445.97
959.682	3481.9
959.985	3444.61
960.289	3387.89
960.592	3363.03
960.896	3418.85
961.199	3394.44
961.502	3352.19
961.805	3350.83
962.108	3318.29
962.411	3313.54
962.714	3308.12
963.017	3311.73
963.32	3278.74
963.623	3241
963.926	3258.4
964.228	3232.64
964.531	3245.07
964.833	3246.2
965.136	3160.1
965.438	3177.5
965.741	3182.02
966.043	3154.9
966.345	3131.17
966.648	3136.82
966.95	3138.18
967.252	3091.4
967.554	3113.1
967.856	3093.89
968.158	3023.15
968.46	3054.11
968.761	3056.83
969.063	3073.55
969.365	3006.21
969.666	3003.95
969.968	2958.52
970.269	2985.87
970.571	2963.04
970.872	2920.11
971.174	2944.06
971.475	2919.65
971.776	2922.59
972.077	2902.71
972.378	2887.11
972.679	2859.32
972.98	2847.11
973.281	2818.41
973.582	2816.15
973.883	2819.32
974.183	2808.25
974.484	2805.31
974.785	2805.76
975.085	2781.58
975.386	2745.65
975.686	2745.87
975.986	2738.42
976.287	2732.54
976.587	2683.05
976.887	2706.78
977.187	2702.94
977.487	2639.89
977.787	2645.09
978.087	2628.14
978.387	2641.02
978.687	2592.66
978.987	2599.66
979.286	2594.24
979.586	2575.71
979.885	2598.76
980.185	2596.27
980.484	2581.81
980.784	2552.43
981.083	2550.85
981.382	2533.68
981.682	2563.96
981.981	2513.34
982.28	2500.91
982.579	2502.72
982.878	2464.07
983.177	2456.84
983.475	2471.76
983.774	2437.63
984.073	2458.88
984.372	2420.91
984.67	2408.71
984.969	2405.54
985.267	2411.65
985.566	2362.83
985.864	2356.28
986.162	2351.76
986.461	2325.77
986.759	2316.96
987.057	2297.52
987.355	2294.36
987.653	2299.33
987.951	2313.8
988.249	2284.87
988.547	2279.67
988.844	2270.86
989.142	2231.09
989.44	2266.11
989.737	2208.04
990.035	2212.55
990.332	2210.75
990.63	2214.81
990.927	2199.45
991.224	2166.68
991.521	2206.91
991.819	2163.74
992.116	2163.29
992.413	2153.12
992.71	2100.02
993.006	2151.31
993.303	2143.18
993.6	2127.36
993.897	2092.78
994.193	2073.58
994.49	2083.07
994.787	2084.87
995.083	2062.95
995.379	2053.24
995.676	2069.51
995.972	2031.54
996.268	2010.3
996.565	1994.93
996.861	2020.92
997.157	2010.75
997.453	1984.09
997.749	1958.1
998.044	1957.65
998.34	1963.3
998.636	1924.2
998.932	1947.48
999.227	1918.1
999.523	1916.07
999.818	1901.83
1000.114	1870.87
1000.409	1880.36
1000.704	1862.06
1001	1848.5
1001.295	1857.31
1001.59	1825.67
1001.885	1844.88
1002.18	1834.94
1002.475	1811.66
1002.77	1789.29
1003.065	1795.62
1003.359	1777.76
1003.654	1781.15
1003.949	1800.14
1004.243	1768.95
1004.538	1760.14
1004.832	1745.45
1005.127	1733.25
1005.421	1721.27
1005.715	1718.33
1006.009	1672.68
1006.304	1709.74
1006.598	1691.44
1006.892	1641.5
1007.186	1657.77
1007.48	1637.65
1007.773	1633.81
1008.067	1628.16
1008.361	1628.39
1008.655	1620.03
1008.948	1626.13
1009.242	1620.71
1009.535	1592.23
1009.829	1589.52
1010.122	1567.83
1010.415	1573.25
1010.708	1563.53
1011.001	1572.57
1011.295	1519.47
1011.588	1542.97
1011.881	1500.48
1012.173	1509.07
1012.466	1493.25
1012.759	1504.32
1013.052	1450.54
1013.344	1499.13
1013.637	1474.72
1013.93	1448.96
1014.222	1441.28
1014.514	1476.75
1014.807	1434.27
1015.099	1400.37
1015.391	1427.49
1015.683	1397.44
1015.976	1419.36
1016.268	1409.64
1016.56	1377.55
1016.851	1382.07
1017.143	1383.65
1017.435	1352.46
1017.727	1370.77
1018.018	1375.51
1018.31	1338.45
1018.602	1324.22
1018.893	1302.07
1019.185	1370.54
1019.476	1331.22
1019.767	1281.73
1020.058	1291
1020.35	1300.94
1020.641	1261.85
1020.932	1265.69
1021.223	1283.31
1021.514	1265.69
1021.804	1221.62
1022.095	1268.4
1022.386	1254.61
1022.677	1248.51
1022.967	1215.74
1023.258	1188.85
1023.548	1201.96
1023.839	1191.11
1024.129	1201.28
1024.419	1185.92
1024.709	1204.45
1025	1188.17
1025.29	1160.38
1025.58	1133.49
1025.87	1137.78
1026.16	1159.25
1026.449	1123.54
1026.739	1136.2
1027.029	1105.47
1027.319	1111.79
1027.608	1106.37
1027.898	1098.91
1028.187	1090.32
1028.477	1089.65
1028.766	1079.03
1029.055	1046.48
1029.344	1036.54
1029.634	1053.26
1029.923	1031.34
1030.212	1032.02
1030.501	1027.95
1030.79	1011.23
1031.078	991.34
1031.367	1023.21
1031.656	1007.61
1031.945	1003.32
1032.233	983.66
1032.522	1002.64
1032.81	988.41
1033.099	967.39
1033.387	992.47
1033.675	968.97
1033.963	955.41
1034.251	947.96
1034.54	938.01
1034.828	931.01
1035.116	937.79
1035.403	950.44
1035.691	920.84
1035.979	929.2
1036.267	908.63
1036.554	916.09
1036.842	886.71
1037.129	900.05
1037.417	880.39
1037.704	878.35
1037.992	880.39
1038.279	867.05
1038.566	885.13
1038.853	885.13
1039.14	885.13
