Data from hue_260_FLMS001491_00100.txt Node
Date: Tue Feb 07 15:59:55 GMT 2017
User: dcchb
Spectrometer: FLMS00149
Trigger mode: 0
Integration Time (sec): 2.000000E-2
Scans to average: 10
Electric dark correction enabled: true
Nonlinearity correction enabled: false
Boxcar width: 0
XAxis mode: Wavelengths
Number of Pixels in Spectrum: 2048
>>>>>Begin Spectral Data<<<<<
341.393	-14.27
341.776	-14.27
342.16	-14.27
342.543	-60.14
342.927	-71.89
343.31	-60.37
343.693	-60.82
344.077	-65.11
344.46	-76.41
344.843	-46.58
345.226	-37.54
345.61	-8.62
345.993	-32.12
346.376	-21.04
346.759	4.94
347.142	35.23
347.525	46.75
347.908	59.18
348.291	75
348.674	92.4
349.057	95.11
349.44	121.55
349.823	139.18
350.206	159.06
350.588	164.04
350.971	183.47
351.354	213.3
351.737	233.86
352.119	226.41
352.502	255.11
352.884	259.4
353.267	283.81
353.65	285.84
354.032	298.49
354.414	282.22
354.797	319.51
355.179	292.17
355.562	296.24
355.944	326.97
356.326	316.57
356.709	314.77
357.091	325.16
357.473	327.19
357.855	342.79
358.238	323.13
358.62	319.96
359.002	326.06
359.384	315.67
359.766	313.41
360.148	318.61
360.53	342.79
360.912	338.04
361.294	334.43
361.676	321.09
362.057	341.88
362.439	334.43
362.821	325.84
363.203	326.74
363.584	319.74
363.966	294.43
364.348	303.69
364.729	307.08
365.111	300.75
365.493	320.64
365.874	305.5
366.256	316.57
366.637	307.31
367.019	306.18
367.4	279.96
367.781	308.66
368.163	320.42
368.544	310.02
368.925	280.42
369.306	319.06
369.688	329.23
370.069	281.32
370.45	311.83
370.831	284.94
371.212	301.43
371.593	285.16
371.974	301.88
372.355	312.28
372.736	296.69
373.117	284.03
373.498	308.89
373.879	307.76
374.26	299.62
374.641	285.84
375.021	305.5
375.402	296.46
375.783	312.96
376.163	318.38
376.544	314.09
376.925	313.18
377.305	302.34
377.686	313.86
378.066	317.7
378.447	298.49
378.827	330.58
379.208	314.31
379.588	341.66
379.968	338.72
380.349	326.29
380.729	309.34
381.109	325.84
381.489	332.17
381.87	326.29
382.25	331.71
382.63	333.52
383.01	343.69
383.39	324.71
383.77	332.39
384.15	328.32
384.53	335.33
384.91	336.01
385.29	323.58
385.67	327.65
386.049	338.04
386.429	339.17
386.809	333.07
387.189	341.88
387.568	319.96
387.948	356.57
388.328	350.92
388.707	333.52
389.087	363.8
389.466	370.13
389.846	368.1
390.225	377.36
390.605	356.8
390.984	370.36
391.363	356.12
391.743	358.83
392.122	344.37
392.501	370.36
392.881	378.27
393.26	354.09
393.639	383.69
394.018	379.85
394.397	364.26
394.776	392.73
395.155	367.19
395.534	387.76
395.913	378.27
396.292	362.22
396.671	373.97
397.05	386.18
397.429	384.37
397.808	394.54
398.186	370.13
398.565	362.67
398.944	405.38
399.323	386.63
399.701	392.05
400.08	406.29
400.458	411.71
400.837	406.74
401.215	409.68
401.594	427.53
401.972	401.32
402.351	423.01
402.729	415.33
403.107	438.6
403.486	449
403.864	441.77
404.242	417.36
404.62	462.56
404.999	438.38
405.377	443.35
405.755	453.07
406.133	442.9
406.511	442.45
406.889	443.58
407.267	465.72
407.645	463.24
408.023	476.57
408.401	467.98
408.779	464.14
409.156	508.88
409.534	465.5
409.912	482.44
410.29	513.63
410.667	514.31
411.045	515.44
411.422	533.74
411.8	524.25
412.178	538.26
412.555	552.95
412.933	566.96
413.31	567.64
413.687	570.8
414.065	584.14
414.442	579.62
414.819	581.88
415.197	581.88
415.574	594.76
415.951	599.5
416.328	621.2
416.705	597.7
417.082	599.96
417.46	661.2
417.837	626.4
418.214	615.55
418.591	628.2
418.967	677.24
419.344	666.39
419.721	680.18
420.098	663.68
420.475	684.7
420.852	686.51
421.228	700.52
421.605	686.28
421.982	728.54
422.358	731.48
422.735	756.11
423.111	748.88
423.488	752.27
423.864	756.11
424.241	781.19
424.617	786.17
424.994	810.35
425.37	806.05
425.746	827.07
426.123	847.41
426.499	849.67
426.875	859.84
427.251	870.01
427.627	884.92
428.003	899.61
428.379	906.39
428.756	891.7
429.132	927.18
429.507	929.66
429.883	951.81
430.259	975.99
430.635	973.05
431.011	965.37
431.387	1023.45
431.763	1002.66
432.138	1010.79
432.514	1021.41
432.89	1057.8
433.265	1051.02
433.641	1066.84
434.016	1085.14
434.392	1113.39
434.767	1148.42
435.143	1113.16
435.518	1153.16
435.894	1158.13
436.269	1170.34
436.644	1197.68
437.02	1212.37
437.395	1239.04
437.77	1241.07
438.145	1245.81
438.52	1264.8
438.895	1282.88
439.271	1329.43
439.646	1342.99
440.021	1378.47
440.395	1375.3
440.77	1375.75
441.145	1392.7
441.52	1425.25
441.895	1425.02
442.27	1452.14
442.645	1453.72
443.019	1442.19
443.394	1457.33
443.769	1471.8
444.143	1489.2
444.518	1506.82
444.892	1496.43
445.267	1540.95
445.641	1562.64
446.016	1543.66
446.39	1576.65
446.764	1559.03
447.139	1571.91
447.513	1565.35
447.887	1608.74
448.262	1604.9
448.636	1634.28
449.01	1621.62
449.384	1635.18
449.758	1671.34
450.132	1681.06
450.506	1697.1
450.88	1723.99
451.254	1709.53
451.628	1731.45
452.002	1724.45
452.376	1737.55
452.75	1782.98
453.123	1751.79
453.497	1801.05
453.871	1804.67
454.244	1856.65
454.618	1844.67
454.992	1868.17
455.365	1901.39
455.739	1917.89
456.112	1932.8
456.486	1971.67
456.859	1969.19
457.232	1996.3
457.606	2029.07
457.979	2026.81
458.352	2071.78
458.725	2080.6
459.099	2069.07
459.472	2134.38
459.845	2159.24
460.218	2140.25
460.591	2172.8
460.964	2168.73
461.337	2265.22
461.71	2267.93
462.083	2290.76
462.456	2314.26
462.829	2289.63
463.201	2343.86
463.574	2340.93
463.947	2358.55
464.32	2398.78
464.692	2445.56
465.065	2452.79
465.438	2479.45
465.81	2490.08
466.183	2534.14
466.555	2578.21
466.928	2590.41
467.3	2586.12
467.672	2644.42
468.045	2726
468.417	2692.33
468.789	2746.79
469.161	2764.87
469.534	2803.51
469.906	2843.74
470.278	2846.22
470.65	2878.99
471.022	2946.11
471.394	2967.13
471.766	3033.34
472.138	3013.68
472.51	3107.23
472.882	3102.26
473.253	3171.41
473.625	3202.6
473.997	3267.68
474.369	3289.6
474.74	3258.64
475.112	3378.64
475.484	3399.43
475.855	3445.3
476.227	3488.02
476.598	3567.11
476.97	3553.32
477.341	3665.19
477.713	3644.85
478.084	3721.46
478.455	3795.8
478.827	3857.27
479.198	3938.85
479.569	3891.85
479.94	4028.79
480.311	4058.62
480.682	4093.2
481.053	4188.79
481.424	4291.16
481.795	4243.7
482.166	4314.21
482.537	4385.39
482.908	4466.07
483.279	4482.11
483.65	4532.51
484.021	4687.53
484.391	4692.96
484.762	4716.01
485.133	4748.1
485.503	4809.56
485.874	4945.6
486.244	4900.41
486.615	4998.48
486.985	5027.86
487.356	5100.18
487.726	5160.51
488.097	5311.47
488.467	5213.17
488.837	5355.76
489.207	5387.17
489.578	5508.53
489.948	5537.68
490.318	5571.8
490.688	5591.24
491.058	5653.38
491.428	5753.94
491.798	5798.69
492.168	5878.91
492.538	5907.61
492.908	5939.48
493.278	5972.92
493.648	5968.85
494.017	6011.79
494.387	6103.54
494.757	6111.68
495.126	6160.94
495.496	6235.97
495.866	6233.48
496.235	6312.12
496.605	6336.3
496.974	6353.93
497.344	6390.31
497.713	6393.02
498.082	6497.88
498.452	6505.56
498.821	6545.11
499.19	6565.9
499.559	6569.52
499.928	6653.58
500.298	6640.93
500.667	6703.3
501.036	6680.02
501.405	6753.92
501.774	6681.83
502.143	6797.31
502.512	6849.28
502.88	6845.22
503.249	6853.8
503.618	6894.48
503.987	6918.21
504.356	6990.52
504.724	6981.71
505.093	6921.82
505.462	7014.7
505.83	7037.98
506.199	7072.33
506.567	7135.38
506.936	7172.66
507.304	7221.48
507.672	7185.32
508.041	7186
508.409	7308.48
508.777	7280.01
509.145	7317.29
509.514	7270.97
509.882	7374.69
510.25	7380.57
510.618	7421.92
510.986	7357.07
511.354	7433.67
511.722	7451.3
512.09	7423.51
512.458	7456.5
512.826	7537.63
513.193	7545.31
513.561	7556.84
513.929	7582.15
514.297	7664.18
514.664	7599.09
515.032	7653.78
515.4	7675.02
515.767	7665.31
516.135	7724.97
516.502	7655.82
516.869	7752.54
517.237	7759.77
517.604	7705.76
517.972	7802.7
518.339	7766.32
518.706	7775.81
519.073	7797.51
519.44	7804.06
519.808	7918.18
520.175	7815.13
520.542	7955.92
520.909	7910.05
521.276	7916.6
521.643	7907.79
522.009	7931.06
522.376	7979.65
522.743	8010.61
523.11	8041.79
523.477	8106.65
523.843	8054
524.21	8122.24
524.577	8158.4
524.943	8159.08
525.31	8166.31
525.676	8248.79
526.043	8276.59
526.409	8272.3
526.776	8302.8
527.142	8320.66
527.508	8297.15
527.874	8296.93
528.241	8343.03
528.607	8317.72
528.973	8422.58
529.339	8295.35
529.705	8449.47
530.071	8439.98
530.437	8464.83
530.803	8432.74
531.169	8475
531.535	8368.79
531.901	8438.85
532.267	8474.1
532.632	8465.29
532.998	8425.06
533.364	8480.2
533.73	8440.65
534.095	8455.57
534.461	8471.61
534.826	8506.87
535.192	8488.79
535.557	8529.24
535.923	8482.23
536.288	8486.08
536.653	8441.33
537.019	8488.11
537.384	8394.33
537.749	8475.23
538.114	8481.56
538.479	8481.33
538.845	8455.12
539.21	8410.6
539.575	8449.92
539.94	8451.73
540.305	8487.66
540.67	8406.53
541.034	8435
541.399	8451.27
541.764	8466.19
542.129	8406.08
542.494	8435.68
542.858	8394.78
543.223	8420.54
543.587	8382.58
543.952	8388.45
544.316	8408.11
544.681	8394.78
545.045	8395.46
545.41	8395.46
545.774	8332.18
546.138	8265.07
546.503	8361.33
546.867	8297.15
547.231	8377.38
547.595	8371.28
547.959	8322.01
548.324	8291.73
548.688	8278.85
549.052	8345.29
549.416	8302.13
549.779	8274.33
550.143	8265.74
550.507	8278.17
550.871	8324.5
551.235	8257.61
551.599	8285.86
551.962	8288.79
552.326	8303.48
552.689	8320.88
553.053	8279.08
553.417	8227.33
553.78	8329.7
554.143	8232.07
554.507	8230.72
554.87	8302.58
555.234	8308
555.597	8218.74
555.96	8286.08
556.323	8227.1
556.686	8259.19
557.05	8281.34
557.413	8299.64
557.776	8296.02
558.139	8296.02
558.502	8347.55
558.865	8317.72
559.228	8298.28
559.59	8347.1
559.953	8324.95
560.316	8392.52
560.679	8371.28
561.041	8411.05
561.404	8384.38
561.767	8425.06
562.129	8380.54
562.492	8450.82
562.854	8464.16
563.217	8440.65
563.579	8488.79
563.941	8454.89
564.304	8546.41
564.666	8557.49
565.028	8491.5
565.39	8556.13
565.753	8576.92
566.115	8566.07
566.477	8559.52
566.839	8658.05
567.201	8696.01
567.563	8685.62
567.925	8712.74
568.287	8677.71
568.648	8736.47
569.01	8718.84
569.372	8775.56
569.734	8799.97
570.095	8792.51
570.457	8859.63
570.819	8812.4
571.18	8816.24
571.542	8901.66
571.903	8870.7
572.265	8925.61
572.626	8894.88
572.987	8884.48
573.349	8905.5
573.71	8991.15
574.071	9031.37
574.432	9021.2
574.794	9040.64
575.155	9027.53
575.516	9039.51
575.877	9094.2
576.238	9143.69
576.599	9174.87
576.96	9140.07
577.32	9205.15
577.681	9231.37
578.042	9176
578.403	9228.88
578.763	9263.01
579.124	9314.53
579.485	9274.08
579.845	9327.86
580.206	9325.6
580.566	9344.13
580.927	9368.31
581.287	9425.71
581.648	9436.79
582.008	9398.37
582.368	9456.22
582.728	9538.25
583.089	9436.56
583.449	9441.98
583.809	9548.65
584.169	9554.3
584.529	9517.46
584.889	9582.09
585.249	9533.05
585.609	9541.19
585.969	9719.04
586.329	9610.11
586.688	9563.34
587.048	9677.46
587.408	9594.07
587.768	9597.01
588.127	9597.91
588.487	9641.53
588.846	9745.25
589.206	9723.11
589.565	9715.2
589.925	9717.23
590.284	9725.82
590.643	9747.06
591.003	9814.4
591.362	9854.18
591.721	9789.77
592.08	9855.53
592.44	9805.59
592.799	9857.57
593.158	9838.58
593.517	9884.01
593.876	9839.94
594.235	9792.71
594.593	9861.63
594.952	9923.55
595.311	9927.39
595.67	9929.65
596.029	9906.83
596.387	9969.65
596.746	9974.17
597.104	9998.13
597.463	9951.12
597.822	9985.02
598.18	9948.86
598.538	9958.13
598.897	10040.61
599.255	9959.26
599.613	10033.61
599.972	9996.77
600.33	10050.78
600.688	10048.75
601.046	10064.34
601.404	10117.67
601.762	10026.6
602.12	10150.67
602.478	10055.3
602.836	10116.99
603.194	10089.42
603.552	10041.74
603.91	10051.01
604.268	10084.68
604.625	10081.97
604.983	10136.88
605.341	10040.16
605.698	10183.88
606.056	10142.3
606.413	10155.18
606.771	10198.35
607.128	10123.77
607.485	10111.57
607.843	10125.13
608.2	10199.93
608.557	10247.39
608.914	10222.08
609.272	10283.32
609.629	10206.03
609.986	10235.86
610.343	10208.29
610.7	10299.14
611.057	10243.77
611.414	10228.18
611.771	10239.02
612.127	10382.98
612.484	10389.98
612.841	10348.85
613.198	10349.98
613.554	10303.88
613.911	10356.54
614.267	10399.25
614.624	10401.73
614.98	10415.29
615.337	10415.97
615.693	10411.68
616.05	10414.16
616.406	10457.1
616.762	10412.35
617.118	10391.56
617.475	10473.82
617.831	10448.51
618.187	10499.81
618.543	10422.07
618.899	10496.87
619.255	10474.05
619.611	10554.04
619.967	10488.51
620.323	10490.77
620.678	10523.31
621.034	10479.92
621.39	10509.07
621.746	10494.39
622.101	10557.66
622.457	10462.52
622.812	10512.01
623.168	10460.49
623.523	10548.17
623.879	10551.56
624.234	10529.64
624.589	10523.54
624.945	10532.8
625.3	10565.8
625.655	10500.26
626.01	10527.15
626.365	10525.8
626.72	10460.04
627.075	10508.85
627.43	10582.97
627.785	10443.09
628.14	10427.49
628.495	10418
628.85	10448.74
629.205	10487.38
629.559	10565.8
629.914	10418.45
630.269	10360.15
630.623	10433.82
630.978	10395.86
631.332	10467.49
631.687	10460.26
632.041	10436.08
632.396	10367.61
632.75	10357.67
633.104	10386.82
633.459	10382.52
633.813	10380.26
634.167	10311.57
634.521	10281.96
634.875	10303.88
635.229	10236.99
635.583	10268.18
635.937	10278.35
636.291	10248.97
636.645	10224.34
636.999	10167.39
637.352	10232.25
637.706	10145.02
638.06	10206.26
638.413	10258.46
638.767	10128.74
639.121	10189.53
639.474	10138.46
639.828	10074.06
640.181	10146.82
640.534	10098.46
640.888	10088.07
641.241	10047.84
641.594	9974.17
641.947	10091.46
642.301	10097.79
642.654	10040.61
643.007	10100.27
643.36	10002.42
643.713	10020.05
644.066	10061.63
644.419	10005.81
644.771	9959.48
645.124	9820.05
645.477	9880.39
645.83	9803.33
646.182	9763.56
646.535	9718.36
646.888	9710.22
647.24	9676.55
647.593	9703.45
647.945	9692.82
648.298	9667.06
648.65	9648.76
649.002	9641.53
649.355	9713.39
649.707	9652.6
650.059	9709.55
650.411	9846.27
650.763	9840.62
651.115	9953.38
651.467	9894.4
651.819	9884.46
652.171	9809.88
652.523	9858.02
652.875	9820.28
653.227	9780.51
653.578	9869.09
653.93	9858.92
654.282	9771.01
654.633	9783.9
654.985	9813.05
655.337	9853.05
655.688	9850.56
656.039	9872.03
656.391	9821.86
656.742	9801.75
657.094	9897.11
657.445	9909.77
657.796	9865.02
658.147	9843.55
658.498	9827.28
658.849	9892.59
659.2	9819.37
659.551	9854.4
659.902	9835.65
660.253	9866.83
660.604	9902.76
660.955	9819.6
661.306	9866.38
661.656	9847.4
662.007	9866.15
662.358	9814.4
662.708	9897.11
663.059	9817.57
663.409	9797.23
663.76	9855.98
664.11	9853.05
664.461	9853.5
664.811	9895.76
665.161	9896.66
665.511	9831.35
665.862	9937.34
666.212	9881.75
666.562	9905.02
666.912	9900.73
667.262	9880.16
667.612	9819.6
667.962	9910.45
668.312	9858.47
668.662	9900.28
669.011	9919.94
669.361	9887.62
669.711	9818.24
670.06	9823.67
670.41	9757.68
670.76	9803.56
671.109	9858.47
671.459	9860.28
671.808	9752.94
672.157	9817.11
672.507	9753.16
672.856	9827.51
673.205	9745.93
673.554	9820.05
673.904	9721.98
674.253	9803.33
674.602	9826.83
674.951	9649.44
675.3	9602.21
675.649	9773.27
675.998	9701.19
676.346	9693.28
676.695	9760.85
677.044	9691.47
677.393	9758.36
677.741	9650.11
678.09	9658.47
678.438	9666.16
678.787	9665.93
679.135	9656.44
679.484	9618.48
679.832	9642.66
680.181	9552.49
680.529	9617.12
680.877	9559.04
681.225	9547.52
681.573	9563.11
681.922	9482.89
682.27	9474.75
682.618	9485.37
682.966	9452.15
683.314	9452.38
683.661	9474.07
684.009	9324.02
684.357	9308.65
684.705	9347.07
685.053	9378.48
685.4	9402.44
685.748	9346.39
686.095	9361.31
686.443	9289.9
686.79	9305.04
687.138	9235.44
687.485	9271.59
687.832	9233.4
688.18	9216.68
688.527	9105.04
688.874	9062.56
689.221	9080.41
689.568	9088.55
689.915	9079.28
690.262	9071.6
690.609	9058.04
690.956	8940.3
691.303	8986.18
691.65	8900.98
691.997	8857.37
692.344	8890.81
692.69	8880.19
693.037	8815.11
693.383	8729.69
693.73	8766.97
694.077	8663.02
694.423	8680.42
694.769	8706.64
695.116	8665.05
695.462	8664.6
695.808	8585.96
696.155	8580.09
696.501	8523.82
696.847	8570.14
697.193	8479.3
697.539	8497.15
697.885	8443.14
698.231	8368.57
698.577	8380.32
698.923	8362.92
699.269	8359.07
699.614	8257.38
699.96	8241.79
700.306	8248.12
700.651	8188.68
700.997	8220.32
701.342	8135.8
701.688	8131.28
702.033	8096.26
702.379	8124.5
702.724	8112.75
703.069	8121.11
703.415	7912.31
703.76	8003.15
704.105	7973.1
704.45	7911.4
704.795	7932.19
705.14	7867.56
705.485	7871.63
705.83	7835.92
706.175	7856.49
706.52	7777.39
706.865	7735.59
707.209	7745.98
707.554	7760.9
707.899	7741.24
708.243	7740.11
708.588	7637.29
708.932	7604.29
709.277	7628.47
709.621	7617.85
709.966	7521.36
710.31	7528.14
710.654	7468.93
710.998	7523.84
711.342	7414.01
711.687	7489.49
712.031	7377.63
712.375	7393.45
712.719	7393.68
713.063	7399.78
713.407	7403.39
713.75	7321.36
714.094	7362.04
714.438	7347.35
714.782	7347.12
715.125	7274.36
715.469	7320.01
715.812	7274.13
716.156	7262.61
716.499	7261.02
716.843	7252.44
717.186	7255.6
717.53	7196.62
717.873	7188.26
718.216	7193.45
718.559	7178.99
718.902	7146
719.246	7142.83
719.589	7164.53
719.932	7145.09
720.275	7082.5
720.617	7105.55
720.96	7051.76
721.303	7106.45
721.646	7094.47
721.989	7070.75
722.331	7038.2
722.674	7044.98
723.016	7069.16
723.359	7042.95
723.701	7054.48
724.044	7024.42
724.386	6966.79
724.729	7039.79
725.071	7030.75
725.413	6978.09
725.755	6974.7
726.097	6985.32
726.439	6933.57
726.782	6931.99
727.124	6994.82
727.465	6940.13
727.807	6934.03
728.149	6935.83
728.491	6909.62
728.833	6931.09
729.175	6869.4
729.516	6897.64
729.858	6860.58
730.199	6863.97
730.541	6899.68
730.882	6868.94
731.224	6859.68
731.565	6882.73
731.906	6888.83
732.248	6908.72
732.589	6856.97
732.93	6852.45
733.271	6859.23
733.612	6874.37
733.953	6881.6
734.294	6889.28
734.635	6869.17
734.976	6947.59
735.317	6794.82
735.658	6867.59
735.999	6865.33
736.339	6818.32
736.68	6895.84
737.021	6828.72
737.361	6889.96
737.702	6896.74
738.042	6900.58
738.383	6855.84
738.723	6922.73
739.063	6903.29
739.404	6877.76
739.744	6895.16
740.084	6867.36
740.424	6924.99
740.764	6936.29
741.104	6967.02
741.444	6941.71
741.784	6967.47
742.124	6966.57
742.464	6949.17
742.804	6945.55
743.143	6999.11
743.483	6989.84
743.823	7008.38
744.162	6987.81
744.502	7054.48
744.841	7072.78
745.181	7123.17
745.52	7094.25
745.86	7133.8
746.199	7206.56
746.538	7107.81
746.877	7250.4
747.216	7294.92
747.556	7267.13
747.895	7358.87
748.234	7329.27
748.573	7362.49
748.911	7439.55
749.25	7463.96
749.589	7454.01
749.928	7549.6
750.267	7573.11
750.605	7630.28
750.944	7721.58
751.283	7720.22
751.621	7858.07
751.96	7883.38
752.298	7903.49
752.636	8038.63
752.975	8030.72
753.313	8102.58
753.651	8253.31
753.989	8220.55
754.327	8424.83
754.666	8527.66
755.004	8621.21
755.342	8680.2
755.679	8747.99
756.017	8819.85
756.355	8933.07
756.693	9048.55
757.031	9235.89
757.368	9299.16
757.706	9371.48
758.044	9532.6
758.381	9621.87
758.719	9740.28
759.056	9851.69
759.394	9981.86
759.731	10020.05
760.068	10189.99
760.405	10276.99
760.743	10420.94
761.08	10602.4
761.417	10640.82
761.754	10848.27
762.091	10894.83
762.428	11014.37
762.765	11175.05
763.102	11303.18
763.438	11388.15
763.775	11435.15
764.112	11643.28
764.449	11862.26
764.785	11891.86
765.122	12049.37
765.458	12048.92
765.795	12207.79
766.131	12293.66
766.467	12440.55
766.804	12481.9
767.14	12565.29
767.476	12717.83
767.812	12683.71
768.148	12981.55
768.485	12998.5
768.821	13088.22
769.157	13170.25
769.492	13282.11
769.828	13447.75
770.164	13363.01
770.5	13539.95
770.836	13589.44
771.171	13618.6
771.507	13664.25
771.842	13748.99
772.178	13808.42
772.513	13918.25
772.849	13933.39
773.184	13963.67
773.519	14030.79
773.855	14095.42
774.19	14098.58
774.525	14152.59
774.86	14242.76
775.195	14316.88
775.53	14324.79
775.865	14265.59
776.2	14228.07
776.535	14300.16
776.87	14308.3
777.205	14391.01
777.539	14351.23
777.874	14472.81
778.209	14410.44
778.543	14512.58
778.878	14406.15
779.212	14450.44
779.547	14460.83
779.881	14548.97
780.215	14520.04
780.55	14553.71
780.884	14512.36
781.218	14530.66
781.552	14639.13
781.886	14508.52
782.22	14507.84
782.554	14531.34
782.888	14445.47
783.222	14380.61
783.556	14307.84
783.889	14396.43
784.223	14400.5
784.557	14355.75
784.89	14399.82
785.224	14389.42
785.557	14279.6
785.891	14342.87
786.224	14258.13
786.558	14320.05
786.891	14150.11
787.224	14219.94
787.557	14166.6
787.891	14200.73
788.224	14235.3
788.557	14283.44
788.89	14202.76
789.223	14186.27
789.556	14094.97
789.888	14112.14
790.221	14038.02
790.554	13943.56
790.887	14058.81
791.219	13973.39
791.552	14002.09
791.884	13883.67
792.217	13940.4
792.549	13920.96
792.882	13824.69
793.214	13739.95
793.546	13779.04
793.879	13692.72
794.211	13639.39
794.543	13767.75
794.875	13708.09
795.207	13777.01
795.539	13555.55
795.871	13633.96
796.203	13563
796.535	13542.21
796.867	13406.4
797.198	13462.67
797.53	13479.17
797.862	13320.98
798.193	13462.89
798.525	13349.9
798.856	13428.77
799.188	13229.45
799.519	13207.99
799.85	13172.96
800.182	13165.28
800.513	13226.29
800.844	13070.14
801.175	13183.13
801.506	13205.5
801.837	13110.36
802.168	13004.15
802.499	13033.75
802.83	12926.64
803.161	12878.96
803.491	12876.02
803.822	12922.57
804.153	12792.86
804.483	12832.85
804.814	12684.84
805.145	12782.23
805.475	12723.25
805.805	12665.63
806.136	12734.55
806.466	12690.26
806.796	12594.67
807.126	12543.6
807.457	12538.63
807.787	12490.04
808.117	12408.69
808.447	12461.11
808.777	12460.89
809.107	12412.07
809.436	12289.59
809.766	12415.24
810.096	12325.52
810.426	12338.86
810.755	12278.29
811.085	12262.93
811.414	12297.5
811.744	12148.8
812.073	12194.68
812.403	12184.06
812.732	12114.91
813.061	12047.11
813.39	12082.37
813.719	11981.8
814.049	11998.53
814.378	11978.87
814.707	11919.21
815.036	12000.56
815.365	11866.33
815.693	11789.94
816.022	11827.46
816.351	11791.75
816.68	11784.52
817.008	11859.77
817.337	11705.43
817.665	11749.95
817.994	11654.58
818.322	11667.46
818.651	11610.97
818.979	11616.84
819.307	11669.5
819.636	11577.29
819.964	11504.53
820.292	11566.67
820.62	11598.08
820.948	11530.97
821.276	11565.32
821.604	11499.56
821.932	11577.07
822.259	11550.85
822.587	11572.32
822.915	11432.67
823.243	11530.29
823.57	11461.59
823.898	11482.38
824.225	11432.89
824.553	11432.67
824.88	11510.18
825.207	11534.81
825.535	11514.02
825.862	11493.45
826.189	11441.93
826.516	11484.42
826.843	11522.38
827.17	11555.83
827.497	11577.97
827.824	11552.89
828.151	11582.04
828.478	11598.99
828.805	11530.29
829.131	11565.09
829.458	11581.81
829.785	11514.92
830.111	11472.66
830.438	11617.75
830.764	11510.86
831.09	11552.44
831.417	11465.43
831.743	11548.37
832.069	11550.85
832.395	11505.66
832.722	11535.71
833.048	11524.41
833.374	11505.66
833.7	11479.9
834.026	11451.65
834.351	11467.47
834.677	11432.67
835.003	11418.88
835.329	11395.6
835.654	11370.52
835.98	11323.74
836.306	11351.09
836.631	11326.91
836.956	11353.12
837.282	11387.69
837.607	11364.64
837.932	11295.72
838.258	11271.99
838.583	11258.21
838.908	11266.79
839.233	11242.61
839.558	11256.85
839.883	11175.05
840.208	11149.06
840.533	11156.51
840.858	11136.4
841.182	11082.39
841.507	11098.89
841.832	11113.35
842.156	11083.97
842.481	11071.09
842.805	10968.72
843.13	10958.33
843.454	10968.27
843.778	10965.56
844.103	10929.63
844.427	10816.18
844.751	10890.53
845.075	10835.17
845.399	10766.02
845.723	10714.72
846.047	10847.37
846.371	10739.35
846.695	10648.96
847.019	10551.33
847.343	10493.93
847.666	10521.95
847.99	10509.98
848.313	10466.14
848.637	10418.23
848.96	10383.65
849.284	10361.73
849.607	10298.46
849.931	10292.81
850.254	10256.65
850.577	10165.58
850.9	10102.98
851.223	10060.72
851.546	10058.92
851.869	9948.41
852.192	10035.19
852.515	9892.37
852.838	9910.9
853.161	9874.74
853.483	9841.75
853.806	9830.67
854.129	9795.65
854.451	9723.33
854.774	9773.05
855.096	9728.98
855.419	9663.45
855.741	9644.92
856.063	9598.82
856.385	9611.24
856.708	9527.18
857.03	9533.96
857.352	9461.87
857.674	9477.91
857.996	9433.17
858.318	9408.09
858.64	9366.73
858.961	9265.04
859.283	9370.12
859.605	9263.91
859.926	9342.32
860.248	9242.89
860.57	9292.61
860.891	9180.75
861.212	9097.36
861.534	9108.21
861.855	9107.53
862.176	9125.61
862.498	9120.64
862.819	9088.55
863.14	9117.25
863.461	9104.37
863.782	9074.54
864.103	9050.58
864.424	9029.34
864.745	9016.01
865.065	9009.68
865.386	8958.61
865.707	8973.07
866.027	8993.86
866.348	8928.32
866.668	8940.75
866.989	8898.04
867.309	8819.17
867.63	8804.71
867.95	8825.5
868.27	8800.42
868.59	8798.16
868.91	8790.02
869.23	8780.31
869.55	8731.95
869.87	8786.41
870.19	8786.18
870.51	8805.39
870.83	8789.57
871.15	8635.68
871.469	8636.81
871.789	8685.85
872.109	8683.13
872.428	8581.44
872.748	8650.37
873.067	8628.67
873.386	8644.49
873.706	8593.64
874.025	8580.31
874.344	8503.25
874.663	8535.11
874.982	8512.29
875.301	8590.93
875.62	8521.78
875.939	8448.11
876.258	8530.82
876.577	8475.23
876.896	8428
877.214	8435.68
877.533	8494.21
877.852	8460.54
878.17	8375.12
878.489	8401.78
878.807	8468.9
879.125	8329.92
879.444	8389.36
879.762	8287.66
880.08	8401.56
880.398	8362.24
880.716	8308
881.034	8306.42
881.352	8293.99
881.67	8285.4
881.988	8256.48
882.306	8203.37
882.624	8166.54
882.941	8160.89
883.259	8174.45
883.577	8100.78
883.894	8113.66
884.212	8074.79
884.529	8062.36
884.846	8043.38
885.164	8042.02
885.481	8043.6
885.798	8000.67
886.115	7948.92
886.432	7960.89
886.75	7931.74
887.067	7982.13
887.383	7918.18
887.7	7919.54
888.017	7846.09
888.334	7859.88
888.651	7865.75
888.967	7864.17
889.284	7802.25
889.6	7769.03
889.917	7715.93
890.233	7744.63
890.55	7708.7
890.866	7677.51
891.182	7636.38
891.498	7601.81
891.815	7607
892.131	7536.04
892.447	7568.13
892.763	7484.97
893.079	7448.14
893.395	7456.27
893.71	7520.68
894.026	7458.31
894.342	7511.19
894.657	7392.09
894.973	7360.91
895.289	7360.91
895.604	7359.1
895.92	7244.75
896.235	7182.61
896.55	7288.14
896.865	7283.62
897.181	7262.15
897.496	7242.27
897.811	7209.95
898.126	7177.18
898.441	7143.29
898.756	7081.59
899.071	7100.58
899.386	7023.97
899.7	7039.56
900.015	6992.78
900.33	7014.93
900.644	6935.16
900.959	6948.94
901.273	6905.55
901.588	6821.49
901.902	6837.76
902.216	6836.85
902.531	6813.58
902.845	6784.65
903.159	6694.03
903.473	6707.82
903.787	6705.56
904.101	6628.72
904.415	6566.58
904.729	6644.99
905.042	6556.86
905.356	6547.37
905.67	6546.92
905.984	6556.18
906.297	6504.89
906.611	6476.41
906.924	6475.73
907.237	6509.41
907.551	6423.98
907.864	6332.69
908.177	6350.31
908.491	6361.39
908.804	6301.5
909.117	6214.72
909.43	6255.17
909.743	6217.21
910.056	6207.49
910.368	6122.07
910.681	6118.91
910.994	6135.4
911.307	6137.66
911.619	6090.43
911.932	6077.33
912.244	6014.73
912.557	5984.22
912.869	5951.91
913.181	5972.47
913.494	5929.53
913.806	5913.71
914.118	5884.34
914.43	5843.66
914.742	5825.81
915.054	5817.45
915.366	5731.8
915.678	5756.43
915.99	5769.54
916.302	5657.9
916.613	5671.24
916.925	5642.08
917.236	5661.29
917.548	5599.37
917.859	5609.32
918.171	5532.93
918.482	5588.3
918.794	5543.78
919.105	5520.05
919.416	5511.47
919.727	5458.81
920.038	5452.48
920.349	5478.02
920.66	5391.02
920.971	5440.51
921.282	5387.17
921.593	5353.05
921.903	5365.03
922.214	5259.95
922.525	5273.96
922.835	5249.78
923.146	5226.5
923.456	5237.8
923.767	5193.28
924.077	5163.23
924.387	5176.11
924.697	5096.79
925.008	5111.02
925.318	5083.68
925.628	5116.45
925.938	5105.83
926.248	5051.36
926.558	5060.86
926.867	4974.3
927.177	4988.54
927.487	4934.76
927.796	4834.65
928.106	4911.71
928.416	4890.46
928.725	4863.35
929.034	4829.68
929.344	4876.45
929.653	4798.26
929.962	4788.32
930.271	4782.44
930.581	4756.68
930.89	4742.67
931.199	4671.49
931.508	4679.17
931.817	4697.25
932.125	4647.99
932.434	4661.09
932.743	4630.36
933.051	4587.87
933.36	4563.69
933.669	4546.97
933.977	4549.23
934.286	4533.86
934.594	4547.87
934.902	4497.71
935.21	4478.27
935.519	4462.68
935.827	4448.67
936.135	4436.24
936.443	4383.36
936.751	4407.54
937.059	4371.61
937.367	4370.25
937.674	4328.67
937.982	4356.02
938.29	4323.93
938.597	4280.99
938.905	4260.42
939.213	4195.79
939.52	4231.05
939.827	4207.09
940.135	4215.91
940.442	4202.35
940.749	4139.52
941.056	4167.77
941.363	4083.25
941.67	4125.74
941.977	4076.02
942.284	4030.6
942.591	4043.71
942.898	4018.62
943.205	4049.58
943.511	3997.83
943.818	4013.2
944.125	3978.4
944.431	3943.82
944.738	3916.7
945.044	3961
945.35	3915.8
945.657	3862.92
945.963	3860.21
946.269	3850.72
946.575	3841
946.881	3829.93
947.187	3782.92
947.493	3791.51
947.799	3804.62
948.105	3793.32
948.41	3744.96
948.716	3732.08
949.022	3681.68
949.327	3705.19
949.633	3687.78
949.938	3651.63
950.244	3662.25
950.549	3664.73
950.854	3630.61
951.16	3577.73
951.465	3549.71
951.77	3557.39
952.075	3579.31
952.38	3543.61
952.685	3535.92
952.99	3490.28
953.294	3507.22
953.599	3471.29
953.904	3443.72
954.209	3450.28
954.513	3458.19
954.818	3397.62
955.122	3407.11
955.426	3380.22
955.731	3410.28
956.035	3368.24
956.339	3356.04
956.643	3361.69
956.948	3330.28
957.252	3333.9
957.556	3320.11
957.86	3291.41
958.163	3288.47
958.467	3255.25
958.771	3227.01
959.075	3244.63
959.378	3244.18
959.682	3223.62
959.985	3192.2
960.289	3155.82
960.592	3155.37
960.896	3166.22
961.199	3130.06
961.502	3134.58
961.805	3121.25
962.108	3079.66
962.411	3102.94
962.714	3074.02
963.017	3065.65
963.32	3060.68
963.623	3037.86
963.926	3055.94
964.228	3021.59
964.531	2986.33
964.833	3000.12
965.136	2964.87
965.438	2964.87
965.741	2960.57
966.043	2937.3
966.345	2939.56
966.648	2877.86
966.95	2909.73
967.252	2883.74
967.554	2842.83
967.856	2855.72
968.158	2846.22
968.46	2843.74
968.761	2805.32
969.063	2820.46
969.365	2798.09
969.666	2790.63
969.968	2771.88
970.269	2763.06
970.571	2735.72
970.872	2713.12
971.174	2696.17
971.475	2723.06
971.776	2683.29
972.077	2711.31
972.378	2686.45
972.679	2670.86
972.98	2656.85
973.281	2642.84
973.582	2665.89
973.883	2613.24
974.183	2602.84
974.484	2600.13
974.785	2613.01
975.085	2597.64
975.386	2592.45
975.686	2629.28
975.986	2543.86
976.287	2546.8
976.587	2520.58
976.887	2509.74
977.187	2494.82
977.487	2512.67
977.787	2459.34
978.087	2461.15
978.387	2478.78
978.687	2430.64
978.987	2428.16
979.286	2443.75
979.586	2435.61
979.885	2425.67
980.185	2392
980.484	2406.69
980.784	2402.62
981.083	2344.32
981.382	2391.77
981.682	2371.43
981.981	2349.06
982.28	2331.89
982.579	2345.9
982.878	2279.46
983.177	2296.86
983.475	2317.65
983.774	2252.79
984.073	2261.16
984.372	2266.58
984.67	2226.35
984.969	2215.28
985.267	2221.83
985.566	2241.49
985.864	2215.51
986.162	2193.13
986.461	2182.51
986.759	2169.41
987.057	2167.37
987.355	2153.81
987.653	2122.85
987.951	2130.76
988.249	2100.93
988.547	2127.83
988.844	2121.95
989.142	2102.06
989.44	2105
989.737	2091.67
990.035	2066.36
990.332	2074.72
990.63	2083.31
990.927	2064.78
991.224	2053.7
991.521	2047.38
991.819	2016.42
992.116	2014.38
992.413	2036.08
992.71	1974.61
993.006	2021.16
993.303	1966.25
993.6	1978.45
993.897	1940.71
994.193	1960.82
994.49	1922.86
994.787	1923.31
995.083	1924.21
995.379	1903.2
995.676	1905.91
995.972	1913.14
996.268	1885.8
996.565	1855.52
996.861	1869.53
997.157	1858.91
997.453	1850.77
997.749	1847.15
998.044	1801.96
998.34	1819.36
998.636	1788.17
998.932	1820.71
999.227	1774.84
999.523	1806.25
999.818	1809.19
1000.114	1773.94
1000.409	1772.81
1000.704	1738.91
1001	1740.72
1001.295	1704.33
1001.59	1726.71
1001.885	1743.65
1002.18	1691.68
1002.475	1698.91
1002.77	1710.66
1003.065	1693.03
1003.359	1666.82
1003.654	1678.12
1003.949	1662.75
1004.243	1661.85
1004.538	1645.8
1004.832	1626.6
1005.127	1635.18
1005.421	1632.92
1005.715	1581.85
1006.009	1592.92
1006.304	1577.33
1006.598	1557.22
1006.892	1584.79
1007.186	1584.11
1007.48	1556.99
1007.773	1535.75
1008.067	1545.92
1008.361	1528.97
1008.655	1535.98
1008.948	1504.56
1009.242	1484.45
1009.535	1498.46
1009.829	1471.35
1010.122	1446.49
1010.415	1479.03
1010.708	1445.58
1011.001	1458.01
1011.295	1436.09
1011.588	1465.47
1011.881	1447.62
1012.173	1455.07
1012.466	1415.08
1012.759	1395.42
1013.052	1382.53
1013.344	1391.8
1013.637	1393.61
1013.93	1360.39
1014.222	1365.36
1014.514	1377.56
1014.807	1320.84
1015.099	1328.75
1015.391	1349.99
1015.683	1347.28
1015.976	1329.88
1016.268	1304.34
1016.56	1312.71
1016.851	1309.54
1017.143	1267.96
1017.435	1272.71
1017.727	1273.38
1018.018	1279.71
1018.31	1274.29
1018.602	1254.85
1018.893	1237.91
1019.185	1240.17
1019.476	1254.63
1019.767	1204.01
1020.058	1190.22
1020.35	1219.15
1020.641	1237.45
1020.932	1198.58
1021.223	1206.72
1021.514	1160.85
1021.804	1150
1022.095	1173.73
1022.386	1141.64
1022.677	1159.94
1022.967	1133.05
1023.258	1131.47
1023.548	1113.61
1023.839	1134.86
1024.129	1113.39
1024.419	1093.5
1024.709	1102.77
1025	1093.95
1025.29	1112.71
1025.58	1063.45
1025.87	1056.22
1026.16	1076.33
1026.449	1072.94
1026.739	1066.61
1027.029	1053.28
1027.319	1041.75
1027.608	1039.94
1027.898	1018.25
1028.187	1027.74
1028.477	1003.56
1028.766	1018.25
1029.055	1010.79
1029.344	1003.56
1029.634	986.61
1029.923	979.38
1030.212	964.69
1030.501	961.98
1030.79	939.61
1031.078	943.9
1031.367	970.12
1031.656	964.01
1031.945	924.02
1032.233	917.91
1032.522	901.64
1032.81	925.82
1033.099	933.96
1033.387	944.81
1033.675	913.17
1033.963	913.17
1034.251	917.01
1034.54	899.61
1034.828	894.86
1035.116	890.57
1035.403	885.82
1035.691	863
1035.979	877.46
1036.267	861.42
1036.554	861.64
1036.842	855.54
1037.129	833.17
1037.417	850.8
1037.704	850.8
1037.992	848.99
1038.279	825.03
1038.566	796.33
1038.853	796.33
1039.14	796.33
