Data from hue_280_FLMS001491_00047.txt Node
Date: Tue Feb 07 15:55:20 GMT 2017
User: dcchb
Spectrometer: FLMS00149
Trigger mode: 0
Integration Time (sec): 2.000000E-2
Scans to average: 10
Electric dark correction enabled: true
Nonlinearity correction enabled: false
Boxcar width: 0
XAxis mode: Wavelengths
Number of Pixels in Spectrum: 2048
>>>>>Begin Spectral Data<<<<<
341.393	-5.93
341.776	-5.93
342.16	-5.93
342.543	-72.82
342.927	-64.46
343.31	-82.99
343.693	-67.17
344.077	-66.5
344.46	-66.72
344.843	-53.39
345.226	-32.15
345.61	-15.2
345.993	-10.45
346.376	-15.2
346.759	9.21
347.142	29.77
347.525	31.81
347.908	43.11
348.291	99.15
348.674	110.45
349.057	86.27
349.44	124.69
349.823	130.34
350.206	163.78
350.588	190
350.971	203.55
351.354	200.39
351.737	213.72
352.119	244.91
352.502	251.24
352.884	228.86
353.267	262.08
353.65	278.13
354.032	279.03
354.414	307.51
354.797	323.55
355.179	315.64
355.562	317.9
355.944	317.45
356.326	323.78
356.709	324
357.091	325.13
357.473	334.4
357.855	329.88
358.238	326.94
358.62	353.38
359.002	327.62
359.384	352.25
359.766	333.72
360.148	335.3
360.53	321.29
360.912	309.54
361.294	319.94
361.676	329.2
362.057	315.87
362.439	327.84
362.821	334.85
363.203	318.13
363.584	336.43
363.966	315.19
364.348	296.43
364.729	301.63
365.111	314.51
365.493	317.45
365.874	311.8
366.256	329.65
366.637	304.34
367.019	301.18
367.4	301.63
367.781	288.98
368.163	319.94
368.544	308.41
368.925	306.83
369.306	312.25
369.688	301.18
370.069	314.96
370.45	278.13
370.831	286.49
371.212	306.38
371.593	307.51
371.974	313.83
372.355	279.26
372.736	298.01
373.117	309.31
373.498	308.18
373.879	289.2
374.26	288.3
374.641	305.02
375.021	292.14
375.402	310.9
375.783	286.72
376.163	318.35
376.544	307.28
376.925	317.9
377.305	300.5
377.686	312.93
378.066	341.4
378.447	317
378.827	297.34
379.208	311.8
379.588	331.01
379.968	319.26
380.349	343.44
380.729	339.6
381.109	317.45
381.489	322.87
381.87	325.58
382.25	328.52
382.63	338.92
383.01	330.56
383.39	343.89
383.77	329.2
384.15	348.86
384.53	331.01
384.91	328.75
385.29	335.98
385.67	333.95
386.049	365.13
386.429	338.69
386.809	326.26
387.189	332.14
387.568	321.29
387.948	340.05
388.328	354.74
388.707	345.02
389.087	369.88
389.466	368.52
389.846	337.56
390.225	344.12
390.605	375.07
390.984	368.3
391.363	367.17
391.743	377.11
392.122	363.78
392.501	371.01
392.881	366.49
393.26	380.72
393.639	366.49
394.018	383.66
394.397	355.19
394.776	362.65
395.155	371.23
395.534	374.4
395.913	385.02
396.292	378.69
396.671	399.26
397.05	388.63
397.429	391.12
397.808	400.84
398.186	402.64
398.565	393.38
398.944	389.54
399.323	392.48
399.701	391.57
400.08	406.71
400.458	389.31
400.837	399.93
401.215	394.96
401.594	405.81
401.972	388.86
402.351	414.17
402.729	385.92
403.107	411.68
403.486	415.75
403.864	416.66
404.242	429.31
404.62	429.76
404.999	439.48
405.377	452.14
405.755	422.53
406.133	419.82
406.511	435.41
406.889	449.42
407.267	440.38
407.645	460.04
408.023	450.33
408.401	484.68
408.779	473.83
409.156	485.35
409.534	482.87
409.912	492.59
410.29	474.96
410.667	488.07
411.045	505.92
411.422	513.83
411.8	518.8
412.178	505.92
412.555	526.71
412.933	520.38
413.31	538.23
413.687	533.26
414.065	539.82
414.442	547.73
414.819	567.84
415.197	566.71
415.574	554.96
415.951	585.69
416.328	585.92
416.705	574.17
417.082	617.78
417.46	588.4
417.837	612.13
418.214	596.09
418.591	616.2
418.967	632.7
419.344	602.87
419.721	632.02
420.098	644.67
420.475	666.37
420.852	653.49
421.228	684.67
421.605	679.25
421.982	669.76
422.358	685.35
422.735	719.7
423.111	725.35
423.488	728.96
423.864	726.93
424.241	742.07
424.617	763.31
424.994	774.61
425.37	781.62
425.746	779.58
426.123	783.43
426.499	779.36
426.875	791.79
427.251	794.05
427.627	814.16
428.003	805.57
428.379	836.53
428.756	860.03
429.132	843.76
429.507	878.11
429.883	880.82
430.259	891.9
430.635	916.98
431.011	906.13
431.387	928.96
431.763	930.54
432.138	933.93
432.514	956.53
432.89	957.43
433.265	948.17
433.641	1006.02
434.016	988.62
434.392	1009.63
434.767	1037.43
435.143	1021.61
435.518	1050.31
435.894	1079.92
436.269	1082.85
436.644	1083.53
437.02	1102.29
437.395	1076.98
437.77	1111.55
438.145	1173.47
438.52	1150.2
438.895	1180.25
439.271	1192.91
439.646	1189.29
440.021	1193.36
440.395	1227.03
440.77	1194.71
441.145	1214.37
441.52	1247.37
441.895	1251.89
442.27	1274.71
442.645	1262.96
443.019	1275.39
443.394	1279.68
443.769	1313.58
444.143	1304.09
444.518	1319.68
444.892	1306.12
445.267	1355.84
445.641	1332.56
446.016	1340.25
446.39	1322.39
446.764	1360.59
447.139	1369.17
447.513	1358.33
447.887	1395.16
448.262	1378.66
448.636	1385.22
449.01	1406.69
449.384	1405.1
449.758	1423.41
450.132	1448.49
450.506	1432.67
450.88	1448.94
451.254	1434.26
451.628	1455.5
452.002	1469.51
452.376	1463.41
452.75	1511.32
453.123	1479.68
453.497	1517.64
453.871	1517.64
454.244	1517.64
454.618	1530.98
454.992	1543.63
455.365	1587.02
455.739	1607.58
456.112	1594.93
456.486	1583.4
456.859	1640.58
457.232	1646
457.606	1635.61
457.979	1678.09
458.352	1675.83
458.725	1675.15
459.099	1729.62
459.472	1707.47
459.845	1765.32
460.218	1748.6
460.591	1776.62
460.964	1753.12
461.337	1806
461.71	1814.81
462.083	1856.84
462.456	1845.09
462.829	1842.15
463.201	1865.66
463.574	1881.48
463.947	1873.34
464.32	1915.83
464.692	1943.17
465.065	1947.24
465.438	1966.22
465.81	1952.89
466.183	1993.34
466.555	2041.7
466.928	2067.23
467.3	2049.38
467.672	2059.78
468.045	2116.05
468.417	2090.96
468.789	2138.42
469.161	2150.62
469.534	2163.28
469.906	2223.16
470.278	2205.99
470.65	2232.2
471.022	2239.88
471.394	2302.71
471.766	2308.58
472.138	2355.81
472.51	2374.8
472.882	2421.57
473.253	2416.15
473.625	2433.33
473.997	2455.02
474.369	2463.38
474.74	2512.65
475.112	2559.65
475.484	2544.28
475.855	2623.83
476.227	2592.64
476.598	2677.61
476.97	2685.3
477.341	2681.91
477.713	2748.57
478.084	2745.18
478.455	2818.4
478.827	2831.96
479.198	2878.74
479.569	2883.71
479.94	3013.88
480.311	3004.16
480.682	3029.47
481.053	3078.96
481.424	3118.51
481.795	3098.62
482.166	3131.84
482.537	3185.4
482.908	3241.89
483.279	3276.24
483.65	3322.12
484.021	3376.8
484.391	3370.02
484.762	3425.62
485.133	3440.98
485.503	3449.8
485.874	3491.15
486.244	3552.84
486.615	3614.54
486.985	3645.05
487.356	3637.36
487.726	3669.45
488.097	3736.79
488.467	3720.52
488.837	3800.97
489.207	3845.94
489.578	3888.88
489.948	3887.07
490.318	3940.86
490.688	3951.7
491.058	4000.97
491.428	4016.56
491.798	4018.82
492.168	4146.73
492.538	4095.66
492.908	4114.86
493.278	4211.13
493.648	4178.36
494.017	4268.53
494.387	4290.9
494.757	4317.12
495.126	4327.06
495.496	4316.89
495.866	4358.25
496.235	4430.79
496.605	4423.1
496.974	4428.98
497.344	4476.21
497.713	4472.59
498.082	4512.82
498.452	4523.89
498.821	4555.08
499.19	4564.57
499.559	4584.23
499.928	4590.56
500.298	4657
500.667	4652.7
501.036	4622.65
501.405	4698.58
501.774	4645.47
502.143	4649.54
502.512	4737.9
502.88	4738.58
503.249	4743.77
503.618	4788.07
503.987	4827.61
504.356	4796.65
504.724	4858.8
505.093	4826.48
505.462	4843.66
505.83	4862.64
506.199	4914.16
506.567	4942.19
506.936	4936.76
507.304	4986.48
507.672	4996.87
508.041	5020.83
508.409	5006.37
508.777	5033.94
509.145	5067.61
509.514	5079.36
509.882	5083.43
510.25	5124.33
510.618	5089.75
510.986	5090.66
511.354	5176.3
511.722	5158
512.09	5176.08
512.458	5164.33
512.826	5205.23
513.193	5197.55
513.561	5232.12
513.929	5306.92
514.297	5301.27
514.664	5295.4
515.032	5288.62
515.4	5307.15
515.767	5312.57
516.135	5328.84
516.502	5310.31
516.869	5382.17
517.237	5342.18
517.604	5339.92
517.972	5388.73
518.339	5455.17
518.706	5361.38
519.073	5453.13
519.44	5396.19
519.808	5493.81
520.175	5489.29
520.542	5528.84
520.909	5513.02
521.276	5466.47
521.643	5595.5
522.009	5542.17
522.376	5582.17
522.743	5640.25
523.11	5636.86
523.477	5645.67
523.843	5632.56
524.21	5708.95
524.577	5750.07
524.943	5743.3
525.31	5747.14
525.676	5805.44
526.043	5790.07
526.409	5767.7
526.776	5895.38
527.142	5871.43
527.508	5922.05
527.874	5957.98
528.241	5929.05
528.607	5907.13
528.973	6028.26
529.339	6000.24
529.705	6028.71
530.071	6063.06
530.437	6056.06
530.803	6042.04
531.169	6118.2
531.535	6097.41
531.901	6078.2
532.267	6092.89
532.632	6126.11
532.998	6166.34
533.364	6176.96
533.73	6164.3
534.095	6236.62
534.461	6200.01
534.826	6270.29
535.192	6316.84
535.557	6289.95
535.923	6273.68
536.288	6338.76
536.653	6311.87
537.019	6303.05
537.384	6341.92
537.749	6359.32
538.114	6369.72
538.479	6378.08
538.845	6384.86
539.21	6354.35
539.575	6383.05
539.94	6396.39
540.305	6451.98
540.67	6437.74
541.034	6427.57
541.399	6489.94
541.764	6505.99
542.129	6538.08
542.494	6490.39
542.858	6513.67
543.223	6511.41
543.587	6579.43
543.952	6519.09
544.316	6586.44
544.681	6544.4
545.045	6610.17
545.41	6629.15
545.774	6648.13
546.138	6640.67
546.503	6674.8
546.867	6673.67
547.231	6687.9
547.595	6668.92
547.959	6674.12
548.324	6649.49
548.688	6672.99
549.052	6654.91
549.416	6739.43
549.779	6760.22
550.143	6738.75
550.507	6775.13
550.871	6773.32
551.235	6807.67
551.599	6774.68
551.962	6855.13
552.326	6778.3
552.689	6854.9
553.053	6803.83
553.417	6892.87
553.78	6948.91
554.143	6870.72
554.507	6833.44
554.87	6851.29
555.234	6980.1
555.597	6931.96
555.96	6944.62
556.323	6964.05
556.686	6974.9
557.05	6986.88
557.413	7006.99
557.776	6968.12
558.139	7040.21
558.502	7101
558.865	7078.85
559.228	7081.34
559.59	7157.5
559.953	7088.34
560.316	7129.93
560.679	7143.26
561.041	7237.27
561.404	7158.17
561.767	7239.75
562.129	7232.52
562.492	7321.33
562.854	7199.53
563.217	7258.74
563.579	7305.29
563.941	7386.42
564.304	7418.05
564.666	7377.15
565.028	7467.32
565.39	7430.48
565.753	7516.36
566.115	7489.69
566.477	7517.26
566.839	7565.62
567.201	7587.77
567.563	7645.17
567.925	7659.18
568.287	7656.24
568.648	7654.88
569.01	7749.8
569.372	7720.42
569.734	7762.9
570.095	7728.1
570.457	7807.87
570.819	7827.76
571.18	7865.73
571.542	7950.47
571.903	7853.3
572.265	7965.38
572.626	7953.41
572.987	7986.85
573.349	7998.83
573.71	7961.54
574.071	8114.53
574.432	8050.13
574.794	8147.75
575.155	8155.89
575.516	8127.87
575.877	8199.73
576.238	8197.24
576.599	8249.67
576.96	8257.81
577.32	8334.87
577.681	8350.68
578.042	8472.26
578.403	8357.24
578.763	8428.2
579.124	8573.73
579.485	8533.96
579.845	8591.81
580.206	8567.4
580.566	8631.13
580.927	8654.63
581.287	8751.13
581.648	8756.1
582.008	8811.92
582.368	8814.18
582.728	8932.36
583.089	8946.6
583.449	8924.68
583.809	9070.21
584.169	9141.85
584.529	9099.82
584.889	9206.93
585.249	9221.4
585.609	9330.32
585.969	9341.62
586.329	9372.35
586.688	9480.82
587.048	9482.63
587.408	9564.66
587.768	9607.15
588.127	9669.07
588.487	9727.37
588.846	9804.66
589.206	9730.31
589.565	9946.35
589.925	10014.82
590.284	9996.52
590.643	10023.41
591.003	10189.28
591.362	10255.49
591.721	10289.62
592.08	10290.97
592.44	10326.45
592.799	10475.6
593.158	10533.23
593.517	10522.83
593.876	10582.49
594.235	10667.46
594.593	10702.71
594.952	10835.14
595.311	10803.28
595.67	10871.07
596.029	11065.42
596.387	11102.25
596.746	11138.86
597.104	11188.8
597.463	11208.69
597.822	11311.96
598.18	11268.57
598.538	11268.35
598.897	11388.34
599.255	11371.62
599.613	11495.46
599.972	11509.02
600.33	11647.77
600.688	11534.1
601.046	11645.96
601.404	11823.36
601.762	11765.51
602.12	11815.9
602.478	11875.56
602.836	11923.02
603.194	11902.91
603.552	11933.64
603.91	11958.05
604.268	12046.18
604.625	11996.46
604.983	12085.28
605.341	12042.56
605.698	12169.79
606.056	12169.12
606.413	12200.53
606.771	12318.04
607.128	12342.44
607.485	12237.36
607.843	12349.22
608.2	12444.59
608.557	12461.54
608.914	12514.64
609.272	12563.23
609.629	12665.15
609.986	12646.62
610.343	12574.98
610.7	12718.25
611.057	12684.81
611.414	12827.63
611.771	12713.28
612.127	12817.01
612.484	12802.09
612.841	12941.07
613.198	12845.93
613.554	12829.44
613.911	12997.57
614.267	12930.22
614.624	12901.98
614.98	13044.57
615.337	13133.61
615.693	13055.65
616.05	12983.33
616.406	13086.38
616.762	13089.54
617.118	13096.1
617.475	13079.83
617.831	13154.17
618.187	13223.32
618.543	13221.29
618.899	13332.02
619.255	13214.74
619.611	13337.67
619.967	13278.69
620.323	13258.8
620.678	13301.51
621.034	13316.88
621.39	13383.09
621.746	13315.98
622.101	13471.23
622.457	13416.09
622.812	13352.13
623.168	13418.12
623.523	13466.48
623.879	13431
624.234	13430.1
624.589	13485.92
624.945	13361.85
625.3	13459.93
625.655	13403.66
626.01	13507.84
626.365	13477.33
626.72	13465.35
627.075	13447.95
627.43	13564.33
627.785	13393.26
628.14	13482.07
628.495	13513.49
628.85	13489.31
629.205	13523.88
629.559	13585.8
629.914	13442.3
630.269	13414.96
630.623	13408.63
630.978	13339.71
631.332	13450.44
631.687	13458.12
632.041	13340.61
632.396	13419.03
632.75	13330.89
633.104	13442.53
633.459	13318.24
633.813	13335.41
634.167	13344.68
634.521	13304.9
634.875	13403.88
635.229	13376.31
635.583	13263.78
635.937	13323.43
636.291	13330.21
636.645	13249.31
636.999	13250.67
637.352	13316.88
637.706	13201.18
638.06	13204.34
638.413	13251.8
638.767	13236.43
639.121	13228.52
639.474	13119.6
639.828	13104.46
640.181	13231.23
640.534	13107.4
640.888	13135.42
641.241	13069.66
641.594	13132.48
641.947	13074.4
642.301	13100.16
642.654	13168.41
643.007	13164.12
643.36	13073.27
643.713	13051.58
644.066	13061.97
644.419	13038.02
644.771	13007.74
645.124	12866.05
645.477	12751.25
645.83	12711.47
646.182	12806.16
646.535	12708.99
646.888	12742.21
647.24	12613.4
647.593	12688.65
647.945	12732.49
648.298	12644.81
648.65	12633.74
649.002	12581.76
649.355	12727.74
649.707	12646.62
650.059	12737.24
650.411	12913.05
650.763	12871.92
651.115	13064.91
651.467	12961.41
651.819	12996.44
652.171	13002.77
652.523	12942.65
652.875	12939.72
653.227	12939.26
653.578	13010.22
653.93	12989.43
654.282	12964.12
654.633	12930
654.985	12939.26
655.337	12938.59
655.688	12988.53
656.039	13019.26
656.391	12856.1
656.742	12967.74
657.094	13012.93
657.445	13027.4
657.796	13042.09
658.147	12948.08
658.498	13026.04
658.849	12964.35
659.2	12937.23
659.551	13006.61
659.902	13116.43
660.253	12976.78
660.604	13110.11
660.955	13056.32
661.306	13068.98
661.656	13038.47
662.007	13045.7
662.358	13097.45
662.708	13090.9
663.059	13034.63
663.409	13023.33
663.76	13089.99
664.11	13041.41
664.461	13091.35
664.811	13143.78
665.161	13134.74
665.511	13091.12
665.862	13096.1
666.212	13131.58
666.562	13139.26
666.912	13072.82
667.262	13098.13
667.612	13067.17
667.962	13118.69
668.312	13094.51
668.662	13148.75
669.011	13123.44
669.361	13111.01
669.711	13090.22
670.06	13079.15
670.41	13028.53
670.76	13018.81
671.109	13132.03
671.459	13047.96
671.808	13019.49
672.157	13103.78
672.507	12919.6
672.856	13037.34
673.205	13001.18
673.554	12982.65
673.904	12980.62
674.253	13027.85
674.602	12987.17
674.951	12810.68
675.3	12678.93
675.649	12976.33
675.998	12966.16
676.346	12932.03
676.695	12936.1
677.044	12797.8
677.393	12935.65
677.741	12897.01
678.09	12880.96
678.438	12772.26
678.787	12810.68
679.135	12839.15
679.484	12742.21
679.832	12706.05
680.181	12652.94
680.529	12781.98
680.877	12725.26
681.225	12647.75
681.573	12743.11
681.922	12710.34
682.27	12616.79
682.618	12633.06
682.966	12620.4
683.314	12671.47
683.661	12534.08
684.009	12520.07
684.357	12539.95
684.705	12449.79
685.053	12504.7
685.4	12460.18
685.748	12480.75
686.095	12425.38
686.443	12447.75
686.79	12339.51
687.138	12319.62
687.485	12344.03
687.832	12286.4
688.18	12322.11
688.527	12183.58
688.874	12109.91
689.221	12130.02
689.568	12136.8
689.915	12018.61
690.262	12087.76
690.609	12039.63
690.956	11896.81
691.303	11976.8
691.65	11954.21
691.997	11804.15
692.344	11733.42
692.69	11807.32
693.037	11742.91
693.383	11591.96
693.73	11682.8
694.077	11564.84
694.423	11558.96
694.769	11511.73
695.116	11548.57
695.462	11484.39
695.808	11492.07
696.155	11420.43
696.501	11306.31
696.847	11363.94
697.193	11219.08
697.539	11237.39
697.885	11251.17
698.231	11115.36
698.577	11083.49
698.923	11074.91
699.269	11101.35
699.614	10968.02
699.96	10918.98
700.306	10895.7
700.651	10895.02
700.997	10853.22
701.342	10833.56
701.688	10791.75
702.033	10776.38
702.379	10735.03
702.724	10684.18
703.069	10761.47
703.415	10579.1
703.76	10564.64
704.105	10547.69
704.45	10500.01
704.795	10497.29
705.14	10410.97
705.485	10428.6
705.83	10346.79
706.175	10304.76
706.52	10329.84
706.865	10225.44
707.209	10226.57
707.554	10169.85
707.899	10238.54
708.243	10181.82
708.588	10205.78
708.932	10096.85
709.277	10116.74
709.621	10093.46
709.966	9961.04
710.31	9970.98
710.654	9919.91
710.998	9919.46
711.342	9974.37
711.687	9868.84
712.031	9872.45
712.375	9785.67
712.719	9822.51
713.063	9822.74
713.407	9851.66
713.75	9753.59
714.094	9786.8
714.438	9683.76
714.782	9668.62
715.125	9642.85
715.469	9718.33
715.812	9618.9
716.156	9509.3
716.499	9659.8
716.843	9574.16
717.186	9584.78
717.53	9532.8
717.873	9489.41
718.216	9523.99
718.559	9439.02
718.902	9425.23
719.246	9402.86
719.589	9444.89
719.932	9433.82
720.275	9396.76
720.617	9327.38
720.96	9360.83
721.303	9404.89
721.646	9344.78
721.989	9340.71
722.331	9347.72
722.674	9369.64
723.016	9330.32
723.359	9391.56
723.701	9296.42
724.044	9309.08
724.386	9245.58
724.729	9300.26
725.071	9263.2
725.413	9285.12
725.755	9272.92
726.097	9239.02
726.439	9214.39
726.782	9220.72
727.124	9228.4
727.465	9230.66
727.807	9203.77
728.149	9195.86
728.491	9232.24
728.833	9224.33
729.175	9239.47
729.516	9136.88
729.858	9182.53
730.199	9196.31
730.541	9173.26
730.882	9145.24
731.224	9161.96
731.565	9138.01
731.906	9163.32
732.248	9168.52
732.589	9112.47
732.93	9133.71
733.271	9172.13
733.612	9179.36
733.953	9186.59
734.294	9131.45
734.635	9111.57
734.976	9224.79
735.317	9097.56
735.658	9139.36
735.999	9189.31
736.339	9192.92
736.68	9145.47
737.021	9214.39
737.361	9138.69
737.702	9201.96
738.042	9155.41
738.383	9248.51
738.723	9161.96
739.063	9155.18
739.404	9199.93
739.744	9234.5
740.084	9246.71
740.424	9241.28
740.764	9193.6
741.104	9268.17
741.444	9239.7
741.784	9230.21
742.124	9270.89
742.464	9383.2
742.804	9317.89
743.143	9349.75
743.483	9359.25
743.823	9421.39
744.162	9448.28
744.502	9479.02
744.841	9542.97
745.181	9497.77
745.52	9609.18
745.86	9628.39
746.199	9580.26
746.538	9665.23
746.877	9694.6
747.216	9785.45
747.556	9784.54
747.895	9860.48
748.234	9892.56
748.573	9964.43
748.911	9982.51
749.25	10070.87
749.589	10140.02
749.928	10161.03
750.267	10289.62
750.605	10297.98
750.944	10283.74
751.283	10491.19
751.621	10524.64
751.96	10563.06
752.298	10678.76
752.636	10821.35
752.975	10819.32
753.313	10954.46
753.651	11145.87
753.989	11157.84
754.327	11203.72
754.666	11376.14
755.004	11475.12
755.342	11564.61
755.679	11808.67
756.017	11857.94
756.355	11960.53
756.693	12042.56
757.031	12236.91
757.368	12252.95
757.706	12378.15
758.044	12493.17
758.381	12716.9
758.719	12687.75
759.056	12953.28
759.394	13017.23
759.731	13178.58
760.068	13332.02
760.405	13516.2
760.743	13670.32
761.08	13799.58
761.417	13819.92
761.754	14061.04
762.091	14287.48
762.428	14303.97
762.765	14391.43
763.102	14649.73
763.438	14686.79
763.775	14836.84
764.112	15024.18
764.449	15139.43
764.785	15249.03
765.122	15363.61
765.458	15431.18
765.795	15554.34
766.131	15752.07
766.467	15855.12
766.804	15921.33
767.14	16000.2
767.476	16137.6
767.812	16235.22
768.148	16359.97
768.485	16312.73
768.821	16448.1
769.157	16572.16
769.492	16769.22
769.828	16743.23
770.164	16782.1
770.5	16811.7
770.836	17001.76
771.171	16927.41
771.507	17001.08
771.842	17108.19
772.178	17092.15
772.513	17215.99
772.849	17335.98
773.184	17209.43
773.519	17427.28
773.855	17401.29
774.19	17367.85
774.525	17455.53
774.86	17565.36
775.195	17560.16
775.53	17631.34
775.865	17588.63
776.2	17650.33
776.535	17522.19
776.87	17616.43
777.205	17517
777.539	17622.53
777.874	17724
778.209	17531.91
778.543	17650.55
778.878	17581.63
779.212	17593.15
779.547	17559.71
779.881	17684.45
780.215	17649.87
780.55	17655.52
780.884	17625.24
781.218	17665.47
781.552	17721.96
781.886	17602.64
782.22	17569.43
782.554	17540.27
782.888	17516.55
783.222	17517.67
783.556	17444.91
783.889	17561.97
784.223	17378.92
784.557	17360.62
784.89	17376.44
785.224	17375.53
785.557	17308.64
785.891	17247.17
786.224	17270.68
786.558	17304.35
786.891	17176.22
787.224	17160.17
787.557	17096.9
787.891	17158.59
788.224	17226.38
788.557	17171.92
788.89	17127.4
789.223	17146.39
789.556	16983
789.888	17003.56
790.221	16912.49
790.554	16758.37
790.887	16808.77
791.219	16779.62
791.552	16829.56
791.884	16711.37
792.217	16678.83
792.549	16607.87
792.882	16559.73
793.214	16522.22
793.546	16634.76
793.879	16391.38
794.211	16389.8
794.543	16465.05
794.875	16392.05
795.207	16416.46
795.539	16282.91
795.871	16272.74
796.203	16214.88
796.535	16177.37
796.867	16072.06
797.198	16118.16
797.53	16140.54
797.862	15993.42
798.193	16067.54
798.525	15971.27
798.856	15989.13
799.188	15808.79
799.519	15762.01
799.85	15690.83
800.182	15741.45
800.513	15697.61
800.844	15641.11
801.175	15736.93
801.506	15747.55
801.837	15592.75
802.168	15553.43
802.499	15518.86
802.83	15414.91
803.161	15416.71
803.491	15396.37
803.822	15425.98
804.153	15293.33
804.483	15146.44
804.814	15107.79
805.145	15157.29
805.475	15114.35
805.805	15127.23
806.136	15123.16
806.466	15040.9
806.796	15092.2
807.126	14997.74
807.457	14902.83
807.787	14828.03
808.117	14902.38
808.447	14769.5
808.777	14846.56
809.107	14771.76
809.436	14739.22
809.766	14703.06
810.096	14692.89
810.426	14585.77
810.755	14601.37
811.085	14613.8
811.414	14514.59
811.744	14376.29
812.073	14398.43
812.403	14353.69
812.732	14421.03
813.061	14366.8
813.39	14287.48
813.719	14272.11
814.049	14317.76
814.378	14209.74
814.707	14274.82
815.036	14301.04
815.365	14081.16
815.693	14049.52
816.022	14077.54
816.351	13946.02
816.68	13918.45
817.008	13986.02
817.337	13835.96
817.665	13903.31
817.994	13847.04
818.322	13852.91
818.651	13753.71
818.979	13748.51
819.307	13853.59
819.636	13723.65
819.964	13752.58
820.292	13706.93
820.62	13666.93
820.948	13597.78
821.276	13743.31
821.604	13654.05
821.932	13712.35
822.259	13692.01
822.587	13660.6
822.915	13616.31
823.243	13679.58
823.57	13586.25
823.898	13590.77
824.225	13610.43
824.553	13630.77
824.88	13688.17
825.207	13613.6
825.535	13615.4
825.862	13613.82
826.189	13600.26
826.516	13656.99
826.843	13614.05
827.17	13638.23
827.497	13660.6
827.824	13625.35
828.151	13773.14
828.478	13663.31
828.805	13750.99
829.131	13611.34
829.458	13603.65
829.785	13612.24
830.111	13633.94
830.438	13628.96
830.764	13637.55
831.09	13606.82
831.417	13634.61
831.743	13580.15
832.069	13623.09
832.395	13567.27
832.722	13590.77
833.048	13515.07
833.374	13597.33
833.7	13561.39
834.026	13534.05
834.351	13583.54
834.677	13582.64
835.003	13581.73
835.329	13523.66
835.654	13459.7
835.98	13440.27
836.306	13478.69
836.631	13297.45
836.956	13494.96
837.282	13400.95
837.607	13408.63
837.932	13251.35
838.258	13387.39
838.583	13344.68
838.908	13260.39
839.233	13355.75
839.558	13281.18
839.883	13196.43
840.208	13190.33
840.533	13183.78
840.858	13160.95
841.182	13183.1
841.507	13146.72
841.832	13019.04
842.156	13121.86
842.481	13079.37
842.805	13062.88
843.13	13000.96
843.454	12911.69
843.778	12873.05
844.103	12825.14
844.427	12877.12
844.751	12907.85
845.075	12803.45
845.399	12765.48
845.723	12668.54
846.047	12701.3
846.371	12607.3
846.695	12660.85
847.019	12509.45
847.343	12443.68
847.666	12406.4
847.99	12325.04
848.313	12408.88
848.637	12218.61
848.96	12184.26
849.284	12248.66
849.607	12130.92
849.931	12024.26
850.254	12002.34
850.577	11896.81
850.9	11849.35
851.223	11863.36
851.546	11772.74
851.869	11691.61
852.192	11770.71
852.515	11640.09
852.838	11675.12
853.161	11606.64
853.483	11622.01
853.806	11561.9
854.129	11522.35
854.451	11492.75
854.774	11385.18
855.096	11447.55
855.419	11396.48
855.741	11354.67
856.063	11241.23
856.385	11265.18
856.708	11237.84
857.03	11187.22
857.352	11207.56
857.674	11171.4
857.996	10993.33
858.318	10976.83
858.64	11041.91
858.961	10966.21
859.283	10901.13
859.605	10952.88
859.926	10829.94
860.248	10916.94
860.57	10869.04
860.891	10827.68
861.212	10770.28
861.534	10659.78
861.855	10691.41
862.176	10674.92
862.498	10764.18
862.819	10698.42
863.14	10699.78
863.461	10664.07
863.782	10629.72
864.103	10617.52
864.424	10497.75
864.745	10615.94
865.065	10508.37
865.386	10444.41
865.707	10451.19
866.027	10515.15
866.348	10536.62
866.668	10459.56
866.989	10431.31
867.309	10390.86
867.63	10369.39
867.95	10363.74
868.27	10259.56
868.59	10413.91
868.91	10300.69
869.23	10272.44
869.55	10291.88
869.87	10297.07
870.19	10247.58
870.51	10137.98
870.83	10234.93
871.15	10066.8
871.469	10147.7
871.789	10231.54
872.109	10172.78
872.428	10121.03
872.748	10148.38
873.067	10160.81
873.386	10126.91
873.706	10109.06
874.025	9981.15
874.344	9960.81
874.663	9989.74
874.982	10023.63
875.301	9975.27
875.62	9947.7
875.939	9894.37
876.258	9979.79
876.577	9908.61
876.896	9899.57
877.214	9822.74
877.533	9881.27
877.852	9855.96
878.17	9896.86
878.489	9822.06
878.807	9794.04
879.125	9831.1
879.444	9762.62
879.762	9738.22
880.08	9813.02
880.398	9696.64
880.716	9755.85
881.034	9695.06
881.352	9704.1
881.67	9646.92
881.988	9565.57
882.306	9592.69
882.624	9496.42
882.941	9500.03
883.259	9476.98
883.577	9438.34
883.894	9452.8
884.212	9488.51
884.529	9415.29
884.846	9411.22
885.164	9429.07
885.481	9396.53
885.798	9416.42
886.115	9294.16
886.432	9383.65
886.75	9380.04
887.067	9288.51
887.383	9217.55
887.7	9226.59
888.017	9256.42
888.334	9260.26
888.651	9174.17
888.967	9171.23
889.284	9099.82
889.6	9100.5
889.917	9032.25
890.233	9031.8
890.55	8962.87
890.866	8963.78
891.182	8980.95
891.498	8851.91
891.815	8910.67
892.131	8860.73
892.447	8908.18
892.763	8819.6
893.079	8774.85
893.395	8790.22
893.71	8811.92
894.026	8760.39
894.342	8678.59
894.657	8654.63
894.973	8587.06
895.289	8666.38
895.604	8545.93
895.92	8514.52
896.235	8420.29
896.55	8486.73
896.865	8469.33
897.181	8437.69
897.496	8432.26
897.811	8386.16
898.126	8388.42
898.441	8317.92
898.756	8329.67
899.071	8234.08
899.386	8279.5
899.7	8192.72
900.015	8124.25
900.33	8124.7
900.644	8047.42
900.959	8059.17
901.273	8066.85
901.588	8001.77
901.902	7979.85
902.216	7948.89
902.531	7986.17
902.845	7934.65
903.159	7804.48
903.473	7801.09
903.787	7828.66
904.101	7748.89
904.415	7706.41
904.729	7737.82
905.042	7665.5
905.356	7684.04
905.67	7655.56
905.984	7637.26
906.297	7637.48
906.611	7571.5
906.924	7562
907.237	7489.92
907.551	7436.58
907.864	7401.56
908.177	7411.05
908.491	7443.59
908.804	7303.25
909.117	7326.53
909.43	7248.57
909.743	7261.9
910.056	7193.88
910.368	7173.09
910.681	7239.08
910.994	7143.03
911.307	7021.68
911.619	7054
911.932	7117.95
912.244	6993.21
912.557	7030.04
912.869	6950.72
913.181	6940.1
913.494	6882.25
913.806	6867.56
914.118	6807.9
914.43	6748.69
914.742	6777.84
915.054	6758.18
915.366	6797.5
915.678	6752.31
915.99	6716.83
916.302	6615.36
916.613	6607.23
916.925	6565.65
917.236	6588.02
917.548	6551.18
917.859	6509.6
918.171	6497.63
918.482	6451.75
918.794	6449.49
919.105	6391.87
919.416	6361.58
919.727	6361.13
920.038	6327.01
920.349	6304.64
920.66	6229.16
920.971	6304.41
921.282	6258.31
921.593	6194.13
921.903	6196.62
922.214	6136.05
922.525	6110.52
922.835	6083.85
923.146	6049.28
923.456	6082.72
923.767	6033.23
924.077	6022.38
924.387	6018.09
924.697	5948.04
925.008	5937.19
925.318	5944.87
925.628	5901.48
925.938	5921.37
926.248	5827.59
926.558	5843.86
926.867	5801.37
927.177	5764.09
927.487	5758.66
927.796	5704.88
928.106	5675.27
928.416	5673.92
928.725	5668.04
929.034	5598.44
929.344	5588.72
929.653	5595.28
929.962	5578.78
930.271	5527.03
930.581	5541.27
930.89	5473.7
931.199	5452.23
931.508	5426.69
931.817	5439.35
932.125	5370.42
932.434	5410.2
932.743	5355.96
933.051	5296.08
933.36	5302.85
933.669	5273.48
933.977	5234.16
934.286	5226.92
934.594	5185.34
934.902	5172.24
935.21	5130.66
935.519	5179.92
935.827	5141.28
936.135	5116.19
936.443	5058.12
936.751	5106.25
937.059	5067.83
937.367	5022.64
937.674	4983.77
937.982	4985.12
938.29	4967.5
938.597	4956.42
938.905	4929.76
939.213	4911.9
939.52	4888.85
939.827	4860.38
940.135	4850.44
940.442	4822.87
940.749	4776.54
941.056	4838.01
941.363	4725.02
941.67	4750.33
941.977	4734.96
942.284	4725.02
942.591	4688.18
942.898	4626.04
943.205	4644.79
943.511	4612.25
943.818	4607.96
944.125	4534.51
944.431	4555.53
944.738	4532.03
945.044	4496.32
945.35	4519.6
945.657	4462.2
945.963	4457.91
946.269	4402.99
946.575	4415.19
946.881	4399.6
947.187	4333.16
947.493	4349.21
947.799	4313.95
948.105	4316.67
948.41	4271.24
948.716	4283.45
949.022	4284.35
949.327	4249.32
949.633	4225.6
949.938	4205.93
950.244	4221.08
950.549	4162.32
950.854	4165.48
951.16	4105.6
951.465	4120.74
951.77	4109.67
952.075	4097.01
952.38	4080.74
952.685	4076.45
952.99	4012.72
953.294	4030.35
953.599	3993.74
953.904	3955.55
954.209	3958.48
954.513	3980.86
954.818	3932.04
955.122	3920.74
955.426	3903.57
955.731	3877.81
956.035	3851.59
956.339	3890.24
956.643	3832.16
956.948	3822.67
957.252	3823.8
957.556	3764.82
957.86	3753.97
958.163	3727.98
958.467	3730.92
958.771	3727.08
959.075	3708.32
959.378	3674.42
959.682	3702.45
959.985	3655.89
960.289	3653.86
960.592	3646.85
960.896	3572.05
961.199	3631.49
961.502	3603.24
961.805	3584.48
962.108	3569.34
962.411	3511.94
962.714	3510.13
963.017	3495.9
963.32	3539.51
963.623	3492.51
963.926	3456.35
964.228	3468.55
964.531	3449.57
964.833	3399.85
965.136	3375
965.438	3363.92
965.741	3367.54
966.043	3375.9
966.345	3349.01
966.648	3345.62
966.95	3339.06
967.252	3312.62
967.554	3308.33
967.856	3261.33
968.158	3265.39
968.46	3258.16
968.761	3279.41
969.063	3262.91
969.365	3191.72
969.666	3223.81
969.968	3184.72
970.269	3156.7
970.571	3142.91
970.872	3132.74
971.174	3106.53
971.475	3102.46
971.776	3060.43
972.077	3081.44
972.378	3077.83
972.679	3047.77
972.98	3050.48
973.281	3059.75
973.582	3007.32
973.883	2999.19
974.183	2972.07
974.484	2944.72
974.785	2935.01
975.085	2950.15
975.386	2956.02
975.686	2954.44
975.986	2896.82
976.287	2860.66
976.587	2847.1
976.887	2889.36
977.187	2877.38
977.487	2849.81
977.787	2852.07
978.087	2841
978.387	2788.34
978.687	2831.96
978.987	2767.33
979.286	2757.16
979.586	2746.99
979.885	2759.42
980.185	2757.39
980.484	2660.21
980.784	2715.58
981.083	2720.32
981.382	2689.82
981.682	2682.81
981.981	2641
982.28	2634.68
982.579	2595.81
982.878	2635.58
983.177	2593.32
983.475	2624.96
983.774	2598.52
984.073	2575.02
984.372	2569.82
984.67	2556.71
984.969	2545.64
985.267	2520.56
985.566	2517.62
985.864	2483.72
986.162	2470.16
986.461	2471.29
986.759	2487.11
987.057	2469.71
987.355	2431.29
987.653	2443.5
987.951	2430.61
988.249	2454.12
988.547	2438.75
988.844	2433.1
989.142	2390.84
989.44	2383.84
989.737	2360.56
990.035	2367.79
990.332	2331.86
990.63	2336.61
990.927	2321.46
991.224	2307.23
991.521	2319.66
991.819	2264.52
992.116	2289.15
992.413	2264.97
992.71	2224.97
993.006	2226.78
993.303	2196.5
993.6	2246.89
993.897	2197.85
994.193	2220.45
994.49	2209.15
994.787	2137.74
995.083	2152.2
995.379	2156.27
995.676	2165.54
995.972	2192.88
996.268	2130.96
996.565	2130.73
996.861	2120.79
997.157	2124.41
997.453	2105.65
997.749	2106.1
998.044	2095.26
998.34	2060.23
998.636	2056.61
998.932	2010.06
999.227	2041.92
999.523	2057.06
999.818	1998.99
1000.114	2008.48
1000.409	1978.87
1000.704	1973
1001	1978.2
1001.295	1966.22
1001.59	1923.73
1001.885	1924.64
1002.18	1936.16
1002.475	1897.97
1002.77	1899.33
1003.065	1855.04
1003.359	1876.05
1003.654	1852.55
1003.949	1848.48
1004.243	1879.22
1004.538	1840.35
1004.832	1857.07
1005.127	1797.86
1005.421	1818.65
1005.715	1792.89
1006.009	1779.11
1006.304	1791.99
1006.598	1752.89
1006.892	1756.96
1007.186	1733.68
1007.48	1763.74
1007.773	1727.13
1008.067	1719.45
1008.361	1698.88
1008.655	1683.52
1008.948	1710.86
1009.242	1713.12
1009.535	1681.71
1009.829	1698.43
1010.122	1665.44
1010.415	1660.92
1010.708	1645.78
1011.001	1624.99
1011.295	1616.4
1011.588	1596.06
1011.881	1585.21
1012.173	1599.68
1012.466	1601.26
1012.759	1549.06
1013.052	1561.03
1013.344	1556.29
1013.637	1521.49
1013.93	1530.52
1014.222	1506.12
1014.514	1517.64
1014.807	1528.94
1015.099	1485.1
1015.391	1478.1
1015.683	1473.8
1015.976	1482.62
1016.268	1461.6
1016.56	1438.55
1016.851	1446.01
1017.143	1433.58
1017.435	1445.33
1017.727	1406.46
1018.018	1418.89
1018.31	1424.31
1018.602	1406.69
1018.893	1413.24
1019.185	1369.17
1019.476	1385.22
1019.767	1356.74
1020.058	1372.79
1020.35	1328.72
1020.641	1308.16
1020.932	1323.3
1021.223	1340.47
1021.514	1303.41
1021.804	1326.46
1022.095	1294.6
1022.386	1277.2
1022.677	1272.23
1022.967	1276.52
1023.258	1258.89
1023.548	1243.98
1023.839	1273.81
1024.129	1241.04
1024.419	1225.22
1024.709	1222.96
1025	1215.73
1025.29	1224.32
1025.58	1181.61
1025.87	1192.68
1026.16	1162.17
1026.449	1184.77
1026.739	1170.76
1027.029	1147.48
1027.319	1156.07
1027.608	1156.3
1027.898	1132.12
1028.187	1111.55
1028.477	1140.7
1028.766	1138.22
1029.055	1117.43
1029.344	1108.84
1029.634	1080.59
1029.923	1109.97
1030.212	1076.75
1030.501	1088.28
1030.79	1047.6
1031.078	1063.42
1031.367	1070.88
1031.656	1082.17
1031.945	1032.23
1032.233	1032.46
1032.522	1025.45
1032.81	1022.52
1033.099	1046.7
1033.387	1025.91
1033.675	988.39
1033.963	982.74
1034.251	967.83
1034.54	989.3
1034.828	985.68
1035.116	995.17
1035.403	966.02
1035.691	954.49
1035.979	966.7
1036.267	929.18
1036.554	936.19
1036.842	953.82
1037.129	945.68
1037.417	911.56
1037.704	927.83
1037.992	900.71
1038.279	919.02
1038.566	899.58
1038.853	899.58
1039.14	899.58
