Data from hue_34_FLMS001491_00047.txt Node
Date: Tue Feb 07 17:25:41 GMT 2017
User: dcchb
Spectrometer: FLMS00149
Trigger mode: 0
Integration Time (sec): 2.000000E-2
Scans to average: 10
Electric dark correction enabled: true
Nonlinearity correction enabled: false
Boxcar width: 0
XAxis mode: Wavelengths
Number of Pixels in Spectrum: 2048
>>>>>Begin Spectral Data<<<<<
341.393	-7.51
341.776	-7.51
342.16	-7.51
342.543	-74.18
342.927	-65.59
343.31	-83.9
343.693	-66.95
344.077	-65.37
344.46	-60.85
344.843	-44.8
345.226	-26.95
345.61	-37.8
345.993	-4.35
346.376	-1.64
346.759	-15.65
347.142	31.58
347.525	53.95
347.908	53.5
348.291	88.3
348.674	74.07
349.057	106.83
349.44	121.52
349.823	137.79
350.206	167.85
350.588	220.28
350.971	193.61
351.354	215.53
351.737	255.3
352.119	255.3
352.502	272.7
352.884	267.06
353.267	291.46
353.65	289.65
354.032	295.98
354.414	333.27
354.797	313.61
355.179	328.52
355.562	296.21
355.944	335.75
356.326	334.4
356.709	335.08
357.091	330.56
357.473	357.9
357.855	346.38
358.238	345.7
358.62	348.86
359.002	371.23
359.384	346.83
359.766	349.99
360.148	327.84
360.53	350.89
360.912	342.76
361.294	337.56
361.676	330.78
362.057	326.94
362.439	341.18
362.821	327.84
363.203	360.16
363.584	328.52
363.966	328.07
364.348	322.19
364.729	309.54
365.111	315.87
365.493	306.6
365.874	321.74
366.256	309.09
366.637	316.55
367.019	305.92
367.4	311.35
367.781	303.44
368.163	331.01
368.544	327.62
368.925	347.5
369.306	306.38
369.688	343.66
370.069	326.94
370.45	319.48
370.831	337.11
371.212	324.23
371.593	312.03
371.974	324.45
372.355	324.68
372.736	329.43
373.117	316.77
373.498	346.15
373.879	320.16
374.26	332.14
374.641	310.9
375.021	327.17
375.402	307.28
375.783	321.74
376.163	322.65
376.544	326.94
376.925	315.42
377.305	310.22
377.686	345.47
378.066	327.39
378.447	348.63
378.827	328.07
379.208	322.42
379.588	324.91
379.968	327.39
380.349	357
380.729	356.54
381.109	341.86
381.489	369.2
381.87	345.92
382.25	340.95
382.63	342.99
383.01	371.91
383.39	363.55
383.77	366.49
384.15	332.59
384.53	349.31
384.91	362.65
385.29	342.53
385.67	346.38
386.049	362.87
386.429	354.96
386.809	356.54
387.189	364
387.568	379.14
387.948	355.41
388.328	369.43
388.707	365.36
389.087	368.3
389.466	361.97
389.846	369.2
390.225	383.89
390.605	372.82
390.984	384.11
391.363	387.5
391.743	394.06
392.122	383.21
392.501	371.01
392.881	370.33
393.26	387.5
393.639	383.66
394.018	375.3
394.397	373.04
394.776	392.02
395.155	377.11
395.534	369.43
395.913	376.2
396.292	368.07
396.671	385.02
397.05	406.94
397.429	407.84
397.808	384.79
398.186	395.19
398.565	399.71
398.944	408.07
399.323	407.62
399.701	415.3
400.08	404.9
400.458	425.7
400.837	397.45
401.215	421.85
401.594	397.9
401.972	437.9
402.351	421.18
402.729	411.23
403.107	402.87
403.486	422.53
403.864	406.71
404.242	427.95
404.62	422.98
404.999	405.13
405.377	439.71
405.755	427.05
406.133	406.94
406.511	440.16
406.889	440.16
407.267	434.96
407.645	438.58
408.023	451.68
408.401	438.8
408.779	422.98
409.156	459.37
409.534	433.15
409.912	448.52
410.29	462.08
410.667	467.05
411.045	460.27
411.422	448.97
411.8	448.75
412.178	471.8
412.555	468.86
412.933	469.08
413.31	481.06
413.687	481.74
414.065	487.61
414.442	481.74
414.819	499.82
415.197	490.33
415.574	509.76
415.951	500.95
416.328	508.18
416.705	514.05
417.082	519.48
417.46	534.62
417.837	535.3
418.214	532.58
418.591	514.73
418.967	531
419.344	540.49
419.721	547.73
420.098	515.41
420.475	530.78
420.852	539.59
421.228	558.12
421.605	538.46
421.982	558.8
422.358	564.45
422.735	559.7
423.111	543.66
423.488	551.79
423.864	590.21
424.241	592.24
424.617	566.03
424.994	556.09
425.37	590.21
425.746	550.66
426.123	596.54
426.499	585.69
426.875	597.44
427.251	599.48
427.627	606.26
428.003	615.97
428.379	632.92
428.756	612.13
429.132	610.55
429.507	632.92
429.883	629.98
430.259	633.83
430.635	640.38
431.011	620.94
431.387	651
431.763	678.34
432.138	640.15
432.514	664.56
432.89	661.85
433.265	698.46
433.641	686.71
434.016	690.55
434.392	706.14
434.767	689.19
435.143	696.65
435.518	728.74
435.894	733.26
436.269	719.92
436.644	699.59
437.02	755.63
437.395	740.26
437.77	761.51
438.145	755.86
438.52	769.87
438.895	755.86
439.271	761.51
439.646	789.98
440.021	757.89
440.395	798.79
440.77	783.65
441.145	811.9
441.52	779.58
441.895	829.3
442.27	792.01
442.645	787.27
443.019	815.06
443.394	801.5
443.769	822.07
444.143	820.94
444.518	832.24
444.892	829.98
445.267	874.72
445.641	819.81
446.016	838.79
446.39	850.77
446.764	865.68
447.139	858.9
447.513	873.82
447.887	866.14
448.262	881.5
448.636	859.36
449.01	880.82
449.384	878.79
449.758	918.11
450.132	898.9
450.506	911.56
450.88	911.56
451.254	914.95
451.628	924.21
452.002	929.18
452.376	928.28
452.75	934.16
453.123	939.35
453.497	978.45
453.871	994.04
454.244	972.35
454.618	982.06
454.992	1002.63
455.365	1012.57
455.739	1023.65
456.112	1048.96
456.486	1021.39
456.859	1040.37
457.232	1076.3
457.606	1043.08
457.979	1084.66
458.352	1108.16
458.725	1108.84
459.099	1102.97
459.472	1129.18
459.845	1141.16
460.218	1161.49
460.591	1167.6
460.964	1152
461.337	1200.59
461.71	1203.08
462.083	1201.04
462.456	1232.91
462.829	1217.09
463.201	1256.86
463.574	1251.89
463.947	1251.89
464.32	1281.04
464.692	1310.87
465.065	1310.19
465.438	1349.74
465.81	1342.28
466.183	1346.8
466.555	1404.43
466.928	1405.78
467.3	1416.63
467.672	1405.33
468.045	1486.23
468.417	1467.7
468.789	1494.59
469.161	1505.89
469.534	1537.76
469.906	1561.71
470.278	1600.58
470.65	1594.25
471.022	1662.27
471.394	1691.88
471.766	1681.71
472.138	1718.32
472.51	1744.76
472.882	1793.57
473.253	1796.96
473.625	1858.88
473.997	1852.32
474.369	1895.49
474.74	1915.37
475.112	1961.25
475.484	2034.01
475.855	2034.24
476.227	2064.97
476.598	2122.83
476.97	2167.34
477.341	2193.56
477.713	2276.49
478.084	2305.65
478.455	2358.53
478.827	2413.44
479.198	2468.81
479.569	2489.82
479.94	2562.81
480.311	2646.2
480.682	2677.39
481.053	2786.08
481.424	2870.38
481.795	2901.34
482.166	2971.16
482.537	3008.68
482.908	3090.94
483.279	3133.42
483.65	3251.16
484.021	3336.35
484.391	3412.96
484.762	3449.57
485.133	3572.5
485.503	3625.38
485.874	3683.01
486.244	3781.99
486.615	3870.12
486.985	3927.52
487.356	4021.53
487.726	4127.07
488.097	4259.04
488.467	4258.59
488.837	4405.25
489.207	4490.67
489.578	4584.23
489.948	4628.3
490.318	4729.54
490.688	4809.31
491.058	4929.76
491.428	4960.72
491.798	5038.23
492.168	5219.24
492.538	5276.41
492.908	5367.94
493.278	5445.45
493.648	5494.49
494.017	5659.68
494.387	5680.92
494.757	5748.72
495.126	5913.46
495.496	6017.41
495.866	6029.39
496.235	6052.89
496.605	6214.24
496.974	6313.22
497.344	6398.19
497.713	6420.34
498.082	6470.96
498.452	6630.5
498.821	6685.87
499.19	6713.44
499.559	6847
499.928	6892.19
500.298	6920.67
500.667	7029.59
501.036	7042.7
501.405	7162.47
501.774	7166.99
502.143	7274.1
502.512	7357.49
502.88	7403.82
503.249	7439.97
503.618	7493.76
503.987	7583.47
504.356	7637.03
504.724	7723.81
505.093	7740.3
505.462	7832.96
505.83	7835.22
506.199	7928.32
506.567	8059.39
506.936	8092.16
507.304	8182.55
507.672	8220.74
508.041	8249.44
508.409	8325.83
508.777	8448.99
509.145	8490.12
509.514	8442.66
509.882	8508.65
510.25	8611.24
510.618	8651.24
510.986	8694.86
511.354	8815.08
511.722	8888.52
512.09	8942.31
512.458	8919.48
512.826	9022.98
513.193	9062.3
513.561	9101.85
513.929	9133.94
514.297	9287.83
514.664	9347.04
515.032	9284.45
515.4	9400.6
515.767	9431.56
516.135	9552.23
516.502	9457.32
516.869	9629.52
517.237	9677.66
517.604	9687.6
517.972	9764.66
518.339	9851.89
518.706	9841.72
519.073	9937.76
519.44	9922.85
519.808	9982.96
520.175	10015.27
520.542	10107.7
520.909	10218.66
521.276	10173.91
521.643	10324.87
522.009	10365.09
522.376	10364.42
522.743	10471.31
523.11	10576.84
523.477	10626.78
523.843	10709.72
524.21	10827.91
524.577	10803.05
524.943	10876.95
525.31	11037.62
525.676	11031.29
526.043	11139.09
526.409	11118.97
526.776	11244.85
527.142	11300.89
527.508	11390.83
527.874	11476.03
528.241	11473.31
528.607	11520.09
528.973	11624.72
529.339	11609.13
529.705	11833.08
530.071	11836.47
530.437	11880.54
530.803	11948.56
531.169	12034.2
531.535	11946.52
531.901	12091.6
532.267	12059.97
532.632	12163.24
532.998	12196.68
533.364	12322.78
533.73	12427.19
534.095	12513.96
534.461	12513.06
534.826	12548.99
535.192	12620.18
535.557	12704.47
535.923	12701.3
536.288	12704.47
536.653	12744.92
537.019	12860.17
537.384	12945.82
537.749	12995.08
538.114	12967.51
538.479	13043.89
538.845	13090.45
539.21	13104.01
539.575	13197.79
539.94	13170.9
540.305	13289.09
540.67	13342.19
541.034	13418.57
541.399	13443.88
541.764	13525.92
542.129	13569.76
542.494	13553.03
542.858	13671.22
543.223	13648.85
543.587	13725.46
543.952	13749.64
544.316	13805
544.681	13845.68
545.045	13939.69
545.41	13998.22
545.774	14109.63
546.138	14069.4
546.503	14099.46
546.867	14080.03
547.231	14261.72
547.595	14269.17
547.959	14340.36
548.324	14329.74
548.688	14430.52
549.052	14473.69
549.416	14539
549.779	14546.23
550.143	14555.72
550.507	14738.77
550.871	14664.64
551.235	14682.95
551.599	14815.15
551.962	14905.54
552.326	14896.95
552.689	14914.35
553.053	15014.01
553.417	15028.93
553.78	15152.09
554.143	15089.72
554.507	15227.11
554.87	15178.08
555.234	15369.26
555.597	15322.25
555.96	15382.14
556.323	15415.36
556.686	15454.45
557.05	15637.95
557.413	15602.25
557.776	15650.15
558.139	15769.25
558.502	15704.84
558.865	15733.32
559.228	15913.88
559.59	15952.97
559.953	15910.03
560.316	16197.71
560.679	16213.53
561.041	16257.6
561.404	16221.89
561.767	16344.82
562.129	16273.64
562.492	16504.59
562.854	16491.49
563.217	16508.21
563.579	16559.28
563.941	16688.54
564.304	16681.54
564.666	16790.69
565.028	16879.95
565.39	16940.74
565.753	17021.42
566.115	17025.71
566.477	17111.81
566.839	17241.98
567.201	17259.6
567.563	17264.57
567.925	17383.89
568.287	17426.38
568.648	17476.77
569.01	17599.93
569.372	17639.93
569.734	17593.83
570.095	17847.84
570.457	17718.12
570.819	17898.46
571.18	17826.82
571.542	18020.26
571.903	18111.11
572.265	18163.31
572.626	18269.75
572.987	18235.17
573.349	18302.97
573.71	18465.22
574.071	18636.97
574.432	18664.99
574.794	18826.57
575.155	18830.86
575.516	18831.99
575.877	19085.09
576.238	19182.26
576.599	19248.48
576.96	19351.75
577.32	19371.86
577.681	19577.28
578.042	19783.15
578.403	19785.64
578.763	19881.45
579.124	20090.94
579.485	20257.26
579.845	20366.64
580.206	20457.03
580.566	20557.14
580.927	20725.95
581.287	20935.89
581.648	20972.27
582.008	21266.28
582.368	21442.54
582.728	21567.96
583.089	21680.28
583.449	21885.7
583.809	22064.9
584.169	22310.54
584.529	22457.43
584.889	22694.94
585.249	22870.53
585.609	23045.44
585.969	23336.51
586.329	23446.78
586.688	23716.83
587.048	23935.59
587.408	24092.64
587.768	24408.57
588.127	24571.5
588.487	24702.34
588.846	25185.72
589.206	25198.6
589.565	25482.44
589.925	25840.85
590.284	26053.04
590.643	26199.93
591.003	26598.11
591.362	26730.77
591.721	26974.38
592.08	27076.52
592.44	27606
592.799	27702.27
593.158	27850.06
593.517	28099.09
593.876	28392.64
594.235	28641.45
594.593	28881.67
594.952	29245.95
595.311	29340.64
595.67	29650.46
596.029	30076.89
596.387	30301.07
596.746	30543.1
597.104	30595.98
597.463	30813.14
597.822	31127.03
598.18	31235.05
598.538	31550.98
598.897	31921.14
599.255	31882.27
599.613	32471.63
599.972	32536.72
600.33	32795.69
600.688	32942.58
601.046	33067.77
601.404	33448.56
601.762	33528.33
602.12	33972.38
602.478	34077.47
602.836	34361.53
603.194	34472.26
603.552	34625.47
603.91	34726.49
604.268	35035.86
604.625	35125.8
604.983	35446.02
605.341	35530.76
605.698	35841.71
606.056	35851.2
606.413	36076.51
606.771	36328.48
607.128	36506.1
607.485	36435.14
607.843	36685.53
608.2	37050.72
608.557	37232.86
608.914	37222.02
609.272	37609.12
609.629	37678.5
609.986	37988.78
610.343	37817.93
610.7	38311.48
611.057	38237.13
611.414	38537.91
611.771	38681.64
612.127	38901.97
612.484	39052.48
612.841	39188.52
613.198	39178.57
613.554	39301.06
613.911	39587.83
614.267	39666.02
614.624	39782.4
614.98	39918.44
615.337	40244.99
615.693	40109.17
616.05	40283.18
616.406	40581.93
616.762	40485.21
617.118	40570.85
617.475	40604.98
617.831	40906.21
618.187	40878.87
618.543	41054.01
618.899	41305.75
619.255	41350.27
619.611	41260.78
619.967	41488.12
620.323	41661.9
620.678	41631.62
621.034	41426.2
621.39	41658.06
621.746	41677.72
622.101	42194.77
622.457	41857.83
622.812	42005.84
623.168	42119.97
623.523	42104.15
623.879	42322.45
624.234	42039.29
624.589	42279.06
624.945	42444.25
625.3	42523.12
625.655	42503.91
626.01	42547.3
626.365	42578.03
626.72	42569.67
627.075	42665.49
627.43	42561.31
627.785	42732.61
628.14	42695.09
628.495	42832.04
628.85	42863.45
629.205	42672.95
629.559	42848.99
629.914	42812.15
630.269	42901.41
630.623	42720.18
630.978	42887.18
631.332	42998.13
631.687	43154.29
632.041	42797.24
632.396	42934.86
632.75	42898.48
633.104	42978.02
633.459	42847.86
633.813	42820.51
634.167	42803.56
634.521	42878.59
634.875	42899.38
635.229	42854.86
635.583	42813.96
635.937	42839.72
636.291	42739.61
636.645	42865.48
636.999	42924.46
637.352	42786.39
637.706	42785.94
638.06	42801.3
638.413	42853.05
638.767	42757.24
639.121	42679.95
639.474	42573.97
639.828	42641.53
640.181	42776.67
640.534	42621.65
640.888	42558.82
641.241	42334.42
641.594	42606.96
641.947	42754.98
642.301	42516.34
642.654	42518.37
643.007	42568.54
643.36	42502.33
643.713	42388.89
644.066	42628.43
644.419	42392.95
644.771	42006.75
645.124	41708.45
645.477	41779.18
645.83	41513.2
646.182	41366.31
646.535	41261.91
646.888	41261.91
647.24	41140.33
647.593	41335.35
647.945	41187.11
648.298	41114.12
648.65	40938.08
649.002	40907.12
649.355	41174.23
649.707	41084.51
650.059	41190.05
650.411	41776.92
650.763	41688.11
651.115	42202.22
651.467	41938.5
651.819	42059.18
652.171	41947.77
652.523	41978.27
652.875	41985.96
653.227	41737.15
653.578	41899.41
653.93	42004.26
654.282	41783.48
654.633	41825.28
654.985	41814.44
655.337	41713.42
655.688	41772.18
656.039	41864.61
656.391	41515.24
656.742	41711.62
657.094	41673.42
657.445	41728.11
657.796	41662.58
658.147	41574.22
658.498	41641.56
658.849	41645.18
659.2	41545.29
659.551	41469.14
659.902	41653.54
660.253	41526.99
660.604	41454.67
660.955	41313.66
661.306	41648.34
661.656	41485.18
662.007	41550.26
662.358	41465.07
662.708	41400.89
663.059	41440.21
663.409	41243.83
663.76	41429.36
664.11	41501
664.461	41497.16
664.811	41515.24
665.161	41273.89
665.511	41247.45
665.862	41313.89
666.212	41434.11
666.562	41477.95
666.912	41334
667.262	41397.05
667.612	41288.12
667.962	41336.03
668.312	41274.79
668.662	41556.36
669.011	41275.92
669.361	41217.16
669.711	41358.63
670.06	41167
670.41	41203.61
670.76	41221.23
671.109	41227.11
671.459	41287.45
671.808	41222.14
672.157	41185.08
672.507	40989.15
672.856	41086.55
673.205	41081.12
673.554	41242.93
673.904	41026.89
674.253	41264.85
674.602	41054.01
674.951	40674.58
675.3	40362.72
675.649	40934.23
675.998	40955.93
676.346	41030.96
676.695	41113.89
677.044	40894.01
677.393	40967.68
677.741	40820.57
678.09	40822.82
678.438	40647.01
678.787	40798.42
679.135	40792.77
679.484	40486.56
679.832	40684.98
680.181	40491.08
680.529	40409.28
680.877	40462.61
681.225	40412.67
681.573	40625.32
681.922	40279.34
682.27	40253.35
682.618	40352.1
682.966	40099.23
683.314	40283.18
683.661	40038.89
684.009	39902.4
684.357	39888.84
684.705	39738.56
685.053	39952.34
685.4	39791.89
685.748	39675.51
686.095	39555.74
686.443	39332.24
686.79	39374.05
687.138	39574.04
687.485	39465.57
687.832	39392.58
688.18	39502.63
688.527	39257.22
688.874	39092.93
689.221	39198.01
689.568	38985.36
689.915	38953.27
690.262	38997.11
690.609	38912.14
690.956	38663.79
691.303	38730.68
691.65	38560.51
691.997	38552.38
692.344	38287.98
692.69	38156.45
693.037	38053.86
693.383	38040.75
693.73	38125.27
694.077	37804.6
694.423	37919.4
694.769	37747.88
695.116	37705.17
695.462	37642.8
695.808	37613.87
696.155	37643.25
696.501	37315.57
696.847	37334.56
697.193	37101.11
697.539	37097.27
697.885	36863.38
698.231	36667.45
698.577	36832.65
698.923	36693.89
699.269	36556.72
699.614	36334.58
699.96	36430.4
700.306	36391.3
700.651	36225.43
700.997	36105.66
701.342	35985.89
701.688	35904.31
702.033	35932.78
702.379	35887.36
702.724	35677.2
703.069	35817.76
703.415	35301.39
703.76	35442.63
704.105	35420.48
704.45	35414.61
704.795	35131.9
705.14	35011.45
705.485	35211
705.83	34853.94
706.175	34885.58
706.52	34809.88
706.865	34774.62
707.209	34624.57
707.554	34666.6
707.899	34562.2
708.243	34401.07
708.588	34308.42
708.932	34212.83
709.277	34159.72
709.621	34270
709.966	33944.81
710.31	34119.95
710.654	33725.38
710.998	33812.61
711.342	33816.91
711.687	33557.48
712.031	33507.09
712.375	33389.12
712.719	33573.75
713.063	33406.75
713.407	33417.37
713.75	33410.82
714.094	33285.17
714.438	33052.86
714.782	33250.82
715.125	33023.71
715.469	33091.05
715.812	32853.54
716.156	32826.43
716.499	32780.55
716.843	32743.49
717.186	32574.45
717.53	32805.86
717.873	32719.99
718.216	32648.12
718.559	32536.26
718.902	32459.43
719.246	32444.51
719.589	32169.04
719.932	32130.85
720.275	32124.75
720.617	32182.15
720.96	32142.15
721.303	31899.44
721.646	31957.07
721.989	31844.76
722.331	31949.39
722.674	31799.11
723.016	31878.2
723.359	31777.64
723.701	31747.58
724.044	31670.98
724.386	31456.07
724.729	31463.3
725.071	31447.25
725.413	31600.02
725.755	31475.73
726.097	31282.51
726.439	31093.59
726.782	31185.79
727.124	31242.74
727.465	31031.9
727.807	31000.94
728.149	30949.19
728.491	30747.16
728.833	30938.11
729.175	30854.73
729.516	30827.61
729.858	30708.97
730.199	30680.49
730.541	30676.2
730.882	30754.39
731.224	30737.21
731.565	30460.39
731.906	30468.97
732.248	30575.41
732.589	30524.34
732.93	30216.32
733.271	30347.39
733.612	30380.84
733.953	30373.61
734.294	30287.73
734.635	30259.49
734.976	30300.39
735.317	30073.28
735.658	29916.67
735.999	30034.86
736.339	29918.25
736.68	29964.81
737.021	29887.07
737.361	29841.87
737.702	29961.42
738.042	29723.91
738.383	29707.86
738.723	29819.95
739.063	29702.89
739.404	29682.55
739.744	29579.73
740.084	29575.44
740.424	29526.4
740.764	29383.35
741.104	29626.96
741.444	29524.14
741.784	29239.85
742.124	29414.09
742.464	29277.82
742.804	29233.3
743.143	29184.94
743.483	29164.15
743.823	29042.34
744.162	29022.68
744.502	29128.67
744.841	28908.11
745.181	29033.98
745.52	28973.19
745.86	28908.34
746.199	28821.78
746.538	28795.8
746.877	28854.78
747.216	28739.3
747.556	28720.09
747.895	28739.75
748.234	28532.3
748.573	28514
748.911	28498.63
749.25	28486.65
749.589	28393.77
749.928	28430.38
750.267	28436.03
750.605	28236.04
750.944	28176.15
751.283	28214.57
751.621	28358.07
751.96	28087.57
752.298	28012.77
752.636	28145.64
752.975	27835.6
753.313	27939.32
753.651	28012.54
753.989	27779.78
754.327	27734.13
754.666	27667.69
755.004	27666.79
755.342	27636.05
755.679	27694.58
756.017	27452.33
756.355	27463.4
756.693	27376.85
757.031	27432.89
757.368	27226.35
757.706	27227.7
758.044	26948.84
758.381	27065.67
758.719	26914.04
759.056	27079.01
759.394	26965.56
759.731	26714.95
760.068	26794.72
760.405	26673.37
760.743	26576.19
761.08	26561.73
761.417	26479.93
761.754	26428.63
762.091	26383.43
762.428	26124.91
762.765	26125.81
763.102	26163.55
763.438	26081.29
763.775	25987.51
764.112	25974.4
764.449	25872.71
764.785	25748.65
765.122	25614.64
765.458	25662.55
765.795	25528.54
766.131	25606.95
766.467	25371.03
766.804	25257.36
767.14	25206.74
767.476	25195.67
767.812	25012.85
768.148	25249.9
768.485	25006.07
768.821	24824.15
769.157	24933.75
769.492	24774.66
769.828	24651.72
770.164	24508.23
770.5	24518.85
770.836	24508.9
771.171	24285.86
771.507	24223.71
771.842	24131.96
772.178	23985.08
772.513	23927.9
772.849	23955.92
773.184	23749.83
773.519	23721.81
773.855	23715.48
774.19	23542.38
774.525	23458.99
774.86	23457.86
775.195	23378.76
775.53	23264.64
775.865	23110.07
776.2	23027.81
776.535	22950.98
776.87	22883.86
777.205	22737.2
777.539	22713.7
777.874	22646.58
778.209	22516.41
778.543	22567.03
778.878	22331.56
779.212	22360.03
779.547	22263.99
779.881	22222.41
780.215	22059.25
780.55	22194.84
780.884	21963.21
781.218	21833.49
781.552	21906.71
781.886	21767.73
782.22	21682.09
782.554	21569.09
782.888	21276.22
783.222	21297.24
783.556	21230.35
783.889	21250.46
784.223	21049.11
784.557	21094.08
784.89	20955.32
785.224	20901.54
785.557	20799.17
785.891	20753.52
786.224	20725.27
786.558	20670.59
786.891	20520.76
787.224	20423.59
787.557	20386.07
787.891	20353.31
788.224	20253.2
788.557	20356.7
788.89	20281.67
789.223	20160.54
789.556	20005.75
789.888	19966.42
790.221	19773.21
790.554	19690.5
790.887	19736.15
791.219	19631.97
791.552	19569.15
791.884	19549.49
792.217	19445.31
792.549	19419.32
792.882	19226.78
793.214	19178.42
793.546	19200.79
793.879	19036.51
794.211	18925.55
794.543	19026.11
794.875	18921.71
795.207	19045.09
795.539	18776.85
795.871	18756.96
796.203	18665.89
796.535	18551.32
796.867	18571.43
797.198	18592.22
797.53	18386.8
797.862	18306.58
798.193	18492.34
798.525	18311.55
798.856	18264.1
799.188	18108.85
799.519	17992.24
799.85	17942.75
800.182	17955.63
800.513	17955.86
800.844	17794.05
801.175	17876.08
801.506	17848.74
801.837	17762.87
802.168	17726.03
802.499	17591.57
802.83	17573.94
803.161	17418.02
803.491	17492.82
803.822	17464.8
804.153	17295.99
804.483	17270.45
804.814	17201.75
805.145	17148.42
805.475	17109.1
805.805	17044.69
806.136	17010.12
806.466	17032.49
806.796	17012.6
807.126	16889.44
807.457	16778.26
807.787	16798.82
808.117	16685.61
808.447	16664.82
808.777	16632.27
809.107	16590.69
809.436	16565.84
809.766	16501.2
810.096	16457.82
810.426	16439.96
810.755	16461.66
811.085	16434.54
811.414	16324.03
811.744	16178.5
812.073	16169.91
812.403	16189.12
812.732	16073.19
813.061	16177.37
813.39	16006.3
813.719	15997.04
814.049	15986.87
814.378	15997.26
814.707	15905.29
815.036	15880.2
815.365	15821
815.693	15644.28
816.022	15672.07
816.351	15595.92
816.68	15554.34
817.008	15588.23
817.337	15415.13
817.665	15455.13
817.994	15454.68
818.322	15417.17
818.651	15371.52
818.979	15335.81
819.307	15329.94
819.636	15282.48
819.964	15197.28
820.292	15200.67
820.62	15196.15
820.948	15185.76
821.276	15116.16
821.604	15185.08
821.932	15210.39
822.259	15174.23
822.587	15073.45
822.915	15201.58
823.243	15091.75
823.57	15022.37
823.898	15059.43
824.225	15054.24
824.553	14963.62
824.88	15095.82
825.207	15130.62
825.535	15012.66
825.862	15097.85
826.189	15023.73
826.516	15053.11
826.843	15110.05
827.17	15062.82
827.497	15064.41
827.824	15074.8
828.151	15097.17
828.478	15021.02
828.805	15143.73
829.131	15084.97
829.458	15097.17
829.785	14953.22
830.111	15039.77
830.438	14969.27
830.764	15035.48
831.09	14981.47
831.417	14979.44
831.743	15072.09
832.069	15016.27
832.395	14932.43
832.722	14946.67
833.048	14909.16
833.374	15037.51
833.7	14920
834.026	14888.59
834.351	14948.93
834.677	14773.79
835.003	14871.87
835.329	14836.62
835.654	14875.03
835.98	14782.15
836.306	14759.33
836.631	14728.82
836.956	14802.04
837.282	14804.07
837.607	14719.1
837.932	14663.51
838.258	14678.88
838.583	14550.75
838.908	14541.93
839.233	14575.38
839.558	14442.95
839.883	14398.89
840.208	14484.99
840.533	14413.8
840.858	14450.19
841.182	14444.54
841.507	14390.07
841.832	14280.47
842.156	14329.06
842.481	14219
842.805	14283.86
843.13	14225.78
843.454	14171.32
843.778	14072.12
844.103	14124.77
844.427	14108.05
844.751	14116.86
845.075	14041.38
845.399	13946.7
845.723	13833.93
846.047	13841.39
846.371	13783.54
846.695	13757.55
847.019	13650.88
847.343	13687.72
847.666	13588.96
847.99	13478.23
848.313	13566.82
848.637	13379.25
848.96	13396.43
849.284	13360.27
849.607	13302.42
849.931	13211.12
850.254	13181.74
850.577	13096.32
850.9	12987.85
851.223	12983.33
851.546	12946.5
851.869	12850.23
852.192	12943.11
852.515	12775.65
852.838	12739.95
853.161	12713.06
853.483	12640.06
853.806	12667.63
854.129	12616.33
854.451	12505.83
854.774	12504.47
855.096	12464.25
855.419	12467.19
855.741	12383.35
856.063	12301.54
856.385	12325.95
856.708	12262.22
857.03	12207.53
857.352	12203.01
857.674	12177.7
857.996	12085.95
858.318	12030.36
858.64	12120.08
858.961	11914.43
859.283	11992.85
859.605	11958.5
859.926	11940.87
860.248	11795.79
860.57	11887.09
860.891	11862.23
861.212	11775.45
861.534	11746.98
861.855	11705.85
862.176	11680.77
862.498	11676.25
862.819	11685.51
863.14	11603.25
863.461	11632.41
863.782	11610.03
864.103	11606.87
864.424	11547.66
864.745	11505.63
865.065	11503.82
865.386	11466.76
865.707	11452.07
866.027	11429.47
866.348	11421.11
866.668	11372.53
866.989	11340.44
867.309	11299.53
867.63	11301.34
867.95	11328.91
868.27	11255.24
868.59	11249.82
868.91	11283.26
869.23	11271.29
869.55	11199.88
869.87	11219.99
870.19	11178.63
870.51	11185.64
870.83	11262.02
871.15	11086.21
871.469	11095.47
871.789	11141.8
872.109	11139.99
872.428	11056.38
872.748	11027.68
873.067	10956.72
873.386	11009.37
873.706	10973.21
874.025	10963.27
874.344	10900.9
874.663	10905.65
874.982	10853.67
875.301	10889.6
875.62	10820.45
875.939	10807.34
876.258	10800.34
876.577	10827.91
876.896	10789.72
877.214	10645.54
877.533	10749.72
877.852	10694.8
878.17	10688.25
878.489	10702.71
878.807	10728.7
879.125	10634.69
879.444	10622.26
879.762	10566.67
880.08	10678.31
880.398	10548.37
880.716	10520.12
881.034	10602.38
881.352	10500.46
881.67	10437.86
881.988	10373.68
882.306	10505.88
882.624	10446.45
882.941	10373.23
883.259	10337.98
883.577	10333.46
883.894	10250.97
884.212	10292.33
884.529	10259.11
884.846	10303.4
885.164	10190.64
885.481	10180.01
885.798	10170.07
886.115	10126.91
886.432	10156.06
886.75	10059.57
887.067	10157.64
887.383	10062.73
887.7	10133.46
888.017	9989.74
888.334	10033.13
888.651	9968.95
888.967	10024.54
889.284	9900.7
889.6	9890.3
889.917	9813.47
890.233	9815.05
890.55	9799.46
890.866	9791.1
891.182	9746.58
891.498	9737.31
891.815	9651.67
892.131	9636.75
892.447	9599.24
892.763	9613.7
893.079	9641.72
893.395	9518.79
893.71	9549.75
894.026	9496.19
894.342	9476.98
894.657	9390.21
894.973	9382.07
895.289	9366.7
895.604	9421.62
895.92	9318.57
896.235	9273.82
896.55	9284.67
896.865	9238.57
897.181	9177.78
897.496	9167.61
897.811	9253.71
898.126	9096.43
898.441	9067.05
898.756	9039.03
899.071	9003.1
899.386	9005.13
899.7	8998.12
900.015	8928.97
900.33	8858.02
900.644	8816.21
900.959	8831.35
901.273	8769.2
901.588	8748.64
901.902	8717.23
902.216	8696.21
902.531	8656.67
902.845	8681.98
903.159	8573.96
903.473	8514.07
903.787	8506.39
904.101	8450.12
904.415	8466.16
904.729	8396.78
905.042	8379.38
905.356	8408.54
905.67	8368.54
905.984	8249.9
906.297	8284.02
906.611	8321.31
906.924	8268.65
907.237	8242.66
907.551	8170.35
907.864	8140.29
908.177	8111.14
908.491	8065.04
908.804	7975.1
909.117	8000.86
909.43	7982.33
909.743	7933.75
910.056	7971.94
910.368	7881.54
910.681	7805.61
910.994	7828.89
911.307	7732.62
911.619	7685.84
911.932	7759.51
912.244	7690.81
912.557	7665.5
912.869	7595.9
913.181	7590.48
913.494	7583.7
913.806	7505.51
914.118	7460.76
914.43	7407.21
914.742	7480.88
915.054	7433.87
915.366	7351.16
915.678	7372.63
915.99	7272.07
916.302	7294.67
916.613	7207.66
916.925	7214.67
917.236	7180.32
917.548	7201.34
917.859	7189.58
918.171	7052.19
918.482	7049.25
918.794	7105.97
919.105	7034.11
919.416	6983.71
919.727	6986.43
920.038	6927.22
920.349	6875.69
920.66	6843.61
920.971	6880.21
921.282	6832.53
921.593	6797.73
921.903	6743.95
922.214	6748.69
922.525	6686.55
922.835	6664.63
923.146	6625.76
923.456	6629.83
923.767	6570.62
924.077	6562.03
924.387	6545.31
924.697	6489.94
925.008	6454.24
925.318	6401.81
925.628	6400.68
925.938	6380.34
926.248	6386.22
926.558	6298.76
926.867	6330.4
927.177	6333.79
927.487	6262.83
927.796	6212.66
928.106	6139.22
928.416	6137.86
928.725	6205.2
929.034	6050.18
929.344	6110.52
929.653	6028.03
929.962	6068.03
930.271	5978.77
930.581	5961.82
930.89	5994.81
931.199	5929.28
931.508	5943.97
931.817	5908.26
932.125	5888.83
932.434	5877.53
932.743	5830.07
933.051	5787.14
933.36	5720.25
933.669	5750.07
933.977	5746.69
934.286	5725.22
934.594	5685.9
934.902	5641.15
935.21	5589.63
935.519	5576.07
935.827	5612.45
936.135	5552.11
936.443	5466.92
936.751	5504.21
937.059	5472.57
937.367	5414.26
937.674	5504.88
937.982	5435.96
938.29	5397.09
938.597	5395.28
938.905	5268.73
939.213	5325.45
939.52	5244.1
939.827	5224.66
940.135	5197.09
940.442	5219.69
940.749	5191.9
941.056	5249.07
941.363	5127.04
941.67	5136.76
941.977	5100.37
942.284	5058.79
942.591	5035.97
942.898	5060.15
943.205	5031.9
943.511	5001.62
943.818	5003.65
944.125	4965.46
944.431	4960.49
944.738	4920.04
945.044	4891.57
945.35	4868.29
945.657	4908.74
945.963	4820.83
946.269	4815.41
946.575	4817.22
946.881	4821.96
947.187	4778.12
947.493	4766.15
947.799	4680.95
948.105	4693.15
948.41	4657
948.716	4682.31
949.022	4627.17
949.327	4595.98
949.633	4542.2
949.938	4586.72
950.244	4601.4
950.549	4512.82
950.854	4528.64
951.16	4506.04
951.465	4466.27
951.77	4491.35
952.075	4435.99
952.38	4432.82
952.685	4437.11
952.99	4353.28
953.294	4349.43
953.599	4344.91
953.904	4381.52
954.209	4309.89
954.513	4252.49
954.818	4272.37
955.122	4219.72
955.426	4221.75
955.731	4223.56
956.035	4167.52
956.339	4172.49
956.643	4129.33
956.948	4171.59
957.252	4109.21
957.556	4110.34
957.86	4026.05
958.163	4042.78
958.467	4052.94
958.771	4023.79
959.075	3985.38
959.378	3979.5
959.682	3947.41
959.985	3958.94
960.289	3953.29
960.592	3901.99
960.896	3895.66
961.199	3856.79
961.502	3916.9
961.805	3848.66
962.108	3842.1
962.411	3820.41
962.714	3828.32
963.017	3792.84
963.32	3809.33
963.623	3738.6
963.926	3762.1
964.228	3731.37
964.531	3744.03
964.833	3704.25
965.136	3631.94
965.438	3621.09
965.741	3642.33
966.043	3622.22
966.345	3635.1
966.648	3576.12
966.95	3577.25
967.252	3529.12
967.554	3545.61
967.856	3545.39
968.158	3469.68
968.46	3519.85
968.761	3484.37
969.063	3514.65
969.365	3484.6
969.666	3473.75
969.968	3412.06
970.269	3408.44
970.571	3369.35
970.872	3390.81
971.174	3349.46
971.475	3354.88
971.776	3367.54
972.077	3353.08
972.378	3293.87
972.679	3306.3
972.98	3269.01
973.281	3227.66
973.582	3258.39
973.883	3267.88
974.183	3219.52
974.484	3237.6
974.785	3205.96
975.085	3185.85
975.386	3203.02
975.686	3144.49
975.986	3126.64
976.287	3170.26
976.587	3121.67
976.887	3122.8
977.187	3110.82
977.487	3057.49
977.787	3059.52
978.087	3043.93
978.387	3049.58
978.687	3039.41
978.987	2996.02
979.286	2994.89
979.586	2953.99
979.885	2968.23
980.185	2917.83
980.484	2936.14
980.784	2911.05
981.083	2914.22
981.382	2902.92
981.682	2876.03
981.981	2862.47
982.28	2863.6
982.579	2883.48
982.878	2851.17
983.177	2830.83
983.475	2796.48
983.774	2814.11
984.073	2801.23
984.372	2792.19
984.67	2740.66
984.969	2733.66
985.267	2735.46
985.566	2744.28
985.864	2689.14
986.162	2700.44
986.461	2712.87
986.759	2690.72
987.057	2669.48
987.355	2638.74
987.653	2676.03
987.951	2617.05
988.249	2601.23
988.547	2629.25
988.844	2598.29
989.142	2595.81
989.44	2564.85
989.737	2537.05
990.035	2540.22
990.332	2551.74
990.63	2516.26
990.927	2533.44
991.224	2511.29
991.521	2463.83
991.819	2485.08
992.116	2457.73
992.413	2486.43
992.71	2415.47
993.006	2437.62
993.303	2403.72
993.6	2425.87
993.897	2422.48
994.193	2392.87
994.49	2327.11
994.787	2363.72
995.083	2329.15
995.379	2361.69
995.676	2311.3
995.972	2335.02
996.268	2315.14
996.565	2304.97
996.861	2259.32
997.157	2260.68
997.453	2224.52
997.749	2233.33
998.044	2219.55
998.34	2238.53
998.636	2227.46
998.932	2207.34
999.227	2219.55
999.523	2151.98
999.818	2150.85
1000.114	2146.78
1000.409	2156.05
1000.704	2141.36
1001	2112.2
1001.295	2146.78
1001.59	2100.23
1001.885	2071.98
1002.18	2101.13
1002.475	2043.73
1002.77	2099.32
1003.065	2018.42
1003.359	2053
1003.654	2033.11
1003.949	2018.87
1004.243	2009.16
1004.538	1973.68
1004.832	1997.63
1005.127	1998.08
1005.421	1957.41
1005.715	1942.04
1006.009	1947.91
1006.304	1940.68
1006.598	1930.29
1006.892	1902.27
1007.186	1888.26
1007.48	1889.39
1007.773	1892.55
1008.067	1870.63
1008.361	1875.6
1008.655	1871.98
1008.948	1832.21
1009.242	1818.43
1009.535	1839.9
1009.829	1797.18
1010.122	1793.57
1010.415	1754.93
1010.708	1767.58
1011.001	1797.18
1011.295	1777.52
1011.588	1744.76
1011.881	1712.89
1012.173	1690.29
1012.466	1720.12
1012.759	1706.57
1013.052	1710.18
1013.344	1699.79
1013.637	1682.61
1013.93	1691.88
1014.222	1642.16
1014.514	1650.52
1014.807	1629.51
1015.099	1653.01
1015.391	1634.7
1015.683	1619.11
1015.976	1616.62
1016.268	1595.16
1016.56	1566
1016.851	1575.04
1017.143	1554.93
1017.435	1529.85
1017.727	1576.4
1018.018	1530.52
1018.31	1526.01
1018.602	1496.4
1018.893	1503.41
1019.185	1504.08
1019.476	1512.22
1019.767	1477.42
1020.058	1469.74
1020.35	1469.96
1020.641	1446.46
1020.932	1428.61
1021.223	1409.62
1021.514	1386.12
1021.804	1397.42
1022.095	1393.35
1022.386	1380.02
1022.677	1394.94
1022.967	1362.85
1023.258	1373.47
1023.548	1349.51
1023.839	1333.24
1024.129	1341.83
1024.419	1331.89
1024.709	1327.14
1025	1315.16
1025.29	1307.03
1025.58	1300.47
1025.87	1265.9
1026.16	1256.18
1026.449	1286.69
1026.739	1243.07
1027.029	1249.85
1027.319	1248.72
1027.608	1212.34
1027.898	1193.36
1028.187	1210.76
1028.477	1214.83
1028.766	1225.9
1029.055	1203.3
1029.344	1182.51
1029.634	1197.88
1029.923	1191.55
1030.212	1176.18
1030.501	1142.96
1030.79	1184.55
1031.078	1137.77
1031.367	1142.96
1031.656	1130.31
1031.945	1147.48
1032.233	1132.12
1032.522	1129.18
1032.81	1095.28
1033.099	1114.72
1033.387	1108.61
1033.675	1062.97
1033.963	1085.56
1034.251	1087.37
1034.54	1047.6
1034.828	1055.96
1035.116	1029.97
1035.403	1025.23
1035.691	1022.52
1035.979	1029.07
1036.267	1028.17
1036.554	1026.36
1036.842	1005.79
1037.129	985.91
1037.417	987.04
1037.704	980.71
1037.992	988.84
1038.279	970.09
1038.566	972.57
1038.853	972.57
1039.14	972.57
