Data from hue_200_FLMS001491_00003.txt Node
Date: Tue Feb 07 16:42:44 GMT 2017
User: dcchb
Spectrometer: FLMS00149
Trigger mode: 0
Integration Time (sec): 2.000000E-2
Scans to average: 10
Electric dark correction enabled: true
Nonlinearity correction enabled: false
Boxcar width: 0
XAxis mode: Wavelengths
Number of Pixels in Spectrum: 2048
>>>>>Begin Spectral Data<<<<<
341.393	-20.62
341.776	-20.62
342.16	-20.62
342.543	-50.22
342.927	-64.91
343.31	-70.11
343.693	-91.13
344.077	-63.33
344.46	-49.32
344.843	-59.72
345.226	-23.11
345.61	-24.01
345.993	-37.34
346.376	-14.52
346.759	-4.12
347.142	34.52
347.525	45.37
347.908	63.67
348.291	68.64
348.674	88.75
349.057	135.76
349.44	114.52
349.823	161.75
350.206	166.72
350.588	203.33
350.971	209.66
351.354	227.28
351.737	238.81
352.119	248.52
352.502	262.08
352.884	270.44
353.267	268.41
353.65	296.66
354.032	303.89
354.414	310.9
354.797	313.83
355.179	300.73
355.562	318.81
355.944	315.42
356.326	325.13
356.709	320.39
357.091	327.84
357.473	357.45
357.855	340.27
358.238	343.89
358.62	335.3
359.002	323.1
359.384	331.01
359.766	333.27
360.148	345.7
360.53	335.98
360.912	359.93
361.294	336.43
361.676	326.04
362.057	337.11
362.439	312.48
362.821	325.13
363.203	324.23
363.584	328.75
363.966	328.97
364.348	312.7
364.729	321.52
365.111	305.92
365.493	338.47
365.874	342.53
366.256	331.91
366.637	302.76
367.019	313.83
367.4	298.01
367.781	331.69
368.163	319.03
368.544	322.87
368.925	318.35
369.306	303.44
369.688	320.39
370.069	310.67
370.45	310.9
370.831	318.35
371.212	304.79
371.593	319.03
371.974	319.26
372.355	314.96
372.736	312.25
373.117	327.39
373.498	310.22
373.879	318.81
374.26	318.13
374.641	322.65
375.021	307.05
375.402	317.68
375.783	326.04
376.163	326.04
376.544	330.33
376.925	312.93
377.305	344.79
377.686	321.74
378.066	330.33
378.447	330.56
378.827	336.66
379.208	314.51
379.588	331.46
379.968	339.6
380.349	314.74
380.729	335.3
381.109	359.93
381.489	358.58
381.87	336.66
382.25	336.21
382.63	342.99
383.01	366.94
383.39	340.95
383.77	354.96
384.15	342.53
384.53	357.22
384.91	361.29
385.29	355.41
385.67	362.87
386.049	360.84
386.429	349.76
386.809	349.76
387.189	356.32
387.568	345.47
387.948	380.27
388.328	371.01
388.707	387.28
389.087	366.04
389.466	383.44
389.846	382.08
390.225	374.4
390.605	366.04
390.984	368.75
391.363	369.43
391.743	380.05
392.122	371.46
392.501	390.22
392.881	384.79
393.26	398.35
393.639	398.58
394.018	389.99
394.397	382.53
394.776	422.53
395.155	398.8
395.534	408.29
395.913	381.85
396.292	385.02
396.671	420.27
397.05	419.82
397.429	431.12
397.808	418.01
398.186	398.13
398.565	429.76
398.944	409.88
399.323	431.12
399.701	425.47
400.08	435.41
400.458	432.25
400.837	442.64
401.215	431.57
401.594	429.76
401.972	446.03
402.351	435.64
402.729	449.42
403.107	442.19
403.486	465.02
403.864	464.34
404.242	473.83
404.62	465.92
404.999	467.28
405.377	478.35
405.755	475.19
406.133	485.58
406.511	472.02
406.889	504.56
407.267	533.94
407.645	517.67
408.023	515.18
408.401	545.92
408.779	529.2
409.156	530.78
409.534	566.26
409.912	555.86
410.29	553.6
410.667	576.43
411.045	579.36
411.422	596.54
411.8	607.61
412.178	643.32
412.555	610.77
412.933	634.73
413.31	641.28
413.687	665.91
414.065	673.37
414.442	658.91
414.819	664.56
415.197	701.17
415.574	685.35
415.951	721.96
416.328	719.92
416.705	741.17
417.082	707.72
417.46	733.03
417.837	754.05
418.214	771.22
418.591	759.25
418.967	779.13
419.344	804.67
419.721	822.75
420.098	812.8
420.475	838.79
420.852	835.18
421.228	849.41
421.605	883.99
421.982	882.86
422.358	907.04
422.735	919.92
423.111	926.25
423.488	959.01
423.864	978.9
424.241	992.69
424.617	985.23
424.994	1022.74
425.37	1041.27
425.746	1065
426.123	1066.58
426.499	1076.98
426.875	1079.01
427.251	1122.63
427.627	1122.85
428.003	1152
428.379	1159.24
428.756	1176.86
429.132	1202.62
429.507	1219.57
429.883	1204.21
430.259	1229.74
430.635	1249.18
431.011	1270.87
431.387	1270.64
431.763	1331.66
432.138	1353.13
432.514	1351.55
432.89	1352.9
433.265	1397.19
433.641	1449.4
434.016	1458.44
434.392	1502.05
434.767	1506.57
435.143	1530.07
435.518	1565.78
435.894	1618.88
436.269	1642.84
436.644	1644.42
437.02	1692.55
437.395	1683.29
437.77	1717.86
438.145	1770.74
438.52	1789.95
438.895	1812.33
439.271	1822.72
439.646	1877.86
440.021	1902.27
440.395	1894.81
440.77	1885.77
441.145	1941.36
441.52	1989.95
441.895	1978.2
442.27	2062.71
442.645	2053.9
443.019	2102.94
443.394	2085.31
443.769	2164.18
444.143	2126.44
444.518	2187.91
444.892	2204.41
445.267	2258.64
445.641	2244.4
446.016	2253.44
446.39	2261.35
446.764	2296.61
447.139	2302.93
447.513	2331.41
447.887	2350.62
448.262	2344.97
448.636	2379.09
449.01	2430.16
449.384	2404.4
449.758	2456.38
450.132	2494.34
450.506	2511.97
450.88	2521.46
451.254	2503.61
451.628	2610.27
452.002	2578.18
452.376	2632.87
452.75	2652.76
453.123	2669.48
453.497	2723.04
453.871	2735.92
454.244	2757.84
454.618	2777.95
454.992	2842.35
455.365	2807.55
455.739	2951.05
456.112	2961.22
456.486	2948.34
456.859	2991.96
457.232	3063.14
457.606	3072.86
457.979	3096.59
458.352	3141.78
458.725	3167.09
459.099	3212.29
459.472	3230.59
459.845	3306.07
460.218	3349.46
460.591	3358.27
460.964	3360.53
461.337	3446.41
461.71	3454.77
462.083	3549
462.456	3572.73
462.829	3588.55
463.201	3657.7
463.574	3668.32
463.947	3712.61
464.32	3826.51
464.692	3794.19
465.065	3859.28
465.438	3908.54
465.81	3961.87
466.183	3982.66
466.555	4069.22
466.928	4126.84
467.3	4092.72
467.672	4209.55
468.045	4282.32
468.417	4279.15
468.789	4284.58
469.161	4397.12
469.534	4410.67
469.906	4516.89
470.278	4548.3
470.65	4569.31
471.022	4640.05
471.394	4763.66
471.766	4781.29
472.138	4833.71
472.51	4982.41
472.882	4993.71
473.253	5062.41
473.625	5121.62
473.997	5295.4
474.369	5254.27
474.74	5324.55
475.112	5439.57
475.484	5496.75
475.855	5599.8
476.227	5632.11
476.598	5789.17
476.97	5813.35
477.341	5951.65
477.713	6054.7
478.084	5995.04
478.455	6178.31
478.827	6216.5
479.198	6408.81
479.569	6430.06
479.94	6630.05
480.311	6662.82
480.682	6749.37
481.053	6877.73
481.424	6963.15
481.795	7003.38
482.166	7190.71
482.537	7176.25
482.908	7374.44
483.279	7426.41
483.65	7555.9
484.021	7677.71
484.391	7815.11
484.762	7811.94
485.133	7913.41
485.503	8009
485.874	8173.29
486.244	8178.94
486.615	8288.99
486.985	8441.08
487.356	8613.5
487.726	8625.48
488.097	8788.19
488.467	8869.99
488.837	8992.7
489.207	9069.76
489.578	9153.15
489.948	9268.63
490.318	9366.02
490.688	9362.41
491.058	9558.34
491.428	9551.33
491.798	9724.66
492.168	9758.56
492.538	9893.24
492.908	9965.33
493.278	10053.01
493.648	10032.45
494.017	10205.32
494.387	10323.74
494.757	10348.6
495.126	10447.58
495.496	10499.55
495.866	10497.75
496.235	10607.8
496.605	10707.46
496.974	10714.24
497.344	10804.86
497.713	10828.13
498.082	10850.28
498.452	10983.61
498.821	10973.89
499.19	11011.86
499.559	11115.36
499.928	11064.96
500.298	11184.96
500.667	11277.84
501.036	11253.43
501.405	11361.9
501.774	11360.32
502.143	11378.85
502.512	11454.33
502.88	11560.32
503.249	11481.9
503.618	11488.23
503.987	11639.64
504.356	11620.43
504.724	11644.16
505.093	11696.59
505.462	11697.94
505.83	11842.12
506.199	11904.94
506.567	11968.89
506.936	11953.98
507.304	12108.55
507.672	12010.02
508.041	12055.67
508.409	12156.69
508.777	12048.44
509.145	12180.19
509.514	12197.59
509.882	12273.97
510.25	12271.26
510.618	12254.08
510.986	12220.19
511.354	12368.66
511.722	12407.07
512.09	12552.83
512.458	12318.26
512.826	12458.15
513.193	12529.11
513.561	12476.45
513.929	12581.99
514.297	12578.82
514.664	12680.29
515.032	12632.83
515.4	12710.57
515.767	12724.81
516.135	12752.83
516.502	12620.63
516.869	12817.46
517.237	12810.91
517.604	12697.46
517.972	12817.01
518.339	12833.05
518.706	12811.58
519.073	12834.63
519.44	12840.74
519.808	12930.22
520.175	12867.63
520.542	12898.59
520.909	12971.58
521.276	12954.18
521.643	13040.73
522.009	12986.49
522.376	13059.26
522.743	13051.13
523.11	13097.9
523.477	13167.05
523.843	13131.35
524.21	13308.07
524.577	13282.08
524.943	13212.93
525.31	13224.45
525.676	13314.62
526.043	13310.1
526.409	13259.48
526.776	13369.54
527.142	13354.85
527.508	13378.8
527.874	13436.43
528.241	13360.27
528.607	13325.02
528.973	13415.18
529.339	13330.21
529.705	13407.95
530.071	13546.48
530.437	13469.87
530.803	13476.43
531.169	13448.18
531.535	13333.38
531.901	13354.17
532.267	13291.12
532.632	13351.91
532.998	13332.93
533.364	13378.8
533.73	13312.36
534.095	13281.18
534.461	13279.14
534.826	13341.51
535.192	13207.96
535.557	13297
535.923	13185.36
536.288	13203.89
536.653	13161.41
537.019	13042.54
537.384	13039.15
537.749	12988.98
538.114	12983.56
538.479	13000.51
538.845	12941.98
539.21	12893.62
539.575	12819.27
539.94	12880.51
540.305	12834.86
540.67	12753.73
541.034	12764.13
541.399	12708.99
541.764	12649.1
542.129	12593.51
542.494	12580.4
542.858	12600.29
543.223	12530.91
543.587	12502.21
543.952	12490.91
544.316	12426.06
544.681	12286.4
545.045	12370.92
545.41	12329.56
545.774	12276.68
546.138	12226.51
546.503	12236.46
546.867	12059.51
547.231	12163.92
547.595	12132.28
547.959	12007.99
548.324	12017.03
548.688	11846.64
549.052	11908.33
549.416	11830.14
549.779	11781.33
550.143	11778.62
550.507	11789.92
550.871	11733.65
551.235	11685.06
551.599	11708.79
551.962	11551.96
552.326	11575.46
552.689	11665.17
553.053	11523.71
553.417	11500.66
553.78	11577.94
554.143	11467.66
554.507	11431.28
554.87	11422.47
555.234	11432.41
555.597	11324.84
555.96	11331.4
556.323	11321
556.686	11332.75
557.05	11324.39
557.413	11246.2
557.776	11314
558.139	11303.83
558.502	11249.59
558.865	11169.37
559.228	11229.25
559.59	11190.16
559.953	11227.44
560.316	11250.72
560.679	11215.02
561.041	11172.53
561.404	11157.62
561.767	11227.9
562.129	11112.19
562.492	11185.19
562.854	11163.27
563.217	11098.18
563.579	11163.94
563.941	11135.02
564.304	11148.58
564.666	11144.51
565.028	11119.2
565.39	11216.37
565.753	11187.45
566.115	11186.09
566.477	11192.42
566.839	11218.86
567.201	11237.39
567.563	11246.2
567.925	11230.83
568.287	11189.71
568.648	11158.75
569.01	11170.27
569.372	11284.84
569.734	11205.98
570.095	11223.6
570.457	11214.34
570.819	11212.98
571.18	11222.47
571.542	11283.49
571.903	11315.35
572.265	11327.56
572.626	11307.89
572.987	11378.85
573.349	11343.6
573.71	11371.17
574.071	11349.02
574.432	11299.31
574.794	11381.34
575.155	11370.49
575.516	11317.84
575.877	11362.36
576.238	11384.5
576.599	11325.3
576.96	11366.2
577.32	11368.23
577.681	11403.49
578.042	11415.91
578.403	11356.71
578.763	11437.38
579.124	11408.91
579.485	11431.73
579.845	11408.46
580.206	11365.97
580.566	11448.46
580.927	11349.7
581.287	11469.47
581.648	11396.48
582.008	11443.94
582.368	11378.4
582.728	11459.08
583.089	11416.59
583.449	11381.57
583.809	11480.55
584.169	11380.66
584.529	11334.79
584.889	11427.89
585.249	11411.85
585.609	11317.84
585.969	11471.96
586.329	11455.91
586.688	11357.61
587.048	11331.62
587.408	11361.23
587.768	11396.93
588.127	11320.55
588.487	11361.23
588.846	11377.5
589.206	11359.87
589.565	11278.07
589.925	11353.32
590.284	11290.49
590.643	11310.83
591.003	11418.4
591.362	11401
591.721	11323.94
592.08	11320.32
592.44	11383.6
592.799	11318.52
593.158	11286.65
593.517	11316.26
593.876	11404.39
594.235	11209.14
594.593	11238.29
594.952	11246.2
595.311	11206.43
595.67	11208.91
596.029	11335.24
596.387	11276.26
596.746	11296.14
597.104	11250.04
597.463	11311.96
597.822	11322.13
598.18	11228.57
598.538	11271.51
598.897	11287.1
599.255	11225.86
599.613	11329.59
599.972	11205.75
600.33	11255.69
600.688	11217.5
601.046	11215.47
601.404	11287.56
601.762	11257.27
602.12	11332.53
602.478	11343.37
602.836	11189.93
603.194	11172.76
603.552	11286.2
603.91	11210.27
604.268	11184.28
604.625	11156.03
604.983	11222.25
605.341	11185.86
605.698	11154
606.056	11230.83
606.413	11189.25
606.771	11277.39
607.128	11227.9
607.485	11192.87
607.843	11236.48
608.2	11236.94
608.557	11317.84
608.914	11152.19
609.272	11266.09
609.629	11342.24
609.986	11343.15
610.343	11258.86
610.7	11414.56
611.057	11305.86
611.414	11298.63
611.771	11297.5
612.127	11369.14
612.484	11354.9
612.841	11342.47
613.198	11356.03
613.554	11357.84
613.911	11448.46
614.267	11453.2
614.624	11363.03
614.98	11386.76
615.337	11445.74
615.693	11464.5
616.05	11422.69
616.406	11515.12
616.762	11389.02
617.118	11412.98
617.475	11411.85
617.831	11509.7
618.187	11511.28
618.543	11436.25
618.899	11562.58
619.255	11462.92
619.611	11481
619.967	11437.16
620.323	11529.13
620.678	11487.55
621.034	11411.39
621.39	11485.74
621.746	11412.52
622.101	11475.12
622.457	11467.21
622.812	11433.77
623.168	11463.6
623.523	11466.76
623.879	11522.8
624.234	11504.27
624.589	11424.05
624.945	11511.51
625.3	11485.29
625.655	11457.5
626.01	11533.65
626.365	11459.76
626.72	11428.57
627.075	11416.82
627.43	11465.18
627.785	11386.76
628.14	11386.76
628.495	11570.26
628.85	11485.97
629.205	11377.95
629.559	11462.02
629.914	11419.53
630.269	11363.03
630.623	11351.28
630.978	11376.82
631.332	11335.92
631.687	11325.97
632.041	11323.26
632.396	11260.21
632.75	11320.1
633.104	11316.48
633.459	11256.82
633.813	11251.4
634.167	11231.29
634.521	11236.48
634.875	11238.52
635.229	11303.83
635.583	11221.34
635.937	11165.3
636.291	11082.59
636.645	11162.59
636.999	11144.96
637.352	11100.22
637.706	10967.11
638.06	11053.44
638.413	11048.47
638.767	11057.73
639.121	11099.99
639.474	11017.28
639.828	11056.83
640.181	11006.21
640.534	10988.36
640.888	11006.89
641.241	10981.8
641.594	10974.34
641.947	11036.04
642.301	10978.41
642.654	10995.81
643.007	11003.95
643.36	10913.55
643.713	10911.07
644.066	10947.45
644.419	10873.1
644.771	10880.34
645.124	10779.55
645.477	10695.26
645.83	10675.82
646.182	10603.51
646.535	10622.94
646.888	10613.68
647.24	10499.33
647.593	10574.81
647.945	10556.5
648.298	10470.85
648.65	10457.52
649.002	10477.63
649.355	10500.23
649.707	10547.46
650.059	10592.66
650.411	10693.45
650.763	10675.6
651.115	10794.24
651.467	10768.47
651.819	10767.34
652.171	10828.13
652.523	10744.29
652.875	10764.86
653.227	10697.97
653.578	10779.32
653.93	10744.07
654.282	10667.91
654.633	10685.31
654.985	10669.95
655.337	10726.89
655.688	10703.84
656.039	10803.95
656.391	10653.67
656.742	10704.75
657.094	10676.5
657.445	10752.88
657.796	10730.06
658.147	10711.53
658.498	10721.92
658.849	10782.26
659.2	10714.46
659.551	10775.03
659.902	10719.89
660.253	10774.8
660.604	10748.59
660.955	10738.87
661.306	10776.16
661.656	10759.66
662.007	10810.05
662.358	10765.99
662.708	10819.32
663.059	10770.73
663.409	10649.83
663.76	10802.37
664.11	10774.12
664.461	10729.83
664.811	10892.54
665.161	10786.55
665.511	10772.77
665.862	10749.49
666.212	10820.9
666.562	10775.25
666.912	10738.64
667.262	10823.16
667.612	10807.12
667.962	10849.83
668.312	10822.26
668.662	10806.67
669.011	10822.48
669.361	10730.96
669.711	10819.09
670.06	10777.06
670.41	10714.01
670.76	10813.9
671.109	10698.65
671.459	10786.1
671.808	10691.64
672.157	10738.42
672.507	10731.86
672.856	10636.5
673.205	10655.71
673.554	10674.47
673.904	10745.65
674.253	10703.84
674.602	10712.66
674.951	10476.28
675.3	10453
675.649	10653.9
675.998	10611.87
676.346	10616.84
676.695	10588.59
677.044	10590.63
677.393	10563.28
677.741	10511.76
678.09	10561.93
678.438	10477.86
678.787	10567.8
679.135	10475.15
679.484	10413.23
679.832	10509.27
680.181	10422.95
680.529	10488.93
680.877	10408.48
681.225	10345.66
681.573	10489.61
681.922	10382.95
682.27	10242.84
682.618	10344.76
682.966	10380.91
683.314	10306.79
683.661	10219.11
684.009	10225.21
684.357	10242.39
684.705	10184.31
685.053	10184.99
685.4	10200.58
685.748	10133.46
686.095	10163.52
686.443	10070.41
686.79	10015.73
687.138	10050.98
687.485	10073.35
687.832	9995.16
688.18	9955.39
688.527	9924.88
688.874	9997.19
689.221	9921.94
689.568	9853.24
689.915	9845.56
690.262	9874.03
690.609	9903.86
690.956	9790.87
691.303	9705.68
691.65	9649.86
691.997	9710.87
692.344	9613.48
692.69	9593.14
693.037	9652.12
693.383	9509.75
693.73	9460.94
694.077	9430.88
694.423	9392.69
694.769	9415.97
695.116	9387.27
695.462	9392.69
695.808	9326.7
696.155	9316.31
696.501	9214.16
696.847	9271.34
697.193	9170.78
697.539	9155.86
697.885	9075.64
698.231	9084.22
698.577	9077.44
698.923	9063.21
699.269	8925.58
699.614	8854.63
699.96	8885.81
700.306	8873.83
700.651	8896.66
700.997	8820.05
701.342	8781.18
701.688	8787.06
702.033	8685.59
702.379	8726.49
702.724	8727.4
703.069	8686.95
703.415	8599.94
703.76	8588.87
704.105	8585.25
704.45	8592.26
704.795	8498.48
705.14	8443.34
705.485	8521.08
705.83	8439.04
706.175	8487.4
706.52	8434.98
706.865	8384.58
707.209	8330.35
707.554	8310.23
707.899	8331.48
708.243	8253.96
708.588	8223
708.932	8225.04
709.277	8139.84
709.621	8113.63
709.966	8148.2
710.31	8126.06
710.654	8029.79
710.998	8089
711.342	8021.43
711.687	8002.22
712.031	8018.94
712.375	7928.1
712.719	7981.88
713.063	7940.07
713.407	7985.27
713.75	7931.49
714.094	7938.72
714.438	7908.44
714.782	7899.85
715.125	7849.91
715.469	7922.45
715.812	7816.46
716.156	7818.72
716.499	7802.68
716.843	7709.57
717.186	7796.12
717.53	7770.81
717.873	7766.52
718.216	7714.99
718.559	7707.09
718.902	7709.57
719.246	7729.23
719.589	7684.04
719.932	7624.15
720.275	7639.74
720.617	7645.39
720.96	7569.91
721.303	7644.04
721.646	7667.31
721.989	7525.85
722.331	7651.49
722.674	7591.16
723.016	7604.04
723.359	7589.35
723.701	7556.13
724.044	7517.71
724.386	7517.03
724.729	7562
725.071	7547.32
725.413	7545.73
725.755	7481.78
726.097	7497.37
726.439	7462.57
726.782	7499.41
727.124	7503.7
727.465	7506.86
727.807	7514.1
728.149	7409.92
728.491	7484.27
728.833	7503.48
729.175	7419.86
729.516	7423.03
729.858	7452.4
730.199	7451.5
730.541	7468.45
730.882	7404.49
731.224	7437.49
731.565	7472.52
731.906	7401.56
732.248	7418.28
732.589	7401.33
732.93	7413.08
733.271	7325.85
733.612	7450.6
733.953	7458.05
734.294	7416.02
734.635	7430.48
734.976	7446.75
735.317	7400.43
735.658	7463.25
735.999	7400.2
736.339	7432.97
736.68	7416.47
737.021	7437.04
737.361	7449.92
737.702	7533.53
738.042	7445.62
738.383	7445.4
738.723	7515.9
739.063	7496.47
739.404	7524.27
739.744	7488.56
740.084	7501.67
740.424	7515.68
740.764	7551.84
741.104	7580.99
741.444	7505.28
741.784	7512.97
742.124	7552.29
742.464	7602.68
742.804	7587.99
743.143	7608.78
743.483	7683.13
743.823	7649.23
744.162	7652.17
744.502	7697.37
744.841	7752.96
745.181	7788.89
745.52	7814.65
745.86	7822.79
746.199	7862.11
746.538	7925.16
746.877	7979.39
747.216	8025.95
747.556	8005.16
747.895	8052.84
748.234	8057.81
748.573	8152.95
748.911	8216
749.25	8267.52
749.589	8290.35
749.928	8458.48
750.267	8529.66
750.605	8566.72
750.944	8590.23
751.283	8666.83
751.621	8815.76
751.96	8837.23
752.298	8919.03
752.636	9024.34
752.975	9107.05
753.313	9243.09
753.651	9381.62
753.989	9468.17
754.327	9559.01
754.666	9665.68
755.004	9804.66
755.342	9914.71
755.679	10043.52
756.017	10097.98
756.355	10372.78
756.693	10464.53
757.031	10584.3
757.368	10682.6
757.706	10964.4
758.044	11029.71
758.381	11214.56
758.719	11281
759.056	11541.56
759.394	11750.14
759.731	11829.01
760.068	11991.94
760.405	12190.13
760.743	12338.38
761.08	12558.26
761.417	12692.72
761.754	12870.34
762.091	13053.61
762.428	13276.88
762.765	13393.72
763.102	13673.93
763.438	13769.3
763.775	13931.78
764.112	14101.27
764.449	14344.65
764.785	14461.03
765.122	14575.15
765.458	14685.21
765.795	14969.72
766.131	15185.08
766.467	15262.82
766.804	15411.74
767.14	15533.55
767.476	15712.52
767.812	15846.76
768.148	16085.17
768.485	16157.03
768.821	16330.59
769.157	16477.93
769.492	16576.46
769.828	16807.19
770.164	16761.76
770.5	16973.96
770.836	17168.31
771.171	17138.93
771.507	17352.26
771.842	17424.34
772.178	17609.2
772.513	17620.72
772.849	17660.04
773.184	17749.53
773.519	17990.88
773.855	18035.4
774.19	17994.72
774.525	18162.4
774.86	18332.79
775.195	18417.09
775.53	18473.58
775.865	18522.39
776.2	18484.43
776.535	18478.33
776.87	18616.18
777.205	18624.54
777.539	18614.82
777.874	18864.98
778.209	18752.22
778.543	18789.96
778.878	18815.04
779.212	18944.08
779.547	18863.63
779.881	19045.09
780.215	19015.94
780.55	18987.47
780.884	18969.16
781.218	19040.35
781.552	19193.56
781.886	19079.22
782.22	19095.26
782.554	19136.16
782.888	18950.86
783.222	18878.09
783.556	19018.88
783.889	19095.49
784.223	18974.36
784.557	18967.81
784.89	19063.17
785.224	18974.36
785.557	18896.62
785.891	18919.67
786.224	18921.03
786.558	19028.6
786.891	18839
787.224	18812.33
787.557	18898.2
787.891	18913.57
788.224	18815.95
788.557	18908.15
788.89	18899.11
789.223	18912.44
789.556	18786.34
789.888	18818.66
790.221	18843.97
790.554	18666.12
790.887	18733.01
791.219	18664.99
791.552	18549.29
791.884	18529.4
792.217	18544.09
792.549	18627.93
792.882	18466.8
793.214	18434.71
793.546	18559.23
793.879	18438.1
794.211	18171.67
794.543	18365.56
794.875	18310.42
795.207	18491.89
795.539	18301.61
795.871	18381.61
796.203	18103.65
796.535	18030.2
796.867	18128.73
797.198	18081.95
797.53	18061.84
797.862	18035.85
798.193	18065.01
798.525	17904.78
798.856	17992.24
799.188	17776.65
799.519	17697.56
799.85	17617.79
800.182	17748.63
800.513	17619.59
800.844	17633.15
801.175	17666.37
801.506	17597.45
801.837	17593.61
802.168	17552.02
802.499	17445.81
802.83	17453.95
803.161	17394.74
803.491	17367.4
803.822	17410.11
804.153	17235.65
804.483	17260.28
804.814	17138.25
805.145	17098.7
805.475	17157.01
805.805	17056.22
806.136	17054.86
806.466	17049.21
806.796	17069.78
807.126	16868.2
807.457	16895.09
807.787	16940.52
808.117	16828.65
808.447	16748.2
808.777	16805.15
809.107	16687.87
809.436	16651.48
809.766	16603.8
810.096	16462.11
810.426	16607.64
810.755	16606.06
811.085	16554.76
811.414	16519.51
811.744	16358.61
812.073	16423.92
812.403	16355.9
812.732	16231.38
813.061	16275.67
813.39	16203.13
813.719	16112.97
814.049	16273.64
814.378	16163.81
814.707	16138.95
815.036	16070.26
815.365	16078.16
815.693	15987.55
816.022	15999.52
816.351	15894.21
816.68	15836.14
817.008	15896.02
817.337	15822.8
817.665	15747.55
817.994	15809.02
818.322	15810.83
818.651	15699.64
818.979	15714.33
819.307	15742.81
819.636	15703.26
819.964	15688.12
820.292	15633.66
820.62	15688.34
820.948	15619.65
821.276	15717.04
821.604	15589.82
821.932	15640.21
822.259	15725.41
822.587	15562.02
822.915	15541.91
823.243	15590.49
823.57	15531.96
823.898	15613.32
824.225	15526.09
824.553	15580.32
824.88	15579.42
825.207	15620.78
825.535	15566.99
825.862	15612.41
826.189	15628.46
826.516	15639.31
826.843	15630.49
827.17	15620.55
827.497	15581.91
827.824	15608.35
828.151	15688.57
828.478	15623.04
828.805	15651.74
829.131	15572.42
829.458	15553.43
829.785	15519.99
830.111	15627.1
830.438	15690.83
830.764	15620.32
831.09	15692.86
831.417	15666.88
831.743	15602.92
832.069	15647.67
832.395	15550.72
832.722	15590.04
833.048	15569.03
833.374	15611.96
833.7	15539.2
834.026	15583.94
834.351	15560.21
834.677	15506.65
835.003	15584.84
835.329	15476.15
835.654	15437.05
835.98	15452.42
836.306	15423.04
836.631	15392.76
836.956	15402.93
837.282	15456.03
837.607	15379.2
837.932	15356.6
838.258	15342.82
838.583	15285.64
838.908	15262.82
839.233	15294.68
839.558	15201.13
839.883	15171.07
840.208	15092.2
840.533	15198.19
840.858	15192.76
841.182	15206.1
841.507	15100.11
841.832	14950.28
842.156	14992.77
842.481	15050.62
842.805	14991.41
843.13	14948.93
843.454	15004.29
843.778	14794.36
844.103	14849.72
844.427	14756.84
844.751	14825.54
845.075	14669.39
845.399	14707.81
845.723	14530.41
846.047	14615.6
846.371	14513.91
846.695	14451.77
847.019	14405.21
847.343	14313.47
847.666	14254.48
847.99	14248.83
848.313	14220.81
848.637	14079.8
848.96	14049.29
849.284	14063.08
849.607	13983.3
849.931	13881.84
850.254	13811.33
850.577	13745.12
850.9	13721.84
851.223	13634.84
851.546	13639.36
851.869	13496.31
852.192	13631
852.515	13422.42
852.838	13353.94
853.161	13428.52
853.483	13361.17
853.806	13259.48
854.129	13237.56
854.451	13167.96
854.774	13156.66
855.096	13132.93
855.419	13084.57
855.741	13077.57
856.063	12933.84
856.385	12896.55
856.708	12913.95
857.03	12833.05
857.352	12790.79
857.674	12802.09
857.996	12710.34
858.318	12628.76
858.64	12719.38
858.961	12633.06
859.283	12516.68
859.605	12548.54
859.926	12546.73
860.248	12539.5
860.57	12548.31
860.891	12515.55
861.212	12357.13
861.534	12330.92
861.855	12338.15
862.176	12306.06
862.498	12310.58
862.819	12266.06
863.14	12279.85
863.461	12222.67
863.782	12191.94
864.103	12225.38
864.424	12139.06
864.745	12182.22
865.065	12136.57
865.386	12077.82
865.707	11999.85
866.027	12075.78
866.348	11997.14
866.668	12039.63
866.989	11992.62
867.309	11869.01
867.63	11965.28
867.95	11892.74
868.27	11797.6
868.59	11826.3
868.91	11817.03
869.23	11816.81
869.55	11806.41
869.87	11812.06
870.19	11810.93
870.51	11804.38
870.83	11816.81
871.15	11676.02
871.469	11750.37
871.789	11691.84
872.109	11696.36
872.428	11637.6
872.748	11714.44
873.067	11619.52
873.386	11647.09
873.706	11596.7
874.025	11568.68
874.344	11566.65
874.663	11529.13
874.982	11572.75
875.301	11537.95
875.62	11521.9
875.939	11442.81
876.258	11489.81
876.577	11403.26
876.896	11382.47
877.214	11325.07
877.533	11366.88
877.852	11331.62
878.17	11327.56
878.489	11323.49
878.807	11360.55
879.125	11235.13
879.444	11215.47
879.762	11196.26
880.08	11245.52
880.398	11182.7
880.716	11182.47
881.034	11163.94
881.352	11126.66
881.67	11081.23
881.988	11064.74
882.306	10976.38
882.624	10977.06
882.941	11003.95
883.259	10937.51
883.577	10912.65
883.894	10967.79
884.212	10874.69
884.529	10918.07
884.846	10816.38
885.164	10791.07
885.481	10756.5
885.798	10764.18
886.115	10711.53
886.432	10691.41
886.75	10647.35
887.067	10692.32
887.383	10542.94
887.7	10601.25
888.017	10596.73
888.334	10559.44
888.651	10547.69
888.967	10516.28
889.284	10468.82
889.6	10387.02
889.917	10390.18
890.233	10422.04
890.55	10285.77
890.866	10308.15
891.182	10281.48
891.498	10280.13
891.815	10286
892.131	10279.67
892.447	10205.78
892.763	10126.68
893.079	10086.68
893.395	10089.85
893.71	10049.85
894.026	10024.09
894.342	10000.13
894.657	9905.9
894.973	9879.46
895.289	9883.53
895.604	9942.73
895.92	9777.54
896.235	9743.42
896.55	9688.73
896.865	9709.29
897.181	9684.21
897.496	9688.5
897.811	9632.68
898.126	9572.8
898.441	9568.05
898.756	9476.08
899.071	9541.61
899.386	9475.4
899.7	9366.48
900.015	9414.61
900.33	9310.89
900.644	9295.29
900.959	9257.55
901.273	9321.28
901.588	9209.64
901.902	9223.88
902.216	9119.93
902.531	9128.74
902.845	9059.59
903.159	9127.16
903.473	9001.06
903.787	8989.76
904.101	8930.1
904.415	8919.93
904.729	8822.76
905.042	8814.63
905.356	8795.64
905.67	8779.83
905.984	8711.35
906.297	8751.58
906.611	8611.24
906.924	8629.55
907.237	8560.85
907.551	8536.67
907.864	8552.94
908.177	8488.99
908.491	8476.1
908.804	8457.57
909.117	8368.54
909.43	8333.51
909.743	8347.29
910.056	8247.18
910.368	8263.23
910.681	8227.07
910.994	8185.27
911.307	8063.01
911.619	8084.25
911.932	8124.93
912.244	8035.66
912.557	8006.74
912.869	7953.63
913.181	7928.77
913.494	7936.68
913.806	7860.3
914.118	7836.35
914.43	7787.99
914.742	7750.25
915.054	7775.33
915.366	7750.93
915.678	7660.53
915.99	7641.78
916.302	7604.72
916.613	7603.59
916.925	7631.38
917.236	7560.42
917.548	7490.59
917.859	7478.84
918.171	7509.58
918.482	7369.02
918.794	7367.43
919.105	7367.89
919.416	7308.23
919.727	7327.43
920.038	7240.43
920.349	7234.33
920.66	7185.74
920.971	7244.5
921.282	7201.34
921.593	7151.39
921.903	7061.23
922.214	7070.72
922.525	7023.94
922.835	6955.24
923.146	6982.81
923.456	6938.74
923.767	6848.8
924.077	6842.48
924.387	6832.08
924.697	6872.08
925.008	6825.98
925.318	6814
925.628	6753.66
925.938	6699.43
926.248	6707.11
926.558	6625.31
926.867	6633.67
927.177	6619.43
927.487	6522.26
927.796	6535.59
928.106	6580.79
928.416	6481.36
928.725	6462.15
929.034	6446.55
929.344	6470.51
929.653	6431.41
929.962	6377.63
930.271	6343.28
930.581	6307.57
930.89	6244.3
931.199	6287.91
931.508	6248.37
931.817	6247.46
932.125	6191.65
932.434	6180.35
932.743	6093.57
933.051	6153
933.36	6164.08
933.669	6030.52
933.977	6038.43
934.286	6048.37
934.594	6018.99
934.902	5964.53
935.21	5924.76
935.519	5949.62
935.827	5865.78
936.135	5807.47
936.443	5811.09
936.751	5810.86
937.059	5788.27
937.367	5815.16
937.674	5793.46
937.982	5727.25
938.29	5653.35
938.597	5706.23
938.905	5558.89
939.213	5592.56
939.52	5590.76
939.827	5629.63
940.135	5549.85
940.442	5522.96
940.749	5541.04
941.056	5521.38
941.363	5419.01
941.67	5426.69
941.977	5448.84
942.284	5338.56
942.591	5357.99
942.898	5322.29
943.205	5337.2
943.511	5267.6
943.818	5279.35
944.125	5228.51
944.431	5229.18
944.738	5225.34
945.044	5180.15
945.35	5226.7
945.657	5139.24
945.963	5059.7
946.269	5048.4
946.575	5066.48
946.881	5062.86
947.187	5032.35
947.493	4984.9
947.799	4988.06
948.105	4947.84
948.41	4938.8
948.716	4978.34
949.022	4904.9
949.327	4912.58
949.633	4819.48
949.938	4825.35
950.244	4805.01
950.549	4778.35
950.854	4776.32
951.16	4786.94
951.465	4726.15
951.77	4714.62
952.075	4694.06
952.38	4667.39
952.685	4671.01
952.99	4651.12
953.294	4625.13
953.599	4572.25
953.904	4557.56
954.209	4564.34
954.513	4527.28
954.818	4510.79
955.122	4562.76
955.426	4507.85
955.731	4455.65
956.035	4409.55
956.339	4475.31
956.643	4447.96
956.948	4364.35
957.252	4362.54
957.556	4338.36
957.86	4305.14
958.163	4310.79
958.467	4268.76
958.771	4316.21
959.075	4250.91
959.378	4225.82
959.682	4184.47
959.985	4204.58
960.289	4188.76
960.592	4129.33
960.896	4129.1
961.199	4092.49
961.502	4115.54
961.805	4138.14
962.108	4089.1
962.411	4030.8
962.714	4045.26
963.017	3986.96
963.32	3979.27
963.623	3944.47
963.926	4001.19
964.228	3929.33
964.531	3935.89
964.833	3943.79
965.136	3873.97
965.438	3864.7
965.741	3861.08
966.043	3857.24
966.345	3852.05
966.648	3845.27
966.95	3805.27
967.252	3789.45
967.554	3741.09
967.856	3727.53
968.158	3761.65
968.46	3728.43
968.761	3731.37
969.063	3674.88
969.365	3671.71
969.666	3681.88
969.968	3666.06
970.269	3619.96
970.571	3566.86
970.872	3576.35
971.174	3563.47
971.475	3569.79
971.776	3551.94
972.077	3528.44
972.378	3542.68
972.679	3509.23
972.98	3470.81
973.281	3450.93
973.582	3454.99
973.883	3408.67
974.183	3426.29
974.484	3429.23
974.785	3374.77
975.085	3356.92
975.386	3393.3
975.686	3350.14
975.986	3324.15
976.287	3305.17
976.587	3274.89
976.887	3297.03
977.187	3268.11
977.487	3276.69
977.787	3247.99
978.087	3259.07
978.387	3207.32
978.687	3203.02
978.987	3196.47
979.286	3164.15
979.586	3148.79
979.885	3134.55
980.185	3147.66
980.484	3113.53
980.784	3116.25
981.083	3087.55
981.382	3057.72
981.682	3043.93
981.981	3056.59
982.28	3025.85
982.579	3019.98
982.878	3011.62
983.177	3018.17
983.475	2993.99
983.774	2958.28
984.073	2961
984.372	2937.27
984.67	2915.35
984.969	2900.21
985.267	2871.73
985.566	2850.49
985.864	2885.29
986.162	2836.71
986.461	2821.79
986.759	2851.39
987.057	2789.7
987.355	2798.51
987.653	2767.1
987.951	2791.73
988.249	2751.28
988.547	2768.23
988.844	2750.15
989.142	2713.77
989.44	2742.47
989.737	2698.4
990.035	2678.29
990.332	2673.09
990.63	2657.95
990.927	2657.05
991.224	2644.62
991.521	2637.61
991.819	2614.34
992.116	2656.6
992.413	2577.73
992.71	2598.29
993.006	2556.71
993.303	2545.64
993.6	2539.76
993.897	2549.93
994.193	2514.23
994.49	2538.18
994.787	2481.23
995.083	2464.51
995.379	2460.22
995.676	2450.73
995.972	2437.62
996.268	2448.24
996.565	2433.78
996.861	2375.47
997.157	2367.79
997.453	2413.67
997.749	2356.72
998.044	2319.66
998.34	2351.52
998.636	2318.53
998.932	2318.53
999.227	2284.63
999.523	2307
999.818	2254.12
1000.114	2283.27
1000.409	2254.12
1000.704	2254.8
1001	2213.22
1001.295	2255.93
1001.59	2207.12
1001.885	2182.03
1002.18	2182.48
1002.475	2179.77
1002.77	2166.21
1003.065	2152.2
1003.359	2149.49
1003.654	2138.42
1003.949	2111.07
1004.243	2103.84
1004.538	2083.5
1004.832	2103.39
1005.127	2091.64
1005.421	2069.49
1005.715	2016.39
1006.009	2039.21
1006.304	2032.88
1006.598	2002.38
1006.892	2000.12
1007.186	2003.96
1007.48	2017.74
1007.773	1938.65
1008.067	1935.26
1008.361	1924.19
1008.655	1965.99
1008.948	1925.32
1009.242	1905.2
1009.535	1872.21
1009.829	1893
1010.122	1891.42
1010.415	1875.83
1010.708	1859.1
1011.001	1824.98
1011.295	1821.59
1011.588	1857.75
1011.881	1832.44
1012.173	1820.46
1012.466	1797.64
1012.759	1764.64
1013.052	1796.73
1013.344	1760.8
1013.637	1750.18
1013.93	1735.72
1014.222	1718.09
1014.514	1721.25
1014.807	1741.14
1015.099	1699.33
1015.391	1679.67
1015.683	1685.1
1015.976	1664.08
1016.268	1645.1
1016.56	1635.15
1016.851	1680.58
1017.143	1616.4
1017.435	1593.35
1017.727	1613.69
1018.018	1609.17
1018.31	1625.21
1018.602	1579.11
1018.893	1568.04
1019.185	1515.61
1019.476	1539.79
1019.767	1540.69
1020.058	1547.7
1020.35	1542.28
1020.641	1509.96
1020.932	1510.19
1021.223	1463.63
1021.514	1440.81
1021.804	1443.3
1022.095	1436.97
1022.386	1437.87
1022.677	1434.48
1022.967	1471.54
1023.258	1433.13
1023.548	1429.51
1023.839	1383.41
1024.129	1394.48
1024.419	1391.32
1024.709	1351.77
1025	1356.74
1025.29	1342.06
1025.58	1359.46
1025.87	1306.8
1026.16	1324.65
1026.449	1334.82
1026.739	1319.23
1027.029	1287.82
1027.319	1311.77
1027.608	1279.23
1027.898	1279.68
1028.187	1258.44
1028.477	1265.22
1028.766	1273.58
1029.055	1242.4
1029.344	1231.1
1029.634	1227.48
1029.923	1214.15
1030.212	1230.87
1030.501	1223.41
1030.79	1217.99
1031.078	1193.81
1031.367	1161.04
1031.656	1188.84
1031.945	1181.61
1032.233	1142.06
1032.522	1157.88
1032.81	1136.64
1033.099	1130.31
1033.387	1125.34
1033.675	1115.17
1033.963	1109.52
1034.251	1109.74
1034.54	1098.45
1034.828	1098.9
1035.116	1101.84
1035.403	1069.75
1035.691	1047.15
1035.979	1076.3
1036.267	1047.15
1036.554	1060.25
1036.842	1044.21
1037.129	1032.23
1037.417	1035.62
1037.704	998.56
1037.992	997.43
1038.279	997.66
1038.566	1018.9
1038.853	1018.9
1039.14	1018.9
