Data from hue_130_FLMS001491_00015.txt Node
Date: Tue Feb 07 16:57:14 GMT 2017
User: dcchb
Spectrometer: FLMS00149
Trigger mode: 0
Integration Time (sec): 2.000000E-2
Scans to average: 10
Electric dark correction enabled: true
Nonlinearity correction enabled: false
Boxcar width: 0
XAxis mode: Wavelengths
Number of Pixels in Spectrum: 2048
>>>>>Begin Spectral Data<<<<<
341.393	-16.91
341.776	-16.91
342.16	-16.91
342.543	-52.84
342.927	-65.94
343.31	-55.1
343.693	-57.58
344.077	-57.36
344.46	-66.4
344.843	-64.59
345.226	-48.54
345.61	-16.68
345.993	-7.19
346.376	-3.8
346.759	23.32
347.142	9.31
347.525	36.65
347.908	53.83
348.291	62.41
348.674	91.34
349.057	100.38
349.44	123.88
349.823	132.47
350.206	176.99
350.588	193.94
350.971	213.14
351.354	209.53
351.737	229.87
352.119	247.95
352.502	271.67
352.884	289.3
353.267	274.61
353.65	280.04
354.032	288.4
354.414	296.53
354.797	314.16
355.179	318
355.562	322.97
355.944	316.64
356.326	333.37
356.709	329.3
357.091	332.24
357.473	334.04
357.855	336.76
358.238	326.36
358.62	327.04
359.002	345.8
359.384	347.83
359.766	340.37
360.148	337.43
360.53	321.84
360.912	336.53
361.294	324.33
361.676	345.34
362.057	336.53
362.439	332.24
362.821	335.63
363.203	351.9
363.584	329.75
363.966	339.24
364.348	313.03
364.729	321.39
365.111	321.39
365.493	323.88
365.874	294.05
366.256	308.96
366.637	311.45
367.019	300.83
367.4	328.62
367.781	315.74
368.163	309.86
368.544	298.11
368.925	303.54
369.306	315.29
369.688	316.87
370.069	306.93
370.45	311.45
370.831	322.52
371.212	322.07
371.593	311.9
371.974	308.51
372.355	341.73
372.736	312.35
373.117	298.11
373.498	340.15
373.879	310.99
374.26	320.26
374.641	309.41
375.021	315.74
375.402	296.53
375.783	310.32
376.163	318.9
376.544	320.94
376.925	332.46
377.305	319.13
377.686	325.46
378.066	320.26
378.447	324.33
378.827	316.19
379.208	336.98
379.588	317.55
379.968	323.2
380.349	329.98
380.729	341.95
381.109	359.35
381.489	359.35
381.87	337.89
382.25	323.2
382.63	341.28
383.01	360.26
383.39	345.57
383.77	363.65
384.15	338.56
384.53	339.47
384.91	335.4
385.29	324.55
385.67	351.9
386.049	348.51
386.429	350.77
386.809	353.71
387.189	357.77
387.568	357.55
387.948	367.94
388.328	347.83
388.707	351.45
389.087	359.81
389.466	344.44
389.846	354.38
390.225	370.2
390.605	370.2
390.984	360.71
391.363	341.95
391.743	374.5
392.122	373.14
392.501	358.45
392.881	362.29
393.26	374.5
393.639	381.5
394.018	373.59
394.397	381.05
394.776	386.02
395.155	374.72
395.534	381.73
395.913	376.08
396.292	364.1
396.671	382.41
397.05	383.54
397.429	392.8
397.808	394.83
398.186	376.3
398.565	403.2
398.944	354.84
399.323	400.48
399.701	408.85
400.08	382.63
400.458	408.85
400.837	404.33
401.215	398.68
401.594	400.03
401.972	408.62
402.351	404.1
402.729	397.55
403.107	405.46
403.486	411.56
403.864	402.97
404.242	429.86
404.62	430.09
404.999	408.39
405.377	397.55
405.755	422.86
406.133	427.38
406.511	441.61
406.889	406.81
407.267	426.92
407.645	438.22
408.023	421.05
408.401	418.79
408.779	445.45
409.156	453.36
409.534	454.04
409.912	436.87
410.29	452.69
410.667	464.66
411.045	460.82
411.422	456.53
411.8	489.3
412.178	481.39
412.555	467.83
412.933	468.28
413.31	491.33
413.687	475.74
414.065	489.52
414.442	476.87
414.819	481.16
415.197	482.06
415.574	496.3
415.951	491.55
416.328	482.06
416.705	503.08
417.082	499.46
417.46	513.25
417.837	511.22
418.214	506.24
418.591	504.21
418.967	540.37
419.344	522.06
419.721	516.41
420.098	526.36
420.475	538.56
420.852	534.72
421.228	527.71
421.605	531.55
421.982	552.12
422.358	557.32
422.735	556.86
423.111	549.18
423.488	553.02
423.864	563.19
424.241	561.38
424.617	546.47
424.994	578.11
425.37	569.74
425.746	575.85
426.123	550.08
426.499	571.33
426.875	585.34
427.251	578.33
427.627	588.5
428.003	597.54
428.379	599.8
428.756	607.26
429.132	601.38
429.507	620.59
429.883	608.16
430.259	617.2
430.635	633.92
431.011	626.92
431.387	646.13
431.763	642.96
432.138	626.01
432.514	651.78
432.89	675.5
433.265	683.87
433.641	690.87
434.016	705.11
434.392	664.43
434.767	703.07
435.143	704.66
435.518	709.4
435.894	691.1
436.269	705.11
436.644	713.92
437.02	727.93
437.395	742.85
437.77	718.67
438.145	733.58
438.52	734.49
438.895	748.72
439.271	760.93
439.646	764.77
440.021	757.99
440.395	796.41
440.77	774.94
441.145	772.9
441.52	763.86
441.895	800.7
442.27	802.06
442.645	787.82
443.019	803.19
443.394	791.89
443.769	843.64
444.143	814.26
444.518	819.91
444.892	825.33
445.267	858.1
445.641	844.54
446.016	838.66
446.39	856.74
446.764	863.07
447.139	864.43
447.513	866.23
447.887	862.84
448.262	879.79
448.636	901.49
449.01	893.8
449.384	898.55
449.758	925.22
450.132	909.85
450.506	929.06
450.88	915.27
451.254	925.89
451.628	936.29
452.002	956.18
452.376	958.89
452.75	965.89
453.123	964.76
453.497	977.19
453.871	981.94
454.244	996.85
454.618	1000.24
454.992	1003.41
455.365	1018.77
455.739	1030.98
456.112	1041.14
456.486	1064.42
456.859	1083.86
457.232	1079.56
457.606	1088.6
457.979	1092.22
458.352	1096.74
458.725	1146.9
459.099	1152.1
459.472	1159.11
459.845	1128.15
460.218	1172.67
460.591	1193.23
460.964	1204.76
461.337	1215.38
461.71	1240.01
462.083	1234.59
462.456	1269.61
462.829	1263.29
463.201	1282.04
463.574	1311.42
463.947	1310.74
464.32	1334.92
464.692	1387.12
465.065	1369.05
465.438	1398.42
465.81	1422.15
466.183	1447.46
466.555	1461.25
466.928	1489.72
467.3	1447.01
467.672	1491.53
468.045	1542.83
468.417	1568.14
468.789	1574.92
469.161	1591.64
469.534	1622.37
469.906	1644.97
470.278	1680.9
470.65	1693.56
471.022	1772.43
471.394	1787.11
471.766	1811.75
472.138	1870.28
472.51	1877.51
472.882	1935.58
473.253	1970.61
473.625	1942.36
473.997	2069.82
474.369	2093.32
474.74	2140.1
475.112	2127.22
475.484	2236.37
475.855	2264.84
476.227	2315.24
476.598	2404.95
476.97	2398.85
477.341	2543.7
477.713	2561.78
478.084	2591.61
478.455	2692.17
478.827	2743.25
479.198	2833.41
479.569	2889.46
479.94	3037.02
480.311	3074.54
480.682	3131.26
481.053	3255.1
481.424	3345.49
481.795	3407.18
482.166	3489.67
482.537	3582.1
482.908	3695.99
483.279	3745.03
483.65	3909.77
484.021	3991.35
484.391	4100.27
484.762	4156.32
485.133	4218.46
485.503	4367.16
485.874	4499.81
486.244	4665.46
486.615	4748.17
486.985	4890.54
487.356	4948.61
487.726	5109.74
488.097	5217.98
488.467	5346.57
488.837	5516.73
489.207	5628.59
489.578	5760.57
489.948	5854.13
490.318	6020.22
490.688	6127.11
491.058	6254.34
491.428	6379.08
491.798	6541.34
492.168	6719.64
492.538	6810.71
492.908	7003.02
493.278	7154.43
493.648	7174.77
494.017	7328.66
494.387	7498.15
494.757	7554.19
495.126	7779.05
495.496	7827.86
495.866	7970
496.235	8148.75
496.605	8252.25
496.974	8382.42
497.344	8458.8
497.713	8598.23
498.082	8737.21
498.452	8850.66
498.821	8917.77
499.19	8969.98
499.559	9173.13
499.928	9240.25
500.298	9366.35
500.667	9438.89
501.036	9503.3
501.405	9635.04
501.774	9684.08
502.143	9842.27
502.512	9942.61
502.88	10016.28
503.249	10101.7
503.618	10167.23
503.987	10311.18
504.356	10340.11
504.724	10394.35
505.093	10544.62
505.462	10465.3
505.83	10690.61
506.199	10707.56
506.567	10915.91
506.936	10963.82
507.304	10962.47
507.672	11091.95
508.041	11140.31
508.409	11249.01
508.777	11284.72
509.145	11409.91
509.514	11516.8
509.882	11547.99
510.25	11632.73
510.618	11563.35
510.986	11671.6
511.354	11796.79
511.722	11795.89
512.09	11919.05
512.458	11908.2
512.826	11941.2
513.193	12109.33
513.561	12049.9
513.929	12129.67
514.297	12209.66
514.664	12293.05
515.032	12317.23
515.4	12476.55
515.767	12401.3
516.135	12475.42
516.502	12372.15
516.869	12636.32
517.237	12654.85
517.604	12545.48
517.972	12671.12
518.339	12644.68
518.706	12688.07
519.073	12786.82
519.44	12817.78
519.808	12835.19
520.175	12847.39
520.542	12967.16
520.909	12971.23
521.276	12943.43
521.643	13172.8
522.009	13113.37
522.376	13159.92
522.743	13140.49
523.11	13208.28
523.477	13304.78
523.843	13335.51
524.21	13372.35
524.577	13468.61
524.943	13450.54
525.31	13438.33
525.676	13520.82
526.043	13616.41
526.409	13617.99
526.776	13718.78
527.142	13647.59
527.508	13660.25
527.874	13745.9
528.241	13707.25
528.607	13597.65
528.973	13769.62
529.339	13675.39
529.705	13815.72
530.071	13756.74
530.437	13775.5
530.803	13826.35
531.169	13879.45
531.535	13799.68
531.901	13815.05
532.267	13802.62
532.632	13801.94
532.998	13836.74
533.364	13893.46
533.73	13834.93
534.095	13794.48
534.461	13869.28
534.826	13864.99
535.192	13767.82
535.557	13779.79
535.923	13813.01
536.288	13729.85
536.653	13726.46
537.019	13740.02
537.384	13733.69
537.749	13670.87
538.114	13660.47
538.479	13625.22
538.845	13660.93
539.21	13549.29
539.575	13543.87
539.94	13460.93
540.305	13607.82
540.67	13444.66
541.034	13532.34
541.399	13493.02
541.764	13459.58
542.129	13432.68
542.494	13343.19
542.858	13363.98
543.223	13303.65
543.587	13297.77
543.952	13258.9
544.316	13259.81
544.681	13185.68
545.045	13231.11
545.41	13258.22
545.774	13174.39
546.138	13103.88
546.503	13083.54
546.867	13066.82
547.231	13072.69
547.595	13082.64
547.959	12996.08
548.324	13039.02
548.688	13047.61
549.052	12920.83
549.416	12894.62
549.779	12900.04
550.143	12846.48
550.507	12876.77
550.871	12737.56
551.235	12691.01
551.599	12810.33
551.962	12758.8
552.326	12684.45
552.689	12735.98
553.053	12595.64
553.417	12587.51
553.78	12695.3
554.143	12539.15
554.507	12582.54
554.87	12624.34
555.234	12636.55
555.597	12557
555.96	12522.88
556.323	12474.06
556.686	12536.89
557.05	12498.92
557.413	12441.52
557.776	12396.33
558.139	12466.38
558.502	12531.46
558.865	12369.21
559.228	12457.12
559.59	12425.48
559.953	12377.57
560.316	12452.82
560.679	12503.44
561.041	12415.54
561.404	12493.05
561.767	12531.69
562.129	12416.44
562.492	12535.76
562.854	12457.57
563.217	12552.71
563.579	12490.34
563.941	12484.01
564.304	12577.11
564.666	12657.11
565.028	12538.47
565.39	12605.36
565.753	12612.14
566.115	12566.94
566.477	12601.29
566.839	12595.87
567.201	12686.04
567.563	12627.73
567.925	12728.52
568.287	12635.42
568.648	12665.7
569.01	12741.85
569.372	12775.3
569.734	12689.2
570.095	12775.3
570.457	12826.6
570.819	12730.1
571.18	12746.15
571.542	12850.55
571.903	12808.52
572.265	12811.46
572.626	12828.63
572.987	12849.65
573.349	12841.96
573.71	12846.03
574.071	12804.23
574.432	12909.99
574.794	12912.7
575.155	12928.29
575.516	12957.67
575.877	12896.65
576.238	12925.8
576.599	12992.24
576.96	12925.13
577.32	12947.72
577.681	12924.45
578.042	12983.66
578.403	13038.57
578.763	12905.24
579.124	12947.72
579.485	13032.92
579.845	13059.81
580.206	13055.74
580.566	13001.06
580.927	12961.06
581.287	12983.43
581.648	12947.27
582.008	13023.65
582.368	12994.73
582.728	12927.39
583.089	12978.01
583.449	12916.99
583.809	12978.91
584.169	12864.56
584.529	12911.57
584.889	13009.87
585.249	12999.25
585.609	12837.22
585.969	12964.9
586.329	12852.13
586.688	12858.24
587.048	12835.64
587.408	12792.25
587.768	12947.05
588.127	12856.65
588.487	12811.23
588.846	12827.05
589.206	12738.24
589.565	12738.24
589.925	12852.36
590.284	12808.29
590.643	12834.51
591.003	12871.57
591.362	12786.15
591.721	12860.27
592.08	12799.71
592.44	12838.12
592.799	12863.21
593.158	12750.44
593.517	12772.36
593.876	12769.2
594.235	12710.89
594.593	12692.36
594.952	12742.31
595.311	12681.97
595.67	12707.28
596.029	12786.37
596.387	12690.33
596.746	12818.01
597.104	12698.01
597.463	12720.39
597.822	12830.89
598.18	12688.07
598.538	12714.28
598.897	12777.33
599.255	12615.76
599.613	12809.65
599.972	12712.02
600.33	12719.71
600.688	12716.77
601.046	12721.97
601.404	12771.91
601.762	12661.4
602.12	12728.07
602.478	12679.48
602.836	12767.84
603.194	12695.3
603.552	12702.53
603.91	12685.58
604.268	12675.19
604.625	12684
604.983	12681.06
605.341	12672.93
605.698	12801.29
606.056	12791.57
606.413	12708.63
606.771	12737.11
607.128	12842.19
607.485	12653.72
607.843	12720.84
608.2	12788.86
608.557	12856.88
608.914	12797.9
609.272	12860.95
609.629	12825.24
609.986	12807.62
610.343	12802.19
610.7	12879.03
611.057	12898.91
611.414	12862.53
611.771	12839.48
612.127	12858.69
612.484	12896.43
612.841	12891.91
613.198	12954.28
613.554	12821.17
613.911	12967.16
614.267	12959.7
614.624	12983.66
614.98	13028.85
615.337	13045.8
615.693	12995.86
616.05	12923.54
616.406	13022.75
616.762	12995.18
617.118	12981.62
617.475	12986.37
617.831	13118.12
618.187	13075.86
618.543	13089.87
618.899	13014.39
619.255	13025.46
619.611	12991.57
619.967	13154.95
620.323	13119.7
620.678	13054.61
621.034	13125.8
621.39	13067.95
621.746	13009.64
622.101	13113.82
622.457	13059.36
622.812	13143.88
623.168	13161.5
623.523	13177.1
623.879	13154.5
624.234	13129.64
624.589	13098.68
624.945	13157.89
625.3	13108.62
625.655	13075.86
626.01	13174.16
626.365	13132.35
626.72	13077.44
627.075	13128.96
627.43	13121.28
627.785	13035.18
628.14	13196.31
628.495	13108.17
628.85	13180.03
629.205	12994.28
629.559	13152.46
629.914	13073.37
630.269	13057.33
630.623	13088.51
630.978	13015.97
631.332	13020.04
631.687	13063.88
632.041	12975.75
632.396	13036.76
632.75	13055.74
633.104	12944.11
633.459	12858.69
633.813	12976.42
634.167	12883.55
634.521	12933.71
634.875	12977.33
635.229	12900.72
635.583	12837.9
635.937	12828.63
636.291	12791.12
636.645	12803.1
636.999	12728.3
637.352	12789.76
637.706	12730.56
638.06	12756.09
638.413	12699.14
638.767	12710.22
639.121	12716.32
639.474	12661.63
639.828	12624.8
640.181	12710.22
640.534	12646.04
640.888	12676.32
641.241	12597.23
641.594	12595.19
641.947	12637.45
642.301	12642.42
642.654	12492.82
643.007	12673.16
643.36	12571.46
643.713	12533.5
644.066	12567.17
644.419	12514.52
644.771	12545.7
645.124	12339.6
645.477	12382.77
645.83	12272.49
646.182	12225.48
646.535	12235.65
646.888	12268.65
647.24	12148.42
647.593	12217.12
647.945	12166.28
648.298	12104.81
648.65	12100.97
649.002	12090.12
649.355	12201.53
649.707	12145.26
650.059	12153.4
650.411	12377.34
650.763	12378.02
651.115	12487.85
651.467	12408.3
651.819	12352.49
652.171	12384.8
652.523	12400.62
652.875	12422.99
653.227	12357.01
653.578	12470.45
653.93	12425.25
654.282	12355.2
654.633	12306.84
654.985	12297.35
655.337	12362.66
655.688	12412.6
656.039	12441.98
656.391	12340.06
656.742	12368.76
657.094	12392.94
657.445	12452.6
657.796	12359.94
658.147	12298.02
658.498	12333.28
658.849	12425.93
659.2	12393.16
659.551	12408.98
659.902	12429.09
660.253	12354.07
660.604	12406.95
660.955	12323.56
661.306	12468.64
661.656	12393.84
662.007	12471.58
662.358	12430
662.708	12442.2
663.059	12450.11
663.409	12345.93
663.76	12434.97
664.11	12524.01
664.461	12474.29
664.811	12403.11
665.161	12410.56
665.511	12453.27
665.862	12455.31
666.212	12476.1
666.562	12452.6
666.912	12446.49
667.262	12456.89
667.612	12400.17
667.962	12548.19
668.312	12425.25
668.662	12447.85
669.011	12445.14
669.361	12434.07
669.711	12390.45
670.06	12442.88
670.41	12453.5
670.76	12394.97
671.109	12414.63
671.459	12399.26
671.808	12426.16
672.157	12420.05
672.507	12282.88
672.856	12217.12
673.205	12306.84
673.554	12385.03
673.904	12318.36
674.253	12397.68
674.602	12274.75
674.951	12189.33
675.3	12123.57
675.649	12345.48
675.998	12254.18
676.346	12277.01
676.695	12324.69
677.044	12202.43
677.393	12222.55
677.741	12282.66
678.09	12171.93
678.438	12150.23
678.787	12214.18
679.135	12134.86
679.484	12058.03
679.832	12170.57
680.181	12034.3
680.529	12079.05
680.877	11990.01
681.225	12008.77
681.573	12049.9
681.922	11951.82
682.27	11941.88
682.618	11880.18
682.966	11944.36
683.314	11875.66
683.661	11924.93
684.009	11781.65
684.357	11776.46
684.705	11803.35
685.053	11767.64
685.4	11804.03
685.748	11641.54
686.095	11681.09
686.443	11707.98
686.79	11630.02
687.138	11607.87
687.485	11684.93
687.832	11675.89
688.18	11646.06
688.527	11559.74
688.874	11540.3
689.221	11544.82
689.568	11458.05
689.915	11427.09
690.262	11415.56
690.609	11378.95
690.956	11357.26
691.303	11319.52
691.65	11286.53
691.997	11275.9
692.344	11188.9
692.69	11151.84
693.037	11158.62
693.383	11032.97
693.73	11096.47
694.077	10997.49
694.423	11015.12
694.769	10936.7
695.116	10921.34
695.462	10875.91
695.808	10926.99
696.155	10884.28
696.501	10774.45
696.847	10724.73
697.193	10613.55
697.539	10710.04
697.885	10662.36
698.231	10557.05
698.577	10583.04
698.923	10568.58
699.269	10469.6
699.614	10421.92
699.96	10439.99
700.306	10422.37
700.651	10344.4
700.997	10332.43
701.342	10306.89
701.688	10289.72
702.033	10228.25
702.379	10155.93
702.724	10238.19
703.069	10124.52
703.415	10037.07
703.76	10028.25
704.105	10003.17
704.45	10023.51
704.795	9943.74
705.14	9956.62
705.485	9912.55
705.83	9896.28
706.175	9838.43
706.52	9750.52
706.865	9779.45
707.209	9715.72
707.554	9705.32
707.899	9776.28
708.243	9711.2
708.588	9622.39
708.932	9589.17
709.277	9573.12
709.621	9576.06
709.966	9486.8
710.31	9415.84
710.654	9372.23
710.998	9419
711.342	9425.56
711.687	9414.71
712.031	9402.28
712.375	9355.73
712.719	9332.68
713.063	9326.12
713.407	9306.46
713.75	9285.45
714.094	9300.81
714.438	9205
714.782	9235.73
715.125	9139.69
715.469	9173.13
715.812	9108.05
716.156	9151.67
716.499	9105.34
716.843	9161.16
717.186	9040.03
717.53	9160.71
717.873	9114.83
718.216	9077.77
718.559	9070.99
718.902	9003.42
719.246	9031.67
719.589	8935.4
719.932	8950.99
720.275	8999.35
720.617	8930.2
720.96	8917.32
721.303	8933.37
721.646	8954.38
721.989	8874.16
722.331	8939.47
722.674	8895.4
723.016	8888.17
723.359	8910.77
723.701	8875.06
724.044	8846.82
724.386	8808.17
724.729	8822.86
725.071	8811.34
725.413	8800.04
725.755	8831.22
726.097	8741.73
726.439	8760.72
726.782	8783.09
727.124	8781.73
727.465	8694.05
727.807	8739.02
728.149	8739.93
728.491	8732.24
728.833	8741.06
729.175	8744.9
729.516	8721.39
729.858	8682.07
730.199	8715.52
730.541	8713.49
730.882	8675.75
731.224	8735.18
731.565	8735.41
731.906	8671
732.248	8753.48
732.589	8650.44
732.93	8639.82
733.271	8695.63
733.612	8666.03
733.953	8618.12
734.294	8712.36
734.635	8692.92
734.976	8731.34
735.317	8645.92
735.658	8744.45
735.999	8705.12
736.339	8666.71
736.68	8726.14
737.021	8666.48
737.361	8689.31
737.702	8748.29
738.042	8707.38
738.383	8657.44
738.723	8675.29
739.063	8630.1
739.404	8721.85
739.744	8693.83
740.084	8670.55
740.424	8773.15
740.764	8694.95
741.104	8767.95
741.444	8724.33
741.784	8766.37
742.124	8779.25
742.464	8849.3
742.804	8839.13
743.143	8855.85
743.483	8835.97
743.823	8765.91
744.162	8883.2
744.502	8933.37
744.841	8977.89
745.181	9018.11
745.52	9016.08
745.86	9033.25
746.199	9062.18
746.538	9120.71
746.877	9153.93
747.216	9203.42
747.556	9223.53
747.895	9296.75
748.234	9303.53
748.573	9362.28
748.911	9387.37
749.25	9515.72
749.589	9554.59
749.928	9641.6
750.267	9649.05
750.605	9698.09
750.944	9789.39
751.283	9806.34
751.621	9976.05
751.96	10048.37
752.298	10040.91
752.636	10295.14
752.975	10224.41
753.313	10294.69
753.651	10591.18
753.989	10568.58
754.327	10683.6
754.666	10774.22
755.004	10931.96
755.342	11060.99
755.679	11189.13
756.017	11187.09
756.355	11441.78
756.693	11490.14
757.031	11613.97
757.368	11788.88
757.706	11923.8
758.044	12109.78
758.381	12291.7
758.719	12344.58
759.056	12547.51
759.394	12683.1
759.731	12720.61
760.068	12917.22
760.405	13003.32
760.743	13162.41
761.08	13423.87
761.417	13538.44
761.754	13657.31
762.091	13879.45
762.428	13971.65
762.765	14104.08
763.102	14297.07
763.438	14470.4
763.775	14558.98
764.112	14783.83
764.449	14957.16
764.785	15096.59
765.122	15142.92
765.458	15251.62
765.795	15443.03
766.131	15638.95
766.467	15727.76
766.804	15849.57
767.14	15973.41
767.476	16105.38
767.812	16231.25
768.148	16356
768.485	16466.05
768.821	16516.22
769.157	16643.22
769.492	16768.87
769.828	16899.26
770.164	16995.98
770.5	16972.25
770.836	17278.91
771.171	17207.05
771.507	17303.99
771.842	17381.28
772.178	17470.54
772.513	17544.21
772.849	17663.98
773.184	17653.14
773.519	17756.64
773.855	17800.03
774.19	17926.12
774.525	17934.49
774.86	18016.07
775.195	18097.42
775.53	18168.38
775.865	18118.89
776.2	18004.77
776.535	18120.47
776.87	18142.84
777.205	18206.34
777.539	18139.45
777.874	18323.18
778.209	18245.44
778.543	18208.38
778.878	18208.83
779.212	18320.69
779.547	18293.35
779.881	18416.96
780.215	18391.65
780.55	18424.87
780.884	18424.87
781.218	18369.73
781.552	18388.71
781.886	18449.5
782.22	18306
782.554	18343.97
782.888	18247.92
783.222	18261.03
783.556	18303.74
783.889	18222.84
784.223	18194.37
784.557	18140.13
784.89	18285.66
785.224	18220.13
785.557	18162.95
785.891	18092.45
786.224	18148.27
786.558	18191.43
786.891	17998.67
787.224	18035.05
787.557	17968.84
787.891	17929.97
788.224	18051.77
788.557	18058.55
788.89	18016.74
789.223	18016.07
789.556	17852.68
789.888	17900.14
790.221	17839.57
790.554	17679.35
790.887	17787.6
791.219	17688.84
791.552	17700.14
791.884	17665.11
792.217	17586.92
792.549	17627.6
792.882	17566.36
793.214	17401.84
793.546	17586.02
793.879	17414.73
794.211	17282.98
794.543	17348.96
794.875	17328.63
795.207	17352.35
795.539	17315.75
795.871	17366.59
796.203	17143.55
796.535	17110.55
796.867	17041.18
797.198	17012.93
797.53	17057
797.862	16847.28
798.193	16964.57
798.525	16808.87
798.856	16851.12
799.188	16746.27
799.519	16707.17
799.85	16680.06
800.182	16638.93
800.513	16633.5
800.844	16506.73
801.175	16650.23
801.506	16620.17
801.837	16535.88
802.168	16515.54
802.499	16388.54
802.83	16272.38
803.161	16326.84
803.491	16336.79
803.822	16313.74
804.153	16299.27
804.483	16082.78
804.814	16101.09
805.145	16054.31
805.475	15962.56
805.805	15974.76
806.136	16048.21
806.466	16066.51
806.796	15983.35
807.126	15847.99
807.457	15779.29
807.787	15880.3
808.117	15710.14
808.447	15789.46
808.777	15747.2
809.107	15766.18
809.436	15602.34
809.766	15628.78
810.096	15606.41
810.426	15538.39
810.755	15461.1
811.085	15504.95
811.414	15449.58
811.744	15407.09
812.073	15395.12
812.403	15349.24
812.732	15295.91
813.061	15311.5
813.39	15262.69
813.719	15177.5
814.049	15217.27
814.378	15222.69
814.707	15157.84
815.036	15164.84
815.365	15139.53
815.693	14965.75
816.022	15007.33
816.351	14932.53
816.68	14883.72
817.008	14843.49
817.337	14826.55
817.665	14797.62
817.994	14807.79
818.322	14783.16
818.651	14704.51
818.979	14737.51
819.307	14752.65
819.636	14675.81
819.964	14664.52
820.292	14689.83
820.62	14670.62
820.948	14631.52
821.276	14635.82
821.604	14541.35
821.932	14565.76
822.259	14528.02
822.587	14580.45
822.915	14512.66
823.243	14619.09
823.57	14532.09
823.898	14567.57
824.225	14467.68
824.553	14502.49
824.88	14553.56
825.207	14597.62
825.535	14501.36
825.862	14561.02
826.189	14420.23
826.516	14603.73
826.843	14540.45
827.17	14469.04
827.497	14564.18
827.824	14667.91
828.151	14561.92
828.478	14542.26
828.805	14623.84
829.131	14519.21
829.458	14567.12
829.785	14478.53
830.111	14542.71
830.438	14630.39
830.764	14534.8
831.09	14602.37
831.417	14495.48
831.743	14550.39
832.069	14590.39
832.395	14486.67
832.722	14617.29
833.048	14459.1
833.374	14488.02
833.7	14328.03
834.026	14523.73
834.351	14517.63
834.677	14413.45
835.003	14438.08
835.329	14417.06
835.654	14421.58
835.98	14376.84
836.306	14370.51
836.631	14318.31
836.956	14367.35
837.282	14383.39
837.607	14356.28
837.932	14209.61
838.258	14407.8
838.583	14272.44
838.908	14197.86
839.233	14217.75
839.558	14191.08
839.883	14119.45
840.208	13997.19
840.533	14064.31
840.858	14132.1
841.182	14104.53
841.507	14009.39
841.832	14014.14
842.156	14025.21
842.481	13972.33
842.805	13889.85
843.13	13896.85
843.454	13911.54
843.778	13801.04
844.103	13794.03
844.427	13702.51
844.751	13778.21
845.075	13686.91
845.399	13630.87
845.723	13600.81
846.047	13617.31
846.371	13473.36
846.695	13502.06
847.019	13409.63
847.343	13393.59
847.666	13265.46
847.99	13226.36
848.313	13164.67
848.637	13120.38
848.96	13152.69
849.284	13086.03
849.607	12916.31
849.931	12973.71
850.254	12868.86
850.577	12784.56
850.9	12716.32
851.223	12739.82
851.546	12668.41
851.869	12616.43
852.192	12555.19
852.515	12479.49
852.838	12430.22
853.161	12434.97
853.483	12350.23
853.806	12307.29
854.129	12357.01
854.451	12250.34
854.774	12277.01
855.096	12166.73
855.419	12112.94
855.741	12114.98
856.063	11978.03
856.385	12057.58
856.708	11923.57
857.03	11959.05
857.352	11979.61
857.674	11873.4
857.996	11825.95
858.318	11783.91
858.64	11763.35
858.961	11767.42
859.283	11628.89
859.605	11667.53
859.926	11730.36
860.248	11660.75
860.57	11608.78
860.891	11599.74
861.212	11469.35
861.534	11486.75
861.855	11474.99
862.176	11462.34
862.498	11523.36
862.819	11411.95
863.14	11415.11
863.461	11370.82
863.782	11338.28
864.103	11385.05
864.424	11328.33
864.745	11358.84
865.065	11238.84
865.386	11158.62
865.707	11222.12
866.027	11227.54
866.348	11260.31
866.668	11163.59
866.989	11132.41
867.309	11085.63
867.63	11153.2
867.95	11118.85
868.27	11113.65
868.59	11029.36
868.91	11021.67
869.23	11003.82
869.55	10921.79
869.87	11000.66
870.19	11004.72
870.51	10944.16
870.83	11009.92
871.15	10913.88
871.469	10910.04
871.789	10955.46
872.109	10923.37
872.428	10828.46
872.748	10785.52
873.067	10837.72
873.386	10827.78
873.706	10698.74
874.025	10790.95
874.344	10734
874.663	10722.92
874.982	10708.91
875.301	10732.87
875.62	10670.04
875.939	10665.07
876.258	10623.94
876.577	10643.38
876.896	10573.1
877.214	10549.82
877.533	10532.42
877.852	10501.24
878.17	10579.65
878.489	10547.34
878.807	10551.4
879.125	10415.14
879.444	10437.06
879.762	10415.59
880.08	10424.4
880.398	10383.72
880.716	10391.63
881.034	10332.2
881.352	10301.47
881.67	10310.51
881.988	10305.53
882.306	10319.55
882.624	10239.77
882.941	10207.23
883.259	10162.04
883.577	10152.09
883.894	10150.51
884.212	10126.33
884.529	10155.93
884.846	10063.51
885.164	10033.68
885.481	10036.39
885.798	10019.67
886.115	9956.39
886.432	9980.34
886.75	9982.83
887.067	9953.9
887.383	9894.02
887.7	9906.22
888.017	9849.27
888.334	9812.67
888.651	9846.79
888.967	9815.38
889.284	9790.07
889.6	9719.79
889.917	9707.13
890.233	9649.28
890.55	9654.03
890.866	9658.77
891.182	9611.99
891.498	9557.98
891.815	9539
892.131	9498.1
892.447	9455.84
892.763	9383.3
893.079	9397.31
893.395	9379.23
893.71	9357.76
894.026	9323.87
894.342	9263.53
894.657	9241.61
894.973	9163.87
895.289	9215.62
895.604	9162.06
895.92	9112.12
896.235	9162.74
896.55	9045.68
896.865	9075.28
897.181	9041.39
897.496	8948.28
897.811	8952.12
898.126	8936.08
898.441	8853.37
898.756	8868.51
899.071	8814.27
899.386	8853.14
899.7	8722.75
900.015	8739.25
900.33	8682.53
900.644	8680.72
900.959	8670.32
901.273	8681.4
901.588	8595.07
901.902	8527.28
902.216	8509.65
902.531	8517.78
902.845	8445.24
903.159	8439.59
903.473	8361.18
903.787	8317.34
904.101	8338.58
904.415	8372.48
904.729	8233.27
905.042	8200.5
905.356	8241.18
905.67	8183.33
905.984	8207.06
906.297	8118.02
906.611	8033.5
906.924	8122.77
907.237	8130.68
907.551	7980.4
907.864	8014.07
908.177	7896.11
908.491	7899.27
908.804	7833.28
909.117	7822.21
909.43	7755.77
909.743	7770.01
910.056	7743.12
910.368	7682.78
910.681	7668.99
910.994	7557.13
911.307	7558.26
911.619	7602.1
911.932	7555.32
912.244	7519.17
912.557	7465.38
912.869	7381.32
913.181	7387.64
913.494	7383.58
913.806	7337.02
914.118	7331.38
914.43	7261.55
914.742	7296.8
915.054	7217.48
915.366	7245.28
915.678	7170.93
915.99	7116.47
916.302	7166.63
916.613	7053.42
916.925	7033.08
917.236	7018.84
917.548	7021.55
917.859	6958.73
918.171	6937.04
918.482	6872.63
918.794	6898.84
919.105	6849.35
919.416	6746.76
919.727	6840.99
920.038	6791.28
920.349	6700.88
920.66	6681.9
920.971	6729.58
921.282	6688.23
921.593	6626.31
921.903	6605.07
922.214	6595.58
922.525	6580.89
922.835	6602.58
923.146	6451.4
923.456	6453.66
923.767	6470.15
924.077	6416.14
924.387	6432.19
924.697	6412.76
925.008	6403.94
925.318	6323.72
925.628	6286.2
925.938	6319.88
926.248	6235.13
926.558	6274.68
926.867	6169.15
927.177	6169.15
927.487	6172.99
927.796	6085.53
928.106	6079.88
928.416	6072.65
928.725	6085.53
929.034	6012.54
929.344	5971.18
929.653	5980.68
929.962	5945.2
930.271	5941.81
930.581	5901.36
930.89	5845.31
931.199	5878.53
931.508	5820
931.817	5818.19
932.125	5796.05
932.434	5713.34
932.743	5762.15
933.051	5777.52
933.36	5671.08
933.669	5653
933.977	5621.14
934.286	5655.49
934.594	5624.3
934.902	5591.08
935.21	5541.14
935.519	5542.5
935.827	5512.21
936.135	5472.67
936.443	5444.87
936.751	5432.22
937.059	5407.81
937.367	5360.58
937.674	5411.43
937.982	5341.82
938.29	5335.95
938.597	5291.2
938.905	5232.67
939.213	5248.72
939.52	5226.57
939.827	5214.37
940.135	5155.39
940.442	5147.7
940.749	5160.58
941.056	5098.89
941.363	5051.43
941.67	5106.57
941.977	5064.77
942.284	5026.8
942.591	5010.76
942.898	4950.19
943.205	4982.96
943.511	4969.4
943.818	4938.44
944.125	4892.34
944.431	4886.69
944.738	4869.07
945.044	4886.47
945.35	4763.31
945.657	4742.29
945.963	4792.23
946.269	4785.91
946.575	4747.71
946.881	4672.24
947.187	4732.8
947.493	4696.87
947.799	4639.92
948.105	4602.41
948.41	4625.23
948.716	4642.86
949.022	4583.65
949.327	4568.51
949.633	4519.02
949.938	4502.07
950.244	4538.91
950.549	4479.92
950.854	4437.21
951.16	4443.32
951.465	4455.29
951.77	4432.92
952.075	4398.12
952.38	4318.8
952.685	4333.26
952.99	4329.87
953.294	4308.63
953.599	4267.73
953.904	4267.27
954.209	4227.5
954.513	4233.38
954.818	4212.59
955.122	4210.33
955.426	4178.69
955.731	4133.94
956.035	4164.23
956.339	4137.79
956.643	4106.38
956.948	4081.52
957.252	4067.96
957.556	4080.61
957.86	4063.89
958.163	4008.3
958.467	4003.78
958.771	3934.85
959.075	3994.06
959.378	3969.88
959.682	3942.99
959.985	3914.29
960.289	3917.68
960.592	3871.35
960.896	3894.4
961.199	3867.96
961.502	3855.76
961.805	3814.63
962.108	3806.04
962.411	3794.29
962.714	3728.31
963.017	3724.92
963.32	3736.44
963.623	3728.31
963.926	3706.84
964.228	3698.02
964.531	3671.81
964.833	3623.45
965.136	3620.74
965.438	3628.65
965.741	3609.21
966.043	3572.38
966.345	3583.22
966.648	3570.34
966.95	3592.49
967.252	3528.31
967.554	3499.61
967.856	3521.31
968.158	3478.14
968.46	3468.65
968.761	3446.28
969.063	3446.73
969.365	3423.23
969.666	3410.8
969.968	3362.67
970.269	3358.6
970.571	3374.87
970.872	3388.43
971.174	3358.15
971.475	3319.96
971.776	3314.76
972.077	3327.64
972.378	3318.15
972.679	3237.92
972.98	3247.19
973.281	3301.2
973.582	3233.63
973.883	3231.37
974.183	3209.68
974.484	3187.53
974.785	3186.85
975.085	3140.07
975.386	3159.28
975.686	3196.12
975.986	3129.68
976.287	3093.97
976.587	3090.13
976.887	3093.75
977.187	3103.01
977.487	3038.15
977.787	3020.98
978.087	3044.71
978.387	3020.98
978.687	2997.7
978.987	2931.49
979.286	2966.29
979.586	2995.67
979.885	2921.77
980.185	2947.99
980.484	2887.2
980.784	2912.28
981.083	2922.9
981.382	2901.89
981.682	2880.42
981.981	2893.75
982.28	2813.3
982.579	2829.35
982.878	2813.3
983.177	2782.57
983.475	2745.05
983.774	2781.89
984.073	2784.15
984.372	2747.54
984.67	2765.62
984.969	2746.64
985.267	2693.98
985.566	2700.31
985.864	2672.97
986.162	2698.95
986.461	2670.48
986.759	2651.05
987.057	2646.75
987.355	2647.2
987.653	2633.42
987.951	2617.6
988.249	2578.28
988.547	2567.88
988.844	2576.25
989.142	2590.71
989.44	2539.18
989.737	2532.86
990.035	2536.25
990.332	2474.78
990.63	2503.71
990.927	2484.27
991.224	2464.61
991.521	2463.71
991.819	2459.41
992.116	2458.96
992.413	2445.18
992.71	2428
993.006	2385.52
993.303	2389.36
993.6	2397.49
993.897	2375.8
994.193	2359.3
994.49	2345.07
994.787	2321.11
995.083	2313.2
995.379	2311.62
995.676	2314.78
995.972	2293.54
996.268	2296.48
996.565	2288.12
996.861	2284.95
997.157	2246.09
997.453	2265.75
997.749	2214.45
998.044	2204.96
998.34	2212.87
998.636	2161.57
998.932	2185.3
999.227	2157.95
999.523	2177.39
999.818	2150.27
1000.114	2160.66
1000.409	2153.43
1000.704	2111.85
1001	2095.35
1001.295	2106.2
1001.59	2069.59
1001.885	2059.65
1002.18	2033.89
1002.475	2046.77
1002.77	2015.58
1003.065	2002.25
1003.359	2014.45
1003.654	1994.34
1003.949	1953.66
1004.243	1992.76
1004.538	1948.92
1004.832	1950.73
1005.127	1938.07
1005.421	1945.53
1005.715	1911.63
1006.009	1950.73
1006.304	1913.89
1006.598	1902.82
1006.892	1902.37
1007.186	1851.29
1007.48	1912.53
1007.773	1842.03
1008.067	1819.88
1008.361	1811.97
1008.655	1822.82
1008.948	1829.82
1009.242	1801.8
1009.535	1805.19
1009.829	1774.23
1010.122	1769.94
1010.415	1779.66
1010.708	1754.12
1011.001	1762.48
1011.295	1696.95
1011.588	1723.39
1011.881	1720.45
1012.173	1734.46
1012.466	1687.23
1012.759	1701.69
1013.052	1667.12
1013.344	1674.57
1013.637	1647.68
1013.93	1630.96
1014.222	1635.93
1014.514	1602.49
1014.807	1611.98
1015.099	1607.01
1015.391	1629.83
1015.683	1572.66
1015.976	1576.05
1016.268	1557.97
1016.56	1568.14
1016.851	1567.68
1017.143	1539.66
1017.435	1534.24
1017.727	1504.64
1018.018	1514.58
1018.31	1482.94
1018.602	1486.1
1018.893	1468.93
1019.185	1467.35
1019.476	1470.74
1019.767	1456.28
1020.058	1471.42
1020.35	1437.74
1020.641	1428.93
1020.932	1419.21
1021.223	1410.17
1021.514	1396.62
1021.804	1374.24
1022.095	1391.19
1022.386	1357.07
1022.677	1369.05
1022.967	1357.75
1023.258	1346.22
1023.548	1324.98
1023.839	1330.18
1024.129	1307.8
1024.419	1302.83
1024.709	1317.75
1025	1307.58
1025.29	1288.14
1025.58	1304.19
1025.87	1287.24
1026.16	1281.82
1026.449	1251.99
1026.739	1244.3
1027.029	1226.9
1027.319	1235.94
1027.608	1239.78
1027.898	1211.54
1028.187	1206.56
1028.477	1232.55
1028.766	1197.53
1029.055	1177.19
1029.344	1170.18
1029.634	1169.73
1029.923	1176.28
1030.212	1172.89
1030.501	1153.46
1030.79	1141.71
1031.078	1114.36
1031.367	1108.04
1031.656	1115.72
1031.945	1077.98
1032.233	1108.26
1032.522	1091.09
1032.81	1090.41
1033.099	1075.72
1033.387	1078.66
1033.675	1074.14
1033.963	1044.99
1034.251	1066.68
1034.54	1044.53
1034.828	1054.93
1035.116	1055.83
1035.403	1013.8
1035.691	1035.95
1035.979	1038.43
1036.267	1008.83
1036.554	991.2
1036.842	988.49
1037.129	979.23
1037.417	966.12
1037.704	989.62
1037.992	993.24
1038.279	948.49
1038.566	964.31
1038.853	964.31
1039.14	964.31
