Data from hue_210_FLMS001491_00086.txt Node
Date: Tue Feb 07 16:41:52 GMT 2017
User: dcchb
Spectrometer: FLMS00149
Trigger mode: 0
Integration Time (sec): 2.000000E-2
Scans to average: 10
Electric dark correction enabled: true
Nonlinearity correction enabled: false
Boxcar width: 0
XAxis mode: Wavelengths
Number of Pixels in Spectrum: 2048
>>>>>Begin Spectral Data<<<<<
341.393	-3.86
341.776	-3.86
342.16	-3.86
342.543	-39.56
342.927	-78.66
343.31	-59.45
343.693	-66.45
344.077	-68.26
344.46	-40.01
344.843	-68.94
345.226	-46.57
345.61	-44.76
345.993	-16.96
346.376	-18.54
346.759	1.34
347.142	19.87
347.525	54.22
347.908	61.91
348.291	75.01
348.674	100.55
349.057	117.04
349.44	113.66
349.823	166.31
350.206	171.96
350.588	203.82
350.971	206.31
351.354	214.9
351.737	247.21
352.119	235.91
352.502	278.17
352.884	267.78
353.267	292.86
353.65	309.81
354.032	295.12
354.414	301.67
354.797	292.63
355.179	323.37
355.562	334.89
355.944	319.75
356.326	337.38
356.709	340.54
357.091	325.85
357.473	344.16
357.855	349.81
358.238	339.86
358.62	338.06
359.002	336.25
359.384	343.93
359.766	345.06
360.148	337.38
360.53	335.8
360.912	352.29
361.294	353.87
361.676	332.86
362.057	343.25
362.439	325.4
362.821	347.1
363.203	322.46
363.584	332.63
363.966	324.05
364.348	338.28
364.729	315.68
365.111	330.82
365.493	311.84
365.874	326.53
366.256	322.69
366.637	309.36
367.019	302.8
367.4	315.68
367.781	312.52
368.163	311.39
368.544	314.55
368.925	321.11
369.306	308
369.688	295.57
370.069	301.9
370.45	304.38
370.831	318.85
371.212	320.88
371.593	324.72
371.974	304.38
372.355	337.83
372.736	325.63
373.117	333.08
373.498	307.55
373.879	325.4
374.26	339.64
374.641	302.12
375.021	338.51
375.402	332.18
375.783	331.28
376.163	347.32
376.544	335.12
376.925	322.69
377.305	327.89
377.686	336.25
378.066	354.55
378.447	335.8
378.827	336.93
379.208	331.73
379.588	334.21
379.968	339.64
380.349	331.95
380.729	344.38
381.109	336.02
381.489	332.63
381.87	337.38
382.25	353.87
382.63	348
383.01	339.64
383.39	364.04
383.77	373.31
384.15	341.67
384.53	353.42
384.91	368.79
385.29	355.91
385.67	370.37
386.049	361.56
386.429	348
386.809	374.21
387.189	352.52
387.568	347.55
387.948	366.98
388.328	375.8
388.707	351.62
389.087	341.22
389.466	369.02
389.846	364.27
390.225	375.57
390.605	374.67
390.984	367.66
391.363	386.19
391.743	359.75
392.122	383.93
392.501	389.13
392.881	390.48
393.26	388.45
393.639	392.29
394.018	391.39
394.397	382.12
394.776	375.57
395.155	380.09
395.534	399.3
395.913	390.71
396.292	408.79
396.671	395.91
397.05	399.3
397.429	418.73
397.808	415.57
398.186	414.21
398.565	390.26
398.944	403.59
399.323	415.79
399.701	416.7
400.08	419.64
400.458	442.23
400.837	416.25
401.215	441.33
401.594	428.22
401.972	430.93
402.351	435.45
402.729	439.52
403.107	458.96
403.486	441.33
403.864	432.74
404.242	454.66
404.62	453.76
404.999	462.8
405.377	452.18
405.755	465.74
406.133	443.36
406.511	449.47
406.889	477.04
407.267	501.22
407.645	503.93
408.023	499.41
408.401	504.83
408.779	508.45
409.156	502.8
409.534	519.52
409.912	517.26
410.29	551.38
410.667	547.99
411.045	544.83
411.422	559.75
411.8	567.43
412.178	598.16
412.555	606.52
412.933	591.16
413.31	599.74
413.687	623.25
414.065	601.55
414.442	622.12
414.819	610.82
415.197	642
415.574	642.91
415.951	651.27
416.328	672.96
416.705	676.35
417.082	679.06
417.46	693.3
417.837	692.85
418.214	702.34
418.591	688.78
418.967	712.96
419.344	722
419.721	739.4
420.098	746.41
420.475	754.54
420.852	776.46
421.228	780.08
421.605	810.81
421.982	794.32
422.358	815.56
422.735	835.67
423.111	832.51
423.488	867.76
423.864	872.96
424.241	895.78
424.617	892.17
424.994	925.39
425.37	934.65
425.746	944.82
426.123	958.6
426.499	978.94
426.875	984.59
427.251	1007.42
427.627	1025.5
428.003	1036.57
428.379	1028.43
428.756	1047.42
429.132	1061.43
429.507	1055.78
429.883	1122.22
430.259	1113.63
430.635	1125.83
431.011	1113.4
431.387	1142.55
431.763	1165.15
432.138	1182.78
432.514	1208.77
432.89	1212.84
433.265	1249.9
433.641	1269.78
434.016	1287.64
434.392	1307.52
434.767	1339.84
435.143	1313.17
435.518	1377.8
435.894	1384.13
436.269	1394.98
436.644	1459.83
437.02	1446.28
437.395	1465.94
437.77	1497.8
438.145	1509.55
438.52	1543.9
438.895	1580.74
439.271	1597.23
439.646	1644.01
440.021	1639.49
440.395	1655.54
440.77	1675.87
441.145	1681.3
441.52	1704.35
441.895	1734.4
442.27	1797.9
442.645	1764.01
443.019	1796.77
443.394	1815.98
443.769	1821.86
444.143	1834.29
444.518	1867.28
444.892	1851.69
445.267	1845.81
445.641	1884.91
446.016	1884.46
446.39	1924.23
446.764	1947.51
447.139	1936.66
447.513	1976.66
447.887	1974.62
448.262	1980.27
448.636	1986.6
449.01	2024.34
449.384	2046.49
449.758	2057.11
450.132	2110.21
450.506	2115.41
450.88	2140.27
451.254	2156.54
451.628	2150.66
452.002	2171
452.376	2204.9
452.75	2192.92
453.123	2240.15
453.497	2257.1
453.871	2285.8
454.244	2292.81
454.618	2336.65
454.992	2389.53
455.365	2389.53
455.739	2426.81
456.112	2441.73
456.486	2442.41
456.859	2458.45
457.232	2585
457.606	2526.47
457.979	2551.11
458.352	2597.21
458.725	2637.66
459.099	2644.21
459.472	2675.17
459.845	2716.52
460.218	2739.12
460.591	2763.53
460.964	2785
461.337	2848.05
461.71	2889.85
462.083	2893.92
462.456	2917.42
462.829	2910.87
463.201	3012.79
463.574	3008.95
463.947	3028.61
464.32	3093.69
464.692	3101.6
465.065	3165.78
465.438	3191.99
465.81	3267.47
466.183	3294.14
466.555	3312.22
466.928	3321.71
467.3	3387.24
467.672	3391.54
468.045	3472.89
468.417	3451.87
468.789	3510.85
469.161	3508.59
469.534	3644.41
469.906	3701.58
470.278	3649.83
470.65	3713.33
471.022	3754.01
471.394	3852.77
471.766	3902.71
472.138	3899.09
472.51	4023.16
472.882	4045.3
473.253	4107
473.625	4135.02
473.997	4204.85
474.369	4238.29
474.74	4251.4
475.112	4340.89
475.484	4431.73
475.855	4486.2
476.227	4533.2
476.598	4618.85
476.97	4657.26
477.341	4766.19
477.713	4720.54
478.084	4818.62
478.455	4963.02
478.827	4976.58
479.198	5137.7
479.569	5106.07
479.94	5239.85
480.311	5294.99
480.682	5369.56
481.053	5523.91
481.424	5530.46
481.795	5625.6
482.166	5614.53
482.537	5725.49
482.908	5851.13
483.279	5851.36
483.65	5988.3
484.021	6062.2
484.391	6115.98
484.762	6163.67
485.133	6255.19
485.503	6358.24
485.874	6484.11
486.244	6494.96
486.615	6617.21
486.985	6657.89
487.356	6706.93
487.726	6859.01
488.097	6912.35
488.467	6924.78
488.837	7128.16
489.207	7093.13
489.578	7247.03
489.948	7300.13
490.318	7330.87
490.688	7345.78
491.058	7405.21
491.428	7538.54
491.798	7564.98
492.168	7765.43
492.538	7740.35
492.908	7861.25
493.278	7958.42
493.648	7957.06
494.017	8057.4
494.387	8111.41
494.757	8214.69
495.126	8222.59
495.496	8208.36
495.866	8250.39
496.235	8321.35
496.605	8377.84
496.974	8415.58
497.344	8479.54
497.713	8531.51
498.082	8576.03
498.452	8588.01
498.821	8614.9
499.19	8645.63
499.559	8725.63
499.928	8752.98
500.298	8766.08
500.667	8834.56
501.036	8860.32
501.405	8897.61
501.774	8931.28
502.143	9021.44
502.512	9027.09
502.88	9082.01
503.249	9038.39
503.618	9093.98
503.987	9099.18
504.356	9130.59
504.724	9206.75
505.093	9211.5
505.462	9219.4
505.83	9205.85
506.199	9272.28
506.567	9405.61
506.936	9415.78
507.304	9434.54
507.672	9512.05
508.041	9461.88
508.409	9531.03
508.777	9595.44
509.145	9649.9
509.514	9661.43
509.882	9596.34
510.25	9634.08
510.618	9695.55
510.986	9660.75
511.354	9728.09
511.722	9736
512.09	9815.1
512.458	9773.51
512.826	9872.72
513.193	9896.67
513.561	9861.87
513.929	9909.56
514.297	9997.46
514.664	9986.39
515.032	9951.36
515.4	10012.15
515.767	9993.4
516.135	10049.67
516.502	9960.4
516.869	10056.67
517.237	10111.13
517.604	10033.62
517.972	10153.62
518.339	10084.01
518.706	10069.78
519.073	10128.08
519.44	10141.87
519.808	10166.5
520.175	10164.24
520.542	10242.43
520.909	10266.83
521.276	10241.07
521.643	10262.31
522.009	10311.13
522.376	10253.95
522.743	10352.71
523.11	10310.22
523.477	10373.05
523.843	10381.18
524.21	10386.15
524.577	10434.51
524.943	10552.7
525.31	10467.28
525.676	10512.48
526.043	10493.27
526.409	10524.23
526.776	10639.93
527.142	10576.43
527.508	10595.19
527.874	10605.58
528.241	10592.93
528.607	10617.56
528.973	10676.54
529.339	10658.91
529.705	10699.59
530.071	10713.6
530.437	10639.25
530.803	10589.76
531.169	10679.71
531.535	10616.66
531.901	10591.12
532.267	10572.59
532.632	10589.31
532.998	10652.81
533.364	10669.54
533.73	10610.33
534.095	10646.49
534.461	10658.01
534.826	10627.28
535.192	10551.35
535.557	10648.07
535.923	10549.54
536.288	10540.73
536.653	10575.98
537.019	10451.46
537.384	10473.16
537.749	10422.76
538.114	10424.34
538.479	10369.88
538.845	10429.77
539.21	10403.1
539.575	10384.57
539.94	10327.17
540.305	10328.53
540.67	10322.43
541.034	10239.72
541.399	10194.97
541.764	10211.69
542.129	10262.99
542.494	10225.71
542.858	10145.71
543.223	10127.63
543.587	10110.68
543.952	10140.96
544.316	10141.19
544.681	10105.03
545.045	10028.42
545.41	10074.75
545.774	10046.5
546.138	9958.82
546.503	9986.62
546.867	9954.98
547.231	9982.77
547.595	9921.98
547.959	9907.3
548.324	9866.62
548.688	9866.85
549.052	9845.6
549.416	9814.42
549.779	9730.58
550.143	9763.8
550.507	9703.91
550.871	9752.27
551.235	9711.37
551.599	9744.81
551.962	9711.37
552.326	9658.71
552.689	9645.38
553.053	9604.03
553.417	9540.75
553.78	9625.5
554.143	9569.23
554.507	9541.2
554.87	9540.53
555.234	9572.39
555.597	9472.96
555.96	9498.04
556.323	9406.97
556.686	9391.6
557.05	9489.45
557.413	9489.91
557.776	9458.72
558.139	9506.4
558.502	9456.46
558.865	9476.12
559.228	9506.85
559.59	9414.43
559.953	9457.82
560.316	9524.71
560.679	9536.23
561.041	9493.07
561.404	9542.56
561.767	9477.93
562.129	9425.95
562.492	9517.7
562.854	9486.06
563.217	9483.8
563.579	9430.02
563.941	9514.09
564.304	9508.21
564.666	9503.24
565.028	9530.81
565.39	9473.64
565.753	9530.13
566.115	9601.99
566.477	9593.63
566.839	9631.82
567.201	9616.23
567.563	9613.07
567.925	9630.47
568.287	9659.39
568.648	9624.59
569.01	9683.12
569.372	9676.57
569.734	9670.47
570.095	9687.41
570.457	9736.45
570.819	9715.66
571.18	9704.36
571.542	9712.05
571.903	9781.65
572.265	9778.03
572.626	9824.13
572.987	9773.97
573.349	9864.13
573.71	9847.41
574.071	9791.82
574.432	9843.79
574.794	9829.56
575.155	9879.05
575.516	9863.91
575.877	9888.31
576.238	9899.39
576.599	9932.83
576.96	9948.2
577.32	9938.93
577.681	10010.12
578.042	9945.94
578.403	9913.4
578.763	10007.63
579.124	10015.54
579.485	10067.74
579.845	10071.36
580.206	10042.89
580.566	10045.6
580.927	10057.35
581.287	10155.65
581.648	10047.63
582.008	10101.42
582.368	10069.55
582.728	10163.79
583.089	10095.77
583.449	10184.58
583.809	10127.86
584.169	10118.82
584.529	10133.5
584.889	10207.18
585.249	10100.96
585.609	10178.48
585.969	10225.93
586.329	10227.97
586.688	10193.16
587.048	10193.84
587.408	10135.76
587.768	10192.03
588.127	10134.41
588.487	10198.36
588.846	10274.74
589.206	10211.24
589.565	10140.28
589.925	10258.7
590.284	10292.14
590.643	10241.3
591.003	10288.98
591.362	10308.87
591.721	10185.48
592.08	10244.46
592.44	10319.04
592.799	10300.28
593.158	10278.59
593.517	10329.66
593.876	10252.82
594.235	10328.98
594.593	10301.64
594.952	10275.65
595.311	10318.13
595.67	10265.03
596.029	10380.73
596.387	10312.94
596.746	10342.99
597.104	10377.79
597.463	10316.55
597.822	10356.32
598.18	10322.2
598.538	10280.85
598.897	10367.4
599.255	10302.77
599.613	10457.56
599.972	10368.53
600.33	10399.26
600.688	10357.45
601.046	10391.13
601.404	10409.2
601.762	10371.92
602.12	10491.91
602.478	10487.62
602.836	10458.92
603.194	10386.38
603.552	10451.46
603.91	10376.66
604.268	10410.56
604.625	10348.64
604.983	10398.81
605.341	10367.85
605.698	10392.93
606.056	10422.54
606.413	10467.73
606.771	10527.62
607.128	10535.08
607.485	10448.3
607.843	10415.08
608.2	10491.46
608.557	10504.12
608.914	10466.83
609.272	10474.06
609.629	10568.52
609.986	10581.63
610.343	10507.28
610.7	10607.16
611.057	10549.31
611.414	10561.29
611.771	10616.43
612.127	10609.88
612.484	10561.52
612.841	10582.53
613.198	10541.18
613.554	10568.07
613.911	10627.5
614.267	10632.25
614.624	10651.68
614.98	10667.5
615.337	10720.83
615.693	10629.08
616.05	10629.76
616.406	10749.99
616.762	10660.04
617.118	10674.51
617.475	10697.56
617.831	10732.59
618.187	10683.09
618.543	10669.54
618.899	10763.09
619.255	10692.13
619.611	10737.78
619.967	10765.13
620.323	10790.66
620.678	10685.58
621.034	10716.77
621.39	10715.64
621.746	10702.08
622.101	10874.73
622.457	10705.02
622.812	10774.84
623.168	10757.9
623.523	10785.46
623.879	10765.8
624.234	10731.46
624.589	10744.56
624.945	10757.9
625.3	10791.34
625.655	10736.88
626.01	10721.29
626.365	10764.22
626.72	10690.33
627.075	10720.83
627.43	10716.77
627.785	10642.42
628.14	10715.41
628.495	10767.16
628.85	10732.59
629.205	10676.09
629.559	10679.48
629.914	10675.41
630.269	10702.98
630.623	10597.9
630.978	10648.75
631.332	10739.82
631.687	10670.67
632.041	10655.07
632.396	10615.75
632.75	10652.36
633.104	10593.61
633.459	10597
633.813	10496.66
634.167	10531.01
634.521	10558.58
634.875	10568.52
635.229	10437.45
635.583	10461.86
635.937	10481.74
636.291	10423.67
636.645	10440.39
636.999	10443.78
637.352	10422.99
637.706	10419.6
638.06	10423.67
638.413	10424.12
638.767	10380.96
639.121	10343.67
639.474	10343.44
639.828	10341.63
640.181	10318.36
640.534	10327.4
640.888	10271.58
641.241	10308.87
641.594	10263.22
641.947	10249.66
642.301	10220.96
642.654	10273.39
643.007	10278.36
643.36	10218.25
643.713	10259.38
644.066	10286.72
644.419	10152.04
644.771	10099.83
645.124	10119.49
645.477	10087.63
645.83	9972.61
646.182	9929.67
646.535	9964.02
646.888	9906.84
647.24	9859.16
647.593	9906.39
647.945	9917.69
648.298	9823.46
648.65	9804.7
649.002	9796.11
649.355	9876.56
649.707	9939.16
650.059	9946.39
650.411	10039.04
650.763	10014.64
651.115	10139.61
651.467	10071.81
651.819	10194.97
652.171	10044.02
652.523	10069.1
652.875	10048.31
653.227	9942.32
653.578	10118.14
653.93	10047.41
654.282	10000.63
654.633	9978.48
654.985	10094.86
655.337	10029.1
655.688	10014.86
656.039	10045.6
656.391	10008.08
656.742	10046.5
657.094	10052.15
657.445	10030.46
657.796	10036.33
658.147	9994.75
658.498	9990.46
658.849	10080.62
659.2	10032.72
659.551	10070
659.902	10085.6
660.253	10039.27
660.604	10032.72
660.955	9992.27
661.306	10070.23
661.656	10023
662.007	10093.51
662.358	10128.76
662.708	10091.25
663.059	10056.44
663.409	10005.15
663.76	10115.2
664.11	10053.05
664.461	10154.97
664.811	10106.39
665.161	10124.47
665.511	10021.42
665.862	10022.1
666.212	10037.69
666.562	10047.41
666.912	10021.64
667.262	10124.24
667.612	10008.54
667.962	10109.1
668.312	10082.43
668.662	10097.8
669.011	10059.83
669.361	10025.48
669.711	10081.75
670.06	10005.15
670.41	10013.96
670.76	10046.05
671.109	10088.76
671.459	10055.54
671.808	10008.31
672.157	10033.17
672.507	9988.42
672.856	9944.36
673.205	10014.19
673.554	9990.68
673.904	10020.29
674.253	10001.08
674.602	9970.12
674.951	9831.14
675.3	9826.39
675.649	9899.39
675.998	9934.64
676.346	10003.34
676.695	9905.04
677.044	9858.03
677.393	9927.86
677.741	9986.39
678.09	9873.17
678.438	9843.12
678.787	9907.3
679.135	9867.07
679.484	9781.42
679.832	9835.89
680.181	9735.32
680.529	9815.77
680.877	9735.1
681.225	9759.5
681.573	9829.11
681.922	9748.66
682.27	9705.49
682.618	9691.48
682.966	9668.88
683.314	9693.29
683.661	9688.09
684.009	9644.93
684.357	9487.19
684.705	9573.52
685.053	9593.63
685.4	9509.11
685.748	9528.32
686.095	9441.09
686.443	9416.46
686.79	9404.03
687.138	9458.72
687.485	9451.71
687.832	9386.41
688.18	9393.86
688.527	9334.2
688.874	9224.15
689.221	9320.42
689.568	9308.89
689.915	9263.47
690.262	9286.97
690.609	9206.98
690.956	9147.09
691.303	9132.85
691.65	9078.39
691.997	9105.96
692.344	9038.84
692.69	9004.04
693.037	8981.44
693.383	8949.13
693.73	8898.28
694.077	8886.76
694.423	8900.32
694.769	8867.78
695.116	8810.83
695.462	8833.43
695.808	8830.49
696.155	8866.87
696.501	8755.24
696.847	8730.6
697.193	8611.96
697.539	8615.13
697.885	8617.39
698.231	8566.99
698.577	8598.63
698.923	8551.85
699.269	8460.33
699.614	8496.71
699.96	8436.6
700.306	8405.19
700.651	8361.8
700.997	8306.66
701.342	8355.25
701.688	8275.47
702.033	8277.06
702.379	8238.41
702.724	8177.62
703.069	8203.39
703.415	8116.83
703.76	8132.43
704.105	8095.82
704.45	8051.07
704.795	8044.29
705.14	7994.13
705.485	7982.15
705.83	7979.44
706.175	8013.79
706.52	7954.8
706.865	7906.9
707.209	7937.4
707.554	7825.54
707.899	7793
708.243	7822.15
708.588	7801.81
708.932	7744.42
709.277	7708.48
709.621	7744.87
709.966	7684.3
710.31	7693.34
710.654	7628.94
710.998	7614.02
711.342	7605.89
711.687	7580.58
712.031	7597.98
712.375	7557.08
712.719	7524.99
713.063	7554.14
713.407	7512.1
713.75	7471.43
714.094	7522.05
714.438	7483.18
714.782	7441.37
715.125	7430.07
715.469	7436.4
715.812	7402.5
716.156	7328.15
716.499	7385.55
716.843	7376.97
717.186	7348.72
717.53	7362.28
717.873	7336.74
718.216	7278.44
718.559	7267.59
718.902	7259
719.246	7269.63
719.589	7260.36
719.932	7242.06
720.275	7243.41
720.617	7210.42
720.96	7233.24
721.303	7169.51
721.646	7228.5
721.989	7196.86
722.331	7166.8
722.674	7120.25
723.016	7233.24
723.359	7175.62
723.701	7185.79
724.044	7093.58
724.386	7049.74
724.729	7140.14
725.071	7112.57
725.413	7121.83
725.755	7082.74
726.097	7033.02
726.439	7076.18
726.782	7118.44
727.124	7084.77
727.465	7043.87
727.807	6998.9
728.149	7033.93
728.491	7021.72
728.833	7036.19
729.175	7053.13
729.516	6980.14
729.858	7012.91
730.199	7028.95
730.541	6989.18
730.882	6959.35
731.224	7014.26
731.565	6995.73
731.906	6984.66
732.248	6974.94
732.589	6929.3
732.93	6927.26
733.271	6951.89
733.612	6987.6
733.953	7028.73
734.294	6981.27
734.635	6958.45
734.976	7040.25
735.317	6988.28
735.658	7004.55
735.999	6981.72
736.339	6994.15
736.68	7032.57
737.021	7001.61
737.361	6941.27
737.702	7002.29
738.042	6988.95
738.383	6980.59
738.723	7013.13
739.063	7033.47
739.404	7028.73
739.744	7008.39
740.084	7030.99
740.424	7096.07
740.764	7034.6
741.104	7103.75
741.444	7053.36
741.784	6979.46
742.124	7134.71
742.464	7122.06
742.804	7075.51
743.143	7126.8
743.483	7170.42
743.823	7150.76
744.162	7193.7
744.502	7249.29
744.841	7283.18
745.181	7279.12
745.52	7242.51
745.86	7382.16
746.199	7313.01
746.538	7337.65
746.877	7440.24
747.216	7439.79
747.556	7439.34
747.895	7606.79
748.234	7572.89
748.573	7659.22
748.911	7644.98
749.25	7692.66
749.589	7735.83
749.928	7873.9
750.267	7895.37
750.605	7966.78
750.944	8061.47
751.283	8079.32
751.621	8142.37
751.96	8181.01
752.298	8315.47
752.636	8382.82
752.975	8485.86
753.313	8506.2
753.651	8727.67
753.989	8692.19
754.327	8804.27
754.666	8936.25
755.004	9044.04
755.342	9192.06
755.679	9292.4
756.017	9437.48
756.355	9620.98
756.693	9617.13
757.031	9770.12
757.368	9896.67
757.706	10004.24
758.044	10153.17
758.381	10339.83
758.719	10440.16
759.056	10556.09
759.394	10778.91
759.731	10844.45
760.068	11052.12
760.405	11157.66
760.743	11319.24
761.08	11465.67
761.417	11681.03
761.754	11765.1
762.091	11972.55
762.428	12157.86
762.765	12276.5
763.102	12422.03
763.438	12588.58
763.775	12610.95
764.112	12882.81
764.449	13081.45
764.785	13247.77
765.122	13324.83
765.458	13434.66
765.795	13696.35
766.131	13784.48
766.467	13956.23
766.804	14112.61
767.14	14220.63
767.476	14405.48
767.812	14437.35
768.148	14714.18
768.485	14748.3
768.821	14919.59
769.157	15118.23
769.492	15182.41
769.828	15353.48
770.164	15365.46
770.5	15504.66
770.836	15633.7
771.171	15592.57
771.507	15803.86
771.842	15930.87
772.178	16002.95
772.513	16051.32
772.849	16150.97
773.184	16220.12
773.519	16322.49
773.855	16419.67
774.19	16487.46
774.525	16579.21
774.86	16588.7
775.195	16797.28
775.53	16731.07
775.865	16790.05
776.2	16811.97
776.535	16777.62
776.87	16938.3
777.205	16987.34
777.539	17048.8
777.874	17095.36
778.209	17028.46
778.543	17054.9
778.878	17084.06
779.212	17173.32
779.547	17184.84
779.881	17304.84
780.215	17286.99
780.55	17288.57
780.884	17272.07
781.218	17262.36
781.552	17460.77
781.886	17401.34
782.22	17346.65
782.554	17402.47
782.888	17259.87
783.222	17225.3
783.556	17275.01
783.889	17279.76
784.223	17189.36
784.557	17210.15
784.89	17262.58
785.224	17184.17
785.557	17235.01
785.891	17263.71
786.224	17249.02
786.558	17256.93
786.891	17159.76
787.224	17150.27
787.557	17176.48
787.891	17219.87
788.224	17134
788.557	17104.62
788.89	17179.87
789.223	17176.71
789.556	17041.35
789.888	17168.57
790.221	17046.54
790.554	16892.65
790.887	16983.27
791.219	16935.36
791.552	17011.97
791.884	16793.67
792.217	16835.93
792.549	16897.17
792.882	16817.4
793.214	16775.59
793.546	16810.39
793.879	16688.81
794.211	16643.39
794.543	16718.19
794.875	16714.35
795.207	16619.44
795.539	16640.68
795.871	16614.01
796.203	16509.38
796.535	16411.76
796.867	16437.29
797.198	16463.51
797.53	16370.85
797.862	16341.03
798.193	16364.98
798.525	16259.67
798.856	16383.96
799.188	16172.67
799.519	16160.69
799.85	16058.55
800.182	16106.68
800.513	16061.48
800.844	15958.21
801.175	16061.48
801.506	15995.5
801.837	15957.31
802.168	15883.86
802.499	15943.3
802.83	15828.27
803.161	15811.77
803.491	15755.96
803.822	15817.88
804.153	15662.17
804.483	15543.53
804.814	15649.29
805.145	15559.58
805.475	15467.38
805.805	15463.76
806.136	15488.62
806.466	15592.34
806.796	15462.4
807.126	15442.07
807.457	15386.02
807.787	15343.76
808.117	15357.55
808.447	15249.53
808.777	15300.6
809.107	15224.67
809.436	15166.82
809.766	15188.74
810.096	15147.16
810.426	15079.82
810.755	15120.49
811.085	14939.03
811.414	15019.93
811.744	14941.29
812.073	14981.96
812.403	14890.67
812.732	14877.33
813.061	14925.7
813.39	14779.48
813.719	14756.21
814.049	14809.31
814.378	14801.63
814.707	14707.4
815.036	14737.23
815.365	14585.59
815.693	14502.88
816.022	14600.28
816.351	14527.74
816.68	14473.5
817.008	14475.54
817.337	14376.11
817.665	14369.33
817.994	14426.05
818.322	14445.71
818.651	14377.46
818.979	14236.9
819.307	14320.74
819.636	14254.75
819.964	14094.98
820.292	14295.66
820.62	14274.19
820.948	14211.36
821.276	14204.36
821.604	14202.32
821.932	14243.91
822.259	14118.48
822.587	14173.85
822.915	14038.49
823.243	14301.3
823.57	14136.79
823.898	14232.15
824.225	14057.24
824.553	14209.78
824.88	14171.82
825.207	14209.33
825.535	14270.57
825.862	14254.3
826.189	14170.01
826.516	14214.3
826.843	14219.72
827.17	14255.2
827.497	14287.97
827.824	14229.89
828.151	14330.46
828.478	14260.18
828.805	14247.52
829.131	14298.59
829.458	14264.24
829.785	14054.08
830.111	14143.34
830.438	14301.53
830.764	14274.64
831.09	14314.19
831.417	14130.01
831.743	14249.1
832.069	14228.76
832.395	14085.49
832.722	14225.15
833.048	14123
833.374	14152.16
833.7	14044.36
834.026	14049.33
834.351	14174.98
834.677	14105.15
835.003	14115.32
835.329	14121.65
835.654	14082.78
835.98	13964.59
836.306	14007.75
836.631	14051.37
836.956	14072.61
837.282	14034.42
837.607	13972.05
837.932	13961.88
838.258	14010.69
838.583	13993.29
838.908	13870.81
839.233	13924.37
839.558	13844.14
839.883	13819.06
840.208	13753.97
840.533	13821.54
840.858	13759.4
841.182	13733.18
841.507	13739.29
841.832	13637.14
842.156	13707.87
842.481	13637.37
842.805	13602.34
843.13	13655.67
843.454	13582.23
843.778	13504.72
844.103	13472.4
844.427	13427.66
844.751	13397.15
845.075	13444.38
845.399	13351.05
845.723	13352.18
846.047	13320.77
846.371	13174.1
846.695	13221.56
847.019	13131.39
847.343	13068.34
847.666	12952.19
847.99	12923.71
848.313	12986.99
848.637	12861.79
848.96	12808.69
849.284	12821.12
849.607	12670.39
849.931	12581.58
850.254	12480.11
850.577	12502.93
850.9	12451.41
851.223	12451.18
851.546	12415.7
851.869	12307.68
852.192	12389.49
852.515	12248.25
852.838	12227.01
853.161	12173.68
853.483	12061.14
853.806	12027.92
854.129	12114.7
854.451	11979.11
854.774	12003.51
855.096	11940.01
855.419	11845.32
855.741	11832.22
856.063	11837.87
856.385	11797.87
856.708	11798.55
857.03	11755.61
857.352	11700.47
857.674	11688.27
857.996	11599.45
858.318	11562.85
858.64	11593.13
858.961	11498.21
859.283	11459.12
859.605	11388.16
859.926	11448.72
860.248	11374.15
860.57	11370.31
860.891	11325.34
861.212	11280.14
861.534	11321.72
861.855	11220.71
862.176	11186.58
862.498	11236.53
862.819	11194.04
863.14	11236.07
863.461	11156.08
863.782	11206.02
864.103	11090.54
864.424	11050.09
864.745	11096.42
865.065	11073.14
865.386	10944.78
865.707	10985.91
866.027	10991.56
866.348	10897.78
866.668	10972.8
866.989	10995.4
867.309	10895.74
867.63	10965.12
867.95	10903.43
868.27	10842.41
868.59	10773.49
868.91	10764.45
869.23	10724.45
869.55	10717.44
869.87	10797.22
870.19	10726.48
870.51	10787.27
870.83	10742.75
871.15	10656.65
871.469	10690.33
871.789	10672.25
872.109	10657.33
872.428	10522.42
872.748	10710.21
873.067	10646.94
873.386	10542.76
873.706	10584.34
874.025	10543.89
874.344	10508.64
874.663	10585.7
874.982	10490.56
875.301	10484.46
875.62	10399.03
875.939	10493.27
876.258	10406.72
876.577	10375.53
876.896	10389.32
877.214	10273.61
877.533	10377.11
877.852	10397.45
878.17	10300.28
878.489	10378.47
878.807	10236.78
879.125	10299.38
879.444	10318.36
879.762	10270.68
880.08	10205.59
880.398	10203.33
880.716	10203.56
881.034	10222.77
881.352	10125.37
881.67	10100.74
881.988	10098.03
882.306	10105.48
882.624	9992.72
882.941	9947.52
883.259	9994.98
883.577	9968.76
883.894	9963.79
884.212	9877.69
884.529	9891.25
884.846	9886.05
885.164	9906.39
885.481	9792.04
885.798	9881.31
886.115	9738.26
886.432	9764.93
886.75	9703.01
887.067	9726.74
887.383	9649
887.7	9726.74
888.017	9684.48
888.334	9639.51
888.651	9618.26
888.967	9656.91
889.284	9529.45
889.6	9537.59
889.917	9458.04
890.233	9492.17
890.55	9397.03
890.866	9421.89
891.182	9399.96
891.498	9409.46
891.815	9258.73
892.131	9307.76
892.447	9323.58
892.763	9313.64
893.079	9239.29
893.395	9231.61
893.71	9145.51
894.026	9179.41
894.342	9170.82
894.657	9119.29
894.973	9081.78
895.289	9061.67
895.604	9040.43
895.92	8927.89
896.235	8952.07
896.55	8914.55
896.865	8910.26
897.181	8886.08
897.496	8818.06
897.811	8785.52
898.126	8772.41
898.441	8757.72
898.756	8776.93
899.071	8722.24
899.386	8646.76
899.7	8580.1
900.015	8510.04
900.33	8457.16
900.644	8491.29
900.959	8478.41
901.273	8402.02
901.588	8415.81
901.902	8349.37
902.216	8327.45
902.531	8328.35
902.845	8309.82
903.159	8255.59
903.473	8218.98
903.787	8155.48
904.101	8174.01
904.415	8148.02
904.729	8105.76
905.042	8087
905.356	8030.06
905.67	8057.85
905.984	8022.6
906.297	7946.9
906.611	7957.29
906.924	7892.66
907.237	7821.7
907.551	7882.26
907.864	7777.63
908.177	7759.56
908.491	7752.78
908.804	7650.41
909.117	7675.04
909.43	7563.18
909.743	7513.91
910.056	7580.13
910.368	7571.99
910.681	7473.69
910.994	7493.12
911.307	7464.42
911.619	7414.71
911.932	7403.18
912.244	7327.02
912.557	7322.51
912.869	7260.81
913.181	7275.5
913.494	7222.39
913.806	7217.88
914.118	7194.6
914.43	7112.79
914.742	7155.96
915.054	7043.87
915.366	7024.43
915.678	7042.06
915.99	7005.23
916.302	6947.15
916.613	6941.05
916.925	6931.56
917.236	6925.91
917.548	6844.33
917.859	6858.11
918.171	6834.38
918.482	6786.25
918.794	6743.09
919.105	6752.12
919.416	6683.43
919.727	6673.93
920.038	6682.97
920.349	6576.54
920.66	6583.09
920.971	6604.33
921.282	6564.33
921.593	6483.21
921.903	6494.28
922.214	6445.01
922.525	6447.95
922.835	6366.82
923.146	6372.02
923.456	6318.92
923.767	6328.18
924.077	6285.24
924.387	6297
924.697	6278.69
925.008	6268.3
925.318	6201.4
925.628	6158.92
925.938	6097.23
926.248	6098.36
926.558	6109.43
926.867	6054.29
927.177	6074.85
927.487	5961.64
927.796	5957.57
928.106	5950.79
928.416	5941.3
928.725	5953.73
929.034	5923.67
929.344	5878.93
929.653	5831.02
929.962	5822.66
930.271	5792.38
930.581	5793.73
930.89	5827.86
931.199	5703.79
931.508	5730
931.817	5726.84
932.125	5649.55
932.434	5646.17
932.743	5587.64
933.051	5605.04
933.36	5497.24
933.669	5550.35
933.977	5526.85
934.286	5548.99
934.594	5553.96
934.902	5475.55
935.21	5465.38
935.519	5401.88
935.827	5449.11
936.135	5368.21
936.443	5299.73
936.751	5373.4
937.059	5309.68
937.367	5236.91
937.674	5292.05
937.982	5280.52
938.29	5213.18
938.597	5238.27
938.905	5167.08
939.213	5162.34
939.52	5130.02
939.827	5144.26
940.135	5092.28
940.442	5096.35
940.749	5064.03
941.056	5114.43
941.363	4960.99
941.67	4972.06
941.977	4970.02
942.284	4905.62
942.591	4902.91
942.898	4862.46
943.205	4889.57
943.511	4851.84
943.818	4821.1
944.125	4820.88
944.431	4795.11
944.738	4803.93
945.044	4797.6
945.35	4712.4
945.657	4699.75
945.963	4702.69
946.269	4672.86
946.575	4649.36
946.881	4626.08
947.187	4604.61
947.493	4597.38
947.799	4591.28
948.105	4528.68
948.41	4524.16
948.716	4535.91
949.022	4499.75
949.327	4489.13
949.633	4471.51
949.938	4459.08
950.244	4408.68
950.549	4373.2
950.854	4400.55
951.16	4334.79
951.465	4322.81
951.77	4330.27
952.075	4324.17
952.38	4307.67
952.685	4234.68
952.99	4241.23
953.294	4240.33
953.599	4194.23
953.904	4175.02
954.209	4155.13
954.513	4169.59
954.818	4193.1
955.122	4158.29
955.426	4118.75
955.731	4090.05
956.035	4062.7
956.339	4049.14
956.643	4061.57
956.948	4023.61
957.252	4028.35
957.556	3991.29
957.86	3961.92
958.163	3987.68
958.467	3962.37
958.771	3934.8
959.075	3910.39
959.378	3877.4
959.682	3849.38
959.985	3887.57
960.289	3835.37
960.592	3817.74
960.896	3846.66
961.199	3776.61
961.502	3764.63
961.805	3755.14
962.108	3745.42
962.411	3740.23
962.714	3703.84
963.017	3719.89
963.32	3720.79
963.623	3645.09
963.926	3670.62
964.228	3618.87
964.531	3608.03
964.833	3652.09
965.136	3581.59
965.438	3604.64
965.741	3553.11
966.043	3540.01
966.345	3523.28
966.648	3496.84
966.95	3517.41
967.252	3428.82
967.554	3434.47
967.856	3441.03
968.158	3437.18
968.46	3433.12
968.761	3436.51
969.063	3387.24
969.365	3386.11
969.666	3380.69
969.968	3339.33
970.269	3346.11
970.571	3347.02
970.872	3292.55
971.174	3264.76
971.475	3265.66
971.776	3242.39
972.077	3198.55
972.378	3236.28
972.679	3236.74
972.98	3238.09
973.281	3188.15
973.582	3201.48
973.883	3124.2
974.183	3120.13
974.484	3139.11
974.785	3107.7
975.085	3113.35
975.386	3130.53
975.686	3082.39
975.986	3071.32
976.287	3039.91
976.587	3050.98
976.887	3045.33
977.187	3030.41
977.487	3016.4
977.787	3009.4
978.087	2983.64
978.387	2915.84
978.687	2972.56
978.987	2947.93
979.286	2902.06
979.586	2923.3
979.885	2883.07
980.185	2886.01
980.484	2885.56
980.784	2858.67
981.083	2856.63
981.382	2826.58
981.682	2811.44
981.981	2805.11
982.28	2802.4
982.579	2787.48
982.878	2787.71
983.177	2748.84
983.475	2748.84
983.774	2698.9
984.073	2711.78
984.372	2706.36
984.67	2716.3
984.969	2694.15
985.267	2679.24
985.566	2644.66
985.864	2630.43
986.162	2604.89
986.461	2583.87
986.759	2614.61
987.057	2570.77
987.355	2596.3
987.653	2575.06
987.951	2559.47
988.249	2591.56
988.547	2590.88
988.844	2556.3
989.142	2523.99
989.44	2515.17
989.737	2496.19
990.035	2517.43
990.332	2450.09
990.63	2464.33
990.927	2462.97
991.224	2415.74
991.521	2442.18
991.819	2458.45
992.116	2402.63
992.413	2415.06
992.71	2371.45
993.006	2370.09
993.303	2364.44
993.6	2378.23
993.897	2335.74
994.193	2320.83
994.49	2302.07
994.787	2306.37
995.083	2312.47
995.379	2311.56
995.676	2291
995.972	2275.63
996.268	2241.51
996.565	2259.81
996.861	2243.77
997.157	2219.59
997.453	2172.58
997.749	2203.09
998.044	2194.96
998.34	2174.17
998.636	2175.97
998.932	2168.74
999.227	2138.69
999.523	2149.76
999.818	2107.73
1000.114	2090.55
1000.409	2096.43
1000.704	2063.66
1001	2087.16
1001.295	2057.11
1001.59	2070.89
1001.885	2034.51
1002.18	2030.44
1002.475	2015.75
1002.77	2001.97
1003.065	1999.26
1003.359	1994.06
1003.654	1971.01
1003.949	1935.98
1004.243	1942.76
1004.538	1953.38
1004.832	1915.42
1005.127	1913.83
1005.421	1931.01
1005.715	1897.79
1006.009	1912.48
1006.304	1879.03
1006.598	1882.87
1006.892	1870.45
1007.186	1850.33
1007.48	1839.03
1007.773	1846.94
1008.067	1829.32
1008.361	1836.32
1008.655	1794.06
1008.948	1798.58
1009.242	1804.91
1009.535	1770.56
1009.829	1769.2
1010.122	1740.51
1010.415	1732.6
1010.708	1725.59
1011.001	1713.61
1011.295	1711.13
1011.588	1718.13
1011.881	1691.69
1012.173	1684.24
1012.466	1651.69
1012.759	1657.12
1013.052	1638.59
1013.344	1666.61
1013.637	1636.55
1013.93	1610.56
1014.222	1619.6
1014.514	1594.52
1014.807	1562.66
1015.099	1592.49
1015.391	1571.24
1015.683	1591.81
1015.976	1571.24
1016.268	1549.55
1016.56	1527.63
1016.851	1526.95
1017.143	1509.55
1017.435	1514.52
1017.727	1501.87
1018.018	1493.28
1018.31	1498.25
1018.602	1462.09
1018.893	1441.08
1019.185	1463
1019.476	1470
1019.767	1463.68
1020.058	1421.87
1020.35	1408.99
1020.641	1404.47
1020.932	1402.66
1021.223	1403.11
1021.514	1371.48
1021.804	1387.07
1022.095	1350.91
1022.386	1386.39
1022.677	1353.4
1022.967	1359.27
1023.258	1334.87
1023.548	1326.05
1023.839	1310.46
1024.129	1317.92
1024.419	1293.74
1024.709	1278.37
1025	1279.27
1025.29	1256.9
1025.58	1247.18
1025.87	1246.96
1026.16	1258.48
1026.449	1248.09
1026.739	1259.84
1027.029	1228.2
1027.319	1222.55
1027.608	1221.42
1027.898	1196.56
1028.187	1194.08
1028.477	1166.06
1028.766	1163.57
1029.055	1171.93
1029.344	1180.07
1029.634	1150.46
1029.923	1166.96
1030.212	1155.89
1030.501	1150.24
1030.79	1110.01
1031.078	1118.37
1031.367	1092.39
1031.656	1133.06
1031.945	1098.94
1032.233	1102.33
1032.522	1085.61
1032.81	1064.59
1033.099	1061.2
1033.387	1066.4
1033.675	1064.36
1033.963	1049.68
1034.251	1044.25
1034.54	1032.05
1034.828	1025.95
1035.116	1040.64
1035.403	1027.08
1035.691	995.44
1035.979	998.15
1036.267	1001.77
1036.554	989.34
1036.842	981.65
1037.129	980.07
1037.417	991.37
1037.704	950.24
1037.992	941.2
1038.279	951.15
1038.566	945.72
1038.853	945.72
1039.14	945.72
